 Created: 19-Jan-2021
 $NMID
 ID='D:\BASISSIMULATI'
 FMTDAT='(8E13.5)'
 VOLUME=   1.00000E+00
 TRAMP=   1.00000E+00
 $END
 +2.38426E+01 +1.56231E+00 +2.08972E+01 +1.06436E+01 +1.41360E+01 +1.72366E+01 +5.27339E+00 +1.98050E+01
 -3.44122E+00 +1.78697E+01 -9.82479E+00 +1.21333E+01 -1.23429E+01 +4.28568E+00 -1.05132E+01 -3.45636E+00
 -5.02139E+00 -8.94748E+00 +2.47842E+00 -1.06857E+01 +9.82151E+00 -8.20263E+00 +1.49190E+01 -2.16976E+00
 +1.63119E+01 +5.80365E+00 +1.35447E+01 +1.36185E+01 +7.26001E+00 +1.92529E+01 -1.00109E+00 +2.12927E+01
 -9.23134E+00 +1.92828E+01 -1.54982E+01 +1.38127E+01 -1.84440E+01 +6.32091E+00 -1.76132E+01 -1.31494E+00
 -1.35267E+01 -7.28647E+00 -7.49633E+00 -1.03191E+01 -1.24023E+00 -9.97209E+00 +3.58645E+00 -6.70308E+00
 +5.81660E+00 -1.69293E+00 +5.04185E+00 +3.50767E+00 +1.66693E+00 +7.40512E+00 -3.25201E+00 +8.94534E+00
 -8.32722E+00 +7.75387E+00 -1.22208E+01 +4.18081E+00 -1.39829E+01 -8.45669E-01 -1.32605E+01 -6.10308E+00
 -1.03343E+01 -1.04089E+01 -5.98884E+00 -1.29130E+01 -1.26667E+00 -1.32766E+01 +2.81772E+00 -1.17004E+01
 +5.52484E+00 -8.81390E+00 +6.53824E+00 -5.46726E+00 +5.98693E+00 -2.49428E+00 +4.35208E+00 -5.10168E-01
 +2.29801E+00 +2.06993E-01 +4.81962E-01 -2.67476E-01 -6.04443E-01 -1.57988E+00 -7.25925E-01 -3.23023E+00
 +8.56406E-02 -4.71726E+00 +1.58854E+00 -5.65611E+00 +3.42821E+00 -5.84320E+00 +5.23999E+00 -5.26256E+00
 +6.72894E+00 -4.04552E+00 +7.71133E+00 -2.40654E+00 +8.11732E+00 -5.79515E-01 +7.96670E+00 +1.22758E+00
 +7.33479E+00 +2.85305E+00 +6.32427E+00 +4.18119E+00 +5.05065E+00 +5.13246E+00 +3.64071E+00 +5.65639E+00
 +2.23555E+00 +5.73443E+00 +9.87789E-01 +5.39265E+00 +4.56212E-02 +4.71629E+00 -4.76657E-01 +3.85528E+00
 -5.33972E-01 +3.01095E+00 -1.78619E-01 +2.40091E+00 +4.32336E-01 +2.20785E+00 +1.05890E+00 +2.52583E+00
 +1.42866E+00 +3.32148E+00 +1.30513E+00 +4.42511E+00 +5.55726E-01 +5.55942E+00 -8.01273E-01 +6.40170E+00
 -2.58684E+00 +6.66512E+00 -4.49465E+00 +6.17713E+00 -6.16163E+00 +4.93232E+00 -7.25787E+00 +3.10328E+00
 -7.57187E+00 +1.00435E+00 -7.06719E+00 -9.83574E-01 -5.89429E+00 -2.50763E+00 -4.35327E+00 -3.33140E+00
 -2.81744E+00 -3.39332E+00 -1.63791E+00 -2.81907E+00 -1.05526E+00 -1.88504E+00 -1.14159E+00 -9.43288E-01
 -1.78790E+00 -3.28697E-01 -2.73886E+00 -2.73537E-01 -3.66415E+00 -8.51774E-01 -4.24618E+00 -1.96661E+00
 -4.26031E+00 -3.38252E+00 -3.62692E+00 -4.79110E+00 -2.42353E+00 -5.89141E+00 -8.56378E-01 -6.46319E+00
 +7.98256E-01 -6.41426E+00 +2.26532E+00 -5.79213E+00 +3.33544E+00 -4.75986E+00 +3.90672E+00 -3.54589E+00
 +3.99549E+00 -2.38341E+00 +3.71680E+00 -1.45586E+00 +3.24356E+00 -8.61862E-01 +2.75735E+00 -6.05785E-01
 +2.40496E+00 -6.12653E-01 +2.27065E+00 -7.59693E-01 +2.36859E+00 -9.13554E-01 +2.65355E+00 -9.62563E-01
 +3.04330E+00 -8.36715E-01 +3.44410E+00 -5.13045E-01 +3.77182E+00 -8.73565E-03 +3.96414E+00 +6.32527E-01
 +3.98352E+00 +1.35480E+00 +3.81368E+00 +2.10008E+00 +3.45407E+00 +2.81284E+00 +2.91636E+00 +3.44025E+00
 +2.22468E+00 +3.93137E+00 +1.41879E+00 +4.23898E+00 +5.57038E-01 +4.32581E+00 -2.84719E-01 +4.17470E+00
 -1.02097E+00 +3.79925E+00 -1.57139E+00 +3.25045E+00 -1.87989E+00 +2.61478E+00 -1.93234E+00 +2.00170E+00
 -1.76715E+00 +1.52174E+00 -1.47354E+00 +1.25991E+00 -1.17579E+00 +1.25134E+00 -1.00588E+00 +1.46685E+00
 -1.07044E+00 +1.81360E+00 -1.42078E+00 +2.15275E+00 -2.03420E+00 +2.33089E+00 -2.81303E+00 +2.21829E+00
 -3.60289E+00 +1.74406E+00 -4.22684E+00 +9.18912E-01 -4.52762E+00 -1.61210E-01 -4.40739E+00 -1.33281E+00
 -3.85483E+00 -2.40024E+00 -2.95204E+00 -3.18068E+00 -1.85890E+00 -3.54776E+00 -7.77866E-01 -3.46290E+00
 +9.24278E-02 -2.98622E+00 +6.03798E-01 -2.26402E+00 +6.93859E-01 -1.49518E+00 +4.01371E-01 -8.84508E-01
 -1.42425E-01 -5.94051E-01 -7.44674E-01 -7.04042E-01 -1.19679E+00 -1.19304E+00 -1.32448E+00 -1.94205E+00
 -1.03008E+00 -2.76196E+00 -3.17094E-01 -3.43770E+00 +7.09033E-01 -3.77903E+00 +1.86403E+00 -3.66579E+00
 +2.92663E+00 -3.07713E+00 +3.68931E+00 -2.09774E+00 +4.00620E+00 -8.99565E-01 +3.82690E+00 +2.96811E-01
 +3.20839E+00 +1.27227E+00 +2.30213E+00 +1.85910E+00 +1.31922E+00 +1.97914E+00 +4.81764E-01 +1.66136E+00
 -2.85522E-02 +1.03450E+00 -1.12422E-01 +2.96603E-01 +2.24188E-01 -3.31770E-01 +8.71750E-01 -6.59619E-01
 +1.64318E+00 -5.70812E-01 +2.31817E+00 -5.19322E-02 +2.69550E+00 +8.03970E-01 +2.64119E+00 +1.81873E+00
 +2.12082E+00 +2.77068E+00 +1.20868E+00 +3.44672E+00 +7.10447E-02 +3.69265E+00 -1.07232E+00 +3.44975E+00
 -1.99945E+00 +2.76880E+00 -2.53813E+00 +1.79822E+00 -2.60595E+00 +7.48890E-01 -2.22898E+00 -1.55676E-01
 -1.53447E+00 -7.32095E-01 -7.19450E-01 -8.79942E-01 -2.84239E-03 -6.04425E-01 +4.27272E-01 -1.35084E-02
 +4.58444E-01 +7.09669E-01 +7.99001E-02 +1.35219E+00 -6.16289E-01 +1.72340E+00 -1.45893E+00 +1.70083E+00
 -2.24018E+00 +1.25896E+00 -2.76622E+00 +4.74119E-01 -2.90358E+00 -4.95371E-01 -2.60997E+00 -1.44830E+00
 -1.94254E+00 -2.18910E+00 -1.04213E+00 -2.57380E+00 -9.80175E-02 -2.54228E+00 +6.97722E-01 -2.12967E+00
 +1.19489E+00 -1.45478E+00 +1.31824E+00 -6.89204E-01 +1.08163E+00 -1.54667E-02 +5.80677E-01 +4.15611E-01
 -3.31291E-02 +5.18085E-01 -5.89982E-01 +2.87428E-01 -9.41454E-01 -2.02450E-01 -9.93174E-01 -8.19834E-01
 -7.23490E-01 -1.40765E+00 -1.84894E-01 -1.81963E+00 +5.10863E-01 -1.95199E+00 +1.21954E+00 -1.76404E+00
 +1.79646E+00 -1.28423E+00 +2.12680E+00 -6.01414E-01 +2.14806E+00 +1.55586E-01 +1.86097E+00 +8.45452E-01
 +1.32739E+00 +1.34291E+00 +6.56663E-01 +1.56303E+00 -1.67541E-02 +1.47713E+00 -5.59778E-01 +1.11772E+00
 -8.66747E-01 +5.72042E-01 -8.80430E-01 -3.47860E-02 -6.04275E-01 -5.63976E-01 -1.03412E-01 -8.90773E-01
 +5.06375E-01 -9.30673E-01 +1.08050E+00 -6.59108E-01 +1.47490E+00 -1.20127E-01 +1.57751E+00 +5.78771E-01
 +1.33543E+00 +1.28604E+00 +7.71357E-01 +1.83699E+00 -1.56853E-02 +2.09056E+00 -8.67257E-01 +1.96388E+00
 -1.59792E+00 +1.45644E+00 -2.03702E+00 +6.56664E-01 -2.07060E+00 -2.72297E-01 -1.67307E+00 -1.12628E+00
 -9.19727E-01 -1.70662E+00 +2.46859E-02 -1.86899E+00 +9.40535E-01 -1.56234E+00 +1.60406E+00 -8.47334E-01
 +1.84262E+00 +1.12137E-01 +1.58052E+00 +1.08387E+00 +8.63188E-01 +1.82171E+00 -1.47975E-01 +2.12648E+00
 -1.21037E+00 +1.89831E+00 -2.05730E+00 +1.16639E+00 -2.46381E+00 +8.74890E-02 -2.30497E+00 -1.08784E+00
 -1.59122E+00 -2.07417E+00 -4.71063E-01 -2.62108E+00 +8.00863E-01 -2.57686E+00 +1.92331E+00 -1.92952E+00
 +2.62146E+00 -8.14254E-01 +2.71541E+00 +5.15450E-01 +2.16706E+00 +1.74681E+00 +1.09304E+00 +2.58280E+00
 -2.60026E-01 +2.81500E+00 -1.57261E+00 +2.37625E+00 -2.52823E+00 +1.35999E+00 -2.89007E+00 +8.42418E-04
 -2.55962E+00 -1.37916E+00 -1.60313E+00 -2.44639E+00 -2.38829E-01 -2.93539E+00 +1.21224E+00 -2.71380E+00
 +2.40076E+00 -1.81658E+00 +3.03171E+00 -4.41276E-01 +2.93560E+00 +1.09533E+00 +2.11156E+00 +2.42954E+00
 +7.31546E-01 +3.23561E+00 -8.95828E-01 +3.30358E+00 -2.39451E+00 +2.59185E+00 -3.40776E+00 +1.24155E+00
 -3.68267E+00 -4.51532E-01 -3.13289E+00 -2.10207E+00 -1.86395E+00 -3.32343E+00 -1.54379E-01 -3.81898E+00
 +1.60478E+00 -3.45523E+00 +2.99909E+00 -2.29891E+00 +3.68873E+00 -6.07842E-01 +3.49234E+00 +1.22416E+00
 +2.43610E+00 +2.75701E+00 +7.54903E-01 +3.60873E+00 -1.15691E+00 +3.54999E+00 -2.83545E+00 +2.56535E+00
 -3.85773E+00 +8.64839E-01 -3.94649E+00 -1.15910E+00 -3.04340E+00 -3.02122E+00 -1.33109E+00 -4.25938E+00
 +8.03506E-01 -4.54910E+00 +2.85790E+00 -3.78818E+00 +4.33463E+00 -2.12894E+00 +4.86461E+00 +5.19751E-02
 +4.30227E+00 +2.24078E+00 +2.76747E+00 +3.91080E+00 +6.21886E-01 +4.65333E+00 -1.61609E+00 +4.28208E+00
 -3.39794E+00 +2.88399E+00 -4.28177E+00 +8.02025E-01 -4.04462E+00 -1.44706E+00 -2.74108E+00 -3.30021E+00
 -6.92285E-01 -4.28894E+00 +1.59263E+00 -4.15762E+00 +3.54335E+00 -2.92868E+00 +4.67124E+00 -8.97641E-01
 +4.69154E+00 +1.44103E+00 +3.59387E+00 +3.51814E+00 +1.64291E+00 +4.83226E+00 -6.90246E-01 +5.07371E+00
 -2.84786E+00 +4.19876E+00 -4.32507E+00 +2.43571E+00 -4.79324E+00 +2.22636E-01 -4.17624E+00 -1.90566E+00
 -2.66151E+00 -3.45159E+00 -6.45384E-01 -4.07497E+00 +1.37122E+00 -3.66962E+00 +2.90836E+00 -2.37916E+00
 +3.62147E+00 -5.50763E-01 +3.37667E+00 +1.35806E+00 +2.27083E+00 +2.89396E+00 +5.94987E-01 +3.71381E+00
 -1.24574E+00 +3.65715E+00 -2.83283E+00 +2.77020E+00 -3.82972E+00 +1.27997E+00 -4.04978E+00 -4.70433E-01
 -3.48410E+00 -2.10620E+00 -2.28738E+00 -3.30311E+00 -7.30581E-01 -3.84967E+00 +8.64639E-01 -3.67848E+00
 +2.19315E+00 -2.86490E+00 +3.02139E+00 -1.59900E+00 +3.22212E+00 -1.40779E-01 +2.78687E+00 +1.22999E+00
 +1.81866E+00 +2.26078E+00 +5.09930E-01 +2.76436E+00 -8.89258E-01 +2.64575E+00 -2.10930E+00 +1.91705E+00
 -2.90251E+00 +6.99489E-01 -3.08514E+00 -7.89067E-01 -2.57536E+00 -2.26268E+00 -1.42025E+00 -3.41227E+00
 +1.96568E-01 -3.96323E+00 +1.97389E+00 -3.73713E+00 +3.54138E+00 -2.70415E+00 +4.53302E+00 -1.01100E+00
 +4.67272E+00 +1.02834E+00 +3.85215E+00 +2.98479E+00 +2.17876E+00 +4.40335E+00 -2.41600E-02 +4.91232E+00
 -2.27323E+00 +4.32590E+00 -4.02972E+00 +2.71162E+00 -4.83132E+00 +3.99291E-01 -4.41856E+00 -2.07844E+00
 -2.82043E+00 -4.10549E+00 -3.71487E-01 -5.13562E+00 +2.35110E+00 -4.84075E+00 +4.66077E+00 -3.21340E+00
 +5.93436E+00 -5.91056E-01 +5.78039E+00 +2.41016E+00 +4.15633E+00 +5.04105E+00 +1.39934E+00 +6.60959E+00
 -1.84310E+00 +6.66641E+00 -4.76941E+00 +5.13485E+00 -6.62874E+00 +2.34710E+00 -6.92091E+00 -1.02764E+00
 -5.53677E+00 -4.14794E+00 -2.79880E+00 -6.21653E+00 +6.12454E-01 -6.69126E+00 +3.82926E+00 -5.43343E+00
 +6.02127E+00 -2.75178E+00 +6.61401E+00 +6.71732E-01 +5.44255E+00 +3.95641E+00 +2.79811E+00 +6.25180E+00
 -6.45855E-01 +6.96016E+00 -4.00875E+00 +5.89285E+00 -6.43249E+00 +3.31881E+00 -7.30428E+00 -1.07712E-01
 -6.41327E+00 -3.51985E+00 -4.00026E+00 -6.06463E+00 -6.88640E-01 -7.12236E+00 +2.68284E+00 -6.46131E+00
 +5.27954E+00 -4.28818E+00 +6.48357E+00 -1.18391E+00 +6.04416E+00 +2.05504E+00 +4.12884E+00 +4.62540E+00
 +1.26558E+00 +5.91958E+00 -1.80428E+00 +5.67004E+00 -4.32048E+00 +4.00076E+00 -5.69333E+00 +1.37758E+00
 -5.64014E+00 -1.52450E+00 -4.23725E+00 -3.99828E+00 -1.87998E+00 -5.47813E+00 +8.33010E-01 -5.66722E+00
