 Created: 19-Jan-2021
 $NMID
 ID='D:\BASISSIMULATI'
 FMTDAT='(8E13.5)'
 VOLUME=   1.00000E+00
 TRAMP=   1.00000E+00
 $END
 +2.63403E+01 +2.96170E-02 +2.21568E+01 +1.36403E+01 +1.10468E+01 +2.22806E+01 -2.69971E+00 +2.28770E+01
 -1.38302E+01 +1.55110E+01 -1.81958E+01 +3.35968E+00 -1.43692E+01 -8.57951E+00 -4.18093E+00 -1.54710E+01
 +8.02978E+00 -1.45456E+01 +1.71469E+01 -6.17840E+00 +1.93041E+01 +6.27847E+00 +1.34062E+01 +1.78347E+01
 +1.55068E+00 +2.38381E+01 -1.18106E+01 +2.18058E+01 -2.16307E+01 +1.23920E+01 -2.42501E+01 -8.84503E-01
 -1.88214E+01 -1.30363E+01 -7.61931E+00 -1.95701E+01 +4.87792E+00 -1.82413E+01 +1.37650E+01 -9.91151E+00
 +1.56400E+01 +1.82141E+00 +9.92771E+00 +1.20660E+01 -9.18965E-01 +1.65770E+01 -1.24113E+01 +1.34261E+01
 -1.98109E+01 +3.74802E+00 -2.00013E+01 -8.72471E+00 -1.27082E+01 -1.91458E+01 -5.92971E-01 -2.34672E+01
 +1.18081E+01 -2.00239E+01 +1.98740E+01 -1.01703E+01 +2.07082E+01 +2.27392E+00 +1.42556E+01 +1.25409E+01
 +3.29472E+00 +1.67913E+01 -7.68268E+00 +1.36090E+01 -1.42551E+01 +4.53049E+00 -1.38103E+01 -6.59101E+00
 -6.55785E+00 -1.51270E+01 +4.57805E+00 -1.75061E+01 +1.51321E+01 -1.26158E+01 +2.08686E+01 -2.22405E+00
 +1.94467E+01 +9.73412E+00 +1.13282E+01 +1.87169E+01 -4.24686E-01 +2.13605E+01 -1.13697E+01 +1.67864E+01
 -1.74358E+01 +6.92040E+00 -1.65115E+01 -4.29110E+00 -9.24868E+00 -1.24504E+01 +1.22676E+00 -1.44385E+01
 +1.05728E+01 -9.62506E+00 +1.49540E+01 -8.82472E-02 +1.25475E+01 +1.02325E+01 +4.24304E+00 +1.71068E+01
 -6.73081E+00 +1.76834E+01 -1.60958E+01 +1.16014E+01 -2.02139E+01 +1.11259E+00 -1.75087E+01 -9.82315E+00
 -9.06416E+00 -1.71048E+01 +1.82715E+00 -1.80955E+01 +1.09771E+01 -1.26369E+01 +1.49515E+01 -3.07990E+00
 +1.24052E+01 +6.66954E+00 +4.58171E+00 +1.27030E+01 -5.20943E+00 +1.26457E+01 -1.29200E+01 +6.57148E+00
 -1.53661E+01 -3.05338E+00 -1.14731E+01 -1.23671E+01 -2.67822E+00 -1.76457E+01 +7.65836E+00 -1.67658E+01
 +1.55903E+01 -1.00223E+01 +1.81374E+01 +1.17289E-02 +1.44404E+01 +9.51772E+00 +6.07099E+00 +1.49395E+01
 -3.61603E+00 +1.43699E+01 -1.08202E+01 +8.27348E+00 -1.27907E+01 -7.30952E-01 -8.88997E+00 -8.92899E+00
 -8.14156E-01 -1.29858E+01 +8.10558E+00 -1.12524E+01 +1.42345E+01 -4.39385E+00 +1.50678E+01 +4.90035E+00
 +1.02025E+01 +1.29960E+01 +1.47174E+00 +1.67513E+01 -7.79968E+00 +1.47426E+01 -1.41149E+01 +7.79951E+00
 -1.51742E+01 -1.34968E+00 -1.07557E+01 -9.17171E+00 -2.76997E+00 -1.27218E+01 +5.52229E+00 -1.07860E+01
 +1.08094E+01 -4.32791E+00 +1.10286E+01 +3.92434E+00 +6.15663E+00 +1.05776E+01 -1.81159E+00 +1.29173E+01
 -9.67599E+00 +9.96485E+00 -1.43049E+01 +2.83866E+00 -1.38634E+01 -5.71293E+00 -8.51463E+00 -1.24108E+01
 -3.27733E-01 -1.47357E+01 +7.55946E+00 -1.19012E+01 +1.21831E+01 -5.13313E+00 +1.19076E+01 +2.84386E+00
 +7.04088E+00 +8.89758E+00 -3.22094E-01 +1.07208E+01 -7.15253E+00 +7.71966E+00 -1.06926E+01 +1.21517E+00
 -9.53308E+00 -6.10872E+00 -4.14410E+00 -1.12822E+01 +3.34012E+00 -1.22203E+01 +9.98494E+00 -8.52675E+00
 +1.32180E+01 -1.62237E+00 +1.18295E+01 +5.84050E+00 +6.42214E+00 +1.10354E+01 -8.57586E-01 +1.20680E+01
 -7.18590E+00 +8.69785E+00 -1.01775E+01 +2.39831E+00 -8.80788E+00 -4.25381E+00 -3.78537E+00 -8.60918E+00
 +2.76263E+00 -8.98455E+00 +8.15254E+00 -5.30253E+00 +1.02082E+01 +9.10192E-01 +8.10454E+00 +7.15287E+00
 +2.66538E+00 +1.09496E+01 -3.99037E+00 +1.08184E+01 -9.30225E+00 +6.83216E+00 -1.12770E+01 +5.59002E-01
 -9.25465E+00 -5.58009E+00 -4.13646E+00 -9.27373E+00 +2.00162E+00 -9.21856E+00 +6.74642E+00 -5.60365E+00
 +8.29751E+00 -5.78012E-04 +6.15581E+00 +5.28439E+00 +1.28728E+00 +8.13034E+00 -4.29022E+00 +7.42773E+00
 -8.32191E+00 +3.48947E+00 -9.20458E+00 -2.10425E+00 -6.59922E+00 -7.15315E+00 -1.53468E+00 -9.71105E+00
 +4.02596E+00 -8.83969E+00 +7.97329E+00 -4.95006E+00 +8.87679E+00 +3.91785E-01 +6.52379E+00 +5.10489E+00
 +1.96879E+00 +7.41774E+00 -2.91326E+00 +6.54965E+00 -6.18169E+00 +2.98668E+00 -6.58976E+00 -1.74474E+00
 -4.05198E+00 -5.70427E+00 +3.55434E-01 -7.30827E+00 +4.84805E+00 -5.93918E+00 +7.65048E+00 -2.16010E+00
 +7.68953E+00 +2.53810E+00 +4.99283E+00 +6.34452E+00 +6.45986E-01 +7.84291E+00 -3.66184E+00 +6.55063E+00
 -6.31354E+00 +3.07677E+00 -6.39019E+00 -1.15042E+00 -4.00454E+00 -4.46668E+00 -2.21224E-01 -5.62751E+00
 +3.39160E+00 -4.27812E+00 +5.39163E+00 -1.06022E+00 +5.02095E+00 +2.67366E+00 +2.47789E+00 +5.41338E+00
 -1.19392E+00 +6.08619E+00 -4.54242E+00 +4.45989E+00 -6.28742E+00 +1.20322E+00 -5.81232E+00 -2.40714E+00
 -3.37858E+00 -5.00561E+00 +1.03027E-02 -5.67109E+00 +3.02840E+00 -4.26599E+00 +4.55534E+00 -1.45628E+00
 +4.10216E+00 +1.58232E+00 +1.97287E+00 +3.64400E+00 -8.89997E-01 +3.96339E+00 -3.30182E+00 +2.49335E+00
 -4.30878E+00 -1.09848E-01 -3.54901E+00 -2.77489E+00 -1.36591E+00 -4.45229E+00 +1.35896E+00 -4.52179E+00
 +3.57460E+00 -3.01256E+00 +4.47696E+00 -5.59266E-01 +3.80750E+00 +1.87552E+00 +1.92357E+00 +3.39186E+00
 -3.75058E-01 +3.49721E+00 -2.18213E+00 +2.27298E+00 -2.84277E+00 +3.07752E-01 -2.19191E+00 -1.56329E+00
 -5.86879E-01 -2.59905E+00 +1.26600E+00 -2.43498E+00 +2.61004E+00 -1.20014E+00 +2.93666E+00 +5.66651E-01
 +2.16634E+00 +2.15523E+00 +6.48883E-01 +2.97281E+00 -1.00450E+00 +2.76573E+00 -2.17887E+00 +1.69148E+00
 -2.49448E+00 +2.23967E-01 -1.93379E+00 -1.05785E+00 -8.15199E-01 -1.70444E+00 +3.63218E-01 -1.55839E+00
 +1.13647E+00 -7.86536E-01 +1.25171E+00 +2.19618E-01 +7.44808E-01 +1.02283E+00 -1.06617E-01 +1.31863E+00
 -9.22259E-01 +1.04096E+00 -1.38395E+00 +3.59285E-01 -1.35558E+00 -4.19975E-01 -9.13282E-01 -9.96097E-01
 -2.83431E-01 -1.19578E+00 +2.74117E-01 -1.02459E+00 +5.80465E-01 -6.34504E-01 +5.99663E-01 -2.32253E-01
 +4.26961E-01 +2.28469E-02 +2.17981E-01 +8.30457E-02 +9.96415E-02 +1.24653E-02 +1.08662E-01 -6.93824E-02
 +1.86186E-01 -6.64455E-02 +2.26875E-01 +3.60166E-02 +1.52791E-01 +1.64989E-01 -2.98339E-02 +2.07161E-01
 -2.23540E-01 +8.39437E-02 -2.88711E-01 -1.87723E-01 -1.25082E-01 -4.84691E-01 +2.57079E-01 -6.28228E-01
 +7.16805E-01 -4.75229E-01 +1.03097E+00 -5.91967E-03 +9.95241E-01 +6.38858E-01 +5.32739E-01 +1.19709E+00
 -2.43520E-01 +1.39252E+00 -1.05140E+00 +1.06546E+00 -1.54470E+00 +2.67327E-01 -1.46330E+00 -7.30710E-01
 -7.63635E-01 -1.52965E+00 +3.33013E-01 -1.76453E+00 +1.40572E+00 -1.27041E+00 +1.99555E+00 -1.78145E-01
 +1.80144E+00 +1.11016E+00 +8.27067E-01 +2.06710E+00 -5.90495E-01 +2.25472E+00 -1.89362E+00 +1.52079E+00
 -2.52199E+00 +8.98229E-02 -2.15047E+00 -1.49927E+00 -8.46528E-01 -2.59460E+00 +9.26194E-01 -2.69682E+00
 +2.47140E+00 -1.68057E+00 +3.13369E+00 +1.24896E-01 +2.57446E+00 +2.04000E+00 +9.34469E-01 +3.29268E+00
 -1.19264E+00 +3.33190E+00 -2.97668E+00 +2.06926E+00 -3.67874E+00 -5.62294E-02 -2.96077E+00 -2.22789E+00
 -1.04740E+00 -3.56568E+00 +1.33518E+00 -3.48437E+00 +3.23032E+00 -1.94972E+00 +3.83119E+00 +4.78297E-01
 +2.81916E+00 +2.84410E+00 +5.19163E-01 +4.16740E+00 -2.20095E+00 +3.84254E+00 -4.25785E+00 +1.90379E+00
 -4.78352E+00 -9.58210E-01 -3.48791E+00 -3.64692E+00 -8.02217E-01 -5.08681E+00 +2.26503E+00 -4.66004E+00
 +4.51258E+00 -2.47547E+00 +5.02495E+00 +6.46529E-01 +3.55398E+00 +3.47858E+00 +6.44548E-01 +4.86776E+00
 -2.55647E+00 +4.20515E+00 -4.74231E+00 +1.69255E+00 -4.96945E+00 -1.70935E+00 -3.05265E+00 -4.64186E+00
 +3.32621E-01 -5.88293E+00 +3.89200E+00 -4.84531E+00 +6.21220E+00 -1.83543E+00 +6.32568E+00 +2.03957E+00
 +4.11404E+00 +5.29055E+00 +3.82290E-01 +6.63236E+00 -3.43645E+00 +5.50571E+00 -5.83788E+00 +2.32287E+00
 -5.84854E+00 -1.67038E+00 -3.43188E+00 -4.87209E+00 +4.71010E-01 -5.95839E+00 +4.29270E+00 -4.42389E+00
 +6.45236E+00 -8.08070E-01 +5.99121E+00 +3.49199E+00 +2.97534E+00 +6.75865E+00 -1.50198E+00 +7.63390E+00
 -5.73012E+00 +5.67339E+00 -8.04912E+00 +1.54843E+00 -7.51432E+00 -3.19393E+00 -4.29090E+00 -6.72752E+00
 +3.86426E-01 -7.66975E+00 +4.68290E+00 -5.64378E+00 +6.88418E+00 -1.45095E+00 +6.08507E+00 +3.22453E+00
 +2.56963E+00 +6.47109E+00 -2.27631E+00 +6.91096E+00 -6.49578E+00 +4.26463E+00 -8.33165E+00 -5.11881E-01
 -6.93465E+00 -5.58103E+00 -2.72366E+00 -8.93805E+00 +2.75315E+00 -9.20723E+00 +7.41101E+00 -6.20367E+00
 +9.44770E+00 -1.03094E+00 +8.06594E+00 +4.33341E+00 +3.80878E+00 +7.80907E+00 -1.63346E+00 +8.03964E+00
 -6.07768E+00 +4.94572E+00 -7.71113E+00 -2.21670E-01 -5.82231E+00 -5.35777E+00 -1.10551E+00 -8.33031E+00
 +4.59035E+00 -7.83180E+00 +8.97845E+00 -3.91803E+00 +1.02383E+01 +1.98760E+00 +7.75054E+00 +7.63505E+00
 +2.36520E+00 +1.08276E+01 -3.90981E+00 +1.02955E+01 -8.68712E+00 +6.21507E+00 -1.01415E+01 +1.60812E-01
 -7.74228E+00 -5.50022E+00 -2.48223E+00 -8.53830E+00 +3.49758E+00 -7.75033E+00 +7.74517E+00 -3.45352E+00
 +8.47171E+00 +2.61924E+00 +5.27597E+00 +7.98974E+00 -6.73215E-01 +1.04119E+01 -7.07708E+00 +8.77147E+00
 -1.14036E+01 +3.54903E+00 -1.18906E+01 -3.34526E+00 -8.25677E+00 -9.30741E+00 -1.83477E+00 -1.20618E+01
 +4.93557E+00 -1.05666E+01 +9.46038E+00 -5.44142E+00 +1.00182E+01 +1.26043E+00 +6.45257E+00 +6.85137E+00
 +2.50924E-01 +9.07153E+00 -6.02917E+00 +6.99345E+00 -9.76672E+00 +1.40808E+00 -9.32182E+00 -5.46812E+00
 -4.70329E+00 -1.08569E+01 +2.41094E+00 -1.25164E+01 +9.31661E+00 -9.64013E+00 +1.33417E+01 -3.19721E+00
 +1.29052E+01 +4.42863E+00 +8.15505E+00 +1.03652E+01 +9.27691E-01 +1.23825E+01 -5.96267E+00 +9.78026E+00
 -9.83016E+00 +3.67852E+00 -9.18359E+00 -3.41185E+00 -4.32920E+00 -8.57487E+00 +2.73436E+00 -9.64633E+00
 +9.09462E+00 -6.08385E+00 +1.20754E+01 +7.98226E-01 +1.03053E+01 +8.32915E+00 +4.27991E+00 +1.35263E+01
 -3.81160E+00 +1.42748E+01 -1.09329E+01 +1.01753E+01 -1.43917E+01 +2.72011E+00 -1.29062E+01 -5.27808E+00
 -7.12224E+00 -1.07865E+01 +6.28411E-01 -1.17490E+01 +7.24037E+00 -7.90551E+00 +1.00608E+01 -9.06949E-01
 +7.94651E+00 +6.32780E+00 +1.73072E+00 +1.07631E+01 -6.09059E+00 +1.04543E+01 -1.23353E+01 +5.33324E+00
 -1.43933E+01 -2.74361E+00 -1.12688E+01 -1.07106E+01 -3.99284E+00 -1.54939E+01 +4.76416E+00 -1.52263E+01
 +1.17320E+01 -9.99468E+00 +1.43260E+01 -1.81961E+00 +1.16702E+01 +6.13022E+00 +4.95176E+00 +1.07836E+01
 -3.03961E+00 +1.03824E+01 -9.00984E+00 +5.18433E+00 -1.04663E+01 -2.62755E+00 -6.71497E+00 -9.80051E+00
