 Created: 19-Jan-2021
 $NMID
 ID='D:\BASISSIMULATI'
 FMTDAT='(8E13.5)'
 VOLUME=   1.00000E+00
 TRAMP=   1.00000E+00
 $END
 +3.00972E+01 -1.06760E-01 +2.98493E+01 +3.80499E+00 +2.89722E+01 +7.62700E+00 +2.74905E+01 +1.12521E+01
 +2.54476E+01 +1.45793E+01 +2.29039E+01 +1.75166E+01 +1.99347E+01 +1.99846E+01 +1.66285E+01 +2.19183E+01
 +1.30832E+01 +2.32695E+01 +9.40389E+00 +2.40082E+01 +5.69858E+00 +2.41232E+01 +2.07538E+00 +2.36227E+01
 -1.36116E+00 +2.25340E+01 -4.51338E+00 +2.09018E+01 -7.29346E+00 +1.87874E+01 -9.62620E+00 +1.62663E+01
 -1.14513E+01 +1.34254E+01 -1.27250E+01 +1.03608E+01 -1.34216E+01 +7.17379E+00 -1.35337E+01 +3.96823E+00
 -1.30725E+01 +8.46836E-01 -1.20670E+01 -2.09200E+00 -1.05630E+01 -4.75729E+00 -8.62138E+00 -7.06833E+00
 -6.31574E+00 -8.95711E+00 -3.73003E+00 -1.03703E+01 -9.55592E-01 -1.12709E+01 +1.91193E+00 -1.16389E+01
 +4.77575E+00 -1.14719E+01 +7.54114E+00 -1.07848E+01 +1.01184E+01 -9.60900E+00 +1.24260E+01 -7.99108E+00
 +1.43925E+01 -5.99098E+00 +1.59595E+01 -3.67980E+00 +1.70826E+01 -1.13722E+00 +1.77331E+01 +1.55132E+00
 +1.78984E+01 +4.29755E+00 +1.75821E+01 +7.01339E+00 +1.68036E+01 +9.61388E+00 +1.55972E+01 +1.20200E+01
 +1.40103E+01 +1.41611E+01 +1.21019E+01 +1.59772E+01 +9.94019E+00 +1.74209E+01 +7.59986E+00 +1.84584E+01
 +5.15968E+00 +1.90706E+01 +2.69956E+00 +1.92534E+01 +2.97768E-01 +1.90174E+01 -1.97173E+00 +1.83874E+01
 -4.04172E+00 +1.74009E+01 -5.85397E+00 +1.61068E+01 -7.36102E+00 +1.45632E+01 -8.52767E+00 +1.28353E+01
 -9.33191E+00 +1.09930E+01 -9.76544E+00 +9.10808E+00 -9.83365E+00 +7.25177E+00 -9.55516E+00 +5.49215E+00
 -8.96083E+00 +3.89179E+00 -8.09245E+00 +2.50558E+00 -7.00100E+00 +1.37891E+00 -5.74459E+00 +5.46182E-01
 -4.38624E+00 +2.97707E-02 -2.99148E+00 -1.60592E-01 -1.62589E+00 -2.79621E-02 -3.52719E-01 +4.12131E-01
 +7.69450E-01 +1.13245E+00 +1.68876E+00 +2.09520E+00 +2.36193E+00 +3.25360E+00 +2.75572E+00 +4.55368E+00
 +2.84809E+00 +5.93639E+00 +2.62886E+00 +7.33981E+00 +2.09998E+00 +8.70147E+00 +1.27535E+00 +9.96068E+00
 +1.80243E-01 +1.10607E+01 -1.14974E+00 +1.19509E+01 -2.67001E+00 +1.25884E+01 -4.32869E+00 +1.29397E+01
 -6.06856E+00 +1.29820E+01 -7.82909E+00 +1.27038E+01 -9.54873E+00 +1.21051E+01 -1.11671E+01 +1.11978E+01
 -1.26271E+01 +1.00051E+01 -1.38771E+01 +8.56018E+00 -1.48725E+01 +6.90572E+00 -1.55777E+01 +5.09186E+00
 -1.59671E+01 +3.17458E+00 -1.60257E+01 +1.21368E+00 -1.57502E+01 -7.29270E-01 -1.51488E+01 -2.59317E+00
 -1.42409E+01 -4.31944E+00 -1.30562E+01 -5.85413E+00 -1.16342E+01 -7.14970E+00 -1.00222E+01 -8.16670E+00
 -8.27409E+00 -8.87508E+00 -6.44838E+00 -9.25521E+00 -4.60608E+00 -9.29852E+00 -2.80875E+00 -9.00778E+00
 -1.11634E+00 -8.39694E+00 +4.14798E-01 -7.49065E+00 +1.73379E+00 -6.32337E+00 +2.79694E+00 -4.93821E+00
 +3.56916E+00 -3.38543E+00 +4.02513E+00 -1.72072E+00 +4.15004E+00 -3.37234E-03 +3.94007E+00 +1.70577E+00
 +3.40245E+00 +3.34630E+00 +2.55514E+00 +4.86022E+00 +1.42620E+00 +6.19387E+00 +5.27826E-02 +7.29965E+00
 -1.52013E+00 +8.13753E+00 -3.24129E+00 +8.67630E+00 -5.05485E+00 +8.89454E+00 -6.90226E+00 +8.78118E+00
 -8.72417E+00 +8.33585E+00 -1.04624E+01 +7.56871E+00 -1.20617E+01 +6.50006E+00 -1.34716E+01 +5.15959E+00
 -1.46481E+01 +3.58526E+00 -1.55546E+01 +1.82207E+00 -1.61635E+01 -7.95603E-02 -1.64565E+01 -2.06541E+00
 -1.64254E+01 -4.07928E+00 -1.60721E+01 -6.06480E+00 -1.54084E+01 -7.96724E+00 -1.44553E+01 -9.73524E+00
 -1.32424E+01 -1.13224E+01 -1.18068E+01 -1.26886E+01 -1.01916E+01 -1.38012E+01 -8.44469E+00 -1.46362E+01
 -6.61684E+00 -1.51784E+01 -4.76018E+00 -1.54218E+01 -2.92648E+00 -1.53701E+01 -1.16552E+00 -1.50357E+01
 +4.76532E-01 -1.44395E+01 +1.95843E+00 -1.36099E+01 +3.24511E+00 -1.25818E+01 +4.30868E+00 -1.13953E+01
 +5.12913E+00 -1.00942E+01 +5.69475E+00 -8.72460E+00 +6.00235E+00 -7.33324E+00 +6.05712E+00 -5.96605E+00
 +5.87222E+00 -4.66661E+00 +5.46816E+00 -3.47485E+00 +4.87190E+00 -2.42581E+00 +4.11582E+00 -1.54862E+00
 +3.23645E+00 -8.65726E-01 +2.27320E+00 -3.92321E-01 +1.26693E+00 -1.36070E-01 +2.58571E-01 -9.70645E-02
 -7.12255E-01 -2.68043E-01 -1.60850E+00 -6.34852E-01 -2.39687E+00 -1.17713E+00 -3.04882E+00 -1.86915E+00
 -3.54139E+00 -2.68091E+00 -3.85776E+00 -3.57920E+00 -3.98771E+00 -4.52885E+00 -3.92770E+00 -5.49400E+00
 -3.68080E+00 -6.43933E+00 -3.25643E+00 -7.33121E+00 -2.66976E+00 -8.13883E+00 -1.94108E+00 -8.83516E+00
 -1.09495E+00 -9.39774E+00 -1.59186E-01 -9.80931E+00 +8.36177E-01 -1.00583E+01 +1.85996E+00 -1.01388E+01
 +2.88099E+00 -1.00511E+01 +3.86913E+00 -9.80085E+00 +4.79630E+00 -9.39923E+00 +5.63740E+00 -8.86204E+00
 +6.37104E+00 -8.20920E+00 +6.98021E+00 -7.46383E+00 +7.45268E+00 -6.65140E+00 +7.78130E+00 -5.79876E+00
 +7.96407E+00 -4.93316E+00 +8.00407E+00 -4.08127E+00 +7.90912E+00 -3.26832E+00 +7.69145E+00 -2.51721E+00
 +7.36705E+00 -1.84786E+00 +6.95503E+00 -1.27654E+00 +6.47684E+00 -8.15467E-01 +5.95544E+00 -4.72492E-01
 +5.41448E+00 -2.50979E-01 +4.87739E+00 -1.49822E-01 +4.36665E+00 -1.63637E-01 +3.90296E+00 -2.83085E-01
 +3.50463E+00 -4.95324E-01 +3.18698E+00 -7.84570E-01 +2.96193E+00 -1.13274E+00 +2.83769E+00 -1.52016E+00
 +2.81858E+00 -1.92629E+00 +2.90503E+00 -2.33046E+00 +3.09364E+00 -2.71259E+00 +3.37751E+00 -3.05387E+00
 +3.74648E+00 -3.33734E+00 +4.18768E+00 -3.54844E+00 +4.68598E+00 -3.67538E+00 +5.22462E+00 -3.70949E+00
 +5.78582E+00 -3.64539E+00 +6.35140E+00 -3.48103E+00 +6.90339E+00 -3.21769E+00 +7.42465E+00 -2.85979E+00
 +7.89934E+00 -2.41461E+00 +8.31346E+00 -1.89200E+00 +8.65516E+00 -1.30391E+00 +8.91511E+00 -6.63941E-01
 +9.08660E+00 +1.31378E-02 +9.16573E+00 +7.11941E-01 +9.15136E+00 +1.41696E+00 +9.04501E+00 +2.11305E+00
 +8.85072E+00 +2.78589E+00 +8.57477E+00 +3.42240E+00 +8.22537E+00 +4.01102E+00 +7.81234E+00 +4.54205E+00
 +7.34667E+00 +5.00777E+00 +6.84017E+00 +5.40262E+00 +6.30503E+00 +5.72318E+00 +5.75345E+00 +5.96813E+00
 +5.19731E+00 +6.13819E+00 +4.64778E+00 +6.23591E+00 +4.11513E+00 +6.26550E+00 +3.60845E+00 +6.23255E+00
 +3.13551E+00 +6.14376E+00 +2.70265E+00 +6.00669E+00 +2.31475E+00 +5.82944E+00 +1.97521E+00 +5.62041E+00
 +1.68601E+00 +5.38803E+00 +1.44780E+00 +5.14052E+00 +1.26005E+00 +4.88576E+00 +1.12114E+00 +4.63105E+00
 +1.02860E+00 +4.38308E+00 +9.79203E-01 +4.14779E+00 +9.69168E-01 +3.93040E+00 +9.94304E-01 +3.73532E+00
 +1.05015E+00 +3.56624E+00 +1.13206E+00 +3.42615E+00 +1.23536E+00 +3.31739E+00 +1.35532E+00 +3.24173E+00
 +1.48729E+00 +3.20042E+00 +1.62665E+00 +3.19426E+00 +1.76885E+00 +3.22364E+00 +1.90938E+00 +3.28857E+00
 +2.04377E+00 +3.38872E+00 +2.16756E+00 +3.52339E+00 +2.27628E+00 +3.69149E+00 +2.36544E+00 +3.89153E+00
 +2.43058E+00 +4.12154E+00 +2.46727E+00 +4.37900E+00 +2.47117E+00 +4.66085E+00 +2.43811E+00 +4.96334E+00
 +2.36418E+00 +5.28208E+00 +2.24590E+00 +5.61194E+00 +2.08029E+00 +5.94713E+00 +1.86509E+00 +6.28113E+00
 +1.59885E+00 +6.60688E+00 +1.28115E+00 +6.91677E+00 +9.12694E-01 +7.20286E+00 +4.95435E-01 +7.45700E+00
 +3.26903E-02 +7.67110E+00 -4.70823E-01 +7.83732E+00 -1.00898E+00 +7.94833E+00 -1.57428E+00 +7.99761E+00
 -2.15794E+00 +7.97971E+00 -2.75008E+00 +7.89048E+00 -3.33987E+00 +7.72736E+00 -3.91585E+00 +7.48954E+00
 -4.46617E+00 +7.17815E+00 -4.97900E+00 +6.79635E+00 -5.44284E+00 +6.34939E+00 -5.84694E+00 +5.84458E+00
 -6.18167E+00 +5.29116E+00 -6.43890E+00 +4.70017E+00 -6.61235E+00 +4.08419E+00 -6.69788E+00 +3.45698E+00
 -6.69375E+00 +2.83317E+00 -6.60078E+00 +2.22776E+00 -6.42248E+00 +1.65571E+00 -6.16502E+00 +1.13141E+00
 -5.83718E+00 +6.68183E-01 -5.45014E+00 +2.77839E-01 -5.01723E+00 -2.98240E-02 -4.55357E+00 -2.47404E-01
 -4.07564E+00 -3.70240E-01 -3.60075E+00 -3.96669E-01 -3.14649E+00 -3.28192E-01 -2.73019E+00 -1.69534E-01
 -2.36823E+00 +7.14110E-02 -2.07556E+00 +3.83740E-01 -1.86503E+00 +7.53823E-01 -1.74696E+00 +1.16568E+00
 -1.72866E+00 +1.60147E+00 -1.81412E+00 +2.04204E+00 -2.00372E+00 +2.46758E+00 -2.29417E+00 +2.85826E+00
 -2.67847E+00 +3.19495E+00 -3.14608E+00 +3.45989E+00 -3.68318E+00 +3.63740E+00 -4.27305E+00 +3.71441E+00
 -4.89662E+00 +3.68107E+00 -5.53305E+00 +3.53116E+00 -6.16041E+00 +3.26238E+00 -6.75647E+00 +2.87657E+00
 -7.29944E+00 +2.37974E+00 -7.76880E+00 +1.78196E+00 -8.14600E+00 +1.09711E+00 -8.41523E+00 +3.42468E-01
 -8.56401E+00 -4.61802E-01 -8.58373E+00 -1.29331E+00 -8.47007E+00 -2.12820E+00 -8.22321E+00 -2.94194E+00
 -7.84797E+00 -3.71020E+00 -7.35371E+00 -4.40972E+00 -6.75413E+00 -5.01920E+00 -6.06684E+00 -5.52006E+00
 -5.31285E+00 -5.89719E+00 -4.51585E+00 -6.13959E+00 -3.70144E+00 -6.24082E+00 -2.89625E+00 -6.19934E+00
 -2.12696E+00 -6.01870E+00 -1.41938E+00 -5.70747E+00 -7.97498E-01 -5.27907E+00 -2.82520E-01 -4.75139E+00
 +1.07911E-01 -4.14621E+00 +3.60451E-01 -3.48850E+00 +4.66630E-01 -2.80559E+00 +4.23266E-01 -2.12621E+00
 +2.32697E-01 -1.47947E+00 -9.71866E-02 -8.93848E-01 -5.53106E-01 -3.96069E-01 -1.11676E+00 -1.01432E-02
 -1.76538E+00 +2.43592E-01 -2.47246E+00 +3.49291E-01 -3.20862E+00 +2.96282E-01 -3.94267E+00 +7.95751E-02
 -4.64260E+00 -2.99827E-01 -5.27682E+00 -8.34821E-01 -5.81526E+00 -1.51232E+00 -6.23053E+00 -2.31359E+00
 -6.49893E+00 -3.21479E+00 -6.60144E+00 -4.18769E+00 -6.52448E+00 -5.20061E+00 -6.26053E+00 -6.21949E+00
 -5.80858E+00 -7.20898E+00 -5.17428E+00 -8.13376E+00 -4.36990E+00 -8.95974E+00 -3.41409E+00 -9.65532E+00
 -2.33130E+00 -1.01926E+01 -1.15111E+00 -1.05483E+01 +9.27077E-02 -1.07050E+01 +1.36331E+00 -1.06516E+01
 +2.62199E+00 -1.03838E+01 +3.82946E+00 -9.90479E+00 +4.94728E+00 -9.22492E+00 +5.93914E+00 -8.36166E+00
 +6.77223E+00 -7.33911E+00 +7.41841E+00 -6.18731E+00 +7.85529E+00 -4.94133E+00 +8.06716E+00 -3.64014E+00
 +8.04558E+00 -2.32535E+00 +7.78992E+00 -1.03985E+00 +7.30744E+00 +1.73679E-01 +6.61325E+00 +1.27420E+00
 +5.72992E+00 +2.22377E+00 +4.68682E+00 +2.98891E+00 +3.51928E+00 +3.54178E+00 +2.26748E+00 +3.86131E+00
 +9.75141E-01 +3.93395E+00 -3.11869E-01 +3.75432E+00 -1.54708E+00 +3.32550E+00 -2.68497E+00 +2.65907E+00
 -3.68252E+00 +1.77488E+00 -4.50074E+00 +7.00476E-01 -5.10600E+00 -5.29699E-01 -5.47127E+00 -1.87535E+00
 -5.57714E+00 -3.29159E+00 -5.41256E+00 -4.73042E+00 -4.97533E+00 -6.14226E+00 -4.27232E+00 -7.47758E+00
