 Created: 19-Jan-2021
 $NMID
 ID='D:\BASISSIMULATI'
 FMTDAT='(8E13.5)'
 VOLUME=   1.00000E+00
 TRAMP=   1.00000E+00
 $END
 +1.65579E+01 +7.63253E-01 +1.55600E+01 +5.64116E+00 +1.29870E+01 +9.87042E+00 +9.18900E+00 +1.29331E+01
 +4.68077E+00 +1.44818E+01 +6.44102E-02 +1.43883E+01 -4.06051E+00 +1.27587E+01 -7.18503E+00 +9.91265E+00
 -8.96387E+00 +6.33151E+00 -9.26248E+00 +2.58269E+00 -8.17148E+00 -7.67446E-01 -5.98663E+00 -3.23875E+00
 -3.15824E+00 -4.50750E+00 -2.18131E-01 -4.45138E+00 +2.30416E+00 -3.16270E+00 +3.96291E+00 -9.28617E-01
 +4.46314E+00 +1.81804E+00 +3.70294E+00 +4.56905E+00 +1.78528E+00 +6.82109E+00 -1.00170E+00 +8.15345E+00
 -4.23232E+00 +8.29142E+00 -7.41080E+00 +7.14594E+00 -1.00479E+01 +4.82415E+00 -1.17345E+01 +1.60994E+00
 -1.22020E+01 -2.08174E+00 -1.13586E+01 -5.76911E+00 -9.29980E+00 -8.97610E+00 -6.28907E+00 -1.13019E+01
 -2.71498E+00 -1.24771E+01 +9.69263E-01 -1.23986E+01 +4.31368E+00 -1.11381E+01 +6.93627E+00 -8.92492E+00
 +8.57518E+00 -6.10574E+00 +9.12071E+00 -3.08857E+00 +8.62333E+00 -2.80280E-01 +7.27740E+00 +1.97290E+00
 +5.38419E+00 +3.43291E+00 +3.30062E+00 +3.99884E+00 +1.38236E+00 +3.71371E+00 -7.01331E-02 +2.74926E+00
 -8.54220E-01 +1.37186E+00 -8.90679E-01 -1.04118E-01 -2.29081E-01 -1.36785E+00 +9.66815E-01 -2.16044E+00
 +2.45042E+00 -2.31284E+00 +3.93478E+00 -1.76808E+00 +5.13912E+00 -5.85218E-01 +5.83210E+00 +1.07464E+00
 +5.86540E+00 +2.97721E+00 +5.19302E+00 +4.85356E+00 +3.87414E+00 +6.44197E+00 +2.05992E+00 +7.52651E+00
 -3.26790E-02 +7.96678E+00 -2.15555E+00 +7.71470E+00 -4.06672E+00 +6.81666E+00 -5.56451E+00 +5.40160E+00
 -6.51362E+00 +3.65756E+00 -6.85981E+00 +1.80117E+00 -6.63153E+00 +4.49047E-02 -5.92942E+00 -1.43269E+00
 -4.90580E+00 -2.50956E+00 -3.73817E+00 -3.13265E+00 -2.60097E+00 -3.31915E+00 -1.64015E+00 -3.14724E+00
 -9.53954E-01 -2.73829E+00 -5.82607E-01 -2.23409E+00 -5.07574E-01 -1.77277E+00 -6.59903E-01 -1.46722E+00
 -9.35660E-01 -1.38906E+00 -1.21558E+00 -1.56023E+00 -1.38568E+00 -1.95280E+00 -1.35555E+00 -2.49655E+00
 -1.07190E+00 -3.09252E+00 -5.25507E-01 -3.63009E+00 +2.48936E-01 -4.00480E+00 +1.17952E+00 -4.13425E+00
 +2.16900E+00 -3.96974E+00 +3.10968E+00 -3.50247E+00 +3.89905E+00 -2.76352E+00 +4.45379E+00 -1.81821E+00
 +4.72031E+00 -7.56021E-01 +4.68057E+00 +3.22363E-01 +4.35276E+00 +1.31870E+00 +3.78695E+00 +2.14974E+00
 +3.05684E+00 +2.75702E+00 +2.24873E+00 +3.11275E+00 +1.44966E+00 +3.22125E+00 +7.36004E-01 +3.11612E+00
 +1.64294E-01 +2.85363E+00 -2.34905E-01 +2.50354E+00 -4.59288E-01 +2.13861E+00 -5.33224E-01 +1.82421E+00
 -5.02655E-01 +1.60936E+00 -4.27245E-01 +1.52034E+00 -3.70879E-01 +1.55758E+00 -3.91752E-01 +1.69613E+00
 -5.33343E-01 +1.88971E+00 -8.17431E-01 +2.07765E+00 -1.24007E+00 +2.19402E+00 -1.77108E+00 +2.17759E+00
 -2.35726E+00 +1.98146E+00 -2.92886E+00 +1.58105E+00 -3.40877E+00 +9.79273E-01 -3.72305E+00 +2.08102E-01
 -3.81171E+00 -6.73797E-01 -3.63800E+00 -1.58731E+00 -3.19511E+00 -2.44232E+00 -2.50900E+00 -3.14916E+00
 -1.63693E+00 -3.63074E+00 -6.61493E-01 -3.83349E+00 +3.19127E-01 -3.73570E+00 +1.20363E+00 -3.35182E+00
 +1.90108E+00 -2.73190E+00 +2.34355E+00 -1.95602E+00 +2.49614E+00 -1.12420E+00 +2.36262E+00 -3.43058E-01
 +1.98582E+00 +2.89023E-01 +1.44234E+00 +6.96111E-01 +8.32126E-01 +8.36204E-01 +2.64279E-01 +7.08127E-01
 -1.59083E-01 +3.52625E-01 -3.58454E-01 -1.52782E-01 -2.89749E-01 -7.04656E-01 +4.77911E-02 -1.18882E+00
 +6.09974E-01 -1.49775E+00 +1.31284E+00 -1.54756E+00 +2.04410E+00 -1.29207E+00 +2.67935E+00 -7.31599E-01
 +3.10075E+00 +8.49571E-02 +3.21541E+00 +1.06542E+00 +2.97063E+00 +2.08638E+00 +2.36365E+00 +3.01037E+00
 +1.44416E+00 +3.70586E+00 +3.09044E-01 +4.06686E+00 -9.10126E-01 +4.02944E+00 -2.06509E+00 +3.58235E+00
 -3.01185E+00 +2.77017E+00 -3.63146E+00 +1.68823E+00 -3.84756E+00 +4.69953E-01 -3.63789E+00 -7.31592E-01
 -3.03812E+00 -1.76532E+00 -2.13713E+00 -2.50366E+00 -1.06453E+00 -2.86089E+00 +2.78644E-02 -2.80539E+00
 +9.87903E-01 -2.36405E+00 +1.68501E+00 -1.61811E+00 +2.02890E+00 -6.91033E-01 +1.98238E+00 +2.69761E-01
 +1.56621E+00 +1.11461E+00 +8.55543E-01 +1.71348E+00 -3.17209E-02 +1.97483E+00 -9.52642E-01 +1.85856E+00
 -1.76049E+00 +1.38140E+00 -2.32626E+00 +6.13788E-01 -2.55737E+00 -3.30980E-01 -2.41070E+00 -1.31374E+00
 -1.89831E+00 -2.18993E+00 -1.08498E+00 -2.83049E+00 -7.82791E-02 -3.14014E+00 +9.87378E-01 -3.07044E+00
 +1.97011E+00 -2.62581E+00 +2.74056E+00 -1.86201E+00 +3.19956E+00 -8.77273E-01 +3.29104E+00 +2.02126E-01
 +3.00859E+00 +1.23985E+00 +2.39483E+00 +2.10818E+00 +1.53416E+00 +2.70487E+00 +5.40056E-01 +2.96582E+00
 -4.60993E-01 +2.87206E+00 -1.34657E+00 +2.45035E+00 -2.01403E+00 +1.76771E+00 -2.39275E+00 +9.20835E-01
 -2.45158E+00 +2.23386E-02 -2.20073E+00 -8.14382E-01 -1.68821E+00 -1.48940E+00 -9.91805E-01 -1.92795E+00
 -2.07760E-01 -2.08818E+00 +5.62005E-01 -1.96439E+00 +1.22250E+00 -1.58558E+00 +1.69659E+00 -1.01003E+00
 +1.93302E+00 -3.16814E-01 +1.91097E+00 +4.04553E-01 +1.64084E+00 +1.06483E+00 +1.16154E+00 +1.58511E+00
 +5.34946E-01 +1.90509E+00 -1.61788E-01 +1.98897E+00 -8.45041E-01 +1.82849E+00 -1.43382E+00 +1.44310E+00
 -1.85831E+00 +8.77474E-01 -2.06710E+00 +1.96497E-01 -2.03264E+00 -5.21504E-01 -1.75433E+00 -1.19294E+00
 -1.25917E+00 -1.73774E+00 -5.99498E-01 -2.08811E+00 +1.51719E-01 -2.19630E+00 +9.08159E-01 -2.04084E+00
 +1.57922E+00 -1.63022E+00 +2.08024E+00 -1.00357E+00 +2.34276E+00 -2.27841E-01 +2.32376E+00 +6.08414E-01
 +2.01250E+00 +1.40450E+00 +1.43404E+00 +2.05922E+00 +6.48388E-01 +2.48362E+00 -2.54804E-01 +2.61316E+00
 -1.16593E+00 +2.41768E+00 -1.96855E+00 +1.90758E+00 -2.55436E+00 +1.13499E+00 -2.83834E+00 +1.89346E-01
 -2.77153E+00 -8.12550E-01 -2.34989E+00 -1.74095E+00 -1.61726E+00 -2.47035E+00 -6.61802E-01 -2.89720E+00
 +3.94182E-01 -2.95550E+00 +1.40986E+00 -2.62793E+00 +2.24508E+00 -1.95055E+00 +2.78045E+00 -1.00993E+00
 +2.93544E+00 +6.72317E-02 +2.68155E+00 +1.13089E+00 +2.04845E+00 +2.02865E+00 +1.12169E+00 +2.62801E+00
 +3.20706E-02 +2.83658E+00 -1.06225E+00 +2.61707E+00 -1.99840E+00 +1.99456E+00 -2.63288E+00 +1.05466E+00
 -2.86364E+00 -6.75250E-02 -2.64653E+00 -1.20627E+00 -2.00344E+00 -2.18930E+00 -1.02076E+00 -2.86355E+00
 +1.62097E-01 -3.11871E+00 +1.37249E+00 -2.90481E+00 +2.42986E+00 -2.24108E+00 +3.17278E+00 -1.21442E+00
 +3.48369E+00 +3.23920E-02 +3.30733E+00 +1.32135E+00 +2.65999E+00 +2.46547E+00 +1.62801E+00 +3.29687E+00
 +3.55551E-01 +3.69225E+00 -9.76634E-01 +3.59186E+00 -2.17816E+00 +3.00897E+00 -3.07770E+00 +2.02814E+00
 -3.54885E+00 +7.92722E-01 -3.52929E+00 -5.16857E-01 -3.03012E+00 -1.71043E+00 -2.13390E+00 -2.61698E+00
 -9.81713E-01 -3.11060E+00 +2.48713E-01 -3.12934E+00 +1.37055E+00 -2.68417E+00 +2.21661E+00 -1.85664E+00
 +2.66490E+00 -7.85532E-01 +2.65692E+00 +3.55198E-01 +2.20597E+00 +1.38381E+00 +1.39419E+00 +2.13911E+00
 +3.58854E-01 +2.50526E+00 -7.29795E-01 +2.42924E+00 -1.69557E+00 +1.92825E+00 -2.38395E+00 +1.08605E+00
 -2.68597E+00 +3.88575E-02 -2.55448E+00 -1.04673E+00 -2.01059E+00 -2.00022E+00 -1.13923E+00 -2.67390E+00
 -7.47339E-02 -2.96546E+00 +1.02097E+00 -2.83303E+00 +1.98408E+00 -2.30044E+00 +2.67443E+00 -1.45206E+00
 +2.99658E+00 -4.18261E-01 +2.91350E+00 +6.46006E-01 +2.45057E+00 +1.58589E+00 +1.68982E+00 +2.27064E+00
 +7.55293E-01 +2.61310E+00 -2.07663E-01 +2.58175E+00 -1.05585E+00 +2.20353E+00 -1.67050E+00 +1.55739E+00
 -1.97490E+00 +7.59781E-01 -1.94474E+00 -5.52196E-02 -1.60969E+00 -7.57908E-01 -1.04628E+00 -1.24334E+00
 -3.63682E-01 -1.44700E+00 +3.15297E-01 -1.35329E+00 +8.74541E-01 -9.95912E-01 +1.22306E+00 -4.50192E-01
 +1.30858E+00 +1.80888E-01 +1.12432E+00 +7.84568E-01 +7.08101E-01 +1.25697E+00 +1.34321E-01 +1.51951E+00
 -4.99627E-01 +1.53044E+00 -1.09001E+00 +1.28997E+00 -1.54365E+00 +8.38347E-01 -1.79227E+00 +2.47606E-01
 -1.80212E+00 -3.91391E-01 -1.57759E+00 -9.84222E-01 -1.15846E+00 -1.44792E+00 -6.11665E-01 -1.72329E+00
 -1.92816E-02 -1.78267E+00 +5.35222E-01 -1.63220E+00 +9.79986E-01 -1.30852E+00 +1.26502E+00 -8.70880E-01
 +1.36821E+00 -3.90170E-01 +1.29643E+00 +6.29963E-02 +1.08191E+00 +4.29226E-01 +7.74871E-01 +6.68551E-01
 +4.33932E-01 +7.64783E-01 +1.16057E-01 +7.25646E-01 -1.32251E-01 +5.79040E-01 -2.81174E-01 +3.66427E-01
 -3.20429E-01 +1.34724E-01 -2.58646E-01 -7.17824E-02 -1.19737E-01 -2.18150E-01 +6.27571E-02 -2.83153E-01
 +2.52150E-01 -2.60855E-01 +4.14701E-01 -1.59496E-01 +5.24322E-01 +1.74911E-03 +5.65289E-01 +1.97237E-01
 +5.32823E-01 +3.99567E-01 +4.31810E-01 +5.83645E-01 +2.74281E-01 +7.29472E-01 +7.64059E-02 +8.23419E-01
 -1.44260E-01 +8.58109E-01 -3.70751E-01 +8.31333E-01 -5.87641E-01 +7.44597E-01 -7.81072E-01 +6.01876E-01
 -9.38232E-01 +4.09014E-01 -1.04679E+00 +1.73911E-01 -1.09485E+00 -9.26424E-02 -1.07171E+00 -3.75927E-01
 -9.69577E-01 -6.56610E-01 -7.85990E-01 -9.10995E-01 -5.26325E-01 -1.11260E+00 -2.05754E-01 -1.23517E+00
 +1.50149E-01 -1.25675E+00 +5.06695E-01 -1.16430E+00 +8.23499E-01 -9.57786E-01 +1.05979E+00 -6.52795E-01
 +1.18090E+00 -2.80854E-01 +1.16493E+00 +1.13124E-01 +1.00817E+00 +4.76246E-01 +7.28185E-01 +7.55311E-01
 +3.63487E-01 +9.05649E-01 -3.04809E-02 +8.99621E-01 -3.88911E-01 +7.33171E-01 -6.47718E-01 +4.28979E-01
 -7.54623E-01 +3.52699E-02 -6.79347E-01 -3.80016E-01 -4.20970E-01 -7.39093E-01 -1.08772E-02 -9.66893E-01
 +4.89663E-01 -1.00435E+00 +9.97348E-01 -8.20118E-01 +1.41921E+00 -4.18481E-01 +1.66773E+00 +1.58168E-01
 +1.67623E+00 +8.33246E-01 +1.41200E+00 +1.50606E+00 +8.84532E-01 +2.06678E+00 +1.47317E-01 +2.41407E+00
 -7.07765E-01 +2.47256E+00 -1.56285E+00 +2.20713E+00 -2.29170E+00 +1.63130E+00 -2.77973E+00 +8.08124E-01
 -2.94333E+00 -1.57230E-01 -2.74508E+00 -1.13225E+00 -2.20205E+00 -1.97718E+00 -1.38553E+00 -2.56731E+00
 -4.11681E-01 -2.81381E+00 +5.75555E-01 -2.67947E+00 +1.42696E+00 -2.18663E+00 +2.01226E+00 -1.41545E+00
 +2.24210E+00 -4.92499E-01 +2.08399E+00 +4.28720E-01 +1.56937E+00 +1.19250E+00 +7.90143E-01 +1.66680E+00
 -1.14961E-01 +1.76606E+00 -9.82328E-01 +1.46692E+00 -1.65029E+00 +8.13992E-01 -1.98645E+00 -8.55139E-02
 -1.91099E+00 -1.07795E+00 -1.41183E+00 -1.98762E+00 -5.48860E-01 -2.64561E+00 +5.53647E-01 -2.91842E+00
