 Created: 19-Jan-2021
 $NMID
 ID='D:\BASISSIMULATI'
 FMTDAT='(8E13.5)'
 VOLUME=   1.00000E+00
 TRAMP=   1.00000E+00
 $END
 +4.44232E+01 +3.93825E-01 +3.71546E+01 +2.24228E+01 +1.89298E+01 +3.60815E+01 -3.05093E+00 +3.67134E+01
 -2.03802E+01 +2.49985E+01 -2.69680E+01 +6.48103E+00 -2.14628E+01 -1.09689E+01 -7.53945E+00 -2.05930E+01
 +8.00677E+00 -1.95392E+01 +1.84340E+01 -9.79748E+00 +2.00275E+01 +3.07131E+00 +1.35351E+01 +1.27499E+01
 +3.46599E+00 +1.51739E+01 -4.34528E+00 +1.03328E+01 -5.71098E+00 +2.05343E+00 -1.73915E-01 -4.08414E+00
 +8.78505E+00 -3.66792E+00 +1.55049E+01 +4.20305E+00 +1.50226E+01 +1.62938E+01 +5.69040E+00 +2.66517E+01
 -9.73830E+00 +2.94243E+01 -2.51160E+01 +2.17629E+01 -3.35854E+01 +5.43187E+00 -3.07323E+01 -1.36712E+01
 -1.67566E+01 -2.79296E+01 +3.36285E+00 -3.13007E+01 +2.18346E+01 -2.20172E+01 +3.13103E+01 -3.47178E+00
 +2.79987E+01 +1.71322E+01 +1.32638E+01 +3.17836E+01 -6.99431E+00 +3.50008E+01 -2.48879E+01 +2.60433E+01
 -3.38784E+01 +9.04790E+00 -3.14290E+01 -8.92384E+00 -1.98306E+01 -2.10164E+01 -4.89710E+00 -2.34730E+01
 +6.81324E+00 -1.70177E+01 +1.09505E+01 -6.16867E+00 +7.15831E+00 +3.12337E+00 -1.07902E+00 +6.36518E+00
 -8.38424E+00 +2.58085E+00 -1.02598E+01 -5.39753E+00 -5.34822E+00 -1.25018E+01 +3.89248E+00 -1.40773E+01
 +1.24128E+01 -8.32439E+00 +1.51046E+01 +2.65064E+00 +9.43053E+00 +1.36967E+01 -3.11484E+00 +1.90114E+01
 -1.74414E+01 +1.49548E+01 -2.70408E+01 +1.96039E+00 -2.69321E+01 -1.53820E+01 -1.60295E+01 -3.01604E+01
 +2.16977E+00 -3.61008E+01 +2.09272E+01 -3.03337E+01 +3.30660E+01 -1.47216E+01 +3.40047E+01 +4.86022E+00
 +2.36818E+01 +2.09810E+01 +6.52788E+00 +2.77681E+01 -1.04848E+01 +2.33069E+01 -2.08336E+01 +1.02906E+01
 -2.11458E+01 -5.32715E+00 -1.24342E+01 -1.70290E+01 +6.31271E-01 -2.05493E+01 +1.20177E+01 -1.55547E+01
 +1.71043E+01 -5.48256E+00 +1.46636E+01 +4.31574E+00 +7.17530E+00 +9.21186E+00 -6.12208E-01 +7.46935E+00
 -4.14267E+00 +9.44875E-01 -1.34582E+00 -5.97229E+00 +6.32758E+00 -8.64467E+00 +1.46143E+01 -4.58639E+00
 +1.85480E+01 +5.17792E+00 +1.49633E+01 +1.64571E+01 +4.19783E+00 +2.37995E+01 -9.83562E+00 +2.30819E+01
 -2.12788E+01 +1.35717E+01 -2.49373E+01 -1.51687E+00 -1.86836E+01 -1.62665E+01 -4.54690E+00 -2.45706E+01
 +1.20285E+01 -2.27988E+01 +2.44489E+01 -1.14191E+01 +2.77639E+01 +5.15516E+00 +2.07505E+01 +2.04294E+01
 +6.37565E+00 +2.85754E+01 -9.54874E+00 +2.68475E+01 -2.08987E+01 +1.66148E+01 -2.38207E+01 +2.58942E+00
 -1.82284E+01 -9.35919E+00 -7.58877E+00 -1.47916E+01 +2.84473E+00 -1.25239E+01 +8.49994E+00 -4.90259E+00
 +7.51034E+00 +3.53298E+00 +1.38816E+00 +8.32775E+00 -5.91630E+00 +7.23956E+00 -1.00779E+01 +1.23034E+00
 -8.58004E+00 -6.11895E+00 -1.97702E+00 -1.04615E+01 +6.35826E+00 -8.90629E+00 +1.18766E+01 -1.54039E+00
 +1.11034E+01 +8.48036E+00 +3.42907E+00 +1.63332E+01 -8.42011E+00 +1.77795E+01 -1.94777E+01 +1.12209E+01
 -2.47203E+01 -1.40563E+00 -2.13508E+01 -1.53299E+01 -1.01370E+01 -2.49559E+01 +4.81246E+00 -2.62843E+01
 +1.77527E+01 -1.86665E+01 +2.37337E+01 -5.10589E+00 +2.06830E+01 +9.02517E+00 +1.02255E+01 +1.82762E+01
 -3.10157E+00 +1.93992E+01 -1.38640E+01 +1.26187E+01 -1.80593E+01 +1.36232E+00 -1.47264E+01 -9.38456E+00
 -6.15052E+00 -1.53222E+01 +3.37338E+00 -1.46588E+01 +9.60534E+00 -8.71147E+00 +1.02841E+01 -1.06476E+00
 +6.03552E+00 +4.27005E+00 -1.15916E-01 +4.80533E+00 -4.35813E+00 +7.22116E-01 -4.03352E+00 -5.30927E+00
 +1.01833E+00 -9.52107E+00 +8.35272E+00 -8.97215E+00 +1.40935E+01 -3.07935E+00 +1.48306E+01 +5.97938E+00
 +9.34201E+00 +1.41939E+01 -6.79205E-01 +1.75618E+01 -1.12537E+01 +1.39893E+01 -1.78322E+01 +4.36833E+00
 -1.73285E+01 -7.68240E+00 -9.54596E+00 -1.73152E+01 +2.65475E+00 -2.05293E+01 +1.45299E+01 -1.59003E+01
 +2.14518E+01 -5.19513E+00 +2.08473E+01 +7.39356E+00 +1.32274E+01 +1.70423E+01 +1.87384E+00 +2.03196E+01
 -8.64849E+00 +1.65472E+01 -1.44667E+01 +7.92715E+00 -1.39814E+01 -1.57787E+00 -8.37298E+00 -8.06653E+00
 -8.57655E-01 -9.38350E+00 +4.91677E+00 -5.91981E+00 +6.56735E+00 -2.08752E-01 +3.98445E+00 +4.44154E+00
 -7.85351E-01 +5.60323E+00 -4.68395E+00 +2.88424E+00 -5.23886E+00 -1.94812E+00 -1.83833E+00 -5.91099E+00
 +3.92491E+00 -6.34813E+00 +9.00297E+00 -2.32361E+00 +1.03785E+01 +4.80551E+00 +6.58217E+00 +1.19218E+01
 -1.48069E+00 +1.55500E+01 -1.07974E+01 +1.34855E+01 -1.75079E+01 +5.89397E+00 -1.85964E+01 -4.63413E+00
 -1.32534E+01 -1.41170E+01 -3.29099E+00 -1.88516E+01 +7.57744E+00 -1.69832E+01 +1.52783E+01 -9.28241E+00
 +1.70588E+01 +1.20175E+00 +1.25777E+01 +1.04472E+01 +3.94674E+00 +1.51345E+01 -5.26183E+00 +1.39598E+01
 -1.15742E+01 +8.02976E+00 -1.30382E+01 +2.10505E-01 -9.89767E+00 -6.23281E+00 -4.26236E+00 -9.06784E+00
 +1.01921E+00 -7.95673E+00 +3.72902E+00 -4.39382E+00 +3.24926E+00 -8.02646E-01 +7.04131E-01 +7.41328E-01
 -1.75259E+00 -4.59619E-01 -2.12838E+00 -3.42671E+00 +3.30176E-01 -6.06037E+00 +4.69736E+00 -6.26432E+00
 +8.77890E+00 -3.08426E+00 +1.01782E+01 +2.69604E+00 +7.50986E+00 +8.79977E+00 +1.18121E+00 +1.24447E+01
 -6.64212E+00 +1.16244E+01 -1.28913E+01 +6.09207E+00 -1.48982E+01 -2.41216E+00 -1.15683E+01 -1.08098E+01
 -3.89661E+00 -1.59318E+01 +5.40241E+00 -1.58223E+01 +1.29908E+01 -1.05318E+01 +1.62491E+01 -2.06555E+00
 +1.42871E+01 +6.47356E+00 +8.20575E+00 +1.21593E+01 +5.29277E-01 +1.33765E+01 -5.90950E+00 +1.03433E+01
 -9.12369E+00 +4.83440E+00 -8.66958E+00 -7.20253E-01 -5.61887E+00 -4.32457E+00 -1.87626E+00 -5.19952E+00
 +7.97740E-01 -3.93501E+00 +1.58805E+00 -1.99327E+00 +8.89407E-01 -8.46707E-01 -5.52612E-02 -1.18813E+00
 +7.00974E-02 -2.59575E+00 +1.86872E+00 -3.80119E+00 +4.83050E+00 -3.41241E+00 +7.51842E+00 -7.24531E-01
 +8.25615E+00 +3.78905E+00 +5.98796E+00 +8.55850E+00 +8.95833E-01 +1.15530E+01 -5.53178E+00 +1.11868E+01
 -1.10330E+01 +7.08183E+00 -1.34840E+01 +3.33452E-01 -1.17919E+01 -6.85411E+00 -6.37682E+00 -1.20127E+01
 +9.66510E-01 -1.33763E+01 +7.76506E+00 -1.05578E+01 +1.18211E+01 -4.66058E+00 +1.20205E+01 +2.20496E+00
 +8.66942E+00 +7.77215E+00 +3.25183E+00 +1.04674E+01 -2.25283E+00 +9.90973E+00 -6.17114E+00 +6.88578E+00
 -7.71274E+00 +2.86218E+00 -7.10408E+00 -7.07471E-01 -5.27481E+00 -2.95865E+00 -3.29182E+00 -3.83495E+00
 -1.83187E+00 -3.89603E+00 -9.38372E-01 -3.85657E+00 -1.50651E-01 -4.11412E+00 +1.09405E+00 -4.50968E+00
 +3.01584E+00 -4.43431E+00 +5.24653E+00 -3.21538E+00 +6.91864E+00 -5.75697E-01 +7.05435E+00 +3.07807E+00
 +5.06864E+00 +6.69772E+00 +1.14092E+00 +8.96737E+00 -3.73348E+00 +8.84942E+00 -8.05466E+00 +6.05858E+00
 -1.03692E+01 +1.24782E+00 -9.82937E+00 -4.18305E+00 -6.52577E+00 -8.58102E+00 -1.45690E+00 -1.06318E+01
 +3.84221E+00 -9.81012E+00 +7.85214E+00 -6.51783E+00 +9.57572E+00 -1.87516E+00 +8.80851E+00 +2.72432E+00
 +6.09528E+00 +6.10046E+00 +2.42961E+00 +7.62423E+00 -1.14891E+00 +7.29993E+00 -3.88583E+00 +5.60619E+00
 -5.45532E+00 +3.20807E+00 -5.90124E+00 +6.88213E-01 -5.45411E+00 -1.59175E+00 -4.34503E+00 -3.47188E+00
 -2.71524E+00 -4.87308E+00 -6.50830E-01 -5.67561E+00 +1.70402E+00 -5.68394E+00 +4.04608E+00 -4.70511E+00
 +5.90614E+00 -2.69632E+00 +6.76352E+00 +1.06959E-01 +6.24009E+00 +3.16696E+00 +4.28406E+00 +5.75814E+00
 +1.25152E+00 +7.18596E+00 -2.16226E+00 +7.02268E+00 -5.12237E+00 +5.26184E+00 -6.90766E+00 +2.32813E+00
 -7.12022E+00 -1.05765E+00 -5.77704E+00 -4.09993E+00 -3.26411E+00 -6.14826E+00 -1.89944E-01 -6.84063E+00
 +2.79196E+00 -6.13849E+00 +5.12620E+00 -4.27134E+00 +6.43152E+00 -1.63989E+00 +6.51782E+00 +1.27377E+00
 +5.37738E+00 +3.96692E+00 +3.18057E+00 +5.95843E+00 +2.80959E-01 +6.84038E+00 -2.79426E+00 +6.35772E+00
 -5.40409E+00 +4.50426E+00 -6.92248E+00 +1.59181E+00 -6.91536E+00 -1.76131E+00 -5.30554E+00 -4.75380E+00
 -2.44912E+00 -6.61963E+00 +9.30249E-01 -6.87166E+00 +3.94745E+00 -5.47491E+00 +5.83621E+00 -2.87002E+00
 +6.19665E+00 +1.75031E-01 +5.10856E+00 +2.83283E+00 +3.06251E+00 +4.49675E+00 +7.40254E-01 +4.95759E+00
 -1.25664E+00 +4.40622E+00 -2.60810E+00 +3.27227E+00 -3.32051E+00 +1.98510E+00 -3.60688E+00 +7.79302E-01
 -3.67712E+00 -3.58583E-01 -3.55956E+00 -1.58019E+00 -3.05923E+00 -2.96882E+00 -1.88639E+00 -4.35968E+00
 +1.06017E-01 -5.30421E+00 +2.70583E+00 -5.22565E+00 +5.28083E+00 -3.71111E+00 +6.94190E+00 -8.01877E-01
 +6.88815E+00 +2.87589E+00 +4.79126E+00 +6.23873E+00 +1.03577E+00 +8.11354E+00 -3.32080E+00 +7.70715E+00
 -6.88648E+00 +4.97450E+00 -8.45225E+00 +7.08187E-01 -7.47550E+00 -3.71484E+00 -4.31615E+00 -6.84338E+00
 -1.10212E-01 -7.71132E+00 +3.67780E+00 -6.20708E+00 +5.83741E+00 -3.08959E+00 +5.87819E+00 +3.58741E-01
 +4.17608E+00 +2.88925E+00 +1.73909E+00 +3.80489E+00 -2.94848E-01 +3.20641E+00 -1.19137E+00 +1.85974E+00
 -9.33294E-01 +7.54834E-01 -1.67101E-01 +5.72942E-01 +1.89204E-01 +1.32522E+00 -5.17817E-01 +2.34529E+00
 -2.26707E+00 +2.64795E+00 -4.29548E+00 +1.48438E+00 -5.42767E+00 -1.18155E+00 -4.66188E+00 -4.52609E+00
 -1.73547E+00 -7.14943E+00 +2.61502E+00 -7.68619E+00 +6.85419E+00 -5.47161E+00 +9.25206E+00 -9.46894E-01
 +8.63926E+00 +4.40988E+00 +4.97286E+00 +8.63050E+00 -5.59366E-01 +1.00623E+01 -5.96952E+00 +8.08239E+00
 -9.26738E+00 +3.39672E+00 -9.28408E+00 -2.22528E+00 -6.15779E+00 -6.67751E+00 -1.26065E+00 -8.39316E+00
 +3.40594E+00 -6.98357E+00 +6.08030E+00 -3.35603E+00 +5.98458E+00 +7.40119E-01 +3.60950E+00 +3.52940E+00
 +4.15438E-01 +4.01238E+00 -1.90539E+00 +2.38428E+00 -2.25620E+00 -1.21843E-01 -6.59696E-01 -1.88951E+00
 +1.77273E+00 -1.75658E+00 +3.41610E+00 +3.68713E-01 +2.97948E+00 +3.41872E+00 +2.16352E-01 +5.66264E+00
 -3.85674E+00 +5.56475E+00 -7.36272E+00 +2.59936E+00 -8.42234E+00 -2.37784E+00 -6.07771E+00 -7.40579E+00
 -8.42035E-01 -1.02456E+01 +5.40557E+00 -9.39834E+00 +1.01660E+01 -4.84640E+00 +1.13928E+01 +1.83825E+00
 +8.41515E+00 +8.09702E+00 +2.28439E+00 +1.14519E+01 -4.62828E+00 +1.05705E+01 -9.62339E+00 +5.85132E+00
 -1.08205E+01 -7.41438E-01 -7.95135E+00 -6.52878E+00 -2.44312E+00 -9.27736E+00 +3.24697E+00 -8.15053E+00
 +6.74264E+00 -4.02317E+00 +6.80021E+00 +9.77748E-01 +3.82186E+00 +4.49039E+00 -4.00395E-01 +5.02028E+00
 -3.58470E+00 +2.61499E+00 -4.07796E+00 -1.20219E+00 -1.66367E+00 -4.20728E+00 +2.32737E+00 -4.59250E+00
