 Created: 19-Jan-2021
 $NMID
 ID='D:\BASISSIMULATI'
 FMTDAT='(8E13.5)'
 VOLUME=   1.00000E+00
 TRAMP=   1.00000E+00
 $END
 +9.62586E+01 +4.82412E-01 +9.23032E+01 +2.59413E+01 +8.14910E+01 +4.92485E+01 +6.47191E+01 +6.85657E+01
 +4.33688E+01 +8.23885E+01 +1.91891E+01 +8.96705E+01 -5.84988E+00 +8.99088E+01 -2.97222E+01 +8.31829E+01
 -5.05152E+01 +7.01456E+01 -6.65881E+01 +5.19652E+01 -7.67078E+01 +3.02243E+01 -8.01495E+01 +6.78538E+00
 -7.67535E+01 -1.63681E+01 -6.69347E+01 -3.72988E+01 -5.16434E+01 -5.42780E+01 -3.22812E+01 -6.59302E+01
 -1.05787E+01 -7.13464E+01 +1.15532E+01 -7.01573E+01 +3.21868E+01 -6.25606E+01 +4.95417E+01 -4.92998E+01
 +6.21347E+01 -3.15967E+01 +6.89048E+01 -1.10441E+01 +6.92998E+01 +1.05331E+01 +6.33206E+01 +3.12354E+01
 +5.15171E+01 +4.92512E+01 +3.49375E+01 +6.30118E+01 +1.50358E+01 +7.13241E+01 -6.45580E+00 +7.34704E+01
 -2.76768E+01 +6.92669E+01 -4.67986E+01 +5.90770E+01 -6.21812E+01 +4.37766E+01 -7.25132E+01 +2.46761E+01
 -7.69221E+01 +3.40564E+00 -7.50468E+01 -1.82265E+01 -6.70662E+01 -3.83902E+01 -5.36804E+01 -5.53909E+01
 -3.60480E+01 -6.78140E+01 -1.56838E+01 -7.46453E+01 +5.67336E+00 -7.53559E+01 +2.62117E+01 -6.99448E+01
 +4.42026E+01 -5.89358E+01 +5.81494E+01 -4.33299E+01 +6.69152E+01 -2.45157E+01 +6.98187E+01 -4.14726E+00
 +6.66909E+01 +1.59999E+01 +5.78870E+01 +3.41839E+01 +4.42524E+01 +4.88469E+01 +2.70471E+01 +5.87493E+01
 +7.83424E+00 +6.30766E+01 -1.16573E+01 +6.15077E+01 -2.96844E+01 +5.42411E+01 -4.46417E+01 +4.19760E+01
 -5.52013E+01 +2.58491E+01 -6.04280E+01 +7.33452E+00 -5.98602E+01 -1.18860E+01 -5.35497E+01 -3.00704E+01
 -4.20563E+01 -4.55691E+01 -2.63987E+01 -5.69688E+01 -7.96531E+00 -6.32163E+01 +1.16070E+01 -6.37108E+01
 +3.05756E+01 -5.83563E+01 +4.72440E+01 -4.75716E+01 +6.01101E+01 -3.22535E+01 +6.79972E+01 -1.37006E+01
 +7.01570E+01 +6.49934E+00 +6.63361E+01 +2.66062E+01 +5.67990E+01 +4.48784E+01 +4.23066E+01 +5.97233E+01
 +2.40520E+01 +6.98358E+01 +3.55859E+00 +7.43116E+01 -1.74504E+01 +7.27265E+01 -3.71996E+01 +6.51740E+01
 -5.40146E+01 +5.22588E+01 -6.64653E+01 +3.50460E+01 -7.34897E+01 +1.49709E+01 -7.44856E+01 -6.28361E+00
 -6.93628E+01 -2.69306E+01 -5.85521E+01 -4.52318E+01 -4.29687E+01 -5.96465E+01 -2.39349E+01 -6.89636E+01
 -3.06709E+00 -7.24051E+01 +1.78619E+01 -6.96935E+01 +3.70743E+01 -6.10753E+01 +5.29390E+01 -4.73003E+01
 +6.41114E+01 -2.95578E+01 +6.96480E+01 -9.37502E+00 +6.90870E+01 +1.15135E+01 +6.24878E+01 +3.13137E+01
 +5.04259E+01 +4.83259E+01 +3.39437E+01 +6.10892E+01 +1.44612E+01 +6.85070E+01 -6.34539E+00 +6.99401E+01
 -2.66868E+01 +6.52612E+01 -4.48137E+01 +5.48660E+01 -5.91659E+01 +3.96389E+01 -6.85059E+01 +2.08774E+01
 -7.20239E+01 +1.81134E-01 -6.94072E+01 -2.06847E+01 -6.08667E+01 -3.99402E+01 -4.71180E+01 -5.59426E+01
 -2.93208E+01 -6.73261E+01 -8.97953E+00 -7.31185E+01 +1.21856E+01 -7.28235E+01 +3.23847E+01 -6.64629E+01
 +4.99115E+01 -5.45737E+01 +6.32881E+01 -3.81626E+01 +7.13908E+01 -1.86188E+01 +7.35453E+01 +2.40420E+00
 +6.95835E+01 +2.31302E+01 +5.98569E+01 +4.18115E+01 +4.52058E+01 +5.68780E+01 +2.68868E+01 +6.70703E+01
 +6.46490E+00 +7.15467E+01 -1.43206E+01 +6.99537E+01 -3.37045E+01 +6.24553E+01 -5.00467E+01 +4.97174E+01
 -6.19714E+01 +3.28505E+01 -6.84839E+01 +1.33130E+01 -6.90545E+01 -7.21349E+00 -6.36626E+01 -2.69687E+01
 -5.27972E+01 -4.42640E+01 -3.74135E+01 -5.76268E+01 -1.88504E+01 -6.59255E+01 +1.28554E+00 -6.84657E+01
 +2.12576E+01 -6.50482E+01 +3.93481E+01 -5.59850E+01 +5.40058E+01 -4.20712E+01 +6.39775E+01 -2.45157E+01
 +6.84152E+01 -4.83665E+00 +6.69479E+01 +1.52691E+01 +5.97118E+01 +3.40719E+01 +4.73379E+01 +4.99578E+01
 +3.08968E+01 +6.15664E+01 +1.18058E+01 +6.79068E+01 -8.29288E+00 +6.84420E+01 -2.76737E+01 +6.31343E+01
 -4.46756E+01 +5.24467E+01 -5.78443E+01 +3.73034E+01 -6.60569E+01 +1.90089E+01 -6.86170E+01 -8.64010E-01
 -6.53141E+01 -2.06098E+01 -5.64405E+01 -3.85362E+01 -4.27657E+01 -5.31095E+01 -2.54697E+01 -6.30858E+01
 -6.04085E+00 -6.76165E+01 +1.38515E+01 -6.63211E+01 +3.25006E+01 -5.93186E+01 +4.83086E+01 -4.72166E+01
 +5.99227E+01 -3.10587E+01 +6.63510E+01 -1.22343E+01 +6.70467E+01 +7.64065E+00 +6.19540E+01 +2.68623E+01
 +5.15122E+01 +4.37849E+01 +3.66174E+01 +5.69613E+01 +1.85448E+01 +6.52662E+01 -1.16039E+00 +6.79922E+01
 -2.08161E+01 +6.49089E+01 -3.87472E+01 +5.62822E+01 -5.34280E+01 +4.28502E+01 -6.36133E+01 +2.57592E+01
 -6.84432E+01 +6.46534E+00 -6.75159E+01 -1.33911E+01 -6.09210E+01 -3.21256E+01 -4.92305E+01 -4.81538E+01
 -3.34487E+01 -6.01265E+01 -1.49251E+01 -6.70436E+01 +4.76189E+00 -6.83394E+01 +2.39403E+01 -6.39288E+01
 +4.09879E+01 -5.42136E+01 +5.44709E+01 -4.00460E+01 +6.32656E+01 -2.26550E+01 +6.66536E+01 -3.53882E+00
 +6.43819E+01 +1.56632E+01 +5.66829E+01 +3.33121E+01 +4.42525E+01 +4.79098E+01 +2.81891E+01 +5.82267E+01
 +9.89763E+00 +6.34063E+01 -9.03196E+00 +6.30377E+01 -2.69621E+01 +5.71887E+01 -4.23483E+01 +4.63990E+01
 -5.38720E+01 +3.16317E+01 -6.05528E+01 +1.41891E+01 -6.18321E+01 -4.40022E+00 -5.76198E+01 -2.25139E+01
 -4.83009E+01 -3.85760E+01 -3.47006E+01 -5.11924E+01 -1.80121E+01 -5.92706E+01 +3.06669E-01 -6.21132E+01
 +1.86603E+01 -5.94771E+01 +3.54531E+01 -5.15932E+01 +4.92271E+01 -3.91460E+01 +5.87874E+01 -2.32131E+01
 +6.33045E+01 -5.17154E+00 +6.23857E+01 +1.34211E+01 +5.61077E+01 +3.09618E+01 +4.50095E+01 +4.59402E+01
 +3.00448E+01 +5.70688E+01 +1.24996E+01 +6.33937E+01 -6.11976E+00 +6.43760E+01 -2.42166E+01 +5.99381E+01
 -4.02417E+01 +5.04695E+01 -5.28270E+01 +3.67924E+01 -6.09034E+01 +2.00904E+01 -6.37923E+01 +1.80554E+00
 -6.12642E+01 -1.64862E+01 -5.35575E+01 -3.32111E+01 -4.13577E+01 -4.69342E+01 -2.57372E+01 -5.64822E+01
 -8.06304E+00 -6.10455E+01 +1.01221E+01 -6.02472E+01 +2.72330E+01 -5.41760E+01 +4.17795E+01 -4.33780E+01
 +5.24948E+01 -2.88094E+01 +5.84454E+01 -1.17541E+01 +5.91120E+01 +6.28762E+00 +5.44346E+01 +2.37287E+01
 +4.48177E+01 +3.90323E+01 +3.10965E+01 +5.08451E+01 +1.44648E+01 +5.81141E+01 -3.62773E+00 +6.01784E+01
 -2.15997E+01 +5.68270E+01 -3.78748E+01 +4.83175E+01 -5.10172E+01 +3.53553E+01 -5.98558E+01 +1.90339E+01
 -6.35857E+01 +7.41365E-01 -6.18382E+01 -1.79578E+01 -5.47135E+01 -3.54567E+01 -4.27735E+01 -5.02437E+01
 -2.69949E+01 -6.10320E+01 -8.68627E+00 -6.68705E+01 +1.06223E+01 -6.72255E+01 +2.93097E+01 -6.20275E+01
 +4.58016E+01 -5.16779E+01 +5.87045E+01 -3.70158E+01 +6.69249E+01 -1.92473E+01 +6.97620E+01 +1.56587E-01
 +6.69682E+01 +1.95844E+01 +5.87700E+01 +3.74207E+01 +4.58495E+01 +5.21835E+01 +2.92861E+01 +6.26494E+01
 +1.04656E+01 +6.79574E+01 -9.03782E+00 +6.76817E+01 -2.75947E+01 +6.18673E+01 -4.36584E+01 +5.10262E+01
 -5.58963E+01 +3.60926E+01 -6.33018E+01 +1.83441E+01 -6.52797E+01 -7.07743E-01 -6.16951E+01 -1.94458E+01
 -5.28847E+01 -3.62845E+01 -3.96268E+01 -4.98042E+01 -2.30743E+01 -5.88716E+01 -4.65608E+00 -6.27347E+01
 +1.40451E+01 -6.10859E+01 +3.14270E+01 -5.40872E+01 +4.60045E+01 -4.23549E+01 +5.65348E+01 -2.69060E+01
 +6.21230E+01 -9.07119E+00 +6.22964E+01 +9.61944E+00 +5.70440E+01 +2.75668E+01 +4.68161E+01 +4.32387E+01
 +3.24841E+01 +5.53000E+01 +1.52660E+01 +6.27251E+01 -3.37862E+00 +6.48843E+01 -2.18734E+01 +6.15958E+01
 -3.86589E+01 +5.31395E+01 -5.23257E+01 +4.02316E+01 -6.17324E+01 +2.39622E+01 -6.61024E+01 +5.70104E+00
 -6.50877E+01 -1.30197E+01 -5.87966E+01 -3.06366E+01 -4.77823E+01 -4.56875E+01 -3.29935E+01 -5.69356E+01
 -1.56920E+01 -6.34731E+01 +2.65679E+00 -6.47968E+01 +2.05094E+01 -6.08485E+01 +3.63766E+01 -5.20173E+01
 +4.89500E+01 -3.91034E+01 +5.72124E+01 -2.32477E+01 +6.05233E+01 -5.83151E+00 +5.86707E+01 +1.16430E+01
 +5.18872E+01 +2.76824E+01 +4.08263E+01 +4.09304E+01 +2.65041E+01 +5.02831E+01 +1.02092E+01 +5.49832E+01
 -6.61027E+00 +5.46824E+01 -2.24724E+01 +4.94695E+01 -3.59901E+01 +3.98599E+01 -4.59907E+01 +2.67490E+01
 -5.16165E+01 +1.13323E+01 -5.23979E+01 -4.99995E+00 -4.82923E+01 -2.07840E+01 -3.96863E+01 -3.46105E+01
 -2.73605E+01 -4.52471E+01 -1.24201E+01 -5.17449E+01 +3.80188E+00 -5.35207E+01 +1.98615E+01 -5.04066E+01
 +3.43299E+01 -4.26645E+01 +4.59177E+01 -3.09618E+01 +5.35871E+01 -1.63136E+01 +5.66423E+01 +6.12456E-03
 +5.47897E+01 +1.65759E+01 +4.81634E+01 +3.19500E+01 +3.73134E+01 +4.47841E+01 +2.31583E+01 +5.39526E+01
 +6.90535E+00 +5.86456E+01 -1.00538E+01 +5.84400E+01 -2.62641E+01 +5.33363E+01 -4.03325E+01 +4.37586E+01
 -5.10493E+01 +3.05184E+01 -5.74923E+01 +1.47446E+01 -5.91076E+01 -2.21366E+00 -5.57569E+01 -1.89038E+01
 -4.77307E+01 -3.38951E+01 -3.57231E+01 -4.59022E+01 -2.07722E+01 -5.38965E+01 -4.17117E+00 -5.71953E+01
 +1.26434E+01 -5.55207E+01 +2.82154E+01 -4.90247E+01 +4.11947E+01 -3.82762E+01 +5.04539E+01 -2.42125E+01
 +5.51858E+01 -8.05896E+00 +5.49738E+01 +8.77587E+00 +4.98283E+01 +2.48218E+01 +4.01867E+01 +3.86734E+01
 +2.68764E+01 +4.91114E+01 +1.10449E+01 +5.52077E+01 -5.93895E+00 +5.64062E+01 -2.26013E+01 +5.25715E+01
 -3.74901E+01 +4.40015E+01 -4.92998E+01 +3.14031E+01 -5.69836E+01 +1.58323E+01 -5.98435E+01 -1.39465E+00
 -5.75914E+01 -1.88138E+01 -5.03748E+01 -3.49377E+01 -3.87646E+01 -4.83827E+01 -2.37086E+01 -5.79869E+01
 -6.45056E+00 -6.29096E+01 +1.15741E+01 -6.27034E+01 +2.88605E+01 -5.73532E+01 +4.39613E+01 -4.72778E+01
 +5.56100E+01 -3.32953E+01 +6.28280E+01 -1.65540E+01 +6.50078E+01 +1.56455E+00 +6.19644E+01 +1.95622E+01
 +5.39509E+01 +3.59507E+01 +4.16368E+01 +4.93780E+01 +2.60516E+01 +5.87415E+01 +8.49666E+00 +6.32814E+01
 -9.56421E+00 +6.26443E+01 -2.66293E+01 +5.69119E+01 -4.12857E+01 +4.65937E+01 -5.23284E+01 +3.25823E+01
 -5.88616E+01 +1.60774E+01 -6.03735E+01 -1.51714E+00 -5.67782E+01 -1.87122E+01 -4.84219E+01 -3.40601E+01
 -3.60515E+01 -4.62771E+01 -2.07497E+01 -5.43515E+01 -3.84250E+00 -5.76285E+01 +1.32153E+01 -5.58640E+01
 +2.89634E+01 -4.92443E+01 +4.20610E+01 -3.83679E+01 +5.13996E+01 -2.41930E+01 +5.61968E+01 -7.95471E+00
 +5.60618E+01 +8.94189E+00 +5.10264E+01 +2.50417E+01 +4.15413E+01 +3.89643E+01 +2.84352E+01 +4.95209E+01
 +1.28431E+01 +5.58156E+01 -3.89220E+00 +5.73204E+01 -2.03357E+01 +5.39184E+01 -3.50828E+01 +4.59128E+01
 -4.68795E+01 +3.39989E+01 -5.47291E+01 +1.92029E+01 -5.79757E+01 +2.79292E+00 -5.63597E+01 -1.38302E+01
