 Created: 19-Jan-2021
 $NMID
 ID='D:\BASISSIMULATI'
 FMTDAT='(8E13.5)'
 VOLUME=   1.00000E+00
 TRAMP=   1.00000E+00
 $END
 +5.05619E+01 +2.54864E-01 +4.83058E+01 +7.52349E+00 +4.19493E+01 +1.43780E+01 +3.22197E+01 +2.04488E+01
 +2.02184E+01 +2.53887E+01 +7.28207E+00 +2.88893E+01 -5.18411E+00 +3.07055E+01 -1.58786E+01 +3.06835E+01
 -2.37596E+01 +2.87913E+01 -2.81649E+01 +2.51433E+01 -2.88805E+01 +2.00148E+01 -2.61502E+01 +1.38381E+01
 -2.06279E+01 +7.17925E+00 -1.32784E+01 +6.91275E-01 -5.24340E+00 -4.95068E+00 +2.31025E+00 -9.12751E+00
 +8.33844E+00 -1.13574E+01 +1.20458E+01 -1.13688E+01 +1.29739E+01 -9.15392E+00 +1.10426E+01 -4.99201E+00
 +6.54100E+00 +5.63248E-01 +7.26984E-02 +6.73473E+00 -7.53496E+00 +1.26073E+01 -1.53441E+01 +1.72385E+01
 -2.24252E+01 +1.97818E+01 -2.79668E+01 +1.96055E+01 -3.13617E+01 +1.63906E+01 -3.22619E+01 +1.01940E+01
 -3.05970E+01 +1.46406E+00 -2.65585E+01 -8.99308E+00 -2.05549E+01 -2.00978E+01 -1.31469E+01 -3.06203E+01
 -4.97411E+00 -3.93293E+01 +3.31721E+00 -4.51469E+01 +1.11357E+01 -4.72891E+01 +1.79898E+01 -4.53733E+01
 +2.35139E+01 -3.94762E+01 +2.74760E+01 -3.01358E+01 +2.97703E+01 -1.82930E+01 +3.04007E+01 -5.18210E+00
 +2.94601E+01 +7.81809E+00 +2.71110E+01 +1.93521E+01 +2.35700E+01 +2.82536E+01 +1.90984E+01 +3.36871E+01
 +1.39958E+01 +3.52471E+01 +8.59603E+00 +3.30023E+01 +3.25957E+00 +2.74781E+01 -1.63952E+00 +1.95823E+01
 -5.73555E+00 +1.04821E+01 -8.70163E+00 +1.45088E+00 -1.02865E+01 -6.29611E+00 -1.03529E+01 -1.17543E+01
 -8.91118E+00 -1.42517E+01 -6.14108E+00 -1.35257E+01 -2.39479E+00 -9.74346E+00 +1.82248E+00 -3.46873E+00
 +5.89634E+00 +4.42254E+00 +9.16851E+00 +1.28625E+01 +1.10173E+01 +2.07318E+01 +1.09438E+01 +2.70008E+01
 +8.65093E+00 +3.08532E+01 +4.10493E+00 +3.17775E+01 -2.43340E+00 +2.96151E+01 -1.04138E+01 +2.45635E+01
 -1.90414E+01 +1.71341E+01 -2.73579E+01 +8.07524E+00 -3.43517E+01 -1.72757E+00 -3.90828E+01 -1.13612E+01
 -4.08074E+01 -1.99880E+01 -3.90843E+01 -2.69303E+01 -3.38488E+01 -3.17281E+01 -2.54404E+01 -3.41651E+01
 -1.45810E+01 -3.42632E+01 -2.30173E+00 -3.22509E+01 +1.01727E+01 -2.85121E+01 +2.15677E+01 -2.35260E+01
 +3.07143E+01 -1.78067E+01 +3.66938E+01 -1.18499E+01 +3.89542E+01 -6.09361E+00 +3.73819E+01 -8.93177E-01
 +3.23174E+01 +3.48835E+00 +2.45137E+01 +6.87845E+00 +1.50415E+01 +9.18626E+00 +5.15331E+00 +1.03913E+01
 -3.87645E+00 +1.05341E+01 -1.09129E+01 +9.71028E+00 -1.51040E+01 +8.06960E+00 -1.59865E+01 +5.81663E+00
 -1.35402E+01 +3.21080E+00 -8.18497E+00 +5.61382E-01 -7.20616E-01 -1.78609E+00 +7.78143E+00 -3.47412E+00
 +1.61195E+01 -4.16793E+00 +2.31177E+01 -3.59797E+00 +2.77747E+01 -1.60477E+00 +2.93879E+01 +1.82074E+00
 +2.76357E+01 +6.50938E+00 +2.26094E+01 +1.21051E+01 +1.47923E+01 +1.80813E+01 +4.99005E+00 +2.37821E+01
 -5.77651E+00 +2.84895E+01 -1.64009E+01 +3.15059E+01 -2.58249E+01 +3.22459E+01 -3.31602E+01 +3.03232E+01
 -3.77817E+01 +2.56200E+01 -3.93841E+01 +1.83281E+01 -3.79953E+01 +8.95267E+00 -3.39490E+01 -1.72481E+00
 -2.78225E+01 -1.27222E+01 -2.03509E+01 -2.29642E+01 -1.23309E+01 -3.14078E+01 -4.52654E+00 -3.71719E+01
 +2.41089E+00 -3.96518E+01 +7.99944E+00 -3.86037E+01 +1.19565E+01 -3.41862E+01 +1.42010E+01 -2.69513E+01
 +1.48320E+01 -1.77850E+01 +1.40896E+01 -7.80279E+00 +1.23068E+01 +1.78693E+00 +9.86033E+00 +9.83382E+00
 +7.12692E+00 +1.53920E+01 +4.45005E+00 +1.78418E+01 +2.11886E+00 +1.69706E+01 +3.58667E-01 +1.30018E+01
 -6.69827E-01 +6.56681E+00 -8.66534E-01 -1.37608E+00 -1.87322E-01 -9.66539E+00 +1.35815E+00 -1.70871E+01
 +3.70459E+00 -2.25319E+01 +6.72580E+00 -2.51388E+01 +1.02283E+01 -2.44054E+01 +1.39478E+01 -2.02522E+01
 +1.75528E+01 -1.30310E+01 +2.06587E+01 -3.47871E+00 +2.28551E+01 +7.37761E+00 +2.37444E+01 +1.83511E+01
 +2.29913E+01 +2.82428E+01 +2.03737E+01 +3.59876E+01 +1.58309E+01 +4.07800E+01 +9.49861E+00 +4.21624E+01
 +1.72345E+00 +4.00689E+01 -6.94804E+00 +3.48174E+01 -1.58089E+01 +2.70557E+01 -2.40575E+01 +1.76694E+01
 -3.08836E+01 +7.66525E+00 -3.55646E+01 -1.95279E+00 -3.75607E+01 -1.03000E+01 -3.65932E+01 -1.67042E+01
 -3.26974E+01 -2.07665E+01 -2.62367E+01 -2.23835E+01 -1.78765E+01 -2.17323E+01 -8.51706E+00 -1.92217E+01
 +8.07829E-01 -1.54206E+01 +9.05417E+00 -1.09748E+01 +1.52981E+01 -6.52254E+00 +1.88557E+01 -2.62257E+00
 +1.93759E+01 +3.00367E-01 +1.68929E+01 +1.98589E+00 +1.18299E+01 +2.34455E+00 +4.95188E+00 +1.44336E+00
 -2.72747E+00 -5.24283E-01 -1.00738E+01 -3.27727E+00 -1.59780E+01 -6.48710E+00 -1.95019E+01 -9.81392E+00
 -2.00037E+01 -1.29344E+01 -1.72261E+01 -1.55601E+01 -1.13361E+01 -1.74466E+01 -2.90891E+00 -1.83973E+01
 +7.14027E+00 -1.82638E+01 +1.76693E+01 -1.69477E+01 +2.74512E+01 -1.44059E+01 +3.53278E+01 -1.06598E+01
 +4.03534E+01 -5.80726E+00 +4.19105E+01 -3.53330E-02 +3.97839E+01 +6.37263E+00 +3.41816E+01 +1.30381E+01
 +2.57036E+01 +1.95020E+01 +1.52613E+01 +2.52537E+01 +3.96048E+00 +2.97753E+01 -7.03620E+00 +3.25959E+01
 -1.66499E+01 +3.33523E+01 -2.40102E+01 +3.18443E+01 -2.85485E+01 +2.80799E+01 -3.00500E+01 +2.22979E+01
 -2.86593E+01 +1.49645E+01 -2.48406E+01 +6.74018E+00 -1.93010E+01 -1.58350E+00 -1.28885E+01 -9.16869E+00
 -6.47875E+00 -1.52303E+01 -8.67120E-01 -1.91355E+01 +3.32155E+00 -2.04911E+01 +5.69473E+00 -1.92047E+01
 +6.11985E+00 -1.55100E+01 +4.71745E+00 -9.95173E+00 +1.82354E+00 -3.32715E+00 -2.07059E+00 +3.40714E+00
 -6.39122E+00 +9.25446E+00 -1.05569E+01 +1.33073E+01 -1.40448E+01 +1.48697E+01 -1.64420E+01 +1.35564E+01
 -1.74764E+01 +9.35427E+00 -1.70271E+01 +2.63595E+00 -1.51160E+01 -5.87588E+00 -1.18864E+01 -1.51918E+01
 -7.57251E+00 -2.41759E+01 -2.46823E+00 -3.16873E+01 +3.10192E+00 -3.67253E+01 +8.80515E+00 -3.85590E+01
 +1.43157E+01 -3.68232E+01 +1.93241E+01 -3.15689E+01 +2.35428E+01 -2.32612E+01 +2.67119E+01 -1.27235E+01
 +2.86077E+01 -1.03756E+00 +2.90553E+01 +1.05892E+01 +2.79471E+01 +2.09713E+01 +2.52637E+01 +2.90878E+01
 +2.10934E+01 +3.42022E+01 +1.56471E+01 +3.59444E+01 +9.26158E+00 +3.43442E+01 +2.38765E+00 +2.98147E+01
 -4.43841E+00 +2.30871E+01 -1.06407E+01 +1.51089E+01 -1.56625E+01 +6.91756E+00 -1.90327E+01 -4.90632E-01
 -2.04290E+01 -6.28165E+00 -1.97312E+01 -9.87814E+00 -1.70537E+01 -1.10168E+01 -1.27496E+01 -9.76285E+00
 -7.38521E+00 -6.48280E+00 -1.68242E+00 -1.78009E+00 +3.56319E+00 +3.59443E+00 +7.58110E+00 +8.84481E+00
 +9.72814E+00 +1.32308E+01 +9.58062E+00 +1.61543E+01 +7.00308E+00 +1.72213E+01 +2.18256E+00 +1.62739E+01
 -4.37819E+00 +1.33902E+01 -1.19100E+01 +8.85697E+00 -1.94645E+01 +3.11871E+00 -2.60290E+01 -3.28472E+00
 -3.06553E+01 -9.78463E+00 -3.25846E+01 -1.58442E+01 -3.13534E+01 -2.10066E+01 -2.68632E+01 -2.49272E+01
 -1.94058E+01 -2.73873E+01 -9.63878E+00 -2.82927E+01 +1.48693E+00 -2.76605E+01 +1.28384E+01 -2.55988E+01
 +2.32372E+01 -2.22848E+01 +3.16027E+01 -1.79453E+01 +3.70848E+01 -1.28416E+01 +3.91678E+01 -7.25937E+00
 +3.77315E+01 -1.50245E+00 +3.30626E+01 +4.11276E+00 +2.58143E+01 +9.26523E+00 +1.69198E+01 +1.36423E+01
 +7.47245E+00 +1.69592E+01 -1.41344E+00 +1.89847E+01 -8.74069E+00 +1.95699E+01 -1.37496E+01 +1.86770E+01
 -1.60047E+01 +1.64007E+01 -1.54383E+01 +1.29786E+01 -1.23447E+01 +8.78408E+00 -7.32991E+00 +4.30101E+00
 -1.22199E+00 +7.84378E-02 +5.04233E+00 -3.32950E+00 +1.05409E+01 -5.43274E+00 +1.44820E+01 -5.87454E+00
 +1.62982E+01 -4.49059E+00 +1.57079E+01 -1.34845E+00 +1.27367E+01 +3.24042E+00 +7.70063E+00 +8.74064E+00
 +1.15246E+00 +1.44449E+01 -6.19628E+00 +1.95535E+01 -1.35684E+01 +2.32727E+01 -2.02151E+01 +2.49192E+01
 -2.54990E+01 +2.40176E+01 -2.89567E+01 +2.03761E+01 -3.03356E+01 +1.41299E+01 -2.96009E+01 +5.74289E+00
 -2.69179E+01 -4.03216E+00 -2.26130E+01 -1.42342E+01 -1.71215E+01 -2.38044E+01 -1.09313E+01 -3.17135E+01
 -4.52984E+00 -3.70899E+01 +1.63937E+00 -3.93312E+01 +7.20701E+00 -3.81841E+01 +1.18938E+01 -3.37814E+01
 +1.55138E+01 -2.66304E+01 +1.79677E+01 -1.75537E+01 +1.92316E+01 -7.58868E+00 +1.93445E+01 +2.14020E+00
 +1.83981E+01 +1.05608E+01 +1.65298E+01 +1.67857E+01 +1.39201E+01 +2.02205E+01 +1.07913E+01 +2.06337E+01
 +7.40428E+00 +1.81796E+01 +4.05156E+00 +1.33711E+01 +1.04257E+00 +7.00721E+00 -1.31927E+00 +6.46699E-02
 -2.76701E+00 -6.43076E+00 -3.10508E+00 -1.15371E+01 -2.24386E+00 -1.45148E+01 -2.27848E-01 -1.49166E+01
 +2.74885E+00 -1.26376E+01 +6.34469E+00 -7.91982E+00 +1.00936E+01 -1.31270E+00 +1.34486E+01 +6.40405E+00
 +1.58433E+01 +1.43240E+01 +1.67631E+01 +2.15290E+01 +1.58198E+01 +2.72014E+01 +1.28160E+01 +3.07170E+01
 +7.79186E+00 +3.17112E+01 +1.04352E+00 +3.01077E+01 -6.89021E+00 +2.61118E+01 -1.52751E+01 +2.01691E+01
 -2.32581E+01 +1.28988E+01 -2.99655E+01 +5.01149E+00 -3.46104E+01 -2.77649E+00 -3.65951E+01 -9.82156E+00
 -3.55958E+01 -1.56143E+01 -3.16148E+01 -1.98183E+01 -2.49943E+01 -2.22845E+01 -1.63865E+01 -2.30412E+01
 -6.68283E+00 -2.22662E+01 +3.08953E+00 -2.02458E+01 +1.18913E+01 -1.73290E+01 +1.87992E+01 -1.38836E+01
 +2.31213E+01 -1.02599E+01 +2.44849E+01 -6.76409E+00 +2.28837E+01 -3.64426E+00 +1.86789E+01 -1.08531E+00
 +1.25524E+01 +7.88516E-01 +5.41868E+00 +1.90788E+00 -1.69344E+00 +2.25275E+00 -7.77402E+00 +1.84932E+00
 -1.19619E+01 +7.70415E-01 -1.36552E+01 -8.61491E-01 -1.25866E+01 -2.87107E+00 -8.85584E+00 -5.02996E+00
 -2.91342E+00 -7.06307E+00 +4.50021E+00 -8.66392E+00 +1.24520E+01 -9.52005E+00 +1.99369E+01 -9.34734E+00
 +2.60046E+01 -7.92981E+00 +2.98779E+01 -5.15963E+00 +3.10449E+01 -1.07078E+00 +2.93160E+01 +4.14039E+00
 +2.48384E+01 +1.01133E+01 +1.80685E+01 +1.63432E+01 +9.70671E+00 +2.22247E+01 +6.04909E-01 +2.71131E+01
 -8.33968E+00 +3.04005E+01 -1.62910E+01 +3.15945E+01 -2.25664E+01 +3.03905E+01 -2.67052E+01 +2.67258E+01
 -2.85044E+01 +2.08073E+01 -2.80212E+01 +1.31062E+01 -2.55442E+01 +4.31776E+00 -2.15388E+01 -4.71008E+00
 -1.65770E+01 -1.30726E+01 -1.12614E+01 -1.99160E+01 -6.15475E+00 -2.45445E+01 -1.72187E+00 -2.65110E+01
 +1.70865E+00 -2.56789E+01 +3.96157E+00 -2.22471E+01 +5.01132E+00 -1.67309E+01 +4.96157E+00 -9.90228E+00
 +4.01335E+00 -2.69535E+00 +2.42827E+00 +3.91154E+00 +4.92760E-01 +9.02108E+00 -1.51197E+00 +1.19338E+01
 -3.33164E+00 +1.22405E+01 -4.75152E+00 +9.87796E+00 -5.60158E+00 +5.13946E+00 -5.75663E+00 -1.36042E+00
