 Created: 19-Jan-2021
 $NMID
 ID='D:\BASISSIMULATI'
 FMTDAT='(8E13.5)'
 VOLUME=   1.00000E+00
 TRAMP=   1.00000E+00
 $END
 +3.37071E+01 +1.69047E-01 +3.16608E+01 +4.95734E+00 +2.58766E+01 +9.39138E+00 +1.70690E+01 +1.31543E+01
 +6.31875E+00 +1.59490E+01 -5.06542E+00 +1.75137E+01 -1.57125E+01 +1.76450E+01 -2.43612E+01 +1.62257E+01
 -3.00146E+01 +1.32537E+01 -3.20594E+01 +8.86653E+00 -3.03331E+01 +3.35491E+00 -2.51333E+01 -2.84085E+00
 -1.71674E+01 -9.15503E+00 -7.45364E+00 -1.49426E+01 +2.81490E+00 -1.95443E+01 +1.24228E+01 -2.23642E+01
 +2.02815E+01 -2.29506E+01 +2.55560E+01 -2.10682E+01 +2.77541E+01 -1.67510E+01 +2.67685E+01 -1.03244E+01
 +2.28680E+01 -2.39164E+00 +1.66439E+01 +6.21804E+00 +8.91856E+00 +1.45362E+01 +6.33130E-01 +2.15671E+01
 -7.27203E+00 +2.64120E+01 -1.39668E+01 +2.83890E+01 -1.88185E+01 +2.71325E+01 -2.14467E+01 +2.26569E+01
 -2.17430E+01 +1.53735E+01 -1.98558E+01 +6.05722E+00 -1.61462E+01 -4.23667E+00 -1.11248E+01 -1.42955E+01
 -5.37898E+00 -2.28977E+01 +4.98028E-01 -2.89670E+01 +5.96744E+00 -3.17134E+01 +1.05889E+01 -3.07404E+01
 +1.40453E+01 -2.61040E+01 +1.61495E+01 -1.83138E+01 +1.68358E+01 -8.27673E+00 +1.61428E+01 +2.81288E+00
 +1.41918E+01 +1.36206E+01 +1.11670E+01 +2.28390E+01 +7.29909E+00 +2.93524E+01 +2.85590E+00 +3.23777E+01
 -1.86405E+00 +3.15618E+01 -6.53591E+00 +2.70252E+01 -1.08155E+01 +1.93432E+01 -1.43525E+01 +9.47038E+00
 -1.68112E+01 -1.38318E+00 -1.79010E+01 -1.19063E+01 -1.74119E+01 -2.08515E+01 -1.52522E+01 -2.71885E+01
 -1.14810E+01 -3.02268E+01 -6.32905E+00 -2.96923E+01 -2.00538E-01 -2.57488E+01 +6.34737E+00 -1.89639E+01
 +1.26495E+01 -1.02254E+01 +1.79992E+01 -6.19980E-01 +2.17297E+01 +8.70698E+00 +2.33012E+01 +1.66936E+01
 +2.23813E+01 +2.24858E+01 +1.89066E+01 +2.55292E+01 +1.31151E+01 +2.56190E+01 +5.54126E+00 +2.29031E+01
 -3.02837E+00 +1.78419E+01 -1.16363E+01 +1.11323E+01 -1.92639E+01 +3.60825E+00 -2.49569E+01 -3.86660E+00
 -2.79500E+01 -1.05014E+01 -2.77739E+01 -1.56617E+01 -2.43295E+01 -1.89261E+01 -1.79171E+01 -2.01113E+01
 -9.21462E+00 -1.92662E+01 +7.94106E-01 -1.66392E+01 +1.09340E+01 -1.26271E+01 +1.99816E+01 -7.71462E+00
 +2.68190E+01 -2.41361E+00 +3.05778E+01 +2.78975E+00 +3.07545E+01 +7.47451E+00 +2.72806E+01 +1.13092E+01
 +2.05377E+01 +1.40610E+01 +1.13152E+01 +1.55933E+01 +7.14358E-01 +1.58561E+01 -9.98832E+00 +1.48740E+01
 -1.95010E+01 +1.27352E+01 -2.66788E+01 +9.58546E+00 -3.06673E+01 +5.62520E+00 -3.10080E+01 +1.10959E+00
 -2.76931E+01 -3.65267E+00 -2.11620E+01 -8.30543E+00 -1.22406E+01 -1.24597E+01 -2.03254E+00 -1.57189E+01
 +8.22297E+00 -1.77144E+01 +1.73077E+01 -1.81486E+01 +2.41748E+01 -1.68407E+01 +2.80731E+01 -1.37670E+01
 +2.86310E+01 -9.08973E+00 +2.58896E+01 -3.16507E+00 +2.02822E+01 +3.47245E+00 +1.25665E+01 +1.01523E+01
 +3.71793E+00 +1.61344E+01 -5.19853E+00 +2.06930E+01 -1.31617E+01 +2.32086E+01 -1.93145E+01 +2.32558E+01
 -2.30574E+01 +2.06736E+01 -2.41037E+01 +1.56072E+01 -2.24930E+01 +8.51314E+00 -1.85632E+01 +1.23030E-01
 -1.28885E+01 -8.63092E+00 -6.19388E+00 -1.67221E+01 +7.41631E-01 -2.31545E+01 +7.17819E+00 -2.70906E+01
 +1.24946E+01 -2.79652E+01 +1.62448E+01 -2.55692E+01 +1.81866E+01 -2.00902E+01 +1.82831E+01 -1.21029E+01
 +1.66804E+01 -2.50922E+00 +1.36675E+01 +7.56655E+00 +9.62693E+00 +1.69145E+01 +4.98472E+00 +2.43900E+01
 +1.65368E-01 +2.90602E+01 -4.44234E+00 +3.03253E+01 -8.50740E+00 +2.79991E+01 -1.17670E+01 +2.23370E+01
 -1.40280E+01 +1.40078E+01 -1.51640E+01 +4.01131E+00 -1.51108E+01 -6.44584E+00 -1.38649E+01 -1.61022E+01
 -1.14855E+01 -2.37997E+01 -8.10007E+00 -2.86279E+01 -3.91059E+00 -3.00364E+01 +8.03195E-01 -2.78989E+01
 +5.68760E+00 -2.25234E+01 +1.03297E+01 -1.46070E+01 +1.42851E+01 -5.14123E+00 +1.71176E+01 +4.71692E+00
 +1.84492E+01 +1.37924E+01 +1.80120E+01 +2.10375E+01 +1.56978E+01 +2.56569E+01 +1.15935E+01 +2.71965E+01
 +5.99706E+00 +2.55864E+01 -5.92292E-01 +2.11333E+01 -7.51291E+00 +1.44673E+01 -1.40052E+01 +6.44946E+00
 -1.92970E+01 -1.94362E+00 -2.26989E+01 -9.74358E+00 -2.36984E+01 -1.61056E+01 -2.20383E+01 -2.04012E+01
 -1.77684E+01 -2.22775E+01 -1.12598E+01 -2.16791E+01 -3.17834E+00 -1.88312E+01 +5.58220E+00 -1.41906E+01
 +1.40016E+01 -8.37268E+00 +2.10561E+01 -2.06682E+00 +2.58483E+01 +4.04818E+00 +2.77264E+01 +9.37777E+00
 +2.63762E+01 +1.34664E+01 +2.18731E+01 +1.60286E+01 +1.46845E+01 +1.69562E+01 +5.62204E+00 +1.63045E+01
 -4.25300E+00 +1.42618E+01 -1.37583E+01 +1.11114E+01 -2.17377E+01 +7.19091E+00 -2.72079E+01 +2.85626E+00
 -2.94849E+01 -1.54683E+00 -2.82730E+01 -5.70142E+00 -2.37052E+01 -9.32950E+00 -1.63284E+01 -1.21960E+01
 -7.03531E+00 -1.41106E+01 +3.04795E+00 -1.49300E+01 +1.27038E+01 -1.45643E+01 +2.07761E+01 -1.29874E+01
 +2.63144E+01 -1.02500E+01 +2.86898E+01 -6.49293E+00 +2.76684E+01 -1.95583E+00 +2.34338E+01 +3.02342E+00
 +1.65558E+01 +8.02209E+00 +7.91047E+00 +1.25613E+01 -1.43581E+00 +1.61490E+01 -1.03634E+01 +1.83345E+01
 -1.78386E+01 +1.87678E+01 -2.30379E+01 +1.72553E+01 -2.54398E+01 +1.38046E+01 -2.48760E+01 +8.64704E+00
 -2.15362E+01 +2.23501E+00 -1.59267E+01 -4.79188E+00 -8.79360E+00 -1.16685E+01 -1.01920E+00 -1.75889E+01
 +6.49142E+00 -2.18046E+01 +1.29193E+01 -2.37235E+01 +1.76223E+01 -2.29959E+01 +2.01970E+01 -1.95748E+01
 +2.05071E+01 -1.37409E+01 +1.86761E+01 -6.08518E+00 +1.50498E+01 +2.54918E+00 +1.01359E+01 +1.11619E+01
 +4.53095E+00 +1.87156E+01 -1.15524E+00 +2.42658E+01 -6.36637E+00 +2.70842E+01 -1.06516E+01 +2.67586E+01
 -1.36973E+01 +2.32545E+01 -1.53385E+01 +1.69301E+01 -1.55515E+01 +8.49975E+00 -1.44331E+01 -1.04837E+00
 -1.21717E+01 -1.05727E+01 -9.01630E+00 -1.89202E+01 -5.24916E+00 -2.50715E+01 -1.16398E+00 -2.82708E+01
 +2.94848E+00 -2.81229E+01 +6.80888E+00 -2.46438E+01 +1.01544E+01 -1.82595E+01 +1.27437E+01 -9.75128E+00
 +1.43652E+01 -1.56507E-01 +1.48496E+01 +9.36320E+00 +1.40880E+01 +1.76683E+01 +1.20528E+01 +2.37831E+01
 +8.81792E+00 +2.70146E+01 +4.57331E+00 +2.70336E+01 -3.70956E-01 +2.39073E+01 -5.59578E+00 +1.80817E+01
 -1.06012E+01 +1.03160E+01 -1.48512E+01 +1.57976E+00 -1.78322E+01 -7.07329E+00 -1.91172E+01 -1.46373E+01
 -1.84299E+01 -2.02754E+01 -1.56954E+01 -2.34140E+01 -1.10723E+01 -2.38003E+01 -4.95615E+00 -2.15163E+01
 +2.04751E+00 -1.69515E+01 +9.18123E+00 -1.07378E+01 +1.56186E+01 -3.65921E+00 +2.05634E+01 +3.45075E+00
 +2.33528E+01 +9.81107E+00 +2.35495E+01 +1.47804E+01 +2.10109E+01 +1.79199E+01 +1.59238E+01 +1.90265E+01
 +8.79720E+00 +1.81337E+01 +4.13036E-01 +1.54846E+01 -8.26123E+00 +1.14831E+01 -1.61881E+01 +6.63119E+00
 -2.23892E+01 +1.46414E+00 -2.60712E+01 -3.50996E+00 -2.67320E+01 -7.85772E+00 -2.42315E+01 -1.12517E+01
 -1.88182E+01 -1.34842E+01 -1.11048E+01 -1.44656E+01 -1.99762E+00 -1.42108E+01 +7.41460E+00 -1.28193E+01
 +1.59954E+01 -1.04533E+01 +2.27037E+01 -7.31824E+00 +2.67253E+01 -3.64885E+00 +2.75761E+01 +3.00827E-01
 +2.51623E+01 +4.26285E+00 +1.97916E+01 +7.96024E+00 +1.21319E+01 +1.11140E+01 +3.12524E+00 +1.34552E+01
 -6.13331E+00 +1.47434E+01 -1.45339E+01 +1.47918E+01 -2.10905E+01 +1.34945E+01 -2.50606E+01 +1.08544E+01
 -2.60319E+01 +7.00437E+00 -2.39649E+01 +2.21586E+00 -1.91872E+01 -3.10810E+00 -1.23417E+01 -8.45949E+00
 -4.29659E+00 -1.32707E+01 +3.96893E+00 -1.69753E+01 +1.14890E+01 -1.90770E+01 +1.74276E+01 -1.92197E+01
 +2.11741E+01 -1.72461E+01 +2.24046E+01 -1.32371E+01 +2.11054E+01 -7.52332E+00 +1.75561E+01 -6.65242E-01
 +1.22775E+01 +6.59990E+00 +5.95361E+00 +1.34381E+01 -6.60238E-01 +1.90174E+01 -6.83135E+00 +2.26140E+01
 -1.19323E+01 +2.37096E+01 -1.55033E+01 +2.20691E+01 -1.72887E+01 +1.77836E+01 -1.72444E+01 +1.12747E+01
 -1.55203E+01 +3.25406E+00 -1.24213E+01 -5.35523E+00 -8.35602E+00 -1.35288E+01 -3.78104E+00 -2.02676E+01
 +8.51766E-01 -2.47251E+01 +5.13773E+00 -2.63187E+01 +8.74878E+00 -2.48087E+01 +1.14485E+01 -2.03353E+01
 +1.30941E+01 -1.34071E+01 +1.36296E+01 -4.84120E+00 +1.30727E+01 +4.33657E+00 +1.15020E+01 +1.30193E+01
 +9.04560E+00 +2.01582E+01 +5.87369E+00 +2.48940E+01 +2.19492E+00 +2.66653E+01 -1.74564E+00 +2.52770E+01
 -5.66968E+00 +2.09230E+01 -9.27343E+00 +1.41577E+01 -1.22424E+01 +5.82284E+00 -1.42746E+01 -3.06166E+00
 -1.51107E+01 -1.14278E+01 -1.45688E+01 -1.82930E+01 -1.25790E+01 -2.28793E+01 -9.21071E+00 -2.47049E+01
 -4.68798E+00 -2.36340E+01 +6.13658E-01 -1.98824E+01 +6.19067E+00 -1.39792E+01 +1.14561E+01 -6.68896E+00
 +1.58016E+01 +1.09067E+00 +1.86701E+01 +8.44431E+00 +1.96308E+01 +1.45503E+01 +1.84449E+01 +1.87749E+01
 +1.51131E+01 +2.07374E+01 +9.89471E+00 +2.03400E+01 +3.29551E+00 +1.77613E+01 -3.97907E+00 +1.34158E+01
 -1.10999E+01 +7.88738E+00 -1.72117E+01 +1.84860E+00 -2.15400E+01 -4.02481E+00 -2.34938E+01 -9.13108E+00
 -2.27493E+01 -1.30031E+01 -1.93029E+01 -1.53464E+01 -1.34846E+01 -1.60523E+01 -5.92888E+00 -1.51874E+01
 +2.49634E+00 -1.29647E+01 +1.07920E+01 -9.70164E+00 +1.79515E+01 -5.77414E+00 +2.30874E+01 -1.57169E+00
 +2.55469E+01 +2.53945E+00 +2.49978E+01 +6.24269E+00 +2.14757E+01 +9.28598E+00 +1.53838E+01 +1.14865E+01
 +7.44503E+00 +1.27283E+01 -1.38671E+00 +1.29562E+01 -1.00458E+01 +1.21700E+01 -1.74887E+01 +1.04210E+01
 -2.28250E+01 +7.81172E+00 -2.54279E+01 +4.49825E+00 -2.50107E+01 +6.92856E-01 -2.16594E+01 -3.33676E+00
 -1.58166E+01 -7.27459E+00 -8.22099E+00 -1.07726E+01 +1.89977E-01 -1.34769E+01 +8.40065E+00 -1.50631E+01
 +1.54447E+01 -1.52771E+01 +2.05231E+01 -1.39756E+01 +2.30974E+01 -1.11609E+01 +2.29468E+01 -7.00184E+00
 +2.01840E+01 -1.83639E+00 +1.52278E+01 +3.84808E+00 +8.73868E+00 +9.45737E+00 +1.52779E+00 +1.43525E+01
 -5.54899E+00 +1.79250E+01 -1.16962E+01 +1.96757E+01 -1.62708E+01 +1.92874E+01 -1.88486E+01 +1.66793E+01
 -1.92605E+01 +1.20349E+01 -1.75939E+01 +5.79722E+00 -1.41628E+01 -1.37067E+00 -9.45306E+00 -8.65646E+00
 -4.05150E+00 -1.51936E+01 +1.42990E+00 -2.01682E+01 +6.42533E+00 -2.29254E+01 +1.04728E+01 -2.30587E+01
 +1.32525E+01 -2.04717E+01 +1.46039E+01 -1.54013E+01 +1.45214E+01 -8.39836E+00 +1.31338E+01 -2.67123E-01
 +1.06716E+01 +8.03028E+00 +7.42963E+00 +1.54920E+01 +3.73080E+00 +2.12025E+01 -1.05119E-01 +2.44495E+01
 -3.78377E+00 +2.48170E+01 -7.04987E+00 +2.22409E+01 -9.69311E+00 +1.70195E+01 -1.15493E+01 +9.77839E+00
