 Created: 19-Jan-2021
 $NMID
 ID='D:\BASISSIMULATI'
 FMTDAT='(8E13.5)'
 VOLUME=   1.00000E+00
 TRAMP=   1.00000E+00
 $END
 +3.56394E+01 +1.08828E+00 +3.31031E+01 +1.11988E+01 +2.74878E+01 +1.96235E+01 +1.97151E+01 +2.54372E+01
 +1.09505E+01 +2.81756E+01 +2.38665E+00 +2.78736E+01 -4.95902E+00 +2.50074E+01 -1.03939E+01 +2.03609E+01
 -1.36210E+01 +1.48497E+01 -1.47257E+01 +9.34469E+00 -1.40909E+01 +4.52964E+00 -1.22686E+01 +8.20749E-01
 -9.84094E+00 -1.64552E+00 -7.30487E+00 -2.96338E+00 -5.00148E+00 -3.36941E+00 -3.10016E+00 -3.14336E+00
 -1.63104E+00 -2.52543E+00 -5.48017E-01 -1.66961E+00 +2.01739E-01 -6.40178E-01 +6.24764E-01 +5.54217E-01
 +6.60884E-01 +1.90538E+00 +2.00221E-01 +3.35061E+00 -8.69290E-01 +4.73830E+00 -2.60012E+00 +5.82741E+00
 -4.92980E+00 +6.32358E+00 -7.65096E+00 +5.94371E+00 -1.04189E+01 +4.49174E+00 -1.27987E+01 +1.92502E+00
 -1.43416E+01 -1.60813E+00 -1.46749E+01 -5.77151E+00 -1.35823E+01 -1.00869E+01 -1.10554E+01 -1.40131E+01
 -7.30427E+00 -1.70420E+01 -2.72303E+00 -1.87883E+01 +2.18085E+00 -1.90547E+01 +6.87759E+00 -1.78570E+01
 +1.09055E+01 -1.54071E+01 +1.39413E+01 -1.20573E+01 +1.58357E+01 -8.22360E+00 +1.66096E+01 -4.30442E+00
 +1.64157E+01 -6.15653E-01 +1.54773E+01 +2.64563E+00 +1.40235E+01 +5.40287E+00 +1.22360E+01 +7.67096E+00
 +1.02219E+01 +9.50811E+00 +8.01647E+00 +1.09645E+01 +5.61221E+00 +1.20434E+01 +3.00350E+00 +1.26865E+01
 +2.31523E-01 +1.27872E+01 -2.58539E+00 +1.22282E+01 -5.24677E+00 +1.09311E+01 -7.49376E+00 +8.90544E+00
 -9.05716E+00 +6.27865E+00 -9.71804E+00 +3.29976E+00 -9.36563E+00 +3.11309E-01 -8.03701E+00 -2.30539E+00
 -5.92737E+00 -4.19985E+00 -3.36665E+00 -5.12133E+00 -7.66170E-01 -4.97103E+00 +1.45348E+00 -3.82524E+00
 +2.93794E+00 -1.92395E+00 +3.46170E+00 +3.72670E-01 +2.96479E+00 +2.65042E+00 +1.55655E+00 +4.51514E+00
 -5.12729E-01 +5.65922E+00 -2.90458E+00 +5.90721E+00 -5.25687E+00 +5.23268E+00 -7.24557E+00 +3.74569E+00
 -8.63132E+00 +1.65650E+00 -9.28283E+00 -7.73540E-01 -9.17562E+00 -3.28162E+00 -8.37046E+00 -5.64231E+00
 -6.98051E+00 -7.68871E+00 -5.13759E+00 -9.31431E+00 -2.96722E+00 -1.04595E+01 -5.77778E-01 -1.10905E+01
 +1.93546E+00 -1.11801E+01 +4.47570E+00 -1.06976E+01 +6.92710E+00 -9.61252E+00 +9.14289E+00 -7.91082E+00
 +1.09461E+01 -5.61923E+00 +1.21458E+01 -2.82843E+00 +1.25674E+01 +2.93227E-01 +1.20898E+01 +3.50247E+00
 +1.06813E+01 +6.50329E+00 +8.42308E+00 +8.98599E+00 +5.51346E+00 +1.06762E+01 +2.24926E+00 +1.13835E+01
 -1.01389E+00 +1.10387E+01 -3.91500E+00 +9.71051E+00 -6.14446E+00 +7.59863E+00 -7.49250E+00 +5.00155E+00
 -7.87945E+00 +2.26769E+00 -7.36191E+00 -2.61388E-01 -6.11445E+00 -2.30370E+00 -4.39163E+00 -3.67526E+00
 -2.47927E+00 -4.30755E+00 -6.45616E-01 -4.24228E+00 +8.97453E-01 -3.60686E+00 +2.01653E+00 -2.57815E+00
 +2.65962E+00 -1.34382E+00 +2.84237E+00 -7.04080E-02 +2.62396E+00 +1.11564E+00 +2.08064E+00 +2.13174E+00
 +1.28492E+00 +2.92988E+00 +2.95575E-01 +3.47993E+00 -8.39940E-01 +3.75286E+00 -2.07324E+00 +3.71080E+00
 -3.33869E+00 +3.30809E+00 -4.54031E+00 +2.50414E+00 -5.54818E+00 +1.28452E+00 -6.20844E+00 -3.16135E-01
 -6.36653E+00 -2.19728E+00 -5.89953E+00 -4.18841E+00 -4.75013E+00 -6.06200E+00 -2.95337E+00 -7.56305E+00
 -6.48295E-01 -8.45073E+00 +1.93048E+00 -8.54380E+00 +4.48178E+00 -7.76003E+00 +6.68302E+00 -6.14025E+00
 +8.24332E+00 -3.85083E+00 +8.95388E+00 -1.16249E+00 +8.72530E+00 +1.59097E+00 +7.60396E+00 +4.06671E+00
 +5.76380E+00 +5.96883E+00 +3.47523E+00 +7.09547E+00 +1.05740E+00 +7.36786E+00 -1.17636E+00 +6.83614E+00
 -2.96917E+00 +5.66173E+00 -4.15751E+00 +4.08085E+00 -4.68821E+00 +2.35745E+00 -4.61344E+00 +7.35663E-01
 -4.06679E+00 -5.98776E-01 -3.22683E+00 -1.54120E+00 -2.27711E+00 -2.07181E+00 -1.37129E+00 -2.24192E+00
 -6.10248E-01 -2.14782E+00 -3.47545E-02 -1.89955E+00 +3.66803E-01 -1.59247E+00 +6.39414E-01 -1.28787E+00
 +8.37397E-01 -1.00635E+00 +1.00210E+00 -7.33845E-01 +1.14709E+00 -4.37411E-01 +1.25416E+00 -8.53721E-02
 +1.28046E+00 +3.34202E-01 +1.17414E+00 +8.01836E-01 +8.93671E-01 +1.26496E+00 +4.25508E-01 +1.64651E+00
 -2.04824E-01 +1.86160E+00 -9.31240E-01 +1.83783E+00 -1.65573E+00 +1.53422E+00 -2.26514E+00 +9.54098E-01
 -2.65225E+00 +1.48846E-01 -2.73644E+00 -7.88307E-01 -2.47933E+00 -1.73701E+00 -1.89239E+00 -2.56973E+00
 -1.03519E+00 -3.17260E+00 -5.15063E-03 -3.46312E+00 +1.07863E+00 -3.40132E+00 +2.09379E+00 -2.99309E+00
 +2.93190E+00 -2.28575E+00 +3.51123E+00 -1.35777E+00 +3.78377E+00 -3.05415E-01 +3.73603E+00 +7.70822E-01
 +3.38515E+00 +1.77747E+00 +2.77199E+00 +2.63568E+00 +1.95347E+00 +3.28494E+00 +9.96009E-01 +3.68371E+00
 -2.92913E-02 +3.80833E+00 -1.04949E+00 +3.65179E+00 -1.99168E+00 +3.22331E+00 -2.78496E+00 +2.54906E+00
 -3.36373E+00 +1.67350E+00 -3.67286E+00 +6.60191E-01 -3.67451E+00 -4.09359E-01 -3.35550E+00 -1.44001E+00
 -2.73374E+00 -2.33093E+00 -1.86146E+00 -2.98687E+00 -8.23944E-01 -3.33115E+00 +2.67355E-01 -3.31851E+00
 +1.28706E+00 -2.94494E+00 +2.11210E+00 -2.25247E+00 +2.63948E+00 -1.32700E+00 +2.80279E+00 -2.89047E-01
 +2.58413E+00 +7.22002E-01 +2.01922E+00 +1.56776E+00 +1.19414E+00 +2.13181E+00 +2.33804E-01 +2.33816E+00
 -7.16436E-01 +2.16397E+00 -1.51304E+00 +1.64407E+00 -2.03695E+00 +8.66178E-01 -2.21269E+00 -4.27483E-02
 -2.02061E+00 -9.36800E-01 -1.49991E+00 -1.67488E+00 -7.41901E-01 -2.14382E+00 +1.25696E-01 -2.27688E+00
 +9.60615E-01 -2.06436E+00 +1.63043E+00 -1.55432E+00 +2.03513E+00 -8.43317E-01 +2.12389E+00 -5.85594E-02
 +1.90299E+00 +6.65168E-01 +1.43345E+00 +1.20986E+00 +8.18723E-01 +1.49544E+00 +1.84673E-01 +1.49380E+00
 -3.44524E-01 +1.23321E+00 -6.70139E-01 +7.92105E-01 -7.37859E-01 +2.83380E-01 -5.48386E-01 -1.67934E-01
 -1.57547E-01 -4.49549E-01 +3.34224E-01 -4.84635E-01 +8.01221E-01 -2.48056E-01 +1.11709E+00 +2.27089E-01
 +1.18015E+00 +8.54010E-01 +9.34673E-01 +1.50724E+00 +3.83965E-01 +2.04549E+00 -4.07343E-01 +2.33816E+00
 -1.32242E+00 +2.29070E+00 -2.21133E+00 +1.86407E+00 -2.91670E+00 +1.08461E+00 -3.30150E+00 +4.24002E-02
 -3.27384E+00 -1.12168E+00 -2.80445E+00 -2.23805E+00 -1.93380E+00 -3.13584E+00 -7.67473E-01 -3.67092E+00
 +5.39192E-01 -3.74977E+00 +1.80466E+00 -3.34523E+00 +2.84896E+00 -2.50178E+00 +3.52118E+00 -1.32957E+00
 +3.72233E+00 +1.15546E-02 +3.42026E+00 +1.33542E+00 +2.65464E+00 +2.45651E+00 +1.53151E+00 +3.21662E+00
 +2.08474E-01 +3.50748E+00 -1.12718E+00 +3.28628E+00 -2.28446E+00 +2.58225E+00 -3.09520E+00 +1.49340E+00
 -3.43793E+00 +1.74090E-01 -3.25583E+00 -1.18537E+00 -2.56649E+00 -2.38448E+00 -1.46187E+00 -3.24072E+00
 -9.78946E-02 -3.61647E+00 +1.32556E+00 -3.44105E+00 +2.59227E+00 -2.72436E+00 +3.50150E+00 -1.55953E+00
 +3.89976E+00 -1.12972E-01 +3.70740E+00 +1.39765E+00 +2.93555E+00 +2.73524E+00 +1.68931E+00 +3.68072E+00
 +1.55692E-01 +4.07008E+00 -1.42329E+00 +3.82486E+00 -2.78879E+00 +2.96991E+00 -3.70874E+00 +1.63433E+00
 -4.01946E+00 +3.39456E-02 -3.65745E+00 -1.56261E+00 -2.67483E+00 -2.87926E+00 -1.23451E+00 -3.68140E+00
 +4.14963E-01 -3.81939E+00 +1.98139E+00 -3.25835E+00 +3.18031E+00 -2.08781E+00 +3.78660E+00 -5.08868E-01
 +3.67644E+00 +1.19950E+00 +2.85165E+00 +2.72905E+00 +1.44135E+00 +3.79696E+00 -3.19303E-01 +4.19639E+00
 -2.12967E+00 +3.83357E+00 -3.67563E+00 +2.74452E+00 -4.68350E+00 +1.08878E+00 -4.96591E+00 -8.78232E-01
 -4.45184E+00 -2.84861E+00 -3.19601E+00 -4.51267E+00 -1.36728E+00 -5.60786E+00 +7.80671E-01 -5.95754E+00
 +2.95006E+00 -5.49400E+00 +4.84335E+00 -4.26358E+00 +6.20404E+00 -2.41482E+00 +6.84795E+00 -1.73902E-01
 +6.68223E+00 +2.18750E+00 +5.71143E+00 +4.38624E+00 +4.03250E+00 +6.15927E+00 +1.82146E+00 +7.29000E+00
 -6.85250E-01 +7.62854E+00 -3.21284E+00 +7.10586E+00 -5.47246E+00 +5.74268E+00 -7.18764E+00 +3.65276E+00
 -8.12283E+00 +1.03981E+00 -8.11300E+00 -1.81397E+00 -7.09188E+00 -4.56985E+00 -5.11435E+00 -6.86615E+00
 -2.36767E+00 -8.36237E+00 +8.34441E-01 -8.78992E+00 +4.07849E+00 -8.00225E+00 +6.89946E+00 -6.01497E+00
 +8.84650E+00 -3.02602E+00 +9.55730E+00 +5.92040E-01 +8.82841E+00 +4.33164E+00 +6.66739E+00 +7.61935E+00
 +3.31385E+00 +9.90578E+00 -7.79127E-01 +1.07617E+01 -5.00422E+00 +9.96230E+00 -8.69306E+00 +7.54247E+00
 -1.12284E+01 +3.80847E+00 -1.21552E+01 -6.99015E-01 -1.12692E+01 -5.28778E+00 -8.66338E+00 -9.22955E+00
 -4.72202E+00 -1.18875E+01 -6.00201E-02 -1.28317E+01 +4.58262E+00 -1.19190E+01 +8.47180E+00 -9.32136E+00
 +1.10110E+01 -5.49485E+00 +1.18477E+01 -1.09558E+00 +1.09333E+01 +3.14249E+00 +8.52462E+00 +6.54301E+00
 +5.12734E+00 +8.60947E+00 +1.39287E+00 +9.10982E+00 -2.00964E+00 +8.10749E+00 -4.51979E+00 +5.93378E+00
 -5.78550E+00 +3.10915E+00 -5.71650E+00 +2.31397E-01 -4.48285E+00 -2.14505E+00 -2.46160E+00 -3.61344E+00
 -1.45712E-01 -3.98190E+00 +1.96351E+00 -3.29198E+00 +3.45652E+00 -1.78807E+00 +4.08767E+00 +1.52096E-01
 +3.80620E+00 +2.10754E+00 +2.74324E+00 +3.70344E+00 +1.16200E+00 +4.68021E+00 -6.13664E-01 +4.92923E+00
 -2.27366E+00 +4.49084E+00 -3.58143E+00 +3.52013E+00 -4.40685E+00 +2.23294E+00 -4.72825E+00 +8.48253E-01
 -4.60790E+00 -4.57542E-01 -4.15207E+00 -1.57437E+00 -3.46985E+00 -2.45700E+00 -2.64386E+00 -3.10339E+00
 -1.72110E+00 -3.52336E+00 -7.24755E-01 -3.71100E+00 +3.19139E-01 -3.63211E+00 +1.35202E+00 -3.23281E+00
 +2.26340E+00 -2.46792E+00 +2.89260E+00 -1.34035E+00 +3.05601E+00 +6.23437E-02 +2.59629E+00 +1.54926E+00
 +1.44169E+00 +2.83656E+00 -3.41527E-01 +3.59125E+00 -2.52134E+00 +3.50265E+00 -4.71071E+00 +2.36696E+00
 -6.42170E+00 +1.64286E-01 -7.15689E+00 -2.89410E+00 -6.52134E+00 -6.36548E+00 -4.33041E+00 -9.63015E+00
 -6.86811E-01 -1.19958E+01 +3.99560E+00 -1.28339E+01 +9.03354E+00 -1.17203E+01 +1.35796E+01 -8.54951E+00
 +1.67741E+01 -3.59295E+00 +1.79151E+01 +2.51522E+00 +1.66108E+01 +8.86929E+00 +1.28801E+01 +1.44457E+01
 +7.17734E+00 +1.82911E+01 +3.31583E-01 +1.97075E+01 -6.59240E+00 +1.83958E+01 -1.24845E+01 +1.45263E+01
 -1.63947E+01 +8.71978E+00 -1.77119E+01 +1.93976E+00 -1.62792E+01 -4.68248E+00 -1.24223E+01 -1.00566E+01
 -6.88487E+00 -1.33334E+01 -6.83792E-01 -1.40558E+01 +5.08434E+00 -1.22323E+01 +9.44712E+00 -8.31883E+00
 +1.17287E+01 -3.11528E+00 +1.16578E+01 +2.39870E+00 +9.39180E+00 +7.25370E+00 +5.45764E+00 +1.06666E+01
