 Created: 19-Jan-2021
 $NMID
 ID='D:\BASISSIMULATI'
 FMTDAT='(8E13.5)'
 VOLUME=   1.00000E+00
 TRAMP=   1.00000E+00
 $END
 +2.00022E+01 +1.00612E-01 +1.91591E+01 +4.67384E+00 +1.72214E+01 +8.82430E+00 +1.43562E+01 +1.22840E+01
 +1.07961E+01 +1.48451E+01 +6.81834E+00 +1.63758E+01 +2.72073E+00 +1.68284E+01 -1.20336E+00 +1.62407E+01
 -4.68931E+00 +1.47299E+01 -7.52222E+00 +1.24793E+01 -9.55293E+00 +9.72039E+00 -1.07078E+01 +6.71077E+00
 -1.09915E+01 +3.71065E+00 -1.04828E+01 +9.59968E-01 -9.32391E+00 -1.34193E+00 -7.70414E+00 -3.05224E+00
 -5.84039E+00 -4.09491E+00 -3.95533E+00 -4.46435E+00 -2.25602E+00 -4.22251E+00 -9.14640E-01 -3.48971E+00
 -5.30903E-02 -2.43026E+00 +2.67089E-01 -1.23433E+00 +4.88058E-02 -9.78457E-02 -6.42834E-01 +7.97649E-01
 -1.68873E+00 +1.30331E+00 -2.92910E+00 +1.31775E+00 -4.18043E+00 +7.96931E-01 -5.25464E+00 -2.41628E-01
 -5.97835E+00 -1.72071E+00 -6.21061E+00 -3.51098E+00 -5.85739E+00 -5.44359E+00 -4.88150E+00 -7.32652E+00
 -3.30709E+00 -8.96302E+00 -1.21829E+00 -1.01706E+01 +1.24772E+00 -1.07985E+01 +3.91268E+00 -1.07426E+01
 +6.57288E+00 -9.95532E+00 +9.01727E+00 -8.45126E+00 +1.10462E+01 -6.30642E+00 +1.24889E+01 -3.65231E+00
 +1.32188E+01 -6.64978E-01 +1.31646E+01 +2.44979E+00 +1.23160E+01 +5.47388E+00 +1.07249E+01 +8.19518E+00
 +8.50087E+00 +1.04252E+01 +5.80103E+00 +1.20145E+01 +2.81701E+00 +1.28644E+01 -2.41545E-01 +1.29342E+01
 -3.16445E+00 +1.22437E+01 -5.75817E+00 +1.08694E+01 -7.86117E+00 +8.93741E+00 -9.35612E+00 +6.61084E+00
 -1.01779E+01 +4.07556E+00 -1.03172E+01 +1.52369E+00 -9.81824E+00 -8.62563E-01 -8.77339E+00 -2.92576E+00
 -7.31241E+00 -4.54529E+00 -5.58961E+00 -5.64581E+00 -3.76910E+00 -6.20126E+00 -2.00986E+00 -6.23436E+00
 -4.51834E-01 -5.81176E+00 +7.95547E-01 -5.03539E+00 +1.66165E+00 -4.03101E+00 +2.11893E+00 -2.93495E+00
 +2.18302E+00 -1.88061E+00 +1.90876E+00 -9.85675E-01 +1.38274E+00 -3.41371E-01 +7.12989E-01 -4.72940E-03
 +1.70951E-02 +5.62169E-03 -5.90235E-01 -2.90230E-01 -1.00890E+00 -8.36938E-01 -1.16336E+00 -1.55070E+00
 -1.00986E+00 -2.32865E+00 -5.40467E-01 -3.05989E+00 +2.16654E-01 -3.63708E+00 +1.20035E+00 -3.96740E+00
 +2.32285E+00 -3.98194E+00 +3.47857E+00 -3.64265E+00 +4.55452E+00 -2.94615E+00 +5.44135E+00 -1.92420E+00
 +6.04379E+00 -6.40854E-01 +6.28982E+00 +8.13476E-01 +6.13739E+00 +2.33029E+00 +5.57840E+00 +3.79292E+00
 +4.63945E+00 +5.08703E+00 +3.37941E+00 +6.11078E+00 +1.88412E+00 +6.78377E+00 +2.58711E-01 +7.05383E+00
 -1.38163E+00 +6.90120E+00 -2.92167E+00 +6.33975E+00 -4.25583E+00 +5.41518E+00 -5.29690E+00 +4.20046E+00
 -5.98284E+00 +2.78896E+00 -6.28121E+00 +1.28611E+00 -6.19079E+00 -1.99937E-01 -5.74056E+00 -1.56734E+00
 -4.98589E+00 -2.72885E+00 -4.00268E+00 -3.61847E+00 -2.87993E+00 -4.19587E+00 -1.71145E+00 -4.44843E+00
 -5.87553E-01 -4.39070E+00 +4.12506E-01 -4.06142E+00 +1.22673E+00 -3.51856E+00 +1.81465E+00 -2.83290E+00
 +2.15945E+00 -2.08074E+00 +2.26771E+00 -1.33659E+00 +2.16703E+00 -6.66406E-01 +1.90185E+00 -1.22069E-01
 +1.52790E+00 +2.62510E-01 +1.10583E+00 +4.73277E-01 +6.94902E-01 +5.15917E-01 +3.47058E-01 +4.13788E-01
 +1.02131E-01 +2.04238E-01 -1.54651E-02 -6.62678E-02 +1.69215E-03 -3.47668E-01 +1.44281E-01 -5.91884E-01
 +3.88186E-01 -7.57910E-01 +6.97882E-01 -8.15909E-01 +1.03083E+00 -7.49961E-01 +1.34242E+00 -5.59231E-01
 +1.59090E+00 -2.57517E-01 +1.74182E+00 +1.28722E-01 +1.77150E+00 +5.63576E-01 +1.66935E+00 +1.00577E+00
 +1.43858E+00 +1.41318E+00 +1.09558E+00 +1.74723E+00 +6.67912E-01 +1.97684E+00 +1.91175E-01 +2.08145E+00
 -2.94819E-01 +2.05279E+00 -7.50192E-01 +1.89542E+00 -1.13902E+00 +1.62588E+00 -1.43281E+00 +1.27062E+00
 -1.61307E+00 +8.63004E-01 -1.67280E+00 +4.39727E-01 -1.61671E+00 +3.69593E-02 -1.46020E+00 -3.13253E-01
 -1.22733E+00 -5.86050E-01 -9.47905E-01 -7.65939E-01 -6.54118E-01 -8.47916E-01 -3.77040E-01 -8.37424E-01
 -1.43406E-01 -7.49208E-01 +2.70280E-02 -6.05222E-01 +1.23249E-01 -4.31837E-01 +1.43741E-01 -2.56685E-01
 +9.61557E-02 -1.05483E-01 -4.01584E-03 +8.06558E-04 -1.35602E-01 +4.81800E-02 -2.74479E-01 +3.09411E-02
 -3.96545E-01 -4.79450E-02 -4.80611E-01 -1.77499E-01 -5.10869E-01 -3.40284E-01 -4.78689E-01 -5.14678E-01
 -3.83530E-01 -6.77592E-01 -2.32890E-01 -8.07311E-01 -4.13072E-02 -8.86141E-01 +1.71469E-01 -9.02550E-01
 +3.82908E-01 -8.52568E-01 +5.70465E-01 -7.40275E-01 +7.14339E-01 -5.77338E-01 +7.99933E-01 -3.81630E-01
 +8.19702E-01 -1.75095E-01 +7.74183E-01 +1.88980E-02 +6.72078E-01 +1.78418E-01 +5.29355E-01 +2.85723E-01
 +3.67471E-01 +3.29577E-01 +2.10878E-01 +3.06857E-01 +8.41049E-02 +2.23249E-01 +8.71885E-03 +9.29355E-02
 +5.18667E-04 -6.27363E-02 +6.72780E-02 -2.17470E-01 +2.07314E-01 -3.42911E-01 +4.09070E-01 -4.11916E-01
 +6.51794E-01 -4.01845E-01 +9.07290E-01 -2.97525E-01 +1.14258E+00 -9.35458E-02 +1.32323E+00 +2.04389E-01
 +1.41706E+00 +5.79235E-01 +1.39772E+00 +1.00358E+00 +1.24797E+00 +1.44175E+00 +9.62126E-01 +1.85292E+00
 +5.47402E-01 +2.19486E+00 +2.41231E-02 +2.42805E+00 -5.75449E-01 +2.51976E+00 -1.20949E+00 +2.44756E+00
 -1.83004E+00 +2.20206E+00 -2.38717E+00 +1.78845E+00 -2.83350E+00 +1.22671E+00 -3.12860E+00 +5.50458E-01
 -3.24299E+00 -1.95613E-01 -3.16106E+00 -9.59341E-01 -2.88297E+00 -1.68555E+00 -2.42492E+00 -2.32086E+00
 -1.81811E+00 -2.81848E+00 -1.10619E+00 -3.14241E+00 -3.41500E-01 -3.27079E+00 +4.19463E-01 -3.19791E+00
 +1.12109E+00 -2.93476E+00 +1.71365E+00 -2.50808E+00 +2.15772E+00 -1.95785E+00 +2.42775E+00 -1.33356E+00
 +2.51425E+00 -6.89580E-01 +2.42450E+00 -8.00354E-02 +2.18166E+00 +4.46290E-01 +1.82231E+00 +8.50553E-01
 +1.39277E+00 +1.10749E+00 +9.44327E-01 +1.20774E+00 +5.28134E-01 +1.15860E+00 +1.89944E-01 +9.83119E-01
 -3.45535E-02 +7.17696E-01 -1.23447E-01 +4.08213E-01 -7.09749E-02 +1.05258E-01 +1.11715E-01 -1.41219E-01
 +3.97500E-01 -2.87250E-01 +7.45849E-01 -2.99690E-01 +1.10680E+00 -1.60054E-01 +1.42599E+00 +1.33040E-01
 +1.65022E+00 +5.63085E-01 +1.73308E+00 +1.09667E+00 +1.64010E+00 +1.68618E+00 +1.35276E+00 +2.27398E+00
 +8.71190E-01 +2.79772E+00 +2.15075E-01 +3.19623E+00 -5.77295E-01 +3.41559E+00 -1.45176E+00 +3.41457E+00
 -2.34265E+00 +3.16916E+00 -3.17828E+00 +2.67556E+00 -3.88730E+00 +1.95138E+00 -4.40505E+00 +1.03496E+00
 -4.67957E+00 -1.73128E-02 -4.67658E+00 -1.13528E+00 -4.38295E+00 -2.24074E+00 -3.80840E+00 -3.25388E+00
 -2.98516E+00 -4.10011E+00 -1.96564E+00 -4.71641E+00 -8.18315E-01 -5.05679E+00 +3.77872E-01 -5.09631E+00
 +1.54005E+00 -4.83331E+00 +2.58832E+00 -4.28951E+00 +3.45243E+00 -3.50817E+00 +4.07759E+00 -2.55033E+00
 +4.42888E+00 -1.48945E+00 +4.49394E+00 -4.05099E-01 +4.28360E+00 +6.23973E-01 +3.83047E+00 +1.52652E+00
 +3.18558E+00 +2.24479E+00 +2.41345E+00 +2.73920E+00 +1.58599E+00 +2.99133E+00 +7.75812E-01 +3.00489E+00
 +4.96148E-02 +2.80471E+00 -5.37785E-01 +2.43373E+00 -9.48219E-01 +1.94841E+00 -1.16329E+00 +1.41290E+00
 -1.18555E+00 +8.92562E-01 -1.03771E+00 +4.47535E-01 -7.59848E-01 +1.26805E-01 -4.05029E-01 -3.65344E-02
 -3.36458E-02 -2.84507E-02 +2.92900E-01 +1.44755E-01 +5.18604E-01 +4.57170E-01 +5.98733E-01 +8.65931E-01
 +5.04604E-01 +1.31556E+00 +2.26803E-01 +1.74357E+00 -2.23459E-01 +2.08680E+00 -8.14998E-01 +2.28787E+00
 -1.49927E+00 +2.30120E+00 -2.21468E+00 +2.09791E+00 -2.89226E+00 +1.66923E+00 -3.46209E+00 +1.02805E+00
 -3.85997E+00 +2.08399E-01 -4.03363E+00 -7.37004E-01 -3.94798E+00 -1.74103E+00 -3.58882E+00 -2.72779E+00
 -2.96472E+00 -3.61920E+00 -2.10688E+00 -4.34184E+00 -1.06694E+00 -4.83345E+00 +8.71269E-02 -5.04855E+00
 +1.27646E+00 -4.96256E+00 +2.41790E+00 -4.57422E+00 +3.43092E+00 -3.90584E+00 +4.24433E+00 -3.00160E+00
 +4.80224E+00 -1.92389E+00 +5.06857E+00 -7.48108E-01 +5.02995E+00 +4.43644E-01 +4.69654E+00 +1.56940E+00
 +4.10083E+00 +2.55409E+00 +3.29457E+00 +3.33559E+00 +2.34402E+00 +3.86962E+00 +1.32403E+00 +4.13290E+00
 +3.11566E-01 +4.12451E+00 -6.20922E-01 +3.86524E+00 -1.41148E+00 +3.39497E+00 -2.01357E+00 +2.76855E+00
 -2.39953E+00 +2.05036E+00 -2.56216E+00 +1.30820E+00 -2.51444E+00 +6.07090E-01 -2.28747E+00 +3.43721E-03
 -1.92670E+00 -4.59759E-01 -1.48701E+00 -7.56347E-01 -1.02708E+00 -8.78774E-01 -6.03453E-01 -8.38029E-01
 -2.65079E-01 -6.61814E-01 -4.86675E-02 -3.91169E-01 +2.46498E-02 -7.58782E-02 -4.89255E-02 +2.30868E-01
 -2.55833E-01 +4.78048E-01 -5.66824E-01 +6.22075E-01 -9.40156E-01 +6.31267E-01 -1.32597E+00 +4.89097E-01
 -1.67142E+00 +1.95933E-01 -1.92612E+00 -2.30885E-01 -2.04723E+00 -7.58622E-01 -2.00391E+00 -1.34222E+00
 -1.78055E+00 -1.92853E+00 -1.37858E+00 -2.46137E+00 -8.16665E-01 -2.88687E+00 -1.29232E-01 -3.15855E+00
 +6.36400E-01 -3.24183E+00 +1.42416E+00 -3.11734E+00 +2.17413E+00 -2.78294E+00 +2.82784E+00 -2.25408E+00
 +3.33339E+00 -1.56263E+00 +3.65000E+00 -7.54215E-01 +3.75151E+00 +1.15648E-01 +3.62864E+00 +9.86286E-01
 +3.28963E+00 +1.79699E+00 +2.75943E+00 +2.49211E+00 +2.07740E+00 +3.02561E+00 +1.29382E+00 +3.36470E+00
 +4.65487E-01 +3.49230E+00 -3.49158E-01 +3.40805E+00 -1.09487E+00 +3.12779E+00 -1.72407E+00 +2.68178E+00
 -2.20052E+00 +2.11157E+00 -2.50186E+00 +1.46612E+00 -2.62083E+00 +7.97318E-01 -2.56513E+00 +1.55463E-01
 -2.35601E+00 -4.14932E-01 -2.02562E+00 -8.78647E-01 -1.61358E+00 -1.21227E+00 -1.16303E+00 -1.40550E+00
 -7.16510E-01 -1.46127E+00 -3.12168E-01 -1.39452E+00 +1.94812E-02 -1.23005E+00 +2.57882E-01 -9.99482E-01
 +3.93713E-01 -7.37787E-01 +4.29019E-01 -4.79628E-01 +3.76237E-01 -2.55964E-01 +2.56263E-01 -9.11787E-02
 +9.57903E-02 -9.98198E-04 -7.58043E-02 +8.62626E-03 -2.29685E-01 -5.83926E-02 -3.40581E-01 -1.89185E-01
 -3.89325E-01 -3.63696E-01 -3.64655E-01 -5.57114E-01 -2.64151E-01 -7.42690E-01 -9.42335E-02 -8.94647E-01
 +1.30744E-01 -9.90893E-01 +3.90177E-01 -1.01526E+00 +6.59475E-01 -9.59108E-01 +9.12665E-01 -8.22039E-01
 +1.12506E+00 -6.11855E-01 +1.27573E+00 -3.43623E-01 +1.34950E+00 -3.80636E-02 +1.33836E+00 +2.80579E-01
 +1.24210E+00 +5.86960E-01 +1.06813E+00 +8.57088E-01 +8.30615E-01 +1.07058E+00 +5.48929E-01 +1.21246E+00
 +2.45663E-01 +1.27442E+00 -5.56020E-02 +1.25532E+00 -3.32531E-01 +1.16098E+00 -5.66055E-01 +1.00337E+00
 -7.41982E-01 +7.99113E-01 -8.52041E-01 +5.67708E-01 -8.94299E-01 +3.29503E-01 -8.72911E-01 +1.03715E-01
