 Created: 19-Jan-2021
 $NMID
 ID='D:\BASISSIMULATI'
 FMTDAT='(8E13.5)'
 VOLUME=   1.00000E+00
 TRAMP=   1.00000E+00
 $END
 +2.70739E+01 +1.86777E+00 +2.37964E+01 +1.31133E+01 +1.59212E+01 +2.17575E+01 +5.15440E+00 +2.60077E+01
 -6.16966E+00 +2.50894E+01 -1.56572E+01 +1.94140E+01 -2.14277E+01 +1.04469E+01 -2.25435E+01 +3.16420E-01
 -1.91872E+01 -8.72921E+00 -1.25514E+01 -1.48711E+01 -4.47928E+00 -1.71324E+01 +3.03966E+00 -1.55536E+01
 +8.37803E+00 -1.10957E+01 +1.06507E+01 -5.31220E+00 +9.87257E+00 +1.10596E-01 +6.86487E+00 +3.81301E+00
 +2.95221E+00 +5.09839E+00 -4.55183E-01 +4.06211E+00 -2.27125E+00 +1.49150E+00 -2.02355E+00 -1.42152E+00
 +5.08844E-02 -3.46317E+00 +3.11838E+00 -3.76346E+00 +6.02657E+00 -2.04296E+00 +7.66019E+00 +1.32192E+00
 +7.27083E+00 +5.42384E+00 +4.68982E+00 +9.09484E+00 +3.71278E-01 +1.12396E+01 -4.73798E+00 +1.11363E+01
 -9.45665E+00 +8.62556E+00 -1.26785E+01 +4.14148E+00 -1.36474E+01 -1.41230E+00 -1.21284E+01 -6.89952E+00
 -8.43649E+00 -1.12305E+01 -3.32988E+00 -1.36086E+01 +2.19422E+00 -1.36837E+01 +7.13832E+00 -1.15850E+01
 +1.07144E+01 -7.83811E+00 +1.24764E+01 -3.20372E+00 +1.23540E+01 +1.51025E+00 +1.05970E+01 +5.61198E+00
 +7.66177E+00 +8.62813E+00 +4.08030E+00 +1.03330E+01 +3.52756E-01 +1.07152E+01 -3.11582E+00 +9.90981E+00
 -6.02994E+00 +8.12707E+00 -8.18404E+00 +5.60362E+00 -9.43259E+00 +2.58583E+00 -9.67288E+00 -6.60816E-01
 -8.85324E+00 -3.83461E+00 -7.00463E+00 -6.59448E+00 -4.27974E+00 -8.58605E+00 -9.77070E-01 -9.49898E+00
 +2.47057E+00 -9.14235E+00 +5.55226E+00 -7.51405E+00 +7.77312E+00 -4.83710E+00 +8.76415E+00 -1.54315E+00
 +8.37667E+00 +1.80137E+00 +6.73087E+00 +4.61277E+00 +4.19936E+00 +6.42221E+00 +1.32473E+00 +6.98591E+00
 -1.30984E+00 +6.34120E+00 -3.22286E+00 +4.78993E+00 -4.15013E+00 +2.81178E+00 -4.10047E+00 +9.30386E-01
 -3.33513E+00 -4.30072E-01 -2.27640E+00 -1.05680E+00 -1.37191E+00 -9.96165E-01 -9.54551E-01 -5.23435E-01
 -1.13963E+00 -4.33792E-02 -1.79020E+00 +4.86073E-02 -2.56168E+00 -4.96805E-01 -3.01298E+00 -1.68990E+00
 -2.75194E+00 -3.28164E+00 -1.57164E+00 -4.82403E+00 +4.63488E-01 -5.79514E+00 +3.00894E+00 -5.75374E+00
 +5.51378E+00 -4.47909E+00 +7.35808E+00 -2.05515E+00 +8.01705E+00 +1.12641E+00 +7.20672E+00 +4.44737E+00
 +4.97080E+00 +7.20774E+00 +1.68450E+00 +8.79613E+00 -2.02647E+00 +8.84058E+00 -5.43038E+00 +7.30044E+00
 -7.85968E+00 +4.47601E+00 -8.86286E+00 +9.35060E-01 -8.30026E+00 -2.62312E+00 -6.36163E+00 -5.52956E+00
 -3.50497E+00 -7.29187E+00 -3.36148E-01 -7.68957E+00 +2.53685E+00 -6.79813E+00 +4.63696E+00 -4.94159E+00
 +5.70653E+00 -2.59154E+00 +5.73355E+00 -2.43230E-01 +4.91588E+00 +1.69786E+00 +3.58003E+00 +2.99116E+00
 +2.08114E+00 +3.58365E+00 +7.13161E-01 +3.58129E+00 -3.48209E-01 +3.18447E+00 -1.05924E+00 +2.61074E+00
 -1.48147E+00 +2.02896E+00 -1.72905E+00 +1.52222E+00 -1.91025E+00 +1.08645E+00 -2.08280E+00 +6.59499E-01
 -2.23569E+00 +1.67074E-01 -2.30049E+00 -4.32516E-01 -2.18525E+00 -1.12009E+00 -1.81716E+00 -1.81262E+00
 -1.17850E+00 -2.38520E+00 -3.23558E-01 -2.70923E+00 +6.28753E-01 -2.69350E+00 +1.52351E+00 -2.31428E+00
 +2.20994E+00 -1.62509E+00 +2.58005E+00 -7.43576E-01 +2.59385E+00 +1.79555E-01 +2.28417E+00 +9.99072E-01
 +1.74087E+00 +1.60918E+00 +1.08084E+00 +1.96287E+00 +4.14142E-01 +2.07196E+00 -1.82496E-01 +1.98977E+00
 -6.77198E-01 +1.78370E+00 -1.07696E+00 +1.50809E+00 -1.40799E+00 +1.18691E+00 -1.69057E+00 +8.11904E-01
 -1.91858E+00 +3.56429E-01 -2.05164E+00 -2.00798E-01 -2.02364E+00 -8.51063E-01 -1.76551E+00 -1.53992E+00
 -1.23496E+00 -2.16731E+00 -4.43041E-01 -2.60544E+00 +5.32018E-01 -2.73029E+00 +1.54989E+00 -2.45822E+00
 +2.43268E+00 -1.77654E+00 +3.00349E+00 -7.58443E-01 +3.12926E+00 +4.43460E-01 +2.75619E+00 +1.62467E+00
 +1.92798E+00 +2.57131E+00 +7.81273E-01 +3.10715E+00 -4.81181E-01 +3.13321E+00 -1.63320E+00 +2.65016E+00
 -2.47331E+00 +1.75767E+00 -2.86658E+00 +6.31472E-01 -2.77034E+00 -5.16078E-01 -2.23828E+00 -1.48187E+00
 -1.40301E+00 -2.11327E+00 -4.42544E-01 -2.33546E+00 +4.60459E-01 -2.15941E+00 +1.15656E+00 -1.67051E+00
 +1.55615E+00 -1.00204E+00 +1.63988E+00 -3.01536E-01 +1.45244E+00 +3.01741E-01 +1.08321E+00 +7.20668E-01
 +6.40110E-01 +9.21355E-01 +2.23578E-01 +9.20796E-01 -9.34297E-02 +7.73763E-01 -2.75869E-01 +5.53716E-01
 -3.26855E-01 +3.33078E-01 -2.79524E-01 +1.67380E-01 -1.83926E-01 +8.59884E-02 -9.27035E-02 +9.00864E-02
 -4.87511E-02 +1.56850E-01 -7.68504E-02 +2.47730E-01 -1.79976E-01 +3.18513E-01 -3.39965E-01 +3.29150E-01
 -5.21682E-01 +2.52012E-01 -6.79679E-01 +7.77481E-02 -7.66436E-01 -1.81671E-01 -7.41353E-01 -4.93037E-01
 -5.79562E-01 -8.05412E-01 -2.79361E-01 -1.05717E+00 +1.33241E-01 -1.18625E+00 +6.04427E-01 -1.14257E+00
 +1.05813E+00 -9.00600E-01 +1.40745E+00 -4.69412E-01 +1.57082E+00 +1.02744E-01 +1.49012E+00 +7.31595E-01
 +1.14696E+00 +1.30868E+00 +5.72766E-01 +1.72067E+00 -1.50836E-01 +1.87289E+00 -9.02936E-01 +1.71198E+00
 -1.54468E+00 +1.24221E+00 -1.94718E+00 +5.30511E-01 -2.02018E+00 -3.02032E-01 -1.73458E+00 -1.10194E+00
 -1.13304E+00 -1.71419E+00 -3.24980E-01 -2.01569E+00 +5.33812E-01 -1.94363E+00 +1.27330E+00 -1.51171E+00
 +1.74609E+00 -8.09706E-01 +1.86061E+00 +1.43997E-02 +1.60275E+00 +7.86230E-01 +1.04019E+00 +1.34391E+00
 +3.07982E-01 +1.57514E+00 -4.22078E-01 +1.44352E+00 -9.81346E-01 +9.97688E-01 -1.24443E+00 +3.60416E-01
 -1.15981E+00 -3.00359E-01 -7.63382E-01 -8.12112E-01 -1.70889E-01 -1.04055E+00 +4.49466E-01 -9.24319E-01
 +9.18472E-01 -4.92702E-01 +1.09170E+00 +1.38640E-01 +8.98514E-01 +7.93934E-01 +3.64295E-01 +1.28001E+00
 -3.90531E-01 +1.43569E+00 -1.17563E+00 +1.17584E+00 -1.77513E+00 +5.18859E-01 -2.00126E+00 -4.10312E-01
 -1.74442E+00 -1.40376E+00 -1.00705E+00 -2.21651E+00 +8.81565E-02 -2.62476E+00 +1.31914E+00 -2.48272E+00
 +2.41113E+00 -1.76409E+00 +3.09914E+00 -5.77013E-01 +3.19183E+00 +8.52561E-01 +2.62141E+00 +2.22680E+00
 +1.46670E+00 +3.24156E+00 -5.75265E-02 +3.65673E+00 -1.64378E+00 +3.35460E+00 -2.95876E+00 +2.37179E+00
 -3.71862E+00 +8.95981E-01 -3.75496E+00 -7.72753E-01 -3.05538E+00 -2.28799E+00 -1.76835E+00 -3.33506E+00
 -1.70389E-01 -3.70281E+00 +1.39702E+00 -3.33167E+00 +2.60603E+00 -2.32620E+00 +3.21763E+00 -9.28870E-01
 +3.13532E+00 +5.38772E-01 +2.42416E+00 +1.75312E+00 +1.29068E+00 +2.46494E+00 +2.89393E-02 +2.55639E+00
 -1.05374E+00 +2.06486E+00 -1.71264E+00 +1.16802E+00 -1.82433E+00 +1.34304E-01 -1.41350E+00 -7.48162E-01
 -6.41909E-01 -1.24624E+00 +2.37509E-01 -1.24098E+00 +9.49098E-01 -7.56587E-01 +1.26802E+00 +4.77329E-02
 +1.08008E+00 +9.20779E-01 +4.12845E-01 +1.58587E+00 -5.69653E-01 +1.81397E+00 -1.60700E+00 +1.48502E+00
 -2.40718E+00 +6.22186E-01 -2.71994E+00 -6.09223E-01 -2.40064E+00 -1.93786E+00 -1.44946E+00 -3.04843E+00
 -1.66408E-02 -3.65492E+00 +1.62703E+00 -3.56765E+00 +3.14725E+00 -2.73898E+00 +4.21751E+00 -1.27765E+00
 +4.58868E+00 +5.70722E-01 +4.14190E+00 +2.47182E+00 +2.91435E+00 +4.06860E+00 +1.09347E+00 +5.05096E+00
 -1.01786E+00 +5.21504E+00 -3.05723E+00 +4.50150E+00 -4.66834E+00 +3.00632E+00 -5.56420E+00 +9.63799E-01
 -5.57698E+00 -1.29411E+00 -4.68694E+00 -3.39438E+00 -3.02640E+00 -4.98571E+00 -8.58906E-01 -5.79749E+00
 +1.46315E+00 -5.68615E+00 +3.55597E+00 -4.66150E+00 +5.06863E+00 -2.88871E+00 +5.74430E+00 -6.64279E-01
 +5.46832E+00 +1.63166E+00 +4.29381E+00 +3.60053E+00 +2.43822E+00 +4.89809E+00 +2.48456E-01 +5.30171E+00
 -1.86187E+00 +4.75865E+00 -3.49328E+00 +3.40306E+00 -4.34411E+00 +1.53495E+00 -4.27880E+00 -4.38525E-01
 -3.36370E+00 -2.08984E+00 -1.85864E+00 -3.06869E+00 -1.61819E-01 -3.18788E+00 +1.28289E+00 -2.47525E+00
 +2.09667E+00 -1.17529E+00 +2.06773E+00 +3.04671E-01 +1.21732E+00 +1.49510E+00 -1.91345E-01 +1.98945E+00
 -1.70882E+00 +1.56281E+00 -2.81127E+00 +2.51445E-01 -3.04332E+00 -1.63245E+00 -2.15607E+00 -3.56105E+00
 -2.01807E-01 -4.91729E+00 +2.44474E+00 -5.15934E+00 +5.15192E+00 -3.98190E+00 +7.17412E+00 -1.42990E+00
 +7.84086E+00 +2.07076E+00 +6.74539E+00 +5.78193E+00 +3.88209E+00 +8.81191E+00 -3.08537E-01 +1.03300E+01
 -5.00708E+00 +9.78497E+00 -9.18594E+00 +7.06965E+00 -1.18468E+01 +2.58589E+00 -1.22680E+01 -2.81517E+00
 -1.01988E+01 -8.00940E+00 -5.94723E+00 -1.18543E+01 -3.34497E-01 -1.34611E+01 +5.47944E+00 -1.24166E+01
 +1.02597E+01 -8.89535E+00 +1.29858E+01 -3.63186E+00 +1.30953E+01 +2.24491E+00 +1.06181E+01 +7.47590E+00
 +6.16677E+00 +1.09696E+01 +7.84444E-01 +1.20586E+01 -4.31279E+00 +1.06500E+01 -8.03264E+00 +7.23112E+00
 -9.66694E+00 +2.73148E+00 -9.04924E+00 -1.72393E+00 -6.57067E+00 -5.10317E+00 -3.05249E+00 -6.72304E+00
 +4.88168E-01 -6.40542E+00 +3.11526E+00 -4.49560E+00 +4.21880E+00 -1.74117E+00 +3.66334E+00 +9.32452E-01
 +1.80238E+00 +2.68668E+00 -6.41541E-01 +3.00181E+00 -2.79494E+00 +1.81408E+00 -3.88770E+00 -4.77366E-01
 -3.47284E+00 -3.13246E+00 -1.55227E+00 -5.28465E+00 +1.42364E+00 -6.18694E+00 +4.68001E+00 -5.42162E+00
 +7.32800E+00 -3.01737E+00 +8.60295E+00 +5.55309E-01 +8.06550E+00 +4.50599E+00 +5.71322E+00 +7.92694E+00
 +1.97691E+00 +1.00202E+01 -2.39237E+00 +1.02887E+01 -6.51045E+00 +8.64343E+00 -9.56866E+00 +5.40571E+00
 -1.10093E+01 +1.21007E+00 -1.06268E+01 -3.15740E+00 -8.57589E+00 -6.93881E+00 -5.29781E+00 -9.55494E+00
 -1.39248E+00 -1.06927E+01 +2.52060E+00 -1.03183E+01 +5.91578E+00 -8.62633E+00 +8.42494E+00 -5.95366E+00
 +9.84726E+00 -2.69039E+00 +1.01196E+01 +7.84636E-01 +9.27267E+00 +4.13154E+00 +7.39803E+00 +7.04561E+00
 +4.64181E+00 +9.24108E+00 +1.22368E+00 +1.04461E+01 -2.53462E+00 +1.04266E+01 -6.19658E+00 +9.04159E+00
 -9.23705E+00 +6.31650E+00 -1.11178E+01 +2.50485E+00 -1.14039E+01 -1.89271E+00 -9.89151E+00 -6.17648E+00
 -6.70839E+00 -9.56700E+00 -2.34495E+00 -1.13755E+01 +2.40741E+00 -1.11835E+01 +6.61052E+00 -8.97987E+00
 +9.39549E+00 -5.20606E+00 +1.01863E+01 -6.85120E-01 +8.86707E+00 +3.56093E+00 +5.83896E+00 +6.56462E+00
 +1.93847E+00 +7.67153E+00 -1.77087E+00 +6.73012E+00 -4.28449E+00 +4.15207E+00 -4.94339E+00 +8.15925E-01
 -3.63822E+00 -2.16953E+00 -8.65565E-01 -3.78317E+00 +2.39054E+00 -3.40327E+00 +4.92894E+00 -1.02124E+00
 +5.68477E+00 +2.71226E+00 +4.06810E+00 +6.63399E+00 +1.87252E-01 +9.37831E+00 -5.11645E+00 +9.77197E+00
