 Created: 19-Jan-2021
 $NMID
 ID='D:\BASISSIMULATI'
 FMTDAT='(8E13.5)'
 VOLUME=   1.00000E+00
 TRAMP=   1.00000E+00
 $END
 +4.80385E+01 +8.02769E-01 +4.69776E+01 +9.22598E+00 +4.39729E+01 +1.72095E+01 +3.91799E+01 +2.43339E+01
 +3.28498E+01 +3.02288E+01 +2.53141E+01 +3.45942E+01 +1.69649E+01 +3.72173E+01 +8.23188E+00 +3.79839E+01
 -4.42818E-01 +3.68836E+01 -8.63017E+00 +3.40087E+01 -1.59384E+01 +2.95470E+01 -2.20344E+01 +2.37688E+01
 -2.66615E+01 +1.70098E+01 -2.96514E+01 +9.64930E+00 -3.09315E+01 +2.08755E+00 -3.05252E+01 -5.27829E+00
 -2.85473E+01 -1.20770E+01 -2.51932E+01 -1.79837E+01 -2.07242E+01 -2.27373E+01 -1.54492E+01 -2.61525E+01
 -9.70396E+00 -2.81275E+01 -3.82997E+00 -2.86461E+01 +1.84627E+00 -2.77738E+01 +7.03199E+00 -2.56503E+01
 +1.14838E+01 -2.24762E+01 +1.50198E+01 -1.84983E+01 +1.75264E+01 -1.39911E+01 +1.89614E+01 -9.23910E+00
 +1.93516E+01 -4.51805E+00 +1.87865E+01 -7.89735E-02 +1.74080E+01 +3.86593E+00 +1.53977E+01 +7.15376E+00
 +1.29621E+01 +9.67765E+00 +1.03170E+01 +1.13893E+01 +7.67250E+00 +1.22977E+01 +5.21921E+00 +1.24636E+01
 +3.11648E+00 +1.19917E+01 +1.48373E+00 +1.10195E+01 +3.94952E-01 +9.70559E+00 -1.23359E-01 +8.21606E+00
 -9.08083E-02 +6.71250E+00 +4.31380E-01 +5.34034E+00 +1.34748E+00 +4.21930E+00 +2.53640E+00 +3.43621E+00
 +3.86203E+00 +3.04058E+00 +5.18411E+00 +3.04314E+00 +6.36880E+00 +3.41712E+00 +7.29822E+00 +4.10225E+00
 +7.87847E+00 +5.01084E+00 +8.04550E+00 +6.03555E+00 +7.76875E+00 +7.05825E+00 +7.05225E+00 +7.95911E+00
 +5.93338E+00 +8.62561E+00 +4.47939E+00 +8.96062E+00 +2.78210E+00 +8.88913E+00 +9.51174E-01 +8.36334E+00
 -8.93530E-01 +7.36577E+00 -2.62997E+00 +5.91032E+00 -4.14179E+00 +4.04129E+00 -5.32560E+00 +1.83060E+00
 -6.09716E+00 -6.26691E-01 -6.39631E+00 -3.21805E+00 -6.19023E+00 -5.82003E+00 -5.47510E+00 -8.30531E+00
 -4.27598E+00 -1.05497E+01 -2.64520E+00 -1.24388E+01 -6.59203E-01 -1.38743E+01 +1.58574E+00 -1.47784E+01
 +3.97878E+00 -1.50982E+01 +6.40028E+00 -1.48078E+01 +8.72803E+00 -1.39098E+01 +1.08433E+01 -1.24345E+01
 +1.26366E+01 -1.04386E+01 +1.40132E+01 -8.00250E+00 +1.48973E+01 -5.22606E+00 +1.52358E+01 -2.22439E+00
 +1.50004E+01 +8.77639E-01 +1.41896E+01 +3.95094E+00 +1.28282E+01 +6.86796E+00 +1.09663E+01 +9.50831E+00
 +8.67776E+00 +1.17641E+01 +6.05617E+00 +1.35445E+01 +3.21138E+00 +1.47800E+01 +2.64446E-01 +1.54253E+01
 -2.65770E+00 +1.54615E+01 -5.42788E+00 +1.48967E+01 -7.92450E+00 +1.37659E+01 -1.00371E+01 +1.21297E+01
 -1.16715E+01 +1.00711E+01 -1.27544E+01 +7.69199E+00 -1.32372E+01 +5.10841E+00 -1.30980E+01 +2.44508E+00
 -1.23434E+01 -1.70569E-01 -1.10085E+01 -2.61462E+00 -9.15494E+00 -4.77273E+00 -6.86870E+00 -6.54585E+00
 -4.25572E+00 -7.85525E+00 -1.43689E+00 -8.64654E+00 +1.45791E+00 -8.89248E+00 +4.29636E+00 -8.59436E+00
 +6.95037E+00 -7.78189E+00 +9.30262E+00 -6.51154E+00 +1.12526E+01 -4.86341E+00 +1.27217E+01 -2.93670E+00
 +1.36572E+01 -8.44206E-01 +1.40347E+01 +1.29409E+00 +1.38592E+01 +3.35778E+00 +1.31644E+01 +5.23288E+00
 +1.20099E+01 +6.81825E+00 +1.04778E+01 +8.03125E+00 +8.66751E+00 +8.81235E+00 +6.68923E+00 +9.12824E+00
 +4.65769E+00 +8.97339E+00 +2.68503E+00 +8.36992E+00 +8.74256E-01 +7.36576E+00 -6.86782E-01 +6.03121E+00
 -1.93026E+00 +4.45419E+00 -2.81195E+00 +2.73443E+00 -3.31321E+00 +9.76984E-01 -3.44128E+00 -7.14511E-01
 -3.22788E+00 -2.24433E+00 -2.72622E+00 -3.53060E+00 -2.00668E+00 -4.51015E+00 -1.15132E+00 -5.14216E+00
 -2.47843E-01 -5.41012E+00 +6.16811E-01 -5.32224E+00 +1.36267E+00 -4.91015E+00 +1.92233E+00 -4.22599E+00
 +2.24561E+00 -3.33825E+00 +2.30287E+00 -2.32644E+00 +2.08690E+00 -1.27521E+00 +1.61310E+00 -2.68115E-01
 +9.18137E-01 +6.18368E-01 +5.70239E-02 +1.32028E+00 -9.01088E-01 +1.79063E+00 -1.87809E+00 +2.00258E+00
 -2.79272E+00 +1.95116E+00 -3.56662E+00 +1.65340E+00 -4.13010E+00 +1.14686E+00 -4.42740E+00 +4.86702E-01
 -4.42088E+00 -2.58481E-01 -4.09396E+00 -1.01183E+00 -3.45270E+00 -1.69392E+00 -2.52560E+00 -2.22875E+00
 -1.36208E+00 -2.54940E+00 -2.93207E-02 -2.60312E+00 +1.39200E+00 -2.35555E+00 +2.81301E+00 -1.79351E+00
 +4.14244E+00 -9.26503E-01 +5.29269E+00 +2.13365E-01 +6.18566E+00 +1.57303E+00 +6.75796E+00 +3.08152E+00
 +6.96526E+00 +4.65418E+00 +6.78531E+00 +6.19792E+00 +6.21968E+00 +7.61704E+00 +5.29390E+00 +8.81920E+00
 +4.05609E+00 +9.72137E+00 +2.57420E+00 +1.02551E+01 +9.31981E-01 +1.03710E+01 -7.76040E-01 +1.00422E+01
 -2.45021E+00 +9.26597E+00 -3.99174E+00 +8.06452E+00 -5.30863E+00 +6.48392E+00 -6.32115E+00 +4.59162E+00
 -6.96659E+00 +2.47285E+00 -7.20296E+00 +2.25861E-01 -7.01144E+00 -2.04349E+00 -6.39749E+00 -4.22761E+00
 -5.39049E+00 -6.22309E+00 -4.04200E+00 -7.93635E+00 -2.42276E+00 -9.28862E+00 -6.18659E-01 -1.02201E+01
 +1.27420E+00 -1.06931E+01 +3.15490E+00 -1.06935E+01 +4.92331E+00 -1.02314E+01 +6.48564E+00 -9.34008E+00
 +7.75946E+00 -8.07398E+00 +8.67806E+00 -6.50509E+00 +9.19392E+00 -4.71895E+00 +9.28093E+00 -2.80969E+00
 +8.93554E+00 -8.74863E-01 +8.17653E+00 +9.89885E-01 +7.04360E+00 +2.69585E+00 +5.59490E+00 +4.16582E+00
 +3.90349E+00 +5.33785E+00 +2.05318E+00 +6.16812E+00 +1.33799E-01 +6.63273E+00 -1.76370E+00 +6.72825E+00
 -3.55208E+00 +6.47127E+00 -5.15241E+00 +5.89672E+00 -6.49790E+00 +5.05527E+00 -7.53720E+00 +4.00996E+00
 -8.23654E+00 +2.83215E+00 -8.58100E+00 +1.59720E+00 -8.57457E+00 +3.80015E-01 -8.23927E+00 -7.49232E-01
 -7.61322E+00 -1.72901E+00 -6.74786E+00 -2.50967E+00 -5.70452E+00 -3.05599E+00 -4.55056E+00 -3.34868E+00
 -3.35524E+00 -3.38503E+00 -2.18564E+00 -3.17849E+00 -1.10282E+00 -2.75729E+00 -1.58464E-01 -2.16224E+00
 +6.07791E-01 -1.44383E+00 +1.17026E+00 -6.58767E-01 +1.51817E+00 +1.33742E-01 +1.65571E+00 +8.75821E-01
 +1.60112E+00 +1.51457E+00 +1.38494E+00 +2.00536E+00 +1.04756E+00 +2.31450E+00 +6.36082E-01 +2.42124E+00
 +2.00979E-01 +2.31891E+00 -2.07537E-01 +2.01511E+00 -5.43004E-01 +1.53103E+00 -7.65924E-01 +8.99948E-01
 -8.46478E-01 +1.64890E-01 -7.66577E-01 -6.24254E-01 -5.21131E-01 -1.41405E+00 -1.18443E-01 -2.15106E+00
 +4.20281E-01 -2.78533E+00 +1.06227E+00 -3.27370E+00 +1.76531E+00 -3.58260E+00 +2.48047E+00 -3.69031E+00
 +3.15532E+00 -3.58837E+00 +3.73734E+00 -3.28223E+00 +4.17748E+00 -2.79095E+00 +4.43338E+00 -2.14604E+00
 +4.47234E+00 -1.38957E+00 +4.27360E+00 -5.71518E-01 +3.82996E+00 +2.53347E-01 +3.14855E+00 +1.02888E+00
 +2.25074E+00 +1.70113E+00 +1.17109E+00 +2.22171E+00 -4.43877E-02 +2.55091E+00 -1.34079E+00 +2.66025E+00
 -2.65736E+00 +2.53436E+00 -3.93096E+00 +2.17204E+00 -5.09967E+00 +1.58650E+00 -6.10634E+00 +8.04712E-01
 -6.90186E+00 -1.34128E-01 -7.44801E+00 -1.18079E+00 -7.71962E+00 -2.27887E+00 -7.70604E+00 -3.36810E+00
 -7.41169E+00 -4.38782E+00 -6.85578E+00 -5.28055E+00 -6.07118E+00 -5.99536E+00 -5.10252E+00 -6.49085E+00
 -4.00354E+00 -6.73754E+00 -2.83406E+00 -6.71967E+00 -1.65654E+00 -6.43606E+00 -5.32485E-01 -5.90022E+00
 +4.80947E-01 -5.13961E+00 +1.33418E+00 -4.19403E+00 +1.98793E+00 -3.11338E+00 +2.41529E+00 -1.95481E+00
 +2.60311E+00 -7.79463E-01 +2.55254E+00 +3.50981E-01 +2.27878E+00 +1.37778E+00 +1.80995E+00 +2.24844E+00
 +1.18528E+00 +2.91962E+00 +4.52641E-01 +3.35954E+00 -3.34436E-01 +3.54967E+00 -1.12001E+00 +3.48572E+00
 -1.84916E+00 +3.17772E+00 -2.47129E+00 +2.64934E+00 -2.94317E+00 +1.93642E+00 -3.23163E+00 +1.08477E+00
 -3.31550E+00 +1.47424E-01 -3.18697E+00 -8.18535E-01 -2.85209E+00 -1.75537E+00 -2.33047E+00 -2.60814E+00
 -1.65413E+00 -3.32799E+00 -8.65606E-01 -3.87503E+00 -1.54761E-02 -4.22080E+00 +8.40738E-01 -4.34994E+00
 +1.64592E+00 -4.26117E+00 +2.34489E+00 -3.96735E+00 +2.88781E+00 -3.49479E+00 +3.23341E+00 -2.88162E+00
 +3.35164E+00 -2.17550E+00 +3.22577E+00 -1.43067E+00 +2.85362E+00 -7.04583E-01 +2.24808E+00 -5.43091E-02
 +1.43652E+00 +4.67146E-01 +4.59498E-01 +8.14282E-01 -6.31519E-01 +9.52154E-01 -1.77703E+00 +8.58822E-01
 -2.91299E+00 +5.27025E-01 -3.97463E+00 -3.50282E-02 -4.90039E+00 -8.03825E-01 -5.63571E+00 -1.74169E+00
 -6.13652E+00 -2.79881E+00 -6.37209E+00 -3.91614E+00 -6.32710E+00 -5.02888E+00 -6.00282E+00 -6.07039E+00
 -5.41727E+00 -6.97642E+00 -4.60430E+00 -7.68910E+00 -3.61169E+00 -8.16077E+00 -2.49834E+00 -8.35711E+00
 -1.33068E+00 -8.25960E+00 -1.78625E-01 -7.86692E+00 +8.88825E-01 -7.19536E+00 +1.80793E+00 -6.27803E+00
 +2.52431E+00 -5.16308E+00 +2.99641E+00 -3.91087E+00 +3.19827E+00 -2.59030E+00 +3.12124E+00 -1.27464E+00
 +2.77460E+00 -3.69088E-02 +2.18497E+00 +1.05466E+00 +1.39468E+00 +1.94095E+00 +4.58928E-01 +2.57575E+00
 -5.57766E-01 +2.92863E+00 -1.58588E+00 +2.98689E+00 -2.55551E+00 +2.75629E+00 -3.40102E+00 +2.26061E+00
 -4.06550E+00 +1.53993E+00 -4.50452E+00 +6.47921E-01 -4.68923E+00 -3.51889E-01 -4.60820E+00 -1.39041E+00
 -4.26824E+00 -2.39771E+00 -3.69389E+00 -3.30782E+00 -2.92565E+00 -4.06312E+00 -2.01725E+00 -4.61832E+00
 -1.03180E+00 -4.94340E+00 -3.74668E-02 -5.02559E+00 +8.97297E-01 -4.87007E+00 +1.70852E+00 -4.49944E+00
 +2.34113E+00 -3.95192E+00 +2.75280E+00 -3.27850E+00 +2.91682E+00 -2.53916E+00 +2.82391E+00 -1.79845E+00
 +2.48276E+00 -1.12082E+00 +1.91934E+00 -5.65928E-01 +1.17498E+00 -1.84292E-01 +3.03309E-01 -1.36881E-02
 -6.33535E-01 -7.64208E-02 -1.56939E+00 -3.77742E-01 -2.43876E+00 -9.05502E-01 -3.18137E+00 -1.63105E+00
 -3.74641E+00 -2.51132E+00 -4.09599E+00 -3.49192E+00 -4.20762E+00 -4.51107E+00 -4.07561E+00 -5.50393E+00
 -3.71122E+00 -6.40721E+00 -3.14157E+00 -7.16358E+00 -2.40752E+00 -7.72555E+00 -1.56044E+00 -8.05870E+00
 -6.58450E-01 -8.14385E+00 +2.37873E-01 -7.97811E+00 +1.06983E+00 -7.57476E+00 +1.78472E+00 -6.96198E+00
 +2.33938E+00 -6.18052E+00 +2.70304E+00 -5.28054E+00 +2.85907E+00 -4.31783E+00 +2.80574E+00 -3.34976E+00
 +2.55580E+00 -2.43120E+00 +2.13501E+00 -1.61081E+00 +1.57975E+00 -9.27847E-01 +9.33925E-01 -4.09845E-01
 +2.45343E-01 -7.12436E-02 -4.37986E-01 +8.69509E-02 -1.07150E+00 +7.64471E-02 -1.61728E+00 -7.99964E-02
 -2.04667E+00 -3.51030E-01 -2.34200E+00 -6.99743E-01 -2.49735E+00 -1.08702E+00 -2.51847E+00 -1.47489E+00
 -2.42156E+00 -1.82974E+00 -2.23140E+00 -2.12487E+00 -1.97875E+00 -2.34255E+00 -1.69735E+00 -2.47506E+00
 -1.42083E+00 -2.52497E+00 -1.17962E+00 -2.50443E+00 -9.98331E-01 -2.43367E+00 -8.93653E-01 -2.33882E+00
