 Created: 19-Jan-2021
 $NMID
 ID='D:\BASISSIMULATI'
 FMTDAT='(8E13.5)'
 VOLUME=   1.00000E+00
 TRAMP=   1.00000E+00
 $END
 +4.34570E+01 +9.90209E-01 +3.85511E+01 +3.17493E+00 +2.58041E+01 +5.21140E+00 +8.29933E+00 +7.04279E+00
 -9.77473E+00 +8.44791E+00 -2.42020E+01 +9.08003E+00 -3.18032E+01 +8.60401E+00 -3.12019E+01 +6.87996E+00
 -2.30991E+01 +4.11503E+00 -9.99900E+00 +9.07384E-01 +4.51791E+00 -1.85970E+00 +1.67589E+01 -3.26097E+00
 +2.38531E+01 -2.64182E+00 +2.44087E+01 +1.04131E-01 +1.87390E+01 +4.39844E+00 +8.63046E+00 +9.05190E+00
 -3.24631E+00 +1.25537E+01 -1.40921E+01 +1.35066E+01 -2.16808E+01 +1.10818E+01 -2.48246E+01 +5.34807E+00
 -2.35057E+01 -2.64438E+00 -1.86817E+01 -1.10750E+01 -1.18688E+01 -1.78193E+01 -4.65423E+00 -2.10472E+01
 +1.70806E+00 -1.97773E+01 +6.51226E+00 -1.42171E+01 +9.59801E+00 -5.77041E+00 +1.11768E+01 +3.30785E+00
 +1.15859E+01 +1.05239E+01 +1.10808E+01 +1.38540E+01 +9.74530E+00 +1.23422E+01 +7.54359E+00 +6.40661E+00
 +4.47546E+00 -2.24713E+00 +7.51497E-01 -1.10886E+01 -3.10420E+00 -1.74754E+01 -6.28933E+00 -1.94101E+01
 -7.90790E+00 -1.61215E+01 -7.25366E+00 -8.29634E+00 -4.09659E+00 +2.10659E+00 +1.13589E+00 +1.24096E+01
 +7.36478E+00 +1.99730E+01 +1.30762E+01 +2.29363E+01 +1.67025E+01 +2.07260E+01 +1.70610E+01 +1.41872E+01
 +1.37190E+01 +5.30520E+00 +7.16582E+00 -3.39351E+00 -1.27045E+00 -9.57744E+00 -9.74800E+00 -1.17651E+01
 -1.63903E+01 -9.70836E+00 -1.97812E+01 -4.40039E+00 -1.93318E+01 +2.28033E+00 -1.54130E+01 +8.17008E+00
 -9.21837E+00 +1.14745E+01 -2.40306E+00 +1.12786E+01 +3.38828E+00 +7.76533E+00 +6.96143E+00 +2.08974E+00
 +7.85212E+00 -4.03530E+00 +6.37120E+00 -8.89927E+00 +3.41762E+00 -1.13186E+01 +1.34312E-01 -1.09630E+01
 -2.47229E+00 -8.38990E+00 -3.82307E+00 -4.79269E+00 -3.87866E+00 -1.55619E+00 -3.04987E+00 +2.24547E-01
 -1.95347E+00 +1.02590E-01 -1.11368E+00 -1.60026E+00 -7.25754E-01 -3.94309E+00 -5.73034E-01 -5.72732E+00
 -1.30534E-01 -5.94227E+00 +1.18209E+00 -4.14072E+00 +3.69378E+00 -6.16496E-01 +7.24226E+00 +3.67681E+00
 +1.11037E+01 +7.43878E+00 +1.41391E+01 +9.46212E+00 +1.51274E+01 +9.05185E+00 +1.31871E+01 +6.28216E+00
 +8.14486E+00 +2.00236E+00 +7.19169E-01 -2.41458E+00 -7.56591E+00 -5.50240E+00 -1.47349E+01 -6.17343E+00
 -1.88953E+01 -4.07941E+00 -1.87994E+01 +2.56336E-01 -1.42596E+01 +5.58053E+00 -6.28141E+00 +1.02830E+01
 +3.14532E+00 +1.28853E+01 +1.15527E+01 +1.24917E+01 +1.66620E+01 +9.06313E+00 +1.70229E+01 +3.42897E+00
 +1.24368E+01 -2.96390E+00 +4.03585E+00 -8.48400E+00 -6.01117E+00 -1.17941E+01 -1.50855E+01 -1.22278E+01
 -2.08317E+01 -9.95212E+00 -2.17934E+01 -5.87257E+00 -1.77901E+01 -1.32078E+00 -9.93243E+00 +2.36952E+00
 -2.78723E-01 +4.26077E+00 +8.76007E+00 +4.06067E+00 +1.50876E+01 +2.15155E+00 +1.74680E+01 -5.96397E-01
 +1.57984E+01 -3.15443E+00 +1.10438E+01 -4.68978E+00 +4.87127E+00 -4.82545E+00 -8.88823E-01 -3.72228E+00
 -4.78303E+00 -1.96467E+00 -6.11383E+00 -3.00110E-01 -5.05304E+00 +6.67678E-01 -2.47457E+00 +7.17704E-01
 +4.18648E-01 +9.48684E-02 +2.53758E+00 -5.93800E-01 +3.26848E+00 -6.32686E-01 +2.63648E+00 +4.91748E-01
 +1.22717E+00 +2.83927E+00 -9.38593E-02 +5.92187E+00 -5.55021E-01 +8.81318E+00 +1.91943E-01 +1.04360E+01
 +1.90795E+00 +9.93744E+00 +3.82926E+00 +7.02573E+00 +4.93832E+00 +2.14636E+00 +4.35011E+00 -3.57457E+00
 +1.67866E+00 -8.61963E+00 -2.74863E+00 -1.15227E+01 -7.91331E+00 -1.13308E+01 -1.23710E+01 -7.93725E+00
 -1.46837E+01 -2.17237E+00 -1.38851E+01 +4.39013E+00 -9.82726E+00 +9.86404E+00 -3.29180E+00 +1.25959E+01
 +4.18165E+00 +1.16614E+01 +1.07065E+01 +7.16014E+00 +1.45817E+01 +2.13957E-01 +1.47851E+01 -7.33679E+00
 +1.12791E+01 -1.34527E+01 +5.03206E+00 -1.64776E+01 -2.25052E+00 -1.56101E+01 -8.60787E+00 -1.11249E+01
 -1.23734E+01 -4.27849E+00 -1.26303E+01 +3.06871E+00 -9.44038E+00 +8.99772E+00 -3.78670E+00 +1.20782E+01
 +2.74515E+00 +1.17542E+01 +8.44135E+00 +8.45811E+00 +1.19430E+01 +3.42744E+00 +1.25943E+01 -1.70933E+00
 +1.05594E+01 -5.44181E+00 +6.68972E+00 -6.82217E+00 +2.19845E+00 -5.71001E+00 -1.73956E+00 -2.75099E+00
 -4.33220E+00 +8.91261E-01 -5.35182E+00 +3.95221E+00 -5.10912E+00 +5.49040E+00 -4.24602E+00 +5.17913E+00
 -3.43434E+00 +3.37472E+00 -3.09576E+00 +9.46720E-01 -3.24550E+00 -1.06416E+00 -3.51411E+00 -1.83845E+00
 -3.33516E+00 -1.08327E+00 -2.22486E+00 +8.55258E-01 -4.45039E-02 +3.11214E+00 +2.85951E+00 +4.61558E+00
 +5.70164E+00 +4.48426E+00 +7.48671E+00 +2.37246E+00 +7.35306E+00 -1.35906E+00 +4.91375E+00 -5.71171E+00
 +4.73049E-01 -9.34314E+00 -4.96980E+00 -1.09961E+01 -9.95054E+00 -9.92398E+00 -1.29471E+01 -6.17241E+00
 -1.28450E+01 -6.17684E-01 -9.31558E+00 +5.25843E+00 -2.98128E+00 +9.79552E+00 +4.69691E+00 +1.16537E+01
 +1.17895E+01 +1.02300E+01 +1.64257E+01 +5.86107E+00 +1.73251E+01 -2.55756E-01 +1.41751E+01 -6.40207E+00
 +7.73825E+00 -1.08376E+01 -3.46021E-01 -1.23080E+01 -8.01112E+00 -1.04072E+01 -1.33334E+01 -5.68615E+00
 -1.50566E+01 +5.23603E-01 -1.29191E+01 +6.51231E+00 -7.69154E+00 +1.06962E+01 -9.22468E-01 +1.20683E+01
 +5.52680E+00 +1.04611E+01 +1.00137E+01 +6.54862E+00 +1.15542E+01 +1.59692E+00 +1.00461E+01 -2.94999E+00
 +6.22105E+00 -5.91296E+00 +1.35677E+00 -6.71046E+00 -3.14840E+00 -5.48229E+00 -6.19837E+00 -2.97625E+00
 -7.28844E+00 -2.47196E-01 -6.57937E+00 +1.72304E+00 -4.74923E+00 +2.35461E+00 -2.68901E+00 +1.63910E+00
 -1.15625E+00 +9.83683E-02 -5.09907E-01 -1.44528E+00 -6.15730E-01 -2.20140E+00 -9.48927E-01 -1.72579E+00
 -8.49811E-01 -1.04261E-01 +1.66184E-01 +2.06136E+00 +2.16225E+00 +3.86262E+00 +4.69384E+00 +4.41851E+00
 +6.92197E+00 +3.21820E+00 +7.89500E+00 +3.50578E-01 +6.90531E+00 -3.46592E+00 +3.79612E+00 -7.07351E+00
 -8.95457E-01 -9.23157E+00 -6.02271E+00 -9.02723E+00 -1.01303E+01 -6.20518E+00 -1.18875E+01 -1.30383E+00
 -1.05203E+01 +4.45615E+00 -6.10231E+00 +9.50594E+00 +3.97357E-01 +1.23879E+01 +7.33823E+00 +1.22001E+01
 +1.28487E+01 +8.88615E+00 +1.53568E+01 +3.27762E+00 +1.40546E+01 -3.13013E+00 +9.15282E+00 -8.60353E+00
 +1.84737E+00 -1.16708E+01 -6.00020E+00 -1.15453E+01 -1.23753E+01 -8.34438E+00 -1.56677E+01 -3.04004E+00
 -1.51106E+01 +2.84173E+00 -1.09747E+01 +7.67699E+00 -4.46561E+00 +1.02150E+01 +2.64108E+00 +9.92190E+00
 +8.51123E+00 +7.09613E+00 +1.17582E+01 +2.73005E+00 +1.17954E+01 -1.83074E+00 +8.93984E+00 -5.31558E+00
 +4.24973E+00 -6.90684E+00 -8.40460E-01 -6.45145E+00 -4.96422E+00 -4.44681E+00 -7.20728E+00 -1.81717E+00
 -7.31862E+00 +4.35655E-01 -5.69645E+00 +1.58481E+00 -3.17203E+00 +1.41479E+00 -6.78482E-01 +2.64750E-01
 +1.07649E+00 -1.13060E+00 +1.82297E+00 -1.94213E+00 +1.76103E+00 -1.58048E+00 +1.41286E+00 +5.67851E-02
 +1.35899E+00 +2.51534E+00 +1.96191E+00 +4.92076E+00 +3.18361E+00 +6.27925E+00 +4.56828E+00 +5.84183E+00
 +5.40113E+00 +3.40632E+00 +4.98947E+00 -5.51682E-01 +2.96546E+00 -4.97291E+00 -5.02763E-01 -8.51436E+00
 -4.67712E+00 -9.96566E+00 -8.42045E+00 -8.65060E+00 -1.05294E+01 -4.68220E+00 -1.01279E+01 +1.01756E+00
 -6.99213E+00 +6.94980E+00 -1.69453E+00 +1.14594E+01 +4.49436E+00 +1.32198E+01 +9.93064E+00 +1.16341E+01
 +1.30596E+01 +7.02881E+00 +1.28791E+01 +5.76385E-01 +9.26207E+00 -6.03121E+00 +3.03273E+00 -1.10630E+01
 -4.23367E+00 -1.32392E+01 -1.06358E+01 -1.20846E+01 -1.44745E+01 -8.04317E+00 -1.47290E+01 -2.32244E+00
 -1.13425E+01 +3.47834E+00 -5.23156E+00 +7.83941E+00 +1.98029E+00 +9.74674E+00 +8.42491E+00 +8.94715E+00
 +1.25095E+01 +5.96299E+00 +1.33419E+01 +1.87409E+00 +1.09408E+01 -2.05321E+00 +6.17806E+00 -4.76558E+00
 +4.80980E-01 -5.72309E+00 -4.60461E+00 -5.01024E+00 -7.85503E+00 -3.23336E+00 -8.68132E+00 -1.25115E+00
 -7.22907E+00 +1.60682E-01 -4.25076E+00 +5.91435E-01 -8.07955E-01 +1.26706E-01 +2.08959E+00 -7.13812E-01
 +3.78757E+00 -1.20609E+00 +4.13982E+00 -7.33972E-01 +3.47223E+00 +9.30964E-01 +2.38623E+00 +3.48705E+00
 +1.48356E+00 +6.15612E+00 +1.11758E+00 +7.92402E+00 +1.26233E+00 +7.89282E+00 +1.54521E+00 +5.62682E+00
 +1.42786E+00 +1.37114E+00 +4.64676E-01 -3.94155E+00 -1.46137E+00 -8.91368E+00 -4.02012E+00 -1.20772E+01
 -6.48708E+00 -1.23430E+01 -7.96102E+00 -9.36547E+00 -7.67900E+00 -3.70303E+00 -5.32162E+00 +3.28595E+00
 -1.19780E+00 +9.79062E+00 +3.76721E+00 +1.40436E+01 +8.25428E+00 +1.48213E+01 +1.09265E+01 +1.18016E+01
 +1.08468E+01 +5.67063E+00 +7.80455E+00 -2.05351E+00 +2.43962E+00 -9.43113E+00 -3.88764E+00 -1.46258E+01
 -9.45466E+00 -1.63930E+01 -1.26638E+01 -1.43945E+01 -1.25148E+01 -9.25452E+00 -8.91840E+00 -2.35068E+00
 -2.75118E+00 +4.58865E+00 +4.37196E+00 +9.95768E+00 +1.05455E+01 +1.26788E+01 +1.41121E+01 +1.24304E+01
 +1.41330E+01 +9.64682E+00 +1.06516E+01 +5.31129E+00 +4.67169E+00 +6.22363E-01 -2.14141E+00 -3.35312E+00
 -7.94656E+00 -5.93569E+00 -1.12533E+01 -6.93131E+00 -1.13331E+01 -6.56383E+00 -8.39710E+00 -5.28972E+00
 -3.49266E+00 -3.57799E+00 +1.84023E+00 -1.74187E+00 +6.04323E+00 +1.18725E-01 +7.99686E+00 +2.05331E+00
 +7.32363E+00 +4.11437E+00 +4.45201E+00 +6.20156E+00 +4.32254E-01 +7.97459E+00 -3.42715E+00 +8.88735E+00
 -5.98125E+00 +8.34788E+00 -6.59362E+00 +5.95660E+00 -5.29953E+00 +1.73716E+00 -2.74419E+00 -3.73450E+00
 +7.31670E-02 -9.37126E+00 +2.15744E+00 -1.38012E+01 +2.85580E+00 -1.57307E+01 +2.06474E+00 -1.43423E+01
 +2.41429E-01 -9.60283E+00 -1.77859E+00 -2.37210E+00 -3.09063E+00 +5.74133E+00 -3.04932E+00 +1.27583E+01
 -1.50398E+00 +1.68464E+01 +1.13885E+00 +1.68330E+01 +4.04636E+00 +1.25631E+01 +6.23942E+00 +4.99064E+00
 +6.92722E+00 -4.03691E+00 +5.78369E+00 -1.22481E+01 +3.07247E+00 -1.75459E+01 -4.22948E-01 -1.85683E+01
 -3.64270E+00 -1.50516E+01 -5.58884E+00 -7.89518E+00 -5.64842E+00 +1.09183E+00 -3.79572E+00 +9.68585E+00
 -6.07337E-01 +1.58452E+01 +2.91543E+00 +1.82373E+01 +5.65980E+00 +1.65522E+01 +6.74978E+00 +1.15221E+01
 +5.81786E+00 +4.65476E+00 +3.11399E+00 -2.22764E+00 -5.80934E-01 -7.50283E+00 -4.20706E+00 -1.01634E+01
 -6.75952E+00 -1.00198E+01 -7.59616E+00 -7.64879E+00 -6.62109E+00 -4.12312E+00 -4.28813E+00 -6.25521E-01
 -1.42825E+00 +1.92386E+00 +1.03782E+00 +3.10892E+00 +2.40376E+00 +3.06178E+00 +2.39771E+00 +2.31279E+00
 +1.24709E+00 +1.51473E+00 -4.29064E-01 +1.14912E+00 -1.85918E+00 +1.32384E+00 -2.40422E+00 +1.73532E+00
