 Created: 19-Jan-2021
 $NMID
 ID='D:\BASISSIMULATI'
 FMTDAT='(8E13.5)'
 VOLUME=   1.00000E+00
 TRAMP=   1.00000E+00
 $END
 +3.01871E+01 +1.15147E+00 +2.67308E+01 +1.33480E+01 +1.82524E+01 +2.26382E+01 +6.68344E+00 +2.70454E+01
 -5.34651E+00 +2.57368E+01 -1.51359E+01 +1.92155E+01 -2.05528E+01 +9.19222E+00 -2.05365E+01 -1.83297E+00
 -1.53377E+01 -1.11755E+01 -6.44287E+00 -1.66103E+01 +3.79933E+00 -1.68985E+01 +1.27531E+01 -1.20712E+01
 +1.81330E+01 -3.40434E+00 +1.85478E+01 +6.90488E+00 +1.38225E+01 +1.62783E+01 +5.02219E+00 +2.23792E+01
 -5.81966E+00 +2.36659E+01 -1.62002E+01 +1.97458E+01 -2.37469E+01 +1.14471E+01 -2.67732E+01 +6.00324E-01
 -2.46577E+01 -1.04138E+01 -1.79611E+01 -1.92333E+01 -8.26088E+00 -2.40633E+01 +2.24846E+00 -2.40732E+01
 +1.12863E+01 -1.95524E+01 +1.70174E+01 -1.17981E+01 +1.84574E+01 -2.76946E+00 +1.56609E+01 +5.39840E+00
 +9.65722E+00 +1.09005E+01 +2.15954E+00 +1.26663E+01 -4.87303E+00 +1.05720E+01 -9.70889E+00 +5.41845E+00
 -1.12393E+01 -1.30772E+00 -9.20591E+00 -7.82131E+00 -4.21474E+00 -1.24753E+01 +2.45316E+00 -1.41401E+01
 +9.17922E+00 -1.24388E+01 +1.44033E+01 -7.79222E+00 +1.69809E+01 -1.27400E+00 +1.64204E+01 +5.67655E+00
 +1.29513E+01 +1.16070E+01 +7.42153E+00 +1.53816E+01 +1.05853E+00 +1.64126E+01 -4.83683E+00 +1.47466E+01
 -9.18750E+00 +1.09972E+01 -1.13587E+01 +6.15323E+00 -1.12537E+01 +1.31942E+00 -9.27594E+00 -2.54340E+00
 -6.17963E+00 -4.81717E+00 -2.85650E+00 -5.32373E+00 -1.15436E-01 -4.30849E+00 +1.49118E+00 -2.32760E+00
 +1.75879E+00 -7.71487E-02 +8.28223E-01 +1.78729E+00 -8.97576E-01 +2.79596E+00 -2.88605E+00 +2.74492E+00
 -4.61727E+00 +1.70061E+00 -5.69934E+00 -6.00089E-02 -5.93283E+00 -2.14852E+00 -5.31702E+00 -4.17115E+00
 -4.00749E+00 -5.81359E+00 -2.24616E+00 -6.88653E+00 -2.88856E-01 -7.32852E+00 +1.64842E+00 -7.17545E+00
 +3.41316E+00 -6.51483E+00 +4.91056E+00 -5.44425E+00 +6.07903E+00 -4.04845E+00 +6.86300E+00 -2.40020E+00
 +7.19823E+00 -5.79502E-01 +7.01810E+00 +1.30148E+00 +6.28021E+00 +3.08335E+00 +5.00304E+00 +4.56611E+00
 +3.29695E+00 +5.54144E+00 +1.37384E+00 +5.84432E+00 -4.74770E-01 +5.40922E+00 -1.93128E+00 +4.31160E+00
 -2.72648E+00 +2.77774E+00 -2.71551E+00 +1.15344E+00 -1.93252E+00 -1.65928E-01 -6.05015E-01 -8.29682E-01
 +8.81947E-01 -6.26779E-01 +2.06770E+00 +4.44792E-01 +2.52693E+00 +2.15601E+00 +1.98256E+00 +4.08291E+00
 +3.90960E-01 +5.69650E+00 -2.02554E+00 +6.48746E+00 -4.81105E+00 +6.09587E+00 -7.36988E+00 +4.41289E+00
 -9.10167E+00 +1.62672E+00 -9.54599E+00 -1.80215E+00 -8.50088E+00 -5.23392E+00 -6.08427E+00 -7.99075E+00
 -2.72081E+00 -9.51347E+00 +9.45600E-01 -9.49573E+00 +4.19442E+00 -7.96187E+00 +6.39327E+00 -5.26815E+00
 +7.14517E+00 -2.02493E+00 +6.38239E+00 +1.04271E+00 +4.38320E+00 +3.26340E+00 +1.70663E+00 +4.17662E+00
 -9.39918E-01 +3.64062E+00 -2.86886E+00 +1.86487E+00 -3.57613E+00 -6.41144E-01 -2.86108E+00 -3.19060E+00
 -8.73965E-01 -5.08413E+00 +1.92032E+00 -5.77721E+00 +4.85320E+00 -5.01004E+00 +7.21111E+00 -2.86926E+00
 +8.40386E+00 +2.32664E-01 +8.10246E+00 +3.65469E+00 +6.31431E+00 +6.67716E+00 +3.37858E+00 +8.66817E+00
 -1.15463E-01 +9.22693E+00 -3.46682E+00 +8.27076E+00 -6.02388E+00 +6.04653E+00 -7.33008E+00 +3.06564E+00
 -7.22040E+00 -2.01882E-02 -5.84748E+00 -2.57152E+00 -3.63352E+00 -4.10569E+00 -1.16169E+00 -4.39958E+00
 +9.65348E-01 -3.52823E+00 +2.26554E+00 -1.83262E+00 +2.48332E+00 +1.72898E-01 +1.63800E+00 +1.92946E+00
 +5.80775E-03 +2.96696E+00 -1.95724E+00 +3.01033E+00 -3.73079E+00 +2.03527E+00 -4.85499E+00 +2.62674E-01
 -5.03508E+00 -1.90372E+00 -4.20227E+00 -3.97912E+00 -2.51903E+00 -5.51278E+00 -3.30630E-01 -6.18903E+00
 +1.92257E+00 -5.89124E+00 +3.80939E+00 -4.71630E+00 +5.00313E+00 -2.93915E+00 +5.34653E+00 -9.39145E-01
 +4.87317E+00 +8.92088E-01 +3.78364E+00 +2.23843E+00 +2.38538E+00 +2.92250E+00 +1.01326E+00 +2.93151E+00
 -4.90140E-02 +2.40285E+00 -6.28081E-01 +1.57611E+00 -6.88554E-01 +7.26039E-01 -3.25412E-01 +9.40171E-02
 +2.73675E-01 -1.65417E-01 +8.84078E-01 -1.16798E-02 +1.30275E+00 +4.85009E-01 +1.39511E+00 +1.17311E+00
 +1.12001E+00 +1.86559E+00 +5.29195E-01 +2.38903E+00 -2.55833E-01 +2.62357E+00 -1.08107E+00 +2.52473E+00
 -1.80036E+00 +2.12394E+00 -2.30818E+00 +1.51026E+00 -2.55745E+00 +8.00467E-01 -2.55983E+00 +1.06922E-01
 -2.37071E+00 -4.87987E-01 -2.06541E+00 -9.44738E-01 -1.71442E+00 -1.26520E+00 -1.36515E+00 -1.47934E+00
 -1.03458E+00 -1.62585E+00 -7.13894E-01 -1.73362E+00 -3.81861E-01 -1.81016E+00 -2.16384E-02 -1.84016E+00
 +3.65321E-01 -1.79410E+00 +7.53203E-01 -1.64327E+00 +1.09583E+00 -1.37583E+00 +1.33955E+00 -1.00787E+00
 +1.44087E+00 -5.85485E-01 +1.38308E+00 -1.76247E-01 +1.18617E+00 +1.47633E-01 +9.06168E-01 +3.29914E-01
 +6.23396E-01 +3.48390E-01 +4.22088E-01 +2.24733E-01 +3.66886E-01 +2.24848E-02 +4.82760E-01 -1.67142E-01
 +7.44370E-01 -2.48494E-01 +1.07850E+00 -1.47869E-01 +1.37978E+00 +1.63992E-01 +1.53623E+00 +6.59655E-01
 +1.45846E+00 +1.25686E+00 +1.10498E+00 +1.83477E+00 +4.96874E-01 +2.26120E+00 -2.82334E-01 +2.42424E+00
 -1.10234E+00 +2.26064E+00 -1.81381E+00 +1.77370E+00 -2.28190E+00 +1.03587E+00 -2.41748E+00 +1.75108E-01
 -2.19852E+00 -6.52185E-01 -1.67646E+00 -1.29543E+00 -9.65613E-01 -1.64338E+00 -2.18174E-01 -1.64894E+00
 +4.09657E-01 -1.33951E+00 +7.92472E-01 -8.10482E-01 +8.63435E-01 -2.03184E-01 +6.28676E-01 +3.27356E-01
 +1.65105E-01 +6.47606E-01 -3.97730E-01 +6.75594E-01 -9.07469E-01 +3.99118E-01 -1.22363E+00 -1.21849E-01
 -1.24933E+00 -7.68895E-01 -9.53072E-01 -1.39177E+00 -3.75862E-01 -1.84177E+00 +3.77574E-01 -2.00454E+00
 +1.16139E+00 -1.82506E+00 +1.81985E+00 -1.31964E+00 +2.22042E+00 -5.72570E-01 +2.28152E+00 +2.81658E-01
 +1.98932E+00 +1.08645E+00 +1.40014E+00 +1.69550E+00 +6.28229E-01 +2.00257E+00 -1.78129E-01 +1.96267E+00
 -8.67246E-01 +1.60022E+00 -1.31483E+00 +1.00298E+00 -1.44872E+00 +3.03106E-01 -1.26267E+00 -3.50561E-01
 -8.16449E-01 -8.23213E-01 -2.22524E-01 -1.02155E+00 +3.77875E-01 -9.12514E-01 +8.44374E-01 -5.29504E-01
 +1.06674E+00 +3.49676E-02 +9.87893E-01 +6.48779E-01 +6.16057E-01 +1.16783E+00 +2.34775E-02 +1.46627E+00
 -6.68042E-01 +1.46314E+00 -1.31199E+00 +1.14011E+00 -1.76742E+00 +5.46389E-01 -1.92860E+00 -2.10153E-01
 -1.74777E+00 -9.84248E-01 -1.24648E+00 -1.62262E+00 -5.12655E-01 -1.99569E+00 +3.16186E-01 -2.02497E+00
 +1.08039E+00 -1.70055E+00 +1.63093E+00 -1.08450E+00 +1.86066E+00 -2.99438E-01 +1.72756E+00 +4.96065E-01
 +1.26470E+00 +1.14013E+00 +5.74614E-01 +1.50175E+00 -1.91378E-01 +1.50924E+00 -8.64684E-01 +1.16659E+00
 -1.29552E+00 +5.54033E-01 -1.38582E+00 -1.87915E-01 -1.11174E+00 -8.87936E-01 -5.30558E-01 -1.38086E+00
 +2.30000E-01 -1.54430E+00 +9.98250E-01 -1.32687E+00 +1.59548E+00 -7.61590E-01 +1.87554E+00 +3.90718E-02
 +1.75832E+00 +9.05831E-01 +1.24963E+00 +1.64857E+00 +4.42549E-01 +2.09801E+00 -5.00665E-01 +2.14399E+00
 -1.38255E+00 +1.76172E+00 -2.01331E+00 +1.01971E+00 -2.25316E+00 +6.71478E-02 -2.04470E+00 -8.97152E-01
 -1.42775E+00 -1.66775E+00 -5.32657E-01 -2.07817E+00 +4.46723E-01 -2.03895E+00 +1.29514E+00 -1.55923E+00
 +1.82381E+00 -7.46709E-01 +1.91346E+00 +2.14712E-01 +1.54258E+00 +1.10500E+00 +7.94171E-01 +1.71716E+00
 -1.61128E-01 +1.90449E+00 -1.10216E+00 +1.61520E+00 -1.80668E+00 +9.06010E-01 -2.10208E+00 -6.85448E-02
 -1.90575E+00 -1.08945E+00 -1.24577E+00 -1.92185E+00 -2.56713E-01 -2.36828E+00 +8.48888E-01 -2.31434E+00
 +1.82739E+00 -1.75621E+00 +2.45875E+00 -8.03499E-01 +2.59665E+00 +3.43756E-01 +2.20274E+00 +1.43891E+00
 +1.35659E+00 +2.24376E+00 +2.39192E-01 +2.58229E+00 -9.06868E-01 +2.38088E+00 -1.83145E+00 +1.68569E+00
 -2.33308E+00 +6.53041E-01 -2.30448E+00 -4.85202E-01 -1.75705E+00 -1.47346E+00 -8.18650E-01 -2.08982E+00
 +2.94916E-01 -2.19600E+00 +1.32822E+00 -1.76850E+00 +2.04348E+00 -9.03987E-01 +2.27378E+00 +2.02260E-01
 +1.96041E+00 +1.29997E+00 +1.16584E+00 +2.13960E+00 +5.98356E-02 +2.52768E+00 -1.11823E+00 +2.36945E+00
 -2.11214E+00 +1.68943E+00 -2.70485E+00 +6.25617E-01 -2.76547E+00 -6.00997E-01 -2.27702E+00 -1.73472E+00
 -1.33918E+00 -2.54032E+00 -1.45925E-01 -2.85309E+00 +1.05668E+00 -2.61311E+00 +2.02311E+00 -1.87660E+00
 +2.56001E+00 -8.02620E-01 +2.56599E+00 +3.81676E-01 +2.05139E+00 +1.42935E+00 +1.13459E+00 +2.12525E+00
 +1.60296E-02 +2.33001E+00 -1.06409E+00 +2.00780E+00 -1.87548E+00 +1.23249E+00 -2.24466E+00 +1.71536E-01
 -2.08976E+00 -9.48638E-01 -1.43667E+00 -1.88865E+00 -4.13678E-01 -2.44425E+00 +7.73924E-01 -2.48720E+00
 +1.88428E+00 -1.99118E+00 +2.68646E+00 -1.03786E+00 +3.00607E+00 +1.97845E-01 +2.76037E+00 +1.48062E+00
 +1.97622E+00 +2.55971E+00 +7.87235E-01 +3.21755E+00 -5.89596E-01 +3.31314E+00 -1.89403E+00 +2.81188E+00
 -2.87232E+00 +1.79563E+00 -3.32754E+00 +4.50588E-01 -3.16070E+00 -9.65843E-01 -2.39445E+00 -2.17369E+00
 -1.17360E+00 -2.92588E+00 +2.58837E-01 -3.05991E+00 +1.60689E+00 -2.53518E+00 +2.58028E+00 -1.44745E+00
 +2.95535E+00 -1.58962E-02 +2.62586E+00 +1.45636E+00 +1.63212E+00 +2.64197E+00 +1.60939E-01 +3.25799E+00
 -1.48591E+00 +3.12946E+00 -2.95004E+00 +2.23386E+00 -3.89087E+00 +7.15375E-01 -4.06109E+00 -1.13628E+00
 -3.36648E+00 -2.94033E+00 -1.89587E+00 -4.30289E+00 +8.74573E-02 -4.90276E+00 +2.19360E+00 -4.56632E+00
 +3.98490E+00 -3.31409E+00 +5.06998E+00 -1.36673E+00 +5.19285E+00 +8.93454E-01 +4.29634E+00 +2.99928E+00
 +2.54432E+00 +4.49861E+00 +2.95180E-01 +5.05593E+00 -1.96997E+00 +4.53257E+00 -3.75019E+00 +3.02616E+00
 -4.63685E+00 +8.58248E-01 -4.40974E+00 -1.48951E+00 -3.09434E+00 -3.47835E+00 -9.65539E-01 -4.63269E+00
 +1.50555E+00 -4.65081E+00 +3.75153E+00 -3.48023E+00 +5.23455E+00 -1.33892E+00 +5.56993E+00 +1.32447E+00
 +4.61920E+00 +3.92445E+00 +2.53015E+00 +5.86693E+00 -2.87099E-01 +6.68362E+00 -3.24445E+00 +6.14195E+00
 -5.70319E+00 +4.30462E+00 -7.11629E+00 +1.52373E+00 -7.15367E+00 -1.63079E+00 -5.78132E+00 -4.49398E+00
 -3.27516E+00 -6.45270E+00 -1.65187E-01 -7.08398E+00 +2.87889E+00 -6.25292E+00 +5.19556E+00 -4.14730E+00
 +6.27990E+00 -1.23989E+00 +5.89889E+00 +1.81400E+00 +4.14694E+00 +4.32167E+00 +1.42837E+00 +5.70829E+00
 -1.63015E+00 +5.64760E+00 -4.31814E+00 +4.13800E+00 -6.00018E+00 +1.50654E+00 -6.25941E+00 -1.66089E+00
