 Created: 19-Jan-2021
 $NMID
 ID='D:\BASISSIMULATI'
 FMTDAT='(8E13.5)'
 VOLUME=   1.00000E+00
 TRAMP=   1.00000E+00
 $END
 +1.68561E+01 +8.38232E-02 +1.64145E+01 +3.77552E+00 +1.51749E+01 +7.27774E+00 +1.31990E+01 +1.04204E+01
 +1.05841E+01 +1.30511E+01 +7.45832E+00 +1.50428E+01 +3.97460E+00 +1.62994E+01 +3.02972E-01 +1.67611E+01
 -3.37763E+00 +1.64066E+01 -6.88814E+00 +1.52545E+01 -1.00580E+01 +1.33620E+01 -1.27336E+01 +1.08224E+01
 -1.47854E+01 +7.76022E+00 -1.61147E+01 +4.32531E+00 -1.66579E+01 +6.85367E-01 -1.63898E+01 -2.98221E+00
 -1.53247E+01 -6.49894E+00 -1.35157E+01 -9.69397E+00 -1.10520E+01 -1.24124E+01 -8.05448E+00 -1.45226E+01
 -4.66978E+00 -1.59229E+01 -1.06320E+00 -1.65464E+01 +2.58945E+00 -1.63639E+01 +6.11038E+00 -1.53856E+01
 +9.32850E+00 -1.36602E+01 +1.20877E+01 -1.12730E+01 +1.42545E+01 -8.34102E+00 +1.57244E+01 -5.00787E+00
 +1.64270E+01 -1.43631E+00 +1.63292E+01 +2.19953E+00 +1.54372E+01 +5.72265E+00 +1.37955E+01 +8.96182E+00
 +1.14852E+01 +1.17599E+01 +8.61978E+00 +1.39814E+01 +5.33947E+00 +1.55193E+01 +1.80453E+00 +1.62997E+01
 -1.81265E+00 +1.62858E+01 -5.33597E+00 +1.54796E+01 -8.59415E+00 +1.39216E+01 -1.14291E+01 +1.16887E+01
 -1.37035E+01 +8.89067E+00 -1.53077E+01 +5.66446E+00 -1.61646E+01 +2.16772E+00 -1.62338E+01 -1.42899E+00
 -1.55130E+01 -4.95054E+00 -1.40386E+01 -8.22570E+00 -1.18835E+01 -1.10955E+01 -9.15364E+00 -1.34210E+01
 -5.98273E+00 -1.50899E+01 -2.52573E+00 -1.60221E+01 +1.04873E+00 -1.61732E+01 +4.56656E+00 -1.55373E+01
 +7.85669E+00 -1.41464E+01 +1.07594E+01 -1.20695E+01 +1.31341E+01 -9.40863E+00 +1.48661E+01 -6.29419E+00
 +1.58721E+01 -2.87841E+00 +1.61043E+01 +6.72042E-01 +1.55526E+01 +4.18423E+00 +1.42452E+01 +7.48733E+00
 +1.22467E+01 +1.04210E+01 +9.65557E+00 +1.28430E+01 +6.59872E+00 +1.46364E+01 +3.22563E+00 +1.57149E+01
 -2.99096E-01 +1.60272E+01 -3.80374E+00 +1.55592E+01 -7.11782E+00 +1.43349E+01 -1.00804E+01 +1.24152E+01
 -1.25479E+01 +9.89442E+00 -1.44011E+01 +6.89624E+00 -1.55507E+01 +3.56725E+00 -1.59419E+01 +6.99383E-02
 -1.55569E+01 -3.42529E+00 -1.44157E+01 -6.74839E+00 -1.25749E+01 -9.73795E+00 -1.01251E+01 -1.22490E+01
 -7.18666E+00 -1.41603E+01 -3.90315E+00 -1.53796E+01 -4.34898E-01 -1.58487E+01 +3.04907E+00 -1.55460E+01
 +6.37922E+00 -1.44875E+01 +9.39379E+00 -1.27258E+01 +1.19466E+01 -1.03477E+01 +1.39142E+01 -7.46989E+00
 +1.52017E+01 -4.23319E+00 +1.57476E+01 -7.95624E-01 +1.55266E+01 +2.67526E+00 +1.45504E+01 +6.01053E+00
 +1.28679E+01 +9.04815E+00 +1.05620E+01 +1.16408E+01 +7.74585E+00 +1.36630E+01 +4.55726E+00 +1.50173E+01
 +1.15196E+00 +1.56389E+01 -2.30404E+00 +1.54986E+01 -5.64252E+00 +1.46046E+01 -8.70124E+00 +1.30013E+01
 -1.13318E+01 +1.07681E+01 -1.34070E+01 +8.01447E+00 -1.48266E+01 +4.87524E+00 -1.55226E+01 +1.50376E+00
 -1.54624E+01 -1.93560E+00 -1.46499E+01 -5.27538E+00 -1.31260E+01 -8.35327E+00 -1.09659E+01 -1.10199E+01
 -8.27568E+00 -1.31463E+01 -5.18703E+00 -1.46297E+01 -1.85087E+00 -1.53990E+01 +1.57010E+00 -1.54179E+01
 +4.90932E+00 -1.46867E+01 +8.00444E+00 -1.32421E+01 +1.07053E+01 -1.11555E+01 +1.28810E+01 -8.52941E+00
 +1.44267E+01 -5.49251E+00 +1.52681E+01 -2.19315E+00 +1.53653E+01 +1.20773E+00 +1.47148E+01 +4.54451E+00
 +1.33494E+01 +7.65495E+00 +1.13367E+01 +1.03881E+01 +8.77560E+00 +1.26115E+01 +5.79158E+00 +1.42179E+01
 +2.53047E+00 +1.51300E+01 -8.48641E-01 +1.53046E+01 -4.18115E+00 +1.47344E+01 -7.30502E+00 +1.34481E+01
 -1.00686E+01 +1.15096E+01 -1.23379E+01 +9.01421E+00 -1.40035E+01 +6.08414E+00 -1.49851E+01 +2.86268E+00
 -1.52361E+01 -4.93007E-01 -1.47455E+01 -3.81944E+00 -1.35383E+01 -6.95483E+00 -1.16742E+01 -9.74693E+00
 -9.24517E+00 -1.20604E+01 -6.37012E+00 -1.37836E+01 -3.18966E+00 -1.48334E+01 +1.40988E-01 -1.51599E+01
 +3.45955E+00 -1.47483E+01 +6.60459E+00 -1.36198E+01 +9.42336E+00 -1.18305E+01 +1.17793E+01 -9.46844E+00
 +1.35584E+01 -6.64940E+00 +1.46750E+01 -3.51129E+00 +1.50760E+01 -2.07261E-01 +1.47428E+01 +3.10166E+00
 +1.36929E+01 +6.25449E+00 +1.19785E+01 +9.09807E+00 +9.68399E+00 +1.14946E+01 +6.92193E+00 +1.33280E+01
 +3.82743E+00 +1.45102E+01 +5.51586E-01 +1.49846E+01 -2.74596E+00 +1.47292E+01 -5.90472E+00 +1.37576E+01
 -8.77126E+00 +1.21182E+01 -1.12066E+01 +9.89177E+00 -1.30928E+01 +7.18760E+00 -1.43391E+01 +4.13799E+00
 -1.48858E+01 +8.91838E-01 -1.47075E+01 -2.39261E+00 -1.38139E+01 -5.55549E+00 -1.22496E+01 -8.44313E+00
 -1.00918E+01 -1.09155E+01 -7.44636E+00 -1.28528E+01 -4.44284E+00 -1.41619E+01 -1.22787E+00 -1.47799E+01
 +2.04179E+00 -1.46778E+01 +5.20697E+00 -1.38618E+01 +8.11387E+00 -1.23727E+01 +1.06214E+01 -1.02839E+01
 +1.26083E+01 -7.69814E+00 +1.39787E+01 -4.74187E+00 +1.46668E+01 -1.55954E+00 +1.46402E+01 +1.69366E+00
 +1.39015E+01 +4.85936E+00 +1.24875E+01 +7.78368E+00 +1.04683E+01 +1.03247E+01 +7.94286E+00 +1.23594E+01
 +5.03499E+00 +1.37897E+01 +1.88672E+00 +1.45468E+01 -1.34840E+00 +1.45949E+01 -4.51284E+00 +1.39329E+01
 -7.45275E+00 +1.25941E+01 -1.00255E+01 +1.06447E+01 -1.21064E+01 +8.18047E+00 -1.35950E+01 +5.32209E+00
 -1.44199E+01 +2.20926E+00 -1.45420E+01 -1.00616E+00 -1.39563E+01 -4.16758E+00 -1.26926E+01 -7.12129E+00
 -1.08133E+01 -9.72389E+00 -8.41091E+00 -1.18493E+01 -5.60308E+00 -1.33949E+01 -2.52705E+00 -1.42864E+01
 +6.67100E-01 -1.44814E+01 +3.82378E+00 -1.39716E+01 +6.78947E+00 -1.27828E+01 +9.42018E+00 -1.09740E+01
 +1.15885E+01 -8.63415E+00 +1.31895E+01 -5.87787E+00 +1.41464E+01 -2.83995E+00 +1.44135E+01 +3.31376E-01
 +1.39790E+01 +3.48160E+00 +1.28650E+01 +6.45749E+00 +1.11269E+01 +9.11454E+00 +8.85011E+00 +1.13240E+01
 +6.14637E+00 +1.29790E+01 +3.14784E+00 +1.40000E+01 +8.61663E-04 +1.43383E+01 -3.14122E+00 +1.39784E+01
 -6.12554E+00 +1.29390E+01 -8.80715E+00 +1.12718E+01 -1.10561E+01 +9.05878E+00 -1.27636E+01 +6.40851E+00
 -1.38474E+01 +3.45060E+00 -1.42559E+01 +3.29466E-01 -1.39701E+01 -2.80280E+00 -1.30051E+01 -5.79379E+00
 -1.14089E+01 -8.49821E+00 -9.26011E+00 -1.07849E+01 -6.66420E+00 -1.25433E+01 -3.74813E+00 -1.36888E+01
 -6.54292E-01 -1.41664E+01 +2.46652E+00 -1.39540E+01 +5.46244E+00 -1.30631E+01 +8.18790E+00 -1.15381E+01
 +1.05107E+01 -9.45406E+00 +1.23185E+01 -6.91337E+00 +1.35242E+01 -4.04032E+00 +1.40700E+01 -9.75202E-01
 +1.39304E+01 +2.13255E+00 +1.31132E+01 +5.13167E+00 +1.16594E+01 +7.87641E+00 +9.64062E+00 +1.02336E+01
 +7.15596E+00 +1.20893E+01 +4.32705E+00 +1.33539E+01 +1.29206E+00 +1.39668E+01 -1.80103E+00 +1.38992E+01
 -4.80164E+00 +1.31555E+01 -7.56393E+00 +1.17729E+01 -9.95389E+00 +9.81976E+00 -1.18558E+01 +7.39190E+00
 -1.31780E+01 +4.60823E+00 -1.38569E+01 +1.60473E+00 -1.38606E+01 -1.47214E+00 -1.31899E+01 -4.47255E+00
 -1.18786E+01 -7.25065E+00 -9.99145E+00 -9.67163E+00 -7.62114E+00 -1.16183E+01 -4.88376E+00 -1.29966E+01
 -1.91308E+00 -1.37405E+01 +1.14601E+00 -1.38147E+01 +4.14455E+00 -1.32166E+01 +6.93674E+00 -1.19765E+01
 +9.38707E+00 -1.01557E+01 +1.13768E+01 -7.84361E+00 +1.28100E+01 -5.15356E+00 +1.36177E+01 -2.21700E+00
 +1.37615E+01 +8.22819E-01 +1.32357E+01 +3.81783E+00 +1.20667E+01 +6.62240E+00 +1.03125E+01 +9.10037E+00
 +8.05927E+00 +1.11317E+01 +5.41752E+00 +1.26183E+01 +2.51635E+00 +1.34886E+01 -5.02700E-01 +1.37013E+01
 -3.49255E+00 +1.32471E+01 -6.30779E+00 +1.21491E+01 -8.81173E+00 +1.04618E+01 -1.08830E+01 +8.26808E+00
 -1.24216E+01 +5.67558E+00 -1.33534E+01 +2.81102E+00 -1.36341E+01 -1.85800E-01 -1.32510E+01 -3.16888E+00
 -1.22239E+01 -5.99311E+00 -1.06036E+01 -8.52132E+00 -8.46999E+00 -1.06310E+01 -5.92765E+00 -1.22201E+01
 -3.10091E+00 -1.32122E+01 -1.27739E-01 -1.35600E+01 +2.84698E+00 -1.32475E+01 +5.67851E+00 -1.22910E+01
 +8.22934E+00 -1.07379E+01 +1.03758E+01 -8.66495E+00 +1.20141E+01 -6.17365E+00 +1.30653E+01 -3.38589E+00
 +1.34792E+01 -4.37777E-01 +1.32366E+01 +2.52701E+00 +1.23505E+01 +5.36419E+00 +1.08648E+01 +7.93595E+00
 +8.85295E+00 +1.01176E+01 +6.41351E+00 +1.18035E+01 +3.66586E+00 +1.29126E+01 +7.44180E-01 +1.33917E+01
 -2.20912E+00 +1.32185E+01 -5.05031E+00 +1.24024E+01 -7.64134E+00 +1.09843E+01 -9.85653E+00 +9.03395E+00
 -1.15887E+01 +6.64717E+00 -1.27543E+01 +3.94073E+00 -1.32976E+01 +1.04682E+00 -1.31931E+01 -1.89348E+00
 -1.24469E+01 -4.73705E+00 -1.10963E+01 -7.34568E+00 -9.20793E+00 -9.59284E+00 -6.87456E+00 -1.13698E+01
 -4.21039E+00 -1.25907E+01 -1.34556E+00 -1.31972E+01 +1.58024E+00 -1.31607E+01 +4.42456E+00 -1.24839E+01
 +7.04916E+00 -1.12009E+01 +9.32668E+00 -9.37487E+00 +1.11469E+01 -7.09563E+00 +1.24219E+01 -4.47475E+00
 +1.30906E+01 -1.64029E+00 +1.31213E+01 +1.26954E+00 +1.25136E+01 +4.11302E+00 +1.12981E+01 +6.75194E+00
 +9.53475E+00 +9.05823E+00 +7.31032E+00 +1.09202E+01 +4.73373E+00 +1.22479E+01 +1.93087E+00 +1.29777E+01
 -9.61522E-01 +1.30750E+01 -3.80260E+00 +1.25359E+01 -6.45421E+00 +1.13879E+01 -8.78765E+00 +9.68755E+00
 -1.06899E+01 +7.51858E+00 -1.20691E+01 +4.98723E+00 -1.28589E+01 +2.21721E+00 -1.30219E+01 -6.56340E-01
 -1.25511E+01 -3.49344E+00 -1.14703E+01 -6.15613E+00 -9.83328E+00 -8.51513E+00 -7.72037E+00 -1.04561E+01
 -5.23517E+00 -1.18854E+01 -2.49917E+00 -1.27342E+01 +3.54128E-01 -1.29621E+01 +3.18572E+00 -1.25590E+01
 +5.85787E+00 -1.15455E+01 +8.24083E+00 -9.97192E+00 +1.02191E+01 -7.91564E+00 +1.16971E+01 -5.47748E+00
 +1.26037E+01 -2.77665E+00 +1.28957E+01 +5.50244E-02 +1.25598E+01 +2.87958E+00 +1.16134E+01 +5.55960E+00
 +1.01035E+01 +7.96493E+00 +8.10435E+00 +9.97898E+00 +5.71408E+00 +1.15044E+01 +3.04955E+00 +1.24677E+01
 +2.40840E-01 +1.28229E+01 -2.57518E+00 +1.25536E+01 -5.26149E+00 +1.16741E+01 -7.68761E+00 +1.02280E+01
 -9.73590E+00 +8.28648E+00 -1.13073E+01 +5.94490E+00 -1.23261E+01 +3.31776E+00 -1.27436E+01 +5.33334E-01
 -1.25405E+01 -2.27267E+00 -1.17276E+01 -4.96370E+00 -1.03454E+01 -7.40902E+00 -8.46199E+00 -9.49003E+00
 -6.16988E+00 -1.11061E+01 -3.58119E+00 -1.21792E+01 -8.22332E-01 -1.26582E+01 +1.97220E+00 -1.25205E+01
 +4.66640E+00 -1.17740E+01 +7.12934E+00 -1.04557E+01 +9.24156E+00 -8.63086E+00 +1.09008E+01 -6.38896E+00
 +1.20272E+01 -3.83974E+00 +1.25666E+01 -1.10771E+00 +1.24938E+01 +1.67392E+00 +1.18132E+01 +4.36975E+00
 +1.05590E+01 +6.84874E+00 +8.79306E+00 +8.99065E+00 +6.60207E+00 +1.06918E+01 +4.09331E+00 +1.18701E+01
