 Created: 19-Jan-2021
 $NMID
 ID='D:\BASISSIMULATI'
 FMTDAT='(8E13.5)'
 VOLUME=   1.00000E+00
 TRAMP=   1.00000E+00
 $END
 +1.39372E+02 +6.35385E-01 +1.35014E+02 +3.20700E+01 +1.22999E+02 +6.13042E+01 +1.04200E+02 +8.64203E+01
 +7.99704E+01 +1.05813E+02 +5.20404E+01 +1.18311E+02 +2.23803E+01 +1.23257E+02 -6.95044E+00 +1.20557E+02
 -3.39619E+01 +1.10677E+02 -5.68844E+01 +9.45974E+01 -7.43008E+01 +7.37318E+01 -8.52488E+01 +4.98075E+01
 -8.92862E+01 +2.47257E+01 -8.65137E+01 +4.08287E-01 -7.75543E+01 -2.13529E+01 -6.34911E+01 -3.90357E+01
 -4.57690E+01 -5.15020E+01 -2.60685E+01 -5.80796E+01 -6.16343E+00 -5.86047E+01 +1.22274E+01 -5.34220E+01
 +2.75809E+01 -4.33428E+01 +3.86923E+01 -2.95658E+01 +4.47682E+01 -1.35659E+01 +4.54852E+01 +3.03703E+00
 +4.10066E+01 +1.86203E+01 +3.19588E+01 +3.16986E+01 +1.93683E+01 +4.10505E+01 +4.56550E+00 +4.58210E+01
 -1.09368E+01 +4.55913E+01 -2.55785E+01 +4.04110E+01 -3.78910E+01 +3.07892E+01 -4.66271E+01 +1.76464E+01
 -5.08703E+01 +2.23075E+00 -5.01157E+01 -1.39931E+01 -4.43152E+01 -2.94740E+01 -3.38826E+01 -4.27117E+01
 -1.96592E+01 -5.23893E+01 -2.84225E+00 -5.74903E+01 +1.51175E+01 -5.73904E+01 +3.26399E+01 -5.19151E+01
 +4.81518E+01 -4.13595E+01 +6.02233E+01 -2.64679E+01 +6.76918E+01 -8.37443E+00 +6.97654E+01 +1.14889E+01
 +6.60942E+01 +3.15112E+01 +5.68055E+01 +5.00367E+01 +4.24986E+01 +6.55038E+01 +2.42001E+01 +7.65775E+01
 +3.28237E+00 +8.22635E+01 -1.86464E+01 +8.19943E+01 -3.98736E+01 +7.56807E+01 -5.87225E+01 +6.37238E+01
 -7.36911E+01 +4.69861E+01 -8.35767E+01 +2.67246E+01 -8.75768E+01 +4.49021E+00 -8.53578E+01 -1.79969E+01
 -7.70850E+01 -3.89871E+01 -6.34115E+01 -5.68440E+01 -4.54277E+01 -7.01787E+01 -2.45741E+01 -7.79638E+01
 -2.52511E+00 -7.96191E+01 +1.89466E+01 -7.50597E+01 +3.81145E+01 -6.47052E+01 +5.34386E+01 -4.94464E+01
 +6.36921E+01 -3.05740E+01 +6.80618E+01 -9.67420E+00 +6.62155E+01 +1.14997E+01 +5.83301E+01 +3.11703E+01
 +4.50781E+01 +4.76806E+01 +2.75742E+01 +5.96297E+01 +7.28516E+00 +6.59871E+01 -1.40888E+01 +6.61774E+01
 -3.47518E+01 +6.01285E+01 -5.29577E+01 +4.82778E+01 -6.71525E+01 +3.15384E+01 -7.60998E+01 +1.12254E+01
 -7.89819E+01 -1.10494E+01 -7.54662E+01 -3.35072E+01 -6.57323E+01 -5.43456E+01 -5.04581E+01 -7.18836E+01
 -3.07653E+01 -8.46962E+01 -8.12929E+00 -9.17286E+01 +1.57392E+01 -9.23803E+01 +3.90315E+01 -8.65519E+01
 +5.99852E+01 -7.46519E+01 +7.70245E+01 -5.75618E+01 +8.88850E+01 -3.65641E+01 +9.47122E+01 -1.32378E+01
 +9.41269E+01 +1.06693E+01 +8.72518E+01 +3.33811E+01 +7.46969E+01 +5.32348E+01 +5.75064E+01 +6.88125E+01
 +3.70701E+01 +7.90520E+01 +1.50080E+01 +8.33274E+01 -6.96254E+00 +8.14939E+01 -2.71668E+01 +7.38926E+01
 -4.41076E+01 +6.13163E+01 -5.65839E+01 +4.49379E+01 -6.37845E+01 +2.62086E+01 -6.53483E+01 +6.73514E+00
 -6.13865E+01 -1.18560E+01 -5.24659E+01 -2.80531E+01 -3.95543E+01 -4.05836E+01 -2.39334E+01 -4.85170E+01
 -7.08521E+00 -5.13381E+01 +9.43547E+00 -4.89846E+01 +2.41352E+01 -4.18463E+01 +3.57086E+01 -3.07264E+01
 +4.31492E+01 -1.67676E+01 +4.58327E+01 -1.35020E+00 +4.35689E+01 +1.40294E+01 +3.66152E+01 +2.78895E+01
 +2.56521E+01 +3.88926E+01 +1.17229E+01 +4.59613E+01 -3.85784E+00 +4.83726E+01 -1.96186E+01 +4.58212E+01
 -3.40592E+01 +3.84478E+01 -4.57814E+01 +2.68285E+01 -5.36111E+01 +1.19276E+01 -5.67019E+01 -4.98327E+00
 -5.46112E+01 -2.24321E+01 -4.73423E+01 -3.88714E+01 -3.53490E+01 -5.28100E+01 -1.95021E+01 -6.29410E+01
 -1.02049E+00 -6.82548E+01 +1.86273E+01 -6.81280E+01 +3.78435E+01 -6.23809E+01 +5.50331E+01 -5.12980E+01
 +6.87360E+01 -3.56097E+01 +7.77499E+01 -1.64378E+01 +8.12321E+01 +4.79271E+00 +7.87720E+01 +2.64671E+01
 +7.04296E+01 +4.69106E+01 +5.67344E+01 +6.45238E+01 +3.86465E+01 +7.79130E+01 +1.74826E+01 +8.60036E+01
 -5.18783E+00 +8.81291E+01 -2.76674E+01 +8.40863E+01 -4.82659E+01 +7.41533E+01 -6.54355E+01 +5.90690E+01
 -7.78945E+01 +3.99746E+01 -8.47298E+01 +1.83228E+01 -8.54697E+01 -4.23785E+00 -8.01202E+01 -2.59953E+01
 -6.91641E+01 -4.53102E+01 -5.35202E+01 -6.07472E+01 -3.44679E+01 -7.11881E+01 -1.35432E+01 -7.59202E+01
 +7.58662E+00 -7.46911E+01 +2.72574E+01 -6.77256E+01 +4.39425E+01 -5.57042E+01 +5.63751E+01 -3.97051E+01
 +6.36488E+01 -2.11128E+01 +6.52881E+01 -1.50370E+00 +6.12835E+01 +1.74841E+01 +5.20885E+01 +3.42852E+01
 +3.85783E+01 +4.75347E+01 +2.19746E+01 +5.61786E+01 +3.74189E+00 +5.95580E+01 -1.45352E+01 +5.74604E+01
 -3.12841E+01 +5.01343E+01 -4.50746E+01 +3.82651E+01 -5.47368E+01 +2.29152E+01 -5.94569E+01 +5.43344E+00
 -5.88432E+01 -1.26589E+01 -5.29565E+01 -2.97958E+01 -4.23031E+01 -4.44978E+01 -2.77910E+01 -5.54949E+01
 -1.06522E+01 -6.18321E+01 +7.66050E+00 -6.29484E+01 +2.55961E+01 -5.87226E+01 +4.16345E+01 -4.94828E+01
 +5.44139E+01 -3.59777E+01 +6.28437E+01 -1.93145E+01 +6.61954E+01 -8.65423E-01 +6.41629E+01 +1.78464E+01
 +5.68876E+01 +3.52737E+01 +4.49462E+01 +4.99740E+01 +2.93029E+01 +6.07289E+01 +1.12292E+01 +6.66452E+01
 -7.80223E+00 +6.72291E+01 -2.62389E+01 +6.24260E+01 -4.25778E+01 +5.26257E+01 -5.54889E+01 +3.86289E+01
 -6.39257E+01 +2.15808E+01 -6.72110E+01 +2.87627E+00 -6.50920E+01 -1.59558E+01 -5.77614E+01 -3.33793E+01
 -4.58400E+01 -4.79774E+01 -3.03250E+01 -5.85699E+01 -1.25068E+01 -6.43098E+01 +6.13833E+00 -6.47529E+01
 +2.40706E+01 -5.98936E+01 +3.98140E+01 -5.01646E+01 +5.20790E+01 -3.64000E+01 +5.98679E+01 -1.97653E+01
 +6.25578E+01 -1.66042E+00 +5.99508E+01 +1.63971E+01 +5.22901E+01 +3.28980E+01 +4.02383E+01 +4.64665E+01
 +2.48224E+01 +5.59743E+01 +7.34752E+00 +6.06335E+01 -1.07119E+01 +6.00623E+01 -2.78346E+01 +5.43152E+01
 -4.25789E+01 +4.38788E+01 -5.37027E+01 +2.96305E+01 -6.02659E+01 +1.27655E+01 -6.17092E+01 -5.30304E+00
 -5.78993E+01 -2.30607E+01 -4.91408E+01 -3.90184E+01 -3.61502E+01 -5.18353E+01 -1.99967E+01 -6.04304E+01
 -2.01356E+00 -6.40721E+01 +1.63124E+01 -6.24387E+01 +3.34638E+01 -5.56454E+01 +4.80185E+01 -4.42347E+01
 +5.87671E+01 -2.91315E+01 +6.48128E+01 -1.15670E+01 +6.56461E+01 +7.02322E+00 +6.11862E+01 +2.51175E+01
 +5.17882E+01 +4.12337E+01 +3.82137E+01 +5.40517E+01 +2.15678E+01 +6.25217E+01 +3.20813E+00 +6.59512E+01
 -1.53671E+01 +6.40614E+01 -3.26426E+01 +5.70103E+01 -4.72107E+01 +4.53794E+01 -5.78869E+01 +3.01252E+01
 -6.38077E+01 +1.25006E+01 -6.45005E+01 -6.04894E+00 -5.99227E+01 -2.40041E+01 -5.04645E+01 -3.98972E+01
 -3.69158E+01 -5.24326E+01 -2.04012E+01 -6.05932E+01 -2.28637E+00 -6.37237E+01 +1.59344E+01 -6.15838E+01
 +3.27618E+01 -5.43675E+01 +4.68145E+01 -4.26860E+01 +5.69431E+01 -2.75172E+01 +6.23246E+01 -1.01237E+01
 +6.25288E+01 +8.05141E+00 +5.75541E+01 +2.55037E+01 +4.78259E+01 +4.07919E+01 +3.41613E+01 +5.26563E+01
 +1.77008E+01 +6.01227E+01 -1.86288E-01 +6.25819E+01 -1.80153E+01 +5.98397E+01 -3.43088E+01 +5.21319E+01
 -4.77186E+01 +4.01042E+01 -5.71367E+01 +2.47587E+01 -6.17863E+01 +7.36984E+00 -6.12856E+01 -1.06203E+01
 -5.56785E+01 -2.77217E+01 -4.54302E+01 -4.25193E+01 -3.13888E+01 -5.37894E+01 -1.47144E+01 -6.06004E+01
 +3.21716E+00 -6.23892E+01 +2.09273E+01 -5.90068E+01 +3.69573E+01 -5.07303E+01 +4.99880E+01 -3.82392E+01
 +5.89483E+01 -2.25588E+01 +6.31029E+01 -4.97531E+00 +6.21123E+01 +1.30705E+01 +5.60595E+01 +3.01021E+01
 +4.54430E+01 +4.47286E+01 +3.11343E+01 +5.57591E+01 +1.43058E+01 +6.23002E+01 -3.66657E+00 +6.38282E+01
 -2.13170E+01 +6.02318E+01 -3.72104E+01 +5.18200E+01 -5.00605E+01 +3.92950E+01 -5.88349E+01 +2.36937E+01
 -6.28397E+01 +6.30099E+00 -6.17749E+01 -1.14566E+01 -5.57580E+01 -2.81290E+01 -4.53126E+01 -4.23622E+01
 -3.13241E+01 -5.30095E+01 -1.49645E+01 -5.92251E+01 +2.40452E+00 -6.05330E+01 +1.93457E+01 -5.68646E+01
 +3.44650E+01 -4.85631E+01 +4.65266E+01 -3.63528E+01 +5.45551E+01 -2.12784E+01 +5.79148E+01 -4.61640E+00
 +5.63619E+01 +1.22313E+01 +5.00625E+01 +2.78543E+01 +3.95780E+01 +4.09515E+01 +2.58166E+01 +5.04383E+01
 +9.95665E+00 +5.55366E+01 -6.65200E+00 +5.58390E+01 -2.26015E+01 +5.13413E+01 -3.65435E+01 +4.24422E+01
 -4.73015E+01 +2.99091E+01 -5.39688E+01 +1.48133E+01 -5.59843E+01 -1.56004E+00 -5.31783E+01 -1.78193E+01
 -4.57871E+01 -3.25830E+01 -3.44326E+01 -4.45955E+01 -2.00704E+01 -5.28314E+01 -3.91007E+00 -5.65818E+01
 +1.26858E+01 -5.55132E+01 +2.83154E+01 -4.96962E+01 +4.16541E+01 -3.95995E+01 +5.15659E+01 -2.60515E+01
 +5.71972E+01 -1.01722E+01 +5.80495E+01 +6.72024E+00 +5.40207E+01 +2.32179E+01 +4.54146E+01 +3.79405E+01
 +3.29168E+01 +4.96495E+01 +1.75385E+01 +5.73517E+01 +5.33610E-01 +6.03812E+01 -1.67045E+01 +5.84558E+01
 -3.27575E+01 +5.17007E+01 -4.62991E+01 +4.06396E+01 -5.62048E+01 +2.61518E+01 -6.16441E+01 +9.40085E+00
 -6.21499E+01 -8.26065E+00 -5.76571E+01 -2.54017E+01 -4.85083E+01 -4.06302E+01 -3.54266E+01 -5.27070E+01
 -1.94564E+01 -6.06473E+01 -1.87829E+00 -6.38014E+01 +1.58956E+01 -6.19080E+01 +3.24367E+01 -5.51149E+01
 +4.64169E+01 -4.39675E+01 +5.67164E+01 -2.93635E+01 +6.25150E+01 -1.24794E+01 +6.33584E+01 +5.32570E+00
 +5.91946E+01 +2.26213E+01 +5.03772E+01 +3.80221E+01 +3.76356E+01 +5.03012E+01 +2.20143E+01 +5.84890E+01
 +4.78688E+00 +6.19519E+01 -1.26487E+01 +6.04428E+01 -2.88850E+01 +5.41197E+01 -4.26196E+01 +4.35309E+01
 -5.27615E+01 +2.95689E+01 -5.85193E+01 +1.33956E+01 -5.94644E+01 -3.65394E+00 -5.55645E+01 -2.01821E+01
 -4.71845E+01 -3.48434E+01 -3.50539E+01 -4.64547E+01 -2.02054E+01 -5.40919E+01 -3.88814E+00 -5.71644E+01
 +1.25365E+01 -5.54620E+01 +2.77077E+01 -4.91705E+01 +4.03775E+01 -3.88540E+01 +4.95137E+01 -2.54063E+01
 +5.43838E+01 -9.97547E+00 +5.46147E+01 +6.13266E+00 +5.02216E+01 +2.15636E+01 +4.16053E+01 +3.50270E+01
 +2.95166E+01 +4.54033E+01 +1.49933E+01 +5.18365E+01 -7.28328E-01 +5.38043E+01 -1.63164E+01 +5.11603E+01
 -3.04554E+01 +4.41448E+01 -4.19553E+01 +3.33639E+01 -4.98512E+01 +1.97379E+01 -5.34824E+01 +4.42300E+00
 -5.25479E+01 -1.12850E+01 -4.71297E+01 -2.60595E+01 -3.76863E+01 -3.86542E+01 -2.50131E+01 -4.80068E+01
 -1.01760E+01 -5.33274E+01 +5.57824E+00 -5.41646E+01 +2.09260E+01 -5.04425E+01 +3.45775E+01 -4.24674E+01
 +4.53842E+01 -3.09015E+01 +5.24350E+01 -1.67079E+01 +5.51320E+01 -1.07046E+00 +5.32405E+01 +1.47052E+01
 +4.69087E+01 +2.93000E+01 +3.66556E+01 +4.14919E+01 +2.33281E+01 +5.02570E+01 +8.03092E+00 +5.48553E+01
