 Created: 19-Jan-2021
 $NMID
 ID='D:\BASISSIMULATI'
 FMTDAT='(8E13.5)'
 VOLUME=   1.00000E+00
 TRAMP=   1.00000E+00
 $END
 +7.91113E+01 +1.06074E+00 +7.21137E+01 +8.36388E+00 +5.41487E+01 +1.70011E+01 +3.03384E+01 +2.73592E+01
 +7.08181E+00 +3.80212E+01 -1.01471E+01 +4.61336E+01 -1.85075E+01 +4.86116E+01 -1.83821E+01 +4.36297E+01
 -1.27158E+01 +3.16936E+01 -5.49410E+00 +1.57613E+01 -6.88608E-02 +3.07060E-01 +1.96408E+00 -1.02976E+01
 +9.46011E-01 -1.34049E+01 -1.53769E+00 -9.02697E+00 -3.77235E+00 +2.91062E-01 -4.85769E+00 +1.05735E+01
 -5.03922E+00 +1.79900E+01 -5.33729E+00 +2.02247E+01 -6.75054E+00 +1.70963E+01 -9.51236E+00 +1.02476E+01
 -1.28226E+01 +2.15252E+00 -1.52031E+01 -5.03712E+00 -1.52810E+01 -1.02661E+01 -1.25689E+01 -1.36728E+01
 -7.80380E+00 -1.60715E+01 -2.63725E+00 -1.81873E+01 +1.19206E+00 -2.00990E+01 +2.78636E+00 -2.11985E+01
 +2.62856E+00 -2.06637E+01 +2.42204E+00 -1.81419E+01 +4.26588E+00 -1.42124E+01 +9.54493E+00 -1.03055E+01
 +1.80816E+01 -8.04854E+00 +2.79959E+01 -8.34201E+00 +3.63916E+01 -1.06554E+01 +4.05862E+01 -1.29714E+01
 +3.93188E+01 -1.25131E+01 +3.33592E+01 -6.99753E+00 +2.52004E+01 +4.13831E+00 +1.79455E+01 +1.91392E+01
 +1.38888E+01 +3.43164E+01 +1.34507E+01 +4.53370E+01 +1.49808E+01 +4.89139E+01 +1.55478E+01 +4.41739E+01
 +1.23731E+01 +3.30894E+01 +4.25347E+00 +1.97467E+01 -7.69414E+00 +8.73305E+00 -2.03348E+01 +3.31615E+00
 -2.97585E+01 +4.19077E+00 -3.29246E+01 +9.32475E+00 -2.89783E+01 +1.49564E+01 -1.96484E+01 +1.72947E+01
 -8.54819E+00 +1.41742E+01 +3.12093E-01 +5.95227E+00 +4.14399E+00 -4.71485E+00 +2.42650E+00 -1.40796E+01
 -3.05464E+00 -1.89328E+01 -9.14916E+00 -1.79311E+01 -1.28059E+01 -1.20658E+01 -1.23849E+01 -4.11968E+00
 -8.24310E+00 +2.58521E+00 -2.37706E+00 +5.55654E+00 +2.65647E+00 +4.01600E+00 +4.99977E+00 -1.03574E+00
 +4.33958E+00 -7.50840E+00 +1.96917E+00 -1.32616E+01 +8.48223E-02 -1.69686E+01 +6.93441E-01 -1.84176E+01
 +4.66969E+00 -1.81857E+01 +1.13981E+01 -1.69452E+01 +1.91280E+01 -1.48426E+01 +2.58160E+01 -1.13211E+01
 +3.00072E+01 -5.49905E+00 +3.13175E+01 +3.10634E+00 +3.03111E+01 +1.39286E+01 +2.78966E+01 +2.51818E+01
 +2.46184E+01 +3.43411E+01 +2.02699E+01 +3.91073E+01 +1.40707E+01 +3.84148E+01 +5.33387E+00 +3.29824E+01
 -5.74264E+00 +2.50969E+01 -1.76324E+01 +1.76782E+01 -2.77116E+01 +1.30268E+01 -3.31645E+01 +1.18320E+01
 -3.22011E+01 +1.29171E+01 -2.50229E+01 +1.38654E+01 -1.40315E+01 +1.22556E+01 -3.09266E+00 +6.93248E+00
 +3.90351E+00 -1.29585E+00 +4.59601E+00 -9.89173E+00 -8.56343E-01 -1.56792E+01 -9.80834E+00 -1.63112E+01
 -1.82076E+01 -1.14383E+01 -2.22788E+01 -3.02159E+00 -2.00941E+01 +5.38788E+00 -1.23530E+01 +1.01091E+01
 -2.03520E+00 +8.89594E+00 +6.91454E+00 +1.91200E+00 +1.12881E+01 -8.31963E+00 +9.95898E+00 -1.79720E+01
 +4.29676E+00 -2.35086E+01 -2.50355E+00 -2.31164E+01 -6.85029E+00 -1.73614E+01 -6.29599E+00 -8.80622E+00
 -5.19122E-01 -7.98829E-01 +8.64825E+00 +4.00346E+00 +1.81026E+01 +4.71243E+00 +2.48173E+01 +2.43755E+00
 +2.70367E+01 -3.85765E-01 +2.48063E+01 -1.21085E+00 +1.96700E+01 +1.44488E+00 +1.37564E+01 +7.39214E+00
 +8.74266E+00 +1.49633E+01 +5.19571E+00 +2.18543E+01 +2.56860E+00 +2.61714E+01 -2.19252E-01 +2.71751E+01
 -3.97664E+00 +2.53979E+01 -8.66213E+00 +2.21447E+01 -1.33417E+01 +1.86877E+01 -1.66929E+01 +1.56051E+01
 -1.77682E+01 +1.26074E+01 -1.65884E+01 +8.92043E+00 -1.42210E+01 +3.98401E+00 -1.22710E+01 -1.94718E+00
 -1.20274E+01 -7.67137E+00 -1.37091E+01 -1.14969E+01 -1.62273E+01 -1.20880E+01 -1.76362E+01 -9.26870E+00
 -1.60963E+01 -4.33598E+00 -1.08948E+01 +3.42014E-01 -3.00535E+00 +2.32087E+00 +5.13734E+00 +2.28740E-01
 +1.06075E+01 -5.48256E+00 +1.12928E+01 -1.25842E+01 +6.93673E+00 -1.79569E+01 -5.91502E-01 -1.89597E+01
 -7.97217E+00 -1.46724E+01 -1.17973E+01 -6.42829E+00 -1.00334E+01 +2.64449E+00 -2.93155E+00 +8.91377E+00
 +7.03608E+00 +9.81666E+00 +1.62036E+01 +5.02272E+00 +2.12596E+01 -3.34171E+00 +2.06357E+01 -1.15277E+01
 +1.51243E+01 -1.57087E+01 +7.45979E+00 -1.35723E+01 +1.06158E+00 -5.27462E+00 -1.49140E+00 +6.64416E+00
 +4.26728E-01 +1.83266E+01 +5.27258E+00 +2.61655E+01 +1.00860E+01 +2.81900E+01 +1.18497E+01 +2.46913E+01
 +8.83362E+00 +1.78701E+01 +1.33084E+00 +1.07238E+01 -8.51375E+00 +5.71356E+00 -1.76632E+01 +3.81299E+00
 -2.34702E+01 +4.32367E+00 -2.46982E+01 +5.46817E+00 -2.18516E+01 +5.41159E+00 -1.67297E+01 +3.19149E+00
 -1.14789E+01 -8.79355E-01 -7.62925E+00 -5.48574E+00 -5.56551E+00 -9.06527E+00 -4.63778E+00 -1.06266E+01
 -3.78142E+00 -1.02054E+01 -2.27091E+00 -8.74243E+00 -1.86859E-01 -7.47874E+00 +1.64952E+00 -7.21584E+00
 +2.22221E+00 -7.85355E+00 +1.02875E+00 -8.46516E+00 -1.46142E+00 -7.87783E+00 -3.88517E+00 -5.44716E+00
 -4.60355E+00 -1.59459E+00 -2.56560E+00 +2.21850E+00 +2.03013E+00 +4.12262E+00 +7.65197E+00 +2.79927E+00
 +1.20320E+01 -1.70780E+00 +1.32032E+01 -7.76844E+00 +1.04929E+01 -1.27073E+01 +4.97607E+00 -1.39204E+01
 -8.81159E-01 -1.00795E+01 -4.27584E+00 -1.85938E+00 -3.36775E+00 +8.18794E+00 +1.77536E+00 +1.66083E+01
 +9.05233E+00 +2.04711E+01 +1.51293E+01 +1.86224E+01 +1.68483E+01 +1.21983E+01 +1.26345E+01 +4.15125E+00
 +3.26964E+00 -2.01989E+00 -8.33073E+00 -3.78184E+00 -1.82631E+01 -6.54386E-01 -2.32193E+01 +5.60770E+00
 -2.18257E+01 +1.18147E+01 -1.51607E+01 +1.47630E+01 -6.24133E+00 +1.26420E+01 +1.28375E+00 +5.80861E+00
 +4.65090E+00 -3.39879E+00 +3.05347E+00 -1.16991E+01 -2.17036E+00 -1.62784E+01 -8.26760E+00 -1.59393E+01
 -1.23483E+01 -1.14990E+01 -1.26204E+01 -5.29959E+00 -9.04575E+00 -9.77840E-02 -3.17418E+00 +2.13667E+00
 +2.69985E+00 +9.73832E-01 +6.61727E+00 -2.47330E+00 +7.75623E+00 -6.23361E+00 +6.61259E+00 -8.47600E+00
 +4.53846E+00 -8.32768E+00 +2.92955E+00 -6.14337E+00 +2.50159E+00 -3.14866E+00 +3.01867E+00 -6.93760E-01
 +3.58019E+00 +4.68106E-01 +3.27410E+00 +5.03007E-01 +1.81478E+00 +2.73431E-01 -2.00373E-01 +7.20844E-01
 -1.57176E+00 +2.21474E+00 -1.17768E+00 +4.24561E+00 +1.31012E+00 +5.65334E+00 +5.07764E+00 +5.29020E+00
 +8.41441E+00 +2.76990E+00 +9.47906E+00 -1.11703E+00 +7.22972E+00 -4.59305E+00 +2.05179E+00 -5.65869E+00
 -4.26438E+00 -3.09747E+00 -9.24087E+00 +2.77045E+00 -1.08260E+01 +9.99377E+00 -8.39118E+00 +1.56709E+01
 -3.12192E+00 +1.71530E+01 +2.42307E+00 +1.32473E+01 +5.42547E+00 +4.86251E+00 +4.10787E+00 -5.23393E+00
 -1.37533E+00 -1.34846E+01 -8.88840E+00 -1.69963E+01 -1.51653E+01 -1.47493E+01 -1.72098E+01 -8.02363E+00
 -1.36321E+01 +1.53802E-01 -5.32348E+00 +6.30641E+00 +4.84414E+00 +7.98212E+00 +1.31758E+01 +4.75996E+00
 +1.66705E+01 -1.64363E+00 +1.42417E+01 -8.19758E+00 +7.12016E+00 -1.19246E+01 -1.71717E+00 -1.11982E+01
 -8.82000E+00 -6.40018E+00 -1.16715E+01 +3.30757E-01 -9.62448E+00 +6.11036E+00 -3.99478E+00 +8.60164E+00
 +2.67001E+00 +7.00186E+00 +7.76932E+00 +2.30135E+00 +9.72451E+00 -3.26043E+00 +8.48676E+00 -7.25026E+00
 +5.30785E+00 -8.10206E+00 +1.95635E+00 -5.70713E+00 -1.94952E-01 -1.30529E+00 -7.59384E-01 +3.21192E+00
 -3.47472E-01 +6.20908E+00 -4.91055E-02 +6.97933E+00 -7.02252E-01 +5.88516E+00 -2.35640E+00 +3.95747E+00
 -4.21900E+00 +2.21581E+00 -5.10733E+00 +1.09858E+00 -4.15509E+00 +3.09835E-01 -1.38347E+00 -8.50861E-01
 +2.18811E+00 -2.88128E+00 +4.97827E+00 -5.55787E+00 +5.62433E+00 -7.83451E+00 +3.71193E+00 -8.26893E+00
 +6.49891E-02 -5.79711E+00 -3.58486E+00 -4.64222E-01 -5.41951E+00 +6.29763E+00 -4.45751E+00 +1.20596E+01
 -1.11568E+00 +1.43473E+01 +2.89923E+00 +1.17531E+01 +5.36006E+00 +4.69302E+00 +4.61218E+00 -4.58195E+00
 +4.71799E-01 -1.27857E+01 -5.52396E+00 -1.69020E+01 -1.06825E+01 -1.54393E+01 -1.23225E+01 -9.07741E+00
 -9.03086E+00 -4.04289E-01 -1.43060E+00 +7.16144E+00 +7.92039E+00 +1.08004E+01 +1.54976E+01 +9.45172E+00
 +1.82494E+01 +4.19750E+00 +1.48884E+01 -2.28833E+00 +6.47076E+00 -6.96837E+00 -3.99946E+00 -7.79250E+00
 -1.27721E+01 -4.56992E+00 -1.68457E+01 +1.01269E+00 -1.51176E+01 +6.21130E+00 -8.71624E+00 +8.49167E+00
 -4.07463E-01 +6.66270E+00 +6.62904E+00 +1.37342E+00 +1.00995E+01 -5.22558E+00 +9.41554E+00 -1.04711E+01
 +5.72019E+00 -1.23560E+01 +1.17921E+00 -1.03472E+01 -2.08436E+00 -5.50632E+00 -2.90326E+00 +9.47629E-02
 -1.43100E+00 +4.35330E+00 +1.14918E+00 +6.03362E+00 +3.36127E+00 +5.18038E+00 +4.21425E+00 +2.89879E+00
 +3.63041E+00 +6.65894E-01 +2.34018E+00 -4.48452E-01 +1.34582E+00 -2.54892E-01 +1.27552E+00 +6.03298E-01
 +1.99357E+00 +1.15396E+00 +2.68246E+00 +7.53828E-01 +2.35100E+00 -4.74515E-01 +4.85444E-01 -1.67604E+00
 -2.52701E+00 -1.75887E+00 -5.46344E+00 -8.78785E-02 -6.82618E+00 +3.00897E+00 -5.63701E+00 +6.22670E+00
 -2.05596E+00 +7.82094E+00 +2.52403E+00 +6.46604E+00 +6.01145E+00 +2.01520E+00 +6.57037E+00 -4.23969E+00
 +3.55563E+00 -9.98944E+00 -2.03513E+00 -1.28656E+01 -7.85545E+00 -1.15159E+01 -1.11710E+01 -6.29418E+00
 -1.00846E+01 +7.86186E-01 -4.47282E+00 +6.85470E+00 +3.81409E+00 +9.40992E+00 +1.16216E+01 +7.42514E+00
 +1.57704E+01 +1.82567E+00 +1.44037E+01 -4.89688E+00 +7.81313E+00 -9.77886E+00 -1.62442E+00 -1.07060E+01
 -1.03836E+01 -7.36833E+00 -1.52002E+01 -1.41322E+00 -1.43520E+01 +4.28247E+00 -8.27275E+00 +6.90202E+00
 +7.35517E-01 +4.96809E+00 +9.53192E+00 -9.57476E-01 +1.54290E+01 -8.46369E+00 +1.71812E+01 -1.42854E+01
 +1.52663E+01 -1.56661E+01 +1.13989E+01 -1.14982E+01 +7.56101E+00 -2.76411E+00 +5.03982E+00 +7.88194E+00
 +3.92201E+00 +1.71764E+01 +3.25079E+00 +2.24739E+01 +1.71943E+00 +2.26249E+01 -1.47995E+00 +1.81802E+01
 -6.09407E+00 +1.09199E+01 -1.08173E+01 +2.99828E+00 -1.38647E+01 -3.86868E+00 -1.38218E+01 -8.82596E+00
 -1.03494E+01 -1.17997E+01 -4.39800E+00 -1.30696E+01 +2.16968E+00 -1.28090E+01 +7.36157E+00 -1.08927E+01
 +9.86571E+00 -7.08416E+00 +9.50600E+00 -1.47840E+00 +7.14852E+00 +5.10046E+00 +4.13986E+00 +1.10475E+01
 +1.58857E+00 +1.44036E+01 -1.32498E-01 +1.36301E+01 -1.41173E+00 +8.38688E+00 -2.95811E+00 -8.79682E-02
 -5.15385E+00 -9.24546E+00 -7.58030E+00 -1.61027E+01 -9.01813E+00 -1.83926E+01 -7.97876E+00 -1.54937E+01
 -3.53559E+00 -8.71377E+00 +3.96359E+00 -7.71715E-01 +1.27052E+01 +5.32282E+00 +1.99180E+01 +7.51535E+00
 +2.29282E+01 +5.53448E+00 +2.03236E+01 +9.37952E-01 +1.26987E+01 -3.63998E+00 +2.60120E+00 -5.69792E+00
