 Created: 19-Jan-2021
 $NMID
 ID='D:\BASISSIMULATI'
 FMTDAT='(8E13.5)'
 VOLUME=   1.00000E+00
 TRAMP=   1.00000E+00
 $END
 +5.86476E+01 +1.71923E+00 +5.27327E+01 +5.72942E+00 +3.75064E+01 +1.07142E+01 +1.71902E+01 +1.70585E+01
 -2.89303E+00 +2.38782E+01 -1.80797E+01 +2.92421E+01 -2.57662E+01 +3.09775E+01 -2.59519E+01 +2.76927E+01
 -2.07951E+01 +1.95331E+01 -1.34508E+01 +8.30206E+00 -6.72878E+00 -3.13781E+00 -2.13214E+00 -1.19383E+01
 +3.79447E-01 -1.63442E+01 +1.90432E+00 -1.62997E+01 +3.71417E+00 -1.33151E+01 +6.44260E+00 -9.65871E+00
 +9.74041E+00 -7.24836E+00 +1.25324E+01 -6.75332E+00 +1.37002E+01 -7.32289E+00 +1.28048E+01 -7.07016E+00
 +1.04462E+01 -4.08916E+00 +8.04827E+00 +2.46839E+00 +7.14831E+00 +1.17684E+01 +8.53672E+00 +2.14366E+01
 +1.16855E+01 +2.84381E+01 +1.47903E+01 +3.03251E+01 +1.54688E+01 +2.63081E+01 +1.18416E+01 +1.76670E+01
 +3.51909E+00 +7.30461E+00 -7.96990E+00 -1.38484E+00 -1.95485E+01 -5.85505E+00 -2.76545E+01 -5.38598E+00
 -2.95796E+01 -1.28696E+00 -2.45316E+01 +3.75257E+00 -1.39729E+01 +6.87310E+00 -1.08655E+00 +6.28697E+00
 +1.04103E+01 +2.01881E+00 +1.76130E+01 -4.15966E+00 +1.93866E+01 -9.54742E+00 +1.65632E+01 -1.17058E+01
 +1.13430E+01 -9.49382E+00 +6.20760E+00 -3.50469E+00 +2.84504E+00 +4.26050E+00 +1.55916E+00 +1.13009E+01
 +1.38906E+00 +1.56749E+01 +8.31018E-01 +1.67304E+01 -1.22143E+00 +1.51993E+01 -4.79357E+00 +1.26529E+01
 -8.74113E+00 +1.06150E+01 -1.13032E+01 +9.77835E+00 -1.10273E+01 +9.70648E+00 -7.60956E+00 +9.15857E+00
 -2.22309E+00 +6.86654E+00 +2.86208E+00 +2.36710E+00 +5.22911E+00 -3.54324E+00 +3.42114E+00 -8.98832E+00
 -2.30194E+00 -1.17825E+01 -9.92455E+00 -1.04545E+01 -1.64108E+01 -5.04758E+00 -1.89249E+01 +2.70245E+00
 -1.60225E+01 +9.94098E+00 -8.29985E+00 +1.38105E+01 +1.78863E+00 +1.26437E+01 +1.08748E+01 +6.71471E+00
 +1.59900E+01 -1.79372E+00 +1.56959E+01 -9.61588E+00 +1.05669E+01 -1.36882E+01 +2.84387E+00 -1.23597E+01
 -4.56604E+00 -6.02300E+00 -9.29252E+00 +3.08679E+00 -1.03896E+01 +1.18254E+01 -8.54757E+00 +1.73925E+01
 -5.58329E+00 +1.83709E+01 -3.48161E+00 +1.51285E+01 -3.45048E+00 +9.45144E+00 -5.42026E+00 +3.62042E+00
 -8.19428E+00 -6.26114E-01 -1.01437E+01 -2.76698E+00 -1.00860E+01 -3.52690E+00 -7.90790E+00 -4.28593E+00
 -4.62661E+00 -6.18847E+00 -1.85899E+00 -9.40630E+00 -9.61685E-01 -1.29292E+01 -2.27018E+00 -1.49981E+01
 -4.82750E+00 -1.39825E+01 -6.76553E+00 -9.28153E+00 -6.19003E+00 -1.80214E+00 -2.16934E+00 +6.24454E+00
 +4.64377E+00 +1.21769E+01 +1.20798E+01 +1.39561E+01 +1.72291E+01 +1.10857E+01 +1.76231E+01 +4.88338E+00
 +1.23192E+01 -2.01893E+00 +2.41020E+00 -6.75226E+00 -9.28272E+00 -7.40827E+00 -1.92284E+01 -3.84276E+00
 -2.45023E+01 +2.26365E+00 -2.38588E+01 +8.11505E+00 -1.81200E+01 +1.09739E+01 -9.73846E+00 +9.29544E+00
 -1.73910E+00 +3.34192E+00 +3.49367E+00 -4.96827E+00 +5.07081E+00 -1.28886E+01 +3.75601E+00 -1.79694E+01
 +1.40428E+00 -1.89867E+01 -2.37581E-02 -1.62875E+01 +5.96490E-01 -1.14408E+01 +3.08174E+00 -6.39763E+00
 +6.13036E+00 -2.57706E+00 +8.05055E+00 -3.08231E-01 +7.65607E+00 +1.12751E+00 +4.88863E+00 +2.90555E+00
 +8.65409E-01 +5.83557E+00 -2.66972E+00 +9.73647E+00 -4.22364E+00 +1.33420E+01 -3.33031E+00 +1.48127E+01
 -8.38211E-01 +1.26320E+01 +1.45178E+00 +6.46337E+00 +1.65029E+00 -2.45685E+00 -1.24835E+00 -1.16177E+01
 -6.74630E+00 -1.81400E+01 -1.28895E+01 -1.99199E+01 -1.70009E+01 -1.65168E+01 -1.68034E+01 -9.38480E+00
 -1.14512E+01 -1.32434E+00 -2.00816E+00 +4.62946E+00 +8.85226E+00 +6.42013E+00 +1.78211E+01 +3.77232E+00
 +2.22018E+01 -1.75244E+00 +2.09132E+01 -7.46168E+00 +1.48371E+01 -1.06878E+01 +6.37991E+00 -9.89478E+00
 -1.54345E+00 -5.26856E+00 -6.65641E+00 +1.44046E+00 -8.11380E+00 +7.72484E+00 -6.62874E+00 +1.13999E+01
 -3.92728E+00 +1.14748E+01 -1.82096E+00 +8.44723E+00 -1.34327E+00 +3.92536E+00 -2.34386E+00 -2.09895E-01
 -3.70321E+00 -2.69066E+00 -4.03146E+00 -3.37871E+00 -2.48694E+00 -3.18470E+00 +7.00719E-01 -3.45308E+00
 +4.27082E+00 -5.13279E+00 +6.52674E+00 -8.15559E+00 +6.20384E+00 -1.13443E+01 +3.18591E+00 -1.29177E+01
 -1.29596E+00 -1.13677E+01 -5.11309E+00 -6.29560E+00 -6.16458E+00 +1.20580E+00 -3.37195E+00 +8.83893E+00
 +2.71507E+00 +1.39686E+01 +1.00026E+01 +1.47095E+01 +1.56274E+01 +1.07570E+01 +1.71128E+01 +3.58419E+00
 +1.34203E+01 -4.10357E+00 +5.43942E+00 -9.43999E+00 -4.30244E+00 -1.05457E+01 -1.25989E+01 -7.26589E+00
 -1.67944E+01 -1.18726E+00 -1.57746E+01 +5.06497E+00 -1.03143E+01 +8.93874E+00 -2.66255E+00 +8.99461E+00
 +4.43225E+00 +5.43331E+00 +8.82150E+00 -9.39276E-02 +9.71271E+00 -5.27928E+00 +7.78711E+00 -8.18294E+00
 +4.67836E+00 -8.02729E+00 +2.09551E+00 -5.42040E+00 +1.01721E+00 -1.93941E+00 +1.32717E+00 +7.01856E-01
 +2.03533E+00 +1.49289E+00 +1.94299E+00 +5.75624E-01 +3.98188E-01 -9.01435E-01 -2.25091E+00 -1.44065E+00
 -4.74614E+00 -3.56775E-02 -5.52585E+00 +3.22266E+00 -3.56124E+00 +7.08325E+00 +9.89735E-01 +9.66585E+00
 +6.65382E+00 +9.35263E+00 +1.11463E+01 +5.62602E+00 +1.23182E+01 -5.51133E-01 +9.13776E+00 -7.01811E+00
 +2.26061E+00 -1.12668E+01 -6.09465E+00 -1.15015E+01 -1.29485E+01 -7.44372E+00 -1.57240E+01 -5.15236E-01
 -1.32877E+01 +6.69519E+00 -6.42651E+00 +1.14675E+01 +2.44605E+00 +1.20494E+01 +1.02340E+01 +8.35007E+00
 +1.43586E+01 +1.93891E+00 +1.37156E+01 -4.64304E+00 +9.00586E+00 -8.94968E+00 +2.32817E+00 -9.61161E+00
 -3.75788E+00 -6.81702E+00 -7.27721E+00 -2.10663E+00 -7.54439E+00 +2.39590E+00 -5.25367E+00 +4.95219E+00
 -1.96514E+00 +4.93557E+00 +7.31784E-01 +3.00118E+00 +1.96677E+00 +6.50159E-01 +1.90156E+00 -5.81197E-01
 +1.48394E+00 +9.10960E-02 +1.79423E+00 +2.31233E+00 +3.33281E+00 +4.78428E+00 +5.62383E+00 +5.94245E+00
 +7.35464E+00 +4.78411E+00 +7.00577E+00 +1.44074E+00 +3.67912E+00 -2.79457E+00 -2.28172E+00 -6.01810E+00
 -9.20655E+00 -6.60271E+00 -1.46395E+01 -4.01075E+00 -1.63064E+01 +8.56575E-01 -1.31008E+01 +5.96070E+00
 -5.64943E+00 +8.97046E+00 +3.81268E+00 +8.28988E+00 +1.22349E+01 +3.81374E+00 +1.68982E+01 -2.93611E+00
 +1.64447E+01 -9.37415E+00 +1.13633E+01 -1.28879E+01 +3.73689E+00 -1.19113E+01 -3.63243E+00 -6.57772E+00
 -8.33863E+00 +1.32470E+00 -9.25960E+00 +9.07239E+00 -6.85883E+00 +1.40892E+01 -2.80992E+00 +1.49325E+01
 +8.51192E-01 +1.17743E+01 +2.64478E+00 +6.20039E+00 +2.22499E+00 +4.46675E-01 +3.79983E-01 -3.56627E+00
 -1.50585E+00 -4.97254E+00 -2.23903E+00 -4.16672E+00 -1.45746E+00 -2.42515E+00 +1.90526E-01 -1.15976E+00
 +1.41365E+00 -1.18041E+00 +1.00778E+00 -2.32065E+00 -1.41690E+00 -3.59434E+00 -5.08489E+00 -3.78839E+00
 -8.28242E+00 -2.18355E+00 -9.09173E+00 +9.67841E-01 -6.31410E+00 +4.46187E+00 -1.56178E-01 +6.67352E+00
 +7.65835E+00 +6.35748E+00 +1.44441E+01 +3.33535E+00 +1.75724E+01 -1.27852E+00 +1.55351E+01 -5.45704E+00
 +8.60246E+00 -7.11075E+00 -1.21156E+00 -5.04483E+00 -1.08747E+01 +4.09591E-01 -1.74570E+01 +7.39588E+00
 -1.91887E+01 +1.32003E+01 -1.60320E+01 +1.53292E+01 -9.55640E+00 +1.25480E+01 -2.20558E+00 +5.43850E+00
 +3.70419E+00 -3.77055E+00 +6.82207E+00 -1.20385E+01 +7.10171E+00 -1.66706E+01 +5.54698E+00 -1.63226E+01
 +3.53961E+00 -1.14446E+01 +2.10036E+00 -4.00487E+00 +1.44126E+00 +3.36397E+00 +1.00501E+00 +8.41345E+00
 -6.12400E-02 +1.00773E+01 -2.26630E+00 +8.70477E+00 -5.31941E+00 +5.67845E+00 -8.11644E+00 +2.63801E+00
 -9.20464E+00 +6.94597E-01 -7.51848E+00 -5.82492E-04 -3.02894E+00 -1.55641E-01 +3.03226E+00 -7.89675E-01
 +8.52792E+00 -2.53589E+00 +1.12374E+01 -5.16270E+00 +9.80527E+00 -7.56951E+00 +4.39493E+00 -8.27963E+00
 -3.26264E+00 -6.20521E+00 -1.04824E+01 -1.31465E+00 -1.46661E+01 +5.13736E+00 -1.43411E+01 +1.09658E+01
 -9.75711E+00 +1.38777E+01 -2.78204E+00 +1.24210E+01 +3.86463E+00 +6.64537E+00 +7.71960E+00 -1.82329E+00
 +7.55827E+00 -1.03478E+01 +3.84227E+00 -1.62583E+01 -1.54474E+00 -1.78414E+01 -6.14342E+00 -1.49331E+01
 -7.97188E+00 -8.88235E+00 -6.33148E+00 -1.92635E+00 -2.03107E+00 +3.73494E+00 +3.04218E+00 +6.75874E+00
 +6.79121E+00 +7.03604E+00 +7.81915E+00 +5.50009E+00 +5.98040E+00 +3.50386E+00 +2.34760E+00 +2.09230E+00
 -1.36172E+00 +1.52575E+00 -3.61404E+00 +1.27266E+00 -3.75500E+00 +4.50942E-01 -2.25686E+00 -1.52840E+00
 -4.20560E-01 -4.46566E+00 +3.10163E-01 -7.30686E+00 -9.11054E-01 -8.57972E+00 -3.89016E+00 -7.14879E+00
 -7.45270E+00 -2.93016E+00 -9.97363E+00 +2.80538E+00 -1.01240E+01 +7.74586E+00 -7.48267E+00 +9.39831E+00
 -2.72838E+00 +6.16484E+00 +2.67209E+00 -1.82335E+00 +7.12609E+00 -1.25015E+01 +9.60969E+00 -2.24385E+01
 +1.00640E+01 -2.80007E+01 +9.30773E+00 -2.66781E+01 +8.51338E+00 -1.80613E+01 +8.51044E+00 -4.08041E+00
 +9.26586E+00 +1.15900E+01 +9.81682E+00 +2.47352E+01 +8.71701E+00 +3.19545E+01 +4.80793E+00 +3.16714E+01
 -2.04349E+00 +2.44579E+01 -1.06072E+01 +1.26213E+01 -1.85540E+01 -7.18626E-01 -2.32574E+01 -1.26598E+01
 -2.28175E+01 -2.12668E+01 -1.68766E+01 -2.58179E+01 -6.86302E+00 -2.65708E+01 +4.46568E+00 -2.42702E+01
 +1.40115E+01 -1.96917E+01 +1.94599E+01 -1.34424E+01 +2.00791E+01 -6.05712E+00 +1.68711E+01 +1.74794E+00
 +1.20259E+01 +8.89824E+00 +7.92313E+00 +1.40518E+01 +6.11680E+00 +1.59928E+01 +6.73139E+00 +1.41749E+01
 +8.51561E+00 +9.14113E+00 +9.50738E+00 +2.55873E+00 +8.00124E+00 -3.23680E+00 +3.38507E+00 -6.06944E+00
 -3.51939E+00 -4.80604E+00 -1.07522E+01 +8.64503E-02 -1.60062E+01 +6.58755E+00 -1.75605E+01 +1.18120E+01
 -1.49528E+01 +1.31044E+01 -9.11178E+00 +9.11365E+00 -1.91803E+00 +4.08674E-01 +4.59144E+00 -1.06344E+01
 +9.01403E+00 -2.06477E+01 +1.10287E+01 -2.64773E+01 +1.13312E+01 -2.63058E+01 +1.11283E+01 -2.02507E+01
 +1.14555E+01 -1.02203E+01 +1.26477E+01 +8.88503E-01 +1.42031E+01 +1.02977E+01 +1.50796E+01 +1.62995E+01
 +1.42585E+01 +1.86766E+01 +1.12858E+01 +1.84622E+01 +6.52501E+00 +1.72011E+01 +1.00473E+00 +1.60806E+01
 -4.05070E+00 +1.53407E+01 -7.76248E+00 +1.42259E+01 -9.93104E+00 +1.14827E+01 -1.09899E+01 +6.15194E+00
 -1.16041E+01 -1.72988E+00 -1.21284E+01 -1.08657E+01 -1.22260E+01 -1.90154E+01 -1.08878E+01 -2.37784E+01
 -6.90187E+00 -2.35142E+01 +4.11177E-01 -1.80091E+01 +1.05391E+01 -8.60669E+00 +2.15493E+01 +2.24955E+00
 +3.04829E+01 +1.18666E+01 +3.42973E+01 +1.81931E+01 +3.10249E+01 +2.04010E+01 +2.06828E+01 +1.89571E+01
