 Created: 19-Jan-2021
 $NMID
 ID='D:\BASISSIMULATI'
 FMTDAT='(8E13.5)'
 VOLUME=   1.00000E+00
 TRAMP=   1.00000E+00
 $END
 +2.81902E+01 +1.46372E-01 +2.32828E+01 +1.45893E+01 +1.08184E+01 +2.30302E+01 -3.86646E+00 +2.21319E+01
 -1.45354E+01 +1.25833E+01 -1.67395E+01 -1.22014E+00 -9.72189E+00 -1.30907E+01 +3.27807E+00 -1.77240E+01
 +1.64425E+01 -1.29801E+01 +2.38959E+01 -7.89846E-01 +2.22369E+01 +1.36967E+01 +1.19923E+01 +2.43431E+01
 -2.62894E+00 +2.66719E+01 -1.55644E+01 +1.97818E+01 -2.15145E+01 +6.71488E+00 -1.82158E+01 -6.87543E+00
 -7.39385E+00 -1.51718E+01 +6.00562E+00 -1.46968E+01 +1.59672E+01 -5.79390E+00 +1.80037E+01 +7.54420E+00
 +1.10797E+01 +1.94179E+01 -1.96094E+00 +2.45728E+01 -1.56415E+01 +2.06586E+01 -2.42228E+01 +9.22435E+00
 -2.41730E+01 -4.97000E+00 -1.56710E+01 -1.60195E+01 -2.50459E+00 -1.94191E+01 +9.58331E+00 -1.39891E+01
 +1.53784E+01 -2.35792E+00 +1.24343E+01 +1.01973E+01 +2.10558E+00 +1.80414E+01 -1.10616E+01 +1.76105E+01
 -2.13081E+01 +8.93300E+00 -2.41486E+01 -4.40526E+00 -1.82931E+01 -1.68259E+01 -6.18079E+00 -2.31694E+01
 +7.09419E+00 -2.09086E+01 +1.59903E+01 -1.12148E+01 +1.69024E+01 +1.57492E+00 +9.69511E+00 +1.18473E+01
 -2.26791E+00 +1.51367E+01 -1.35995E+01 +1.00374E+01 -1.92233E+01 -1.21584E+00 -1.65570E+01 -1.37366E+01
 -6.60487E+00 -2.21090E+01 +6.49933E+00 -2.27208E+01 +1.72923E+01 -1.53028E+01 +2.13382E+01 -3.01845E+00
 +1.71246E+01 +8.92225E+00 +6.68663E+00 +1.55176E+01 -5.29897E+00 +1.41202E+01 -1.35477E+01 +5.55316E+00
 -1.44449E+01 -6.27555E+00 -7.58569E+00 -1.60811E+01 +4.07798E+00 -1.94875E+01 +1.55349E+01 -1.49023E+01
 +2.18861E+01 -4.17873E+00 +2.04488E+01 +8.20889E+00 +1.18897E+01 +1.71091E+01 -9.12693E-02 +1.89104E+01
 -1.03778E+01 +1.30766E+01 -1.46471E+01 +2.34666E+00 -1.12182E+01 -8.47440E+00 -1.74755E+00 -1.46010E+01
 +9.51573E+00 -1.33240E+01 +1.75822E+01 -5.15563E+00 +1.88740E+01 +6.42082E+00 +1.27500E+01 +1.64753E+01
 +1.75408E+00 +2.07622E+01 -9.50745E+00 +1.75366E+01 -1.63623E+01 +8.27818E+00 -1.60776E+01 -2.97716E+00
 -9.01085E+00 -1.13959E+01 +1.57710E+00 -1.34303E+01 +1.09548E+01 -8.32730E+00 +1.49687E+01 +1.57871E+00
 +1.18221E+01 +1.19022E+01 +2.82240E+00 +1.81126E+01 -8.21270E+00 +1.74827E+01 -1.66204E+01 +1.02404E+01
 -1.89029E+01 -5.59341E-01 -1.42147E+01 -1.03765E+01 -4.69531E+00 -1.51491E+01 +5.48361E+00 -1.30290E+01
 +1.19317E+01 -5.14825E+00 +1.19267E+01 +4.90368E+00 +5.56214E+00 +1.26504E+01 -4.32599E+00 +1.46618E+01
 -1.34100E+01 +1.00147E+01 -1.77462E+01 +6.60517E-01 -1.54627E+01 -9.44604E+00 -7.53869E+00 -1.60666E+01
 +2.65013E+00 -1.64997E+01 +1.08081E+01 -1.07197E+01 +1.35722E+01 -1.35245E+00 +9.94112E+00 +7.48457E+00
 +1.67244E+00 +1.19683E+01 -7.50831E+00 +1.02057E+01 -1.35329E+01 +3.02048E+00 -1.37407E+01 -6.43664E+00
 -8.00237E+00 -1.40701E+01 +1.25751E+00 -1.66087E+01 +1.01337E+01 -1.29975E+01 +1.49333E+01 -4.82033E+00
 +1.37547E+01 +4.41543E+00 +7.27656E+00 +1.08079E+01 -1.57091E+00 +1.17375E+01 -8.89455E+00 +6.97051E+00
 -1.15213E+01 -1.27711E+00 -8.34805E+00 -9.32600E+00 -7.83710E-01 -1.36331E+01 +7.89137E+00 -1.23089E+01
 +1.39592E+01 -5.90357E+00 +1.48637E+01 +2.86472E+00 +1.02881E+01 +1.03062E+01 +2.25592E+00 +1.33539E+01
 -5.77131E+00 +1.08661E+01 -1.03991E+01 +4.08403E+00 -9.75173E+00 -3.93904E+00 -4.24982E+00 -9.67516E+00
 +3.60788E+00 -1.06409E+01 +1.03497E+01 -6.44394E+00 +1.30347E+01 +1.08313E+00 +1.05035E+01 +8.70459E+00
 +3.84559E+00 +1.31901E+01 -4.10481E+00 +1.26972E+01 -1.00107E+01 +7.53551E+00 -1.14683E+01 -3.48569E-03
 -8.01752E+00 -6.66170E+00 -1.30341E+00 -9.62553E+00 +5.66702E+00 -7.72100E+00 +9.83687E+00 -1.88538E+00
 +9.40861E+00 +5.27347E+00 +4.59005E+00 +1.06245E+01 -2.53197E+00 +1.18633E+01 -8.91941E+00 +8.48205E+00
 -1.19000E+01 +1.95329E+00 -1.03023E+01 -4.93802E+00 -4.92617E+00 -9.30992E+00 +1.83822E+00 -9.41631E+00
 +7.06461E+00 -5.36926E+00 +8.55179E+00 +9.47847E-01 +5.74902E+00 +6.72267E+00 -4.36028E-02 +9.43583E+00
 -6.27025E+00 +7.93172E+00 -1.02385E+01 +2.88355E+00 -1.02729E+01 -3.53337E+00 -6.40831E+00 -8.60307E+00
 -3.37961E-01 -1.02402E+01 +5.34661E+00 -7.86558E+00 +8.28144E+00 -2.61882E+00 +7.33317E+00 +3.16827E+00
 +3.05315E+00 +6.99479E+00 -2.59853E+00 +7.26209E+00 -7.12391E+00 +3.93407E+00 -8.56662E+00 -1.48544E+00
 -6.33367E+00 -6.63239E+00 -1.41489E+00 -9.31237E+00 +4.07861E+00 -8.43235E+00 +7.84274E+00 -4.43872E+00
 +8.36705E+00 +9.12656E-01 +5.55704E+00 +5.33891E+00 +7.36106E-01 +7.01650E+00 -3.95711E+00 +5.34512E+00
 -6.50245E+00 +1.16918E+00 -5.85554E+00 -3.62279E+00 -2.36499E+00 -6.93255E+00 +2.41608E+00 -7.35207E+00
 +6.42630E+00 -4.74335E+00 +7.98851E+00 -2.60029E-01 +6.51192E+00 +4.18185E+00 +2.71035E+00 +6.74168E+00
 -1.74164E+00 +6.43428E+00 -4.95086E+00 +3.52133E+00 -5.61697E+00 -6.40338E-01 -3.56544E+00 -4.21147E+00
 +2.16022E-01 -5.66828E+00 +4.03673E+00 -4.43941E+00 +6.24566E+00 -1.11612E+00 +5.93156E+00 +2.83921E+00
 +3.28395E+00 +5.74474E+00 -5.26722E-01 +6.42076E+00 -3.88132E+00 +4.67165E+00 -5.41510E+00 +1.33195E+00
 -4.58617E+00 -2.12686E+00 -1.87260E+00 -4.24469E+00 +1.47110E+00 -4.19086E+00 +3.97725E+00 -2.09020E+00
 +4.59563E+00 +1.06972E+00 +3.12064E+00 +3.89337E+00 +2.42050E-01 +5.18574E+00 -2.78611E+00 +4.44920E+00
 -4.70103E+00 +2.06283E+00 -4.76504E+00 -9.17995E-01 -3.05233E+00 -3.23892E+00 -3.78292E-01 -3.98549E+00
 +2.08133E+00 -2.95186E+00 +3.30460E+00 -6.91200E-01 +2.84615E+00 +1.75734E+00 +9.93861E-01 +3.33287E+00
 -1.39276E+00 +3.40101E+00 -3.27685E+00 +1.99711E+00 -3.89080E+00 -2.27243E-01 -3.04314E+00 -2.31474E+00
 -1.16366E+00 -3.42314E+00 +9.16067E-01 -3.17131E+00 +2.33760E+00 -1.76881E+00 +2.57689E+00 +1.12061E-01
 +1.64005E+00 +1.65018E+00 +2.20726E-02 +2.23000E+00 -1.53709E+00 +1.68340E+00 -2.38099E+00 +3.24932E-01
 -2.20402E+00 -1.21866E+00 -1.14942E+00 -2.29613E+00 +2.89724E-01 -2.50514E+00 +1.50748E+00 -1.83677E+00
 +2.04739E+00 -6.41464E-01 +1.77647E+00 +5.52491E-01 +9.05660E-01 +1.27642E+00 -1.36114E-01 +1.30811E+00
 -9.05002E-01 +7.34010E-01 -1.12708E+00 -1.25627E-01 -7.88209E-01 -8.80230E-01 -1.02318E-01 -1.23973E+00
 +6.11758E-01 -1.11814E+00 +1.07859E+00 -6.34686E-01 +1.17098E+00 -2.76030E-02 +9.32265E-01 +4.67091E-01
 +5.20588E-01 +7.11582E-01 +1.15251E-01 +6.98094E-01 -1.63478E-01 +5.14767E-01 -2.85278E-01 +2.76406E-01
 -2.87106E-01 +6.33930E-02 -2.22090E-01 -1.00001E-01 -1.17110E-01 -2.24238E-01 +3.43557E-02 -3.13071E-01
 +2.43099E-01 -3.35868E-01 +4.82821E-01 -2.36819E-01 +6.70328E-01 +2.12988E-02 +6.89310E-01 +4.06280E-01
 +4.52668E-01 +7.95602E-01 -2.87749E-02 +1.00954E+00 -6.14238E-01 +8.92485E-01 -1.06726E+00 +4.05797E-01
 -1.15280E+00 -3.19067E-01 -7.57334E-01 -1.00563E+00 +2.80802E-02 -1.33850E+00 +9.12285E-01 -1.11018E+00
 +1.50917E+00 -3.40534E-01 +1.50682E+00 +6.95736E-01 +8.26542E-01 +1.56106E+00 -3.07641E-01 +1.83822E+00
 -1.43426E+00 +1.32810E+00 -2.03993E+00 +1.69003E-01 -1.79093E+00 -1.18840E+00 -7.06459E-01 -2.15456E+00
 +8.13724E-01 -2.25702E+00 +2.13466E+00 -1.36775E+00 +2.65341E+00 +2.06641E-01 +2.07556E+00 +1.82565E+00
 +5.74492E-01 +2.77680E+00 -1.24933E+00 +2.59178E+00 -2.60626E+00 +1.27651E+00 -2.85901E+00 -6.56368E-01
 -1.82013E+00 -2.38177E+00 +1.32797E-01 -3.11098E+00 +2.18866E+00 -2.44759E+00 +3.43778E+00 -5.90297E-01
 +3.27218E+00 +1.71880E+00 +1.67503E+00 +3.49245E+00 -7.37513E-01 +3.92376E+00 -2.95483E+00 +2.75544E+00
 -3.99971E+00 +4.23995E-01 -3.36422E+00 -2.09764E+00 -1.25917E+00 -3.70458E+00 +1.44360E+00 -3.64365E+00
 +3.56561E+00 -1.86450E+00 +4.12943E+00 +9.24648E-01 +2.80079E+00 +3.53534E+00 +6.56153E-02 +4.80277E+00
 -2.94840E+00 +4.10168E+00 -4.94214E+00 +1.64557E+00 -5.01107E+00 -1.57233E+00 -3.06010E+00 -4.18544E+00
 +1.22479E-01 -5.04131E+00 +3.17830E+00 -3.71776E+00 +4.75580E+00 -7.36397E-01 +4.10577E+00 +2.63206E+00
 +1.43332E+00 +4.90005E+00 -2.15820E+00 +5.01007E+00 -5.12076E+00 +2.81509E+00 -6.12677E+00 -8.25298E-01
 -4.65977E+00 -4.38842E+00 -1.26784E+00 -6.33507E+00 +2.64260E+00 -5.78436E+00 +5.39687E+00 -2.92078E+00
 +5.77831E+00 +1.05419E+00 +3.57565E+00 +4.41840E+00 -2.94602E-01 +5.66899E+00 -4.15708E+00 +4.18792E+00
 -6.29024E+00 +5.38536E-01 -5.67960E+00 -3.74752E+00 -2.48208E+00 -6.81401E+00 +2.01028E+00 -7.28376E+00
 +5.90496E+00 -4.87427E+00 +7.52085E+00 -5.50019E-01 +6.12870E+00 +3.86712E+00 +2.29379E+00 +6.47293E+00
 -2.33931E+00 +6.11138E+00 -5.73972E+00 +2.89829E+00 -6.36904E+00 -1.79867E+00 -3.86596E+00 -5.92812E+00
 +7.67843E-01 -7.63561E+00 +5.57335E+00 -6.07864E+00 +8.46766E+00 -1.81817E+00 +8.15046E+00 +3.39441E+00
 +4.68869E+00 +7.35509E+00 -4.83138E-01 +8.35890E+00 -5.15994E+00 +5.95399E+00 -7.31202E+00 +1.16457E+00
 -5.97421E+00 -3.92598E+00 -1.68853E+00 -7.06291E+00 +3.70201E+00 -6.80070E+00 +7.83154E+00 -3.15011E+00
 +8.83301E+00 +2.39735E+00 +6.16210E+00 +7.49055E+00 +8.60141E-01 +9.92658E+00 -4.86943E+00 +8.61313E+00
 -8.59913E+00 +4.06451E+00 -8.73025E+00 -1.79354E+00 -5.20346E+00 -6.43767E+00 +4.48902E-01 -7.83559E+00
 +5.74313E+00 -5.33991E+00 +8.31017E+00 +6.11919E-03 +6.92988E+00 +5.89418E+00 +2.08231E+00 +9.73475E+00
 -4.23230E+00 +9.77999E+00 -9.33856E+00 +5.89855E+00 -1.10386E+01 -3.40788E-01 -8.57527E+00 -6.32419E+00
 -2.98364E+00 -9.51301E+00 +3.33237E+00 -8.54865E+00 +7.62518E+00 -3.86073E+00 +7.99386E+00 +2.49369E+00
 +4.22381E+00 +7.70149E+00 -2.09502E+00 +9.40668E+00 -8.23323E+00 +6.74246E+00 -1.14924E+01 +7.30370E-01
 -1.03787E+01 -6.13615E+00 -5.26935E+00 -1.09542E+01 +1.72525E+00 -1.16663E+01 +7.65486E+00 -7.96568E+00
 +9.99951E+00 -1.45138E+00 +7.76949E+00 +5.04165E+00 +1.95460E+00 +8.65918E+00 -4.88134E+00 +7.76809E+00
 -9.69512E+00 +2.68199E+00 -1.02812E+01 -4.45014E+00 -6.24107E+00 -1.05542E+01 +8.20235E-01 -1.29545E+01
 +7.96589E+00 -1.05406E+01 +1.21854E+01 -4.26825E+00 +1.16995E+01 +3.23133E+00 +6.74632E+00 +8.77366E+00
 -5.00679E-01 +9.99683E+00 -6.85482E+00 +6.39553E+00 -9.48935E+00 -4.39557E-01 -7.16931E+00 -7.48983E+00
 -8.05779E-01 -1.16043E+01 +6.91559E+00 -1.08665E+01 +1.26805E+01 -5.44086E+00 +1.39768E+01 +2.47587E+00
 +1.01929E+01 +9.58514E+00 +2.90188E+00 +1.29051E+01 -4.79863E+00 +1.10660E+01 -9.61487E+00 +4.91901E+00
