 Created: 19-Jan-2021
 $NMID
 ID='D:\BASISSIMULATI'
 FMTDAT='(8E13.5)'
 VOLUME=   1.00000E+00
 TRAMP=   1.00000E+00
 $END
 +3.81468E+01 +8.47160E-01 +3.70820E+01 +8.59481E+00 +3.43814E+01 +1.59118E+01 +3.01872E+01 +2.24451E+01
 +2.47186E+01 +2.78854E+01 +1.82589E+01 +3.19830E+01 +1.11390E+01 +3.45614E+01 +3.71917E+00 +3.55261E+01
 -3.63148E+00 +3.48679E+01 -1.05553E+01 +3.26624E+01 -1.67252E+01 +2.90638E+01 -2.18622E+01 +2.42947E+01
 -2.57489E+01 +1.86327E+01 -2.82400E+01 +1.23929E+01 -2.92680E+01 +5.91048E+00 -2.88443E+01 -4.78611E-01
 -2.70560E+01 -6.45589E+00 -2.40586E+01 -1.17370E+01 -2.00646E+01 -1.60857E+01 -1.53301E+01 -1.93250E+01
 -1.01391E+01 -2.13442E+01 -4.78671E+00 -2.21020E+01 +4.36926E-01 -2.16257E+01 +5.26223E+00 -2.00065E+01
 +9.45358E+00 -1.73916E+01 +1.28202E+01 -1.39737E+01 +1.52243E+01 -9.97827E+00 +1.65851E+01 -5.65024E+00
 +1.68808E+01 -1.23985E+00 +1.61460E+01 +3.01063E+00 +1.44672E+01 +6.87901E+00 +1.19754E+01 +1.01735E+01
 +8.83681E+00 +1.27408E+01 +5.24266E+00 +1.44716E+01 +1.39823E+00 +1.53037E+01 -2.48805E+00 +1.52219E+01
 -6.21483E+00 +1.42565E+01 -9.59700E+00 +1.24793E+01 -1.24734E+01 +9.99720E+00 -1.47129E+01 +6.94609E+00
 -1.62184E+01 +3.48261E+00 -1.69295E+01 -2.23663E-01 -1.68225E+01 -3.99825E+00 -1.59104E+01 -7.66927E+00
 -1.42396E+01 -1.10744E+01 -1.18868E+01 -1.40667E+01 -8.95482E+00 -1.65198E+01 -5.56734E+00 -1.83316E+01
 -1.86374E+00 -1.94274E+01 +2.00657E+00 -1.97613E+01 +5.88962E+00 -1.93172E+01 +9.63247E+00 -1.81090E+01
 +1.30884E+01 -1.61789E+01 +1.61218E+01 -1.35961E+01 +1.86129E+01 -1.04541E+01 +2.04619E+01 -6.86767E+00
 +2.15922E+01 -2.96866E+00 +2.19538E+01 +1.09826E+00 +2.15252E+01 +5.18065E+00 +2.03145E+01 +9.12371E+00
 +1.83604E+01 +1.27760E+01 +1.57305E+01 +1.59952E+01 +1.25206E+01 +1.86540E+01 +8.85044E+00 +2.06455E+01
 +4.86050E+00 +2.18884E+01 +7.06160E-01 +2.23304E+01 -3.44824E+00 +2.19523E+01 -7.43635E+00 +2.07687E+01
 -1.10971E+01 +1.88291E+01 -1.42821E+01 +1.62160E+01 -1.68626E+01 +1.30421E+01 -1.87362E+01 +9.44577E+00
 -1.98319E+01 +5.58495E+00 -2.01144E+01 +1.62989E+00 -1.95859E+01 -2.24489E+00 -1.82871E+01 -5.86919E+00
 -1.62950E+01 -9.08567E+00 -1.37198E+01 -1.17579E+01 -1.06992E+01 -1.37777E+01 -7.39151E+00 -1.50704E+01
 -3.96731E+00 -1.55995E+01 -6.00456E-01 -1.53681E+01 +2.54124E+00 -1.44187E+01 +5.30509E+00 -1.28313E+01
 +7.56185E+00 -1.07183E+01 +9.21266E+00 -8.21805E+00 +1.01944E+01 -5.48742E+00 +1.04827E+01 -2.69237E+00
 +1.00933E+01 +1.40103E-03 +9.08050E+00 +2.43796E+00 +7.53335E+00 +4.48000E+00 +5.57043E+00 +6.01658E+00
 +3.33234E+00 +6.96926E+00 +9.73165E-01 +7.29624E+00 -1.34881E+00 +6.99433E+00 -3.48049E+00 +6.09859E+00
 -5.28301E+00 +4.67967E+00 -6.63977E+00 +2.83912E+00 -7.46307E+00 +7.02858E-01 -7.69886E+00 -1.58667E+00
 -7.32950E+00 -3.87923E+00 -6.37420E+00 -6.02583E+00 -4.88735E+00 -7.88754E+00 -2.95471E+00 -9.34353E+00
 -6.87872E-01 -1.02979E+01 +1.78270E+00 -1.06847E+01 +4.31563E+00 -1.04716E+01 +6.76697E+00 -9.66077E+00
 +8.99854E+00 -8.28822E+00 +1.08857E+01 -6.42106E+00 +1.23240E+01 -4.15297E+00 +1.32348E+01 -1.59834E+00
 +1.35688E+01 +1.11466E+00 +1.33078E+01 +3.85147E+00 +1.24652E+01 +6.47876E+00 +1.10841E+01 +8.87156E+00
 +9.23387E+00 +1.09198E+01 +7.00571E+00 +1.25334E+01 +4.50685E+00 +1.36467E+01 +1.85441E+00 +1.42205E+01
 -8.31203E-01 +1.42431E+01 -3.43259E+00 +1.37298E+01 -5.84123E+00 +1.27206E+01 -7.96253E+00 +1.12769E+01
 -9.71978E+00 +9.47762E+00 -1.10570E+01 +7.41375E+00 -1.19406E+01 +5.18358E+00 -1.23593E+01 +2.88722E+00
 -1.23236E+01 +6.21684E-01 -1.18637E+01 -1.52360E+00 -1.10266E+01 -3.47056E+00 -9.87280E+00 -5.15531E+00
 -8.47234E+00 -6.53018E+00 -6.90089E+00 -7.56469E+00 -5.23580E+00 -8.24561E+00 -3.55242E+00 -8.57623E+00
 -1.92081E+00 -8.57493E+00 -4.03038E-01 -8.27307E+00 +9.48972E-01 -7.71262E+00 +2.09491E+00 -6.94341E+00
 +3.00691E+00 -6.02033E+00 +3.66985E+00 -5.00058E+00 +4.08097E+00 -3.94099E+00 +4.24912E+00 -2.89566E+00
 +4.19357E+00 -1.91386E+00 +3.94255E+00 -1.03822E+00 +3.53146E+00 -3.03432E-01 +3.00105E+00 +2.64846E-01
 +2.39543E+00 +6.50563E-01 +1.76011E+00 +8.47558E-01 +1.14001E+00 +8.59469E-01 +5.77578E-01 +6.99307E-01
 +1.11042E-01 +3.88703E-01 -2.27202E-01 -4.31277E-02 -4.11979E-01 -5.60712E-01 -4.26480E-01 -1.12388E+00
 -2.63098E-01 -1.68953E+00 +7.60596E-02 -2.21359E+00 +5.79057E-01 -2.65301E+00 +1.22441E+00 -2.96789E+00
 +1.98178E+00 -3.12345E+00 +2.81316E+00 -3.09196E+00 +3.67437E+00 -2.85440E+00 +4.51698E+00 -2.40178E+00
 +5.29056E+00 -1.73606E+00 +5.94509E+00 -8.70659E-01 +6.43353E+00 +1.69729E-01 +6.71430E+00 +1.34973E+00
 +6.75374E+00 +2.62459E+00 +6.52818E+00 +3.94188E+00 +6.02564E+00 +5.24387E+00 +5.24703E+00 +6.47009E+00
 +4.20672E+00 +7.56029E+00 +2.93242E+00 +8.45749E+00 +1.46437E+00 +9.11093E+00 -1.46111E-01 +9.47892E+00
 -1.83876E+00 +9.53123E+00 -3.54703E+00 +9.25101E+00 -5.20119E+00 +8.63610E+00 -6.73161E+00 +7.69957E+00
 -8.07218E+00 +6.46952E+00 -9.16370E+00 +4.98812E+00 -9.95683E+00 +3.30980E+00 -1.04147E+01 +1.49891E+00
 -1.05151E+01 -3.73241E-01 -1.02514E+01 -2.23177E+00 -9.63343E+00 -4.00179E+00 -8.68678E+00 -5.61202E+00
 -7.45204E+00 -6.99824E+00 -5.98263E+00 -8.10647E+00 -4.34233E+00 -8.89553E+00 -2.60219E+00 -9.33908E+00
 -8.37039E-01 -9.42683E+00 +8.78141E-01 -9.16494E+00 +2.47189E+00 -8.57567E+00 +3.87971E+00 -7.69609E+00
 +5.04719E+00 -6.57620E+00 +5.93253E+00 -5.27625E+00 +6.50849E+00 -3.86369E+00 +6.76357E+00 -2.40975E+00
 +6.70235E+00 -9.85753E-01 +6.34506E+00 +3.40393E-01 +5.72634E+00 +1.50762E+00 +4.89330E+00 +2.46471E+00
 +3.90294E+00 +3.17280E+00 +2.81909E+00 +3.60720E+00 +1.70902E+00 +3.75859E+00 +6.39903E-01 +3.63329E+00
 -3.24736E-01 +3.25285E+00 -1.12835E+00 +2.65278E+00 -1.72437E+00 +1.88061E+00 -2.07865E+00 +9.93294E-01
 -2.17134E+00 +5.41889E-02 -1.99798E+00 -8.70413E-01 -1.56985E+00 -1.71485E+00 -9.13406E-01 -2.41768E+00
 -6.90752E-02 -2.92509E+00 +9.10843E-01 -3.19397E+00 +1.96484E+00 -3.19439E+00 +3.02544E+00 -2.91153E+00
 +4.02274E+00 -2.34678E+00 +4.88826E+00 -1.51800E+00 +5.55869E+00 -4.58979E-01 +5.97950E+00 +7.82058E-01
 +6.10816E+00 +2.14468E+00 +5.91677E+00 +3.55918E+00 +5.39403E+00 +4.95014E+00 +4.54631E+00 +6.24032E+00
 +3.39785E+00 +7.35477E+00 +1.98996E+00 +8.22495E+00 +3.79331E-01 +8.79259E+00 -1.36459E+00 +9.01309E+00
 -3.16289E+00 +8.85829E+00 -4.93117E+00 +8.31842E+00 -6.58385E+00 +7.40308E+00 -8.03868E+00 +6.14124E+00
 -9.22113E+00 +4.58013E+00 -1.00685E+01 +2.78320E+00 -1.05335E+01 +8.27058E-01 -1.05869E+01 -1.20229E+00
 -1.02194E+01 -3.21379E+00 -9.44254E+00 -5.11608E+00 -8.28806E+00 -6.82224E+00 -6.80668E+00 -8.25440E+00
 -5.06544E+00 -9.34791E+00 -3.14432E+00 -1.00548E+01 -1.13202E+00 -1.03462E+01 +8.78677E-01 -1.02143E+01
 +2.79581E+00 -9.67204E+00 +4.53314E+00 -8.75292E+00 +6.01462E+00 -7.50875E+00 +7.17839E+00 -6.00684E+00
 +7.97986E+00 -4.32616E+00 +8.39390E+00 -2.55299E+00 +8.41577E+00 -7.76165E-01 +8.06104E+00 +9.17795E-01
 +7.36432E+00 +2.44926E+00 +6.37688E+00 +3.74965E+00 +5.16345E+00 +4.76488E+00 +3.79835E+00 +5.45790E+00
 +2.36108E+00 +5.81016E+00 +9.31849E-01 +5.82207E+00 -4.12857E-01 +5.51232E+00 -1.60434E+00 +4.91616E+00
 -2.58517E+00 +4.08285E+00 -3.31185E+00 +3.07243E+00 -3.75664E+00 +1.95191E+00 -3.90837E+00 +7.91388E-01
 -3.77232E+00 -3.39953E-01 -3.36911E+00 -1.37752E+00 -2.73290E+00 -2.26456E+00 -1.90883E+00 -2.95477E+00
 -9.50103E-01 -3.41419E+00 +8.52115E-02 -3.62227E+00 +1.13743E+00 -3.57218E+00 +2.14833E+00 -3.27034E+00
 +3.06389E+00 -2.73532E+00 +3.83661E+00 -1.99616E+00 +4.42729E+00 -1.09041E+00 +4.80620E+00 -6.18462E-02
 +4.95370E+00 +1.04177E+00 +4.86040E+00 +2.17093E+00 +4.52674E+00 +3.27635E+00 +3.96236E+00 +4.31079E+00
 +3.18517E+00 +5.23041E+00 +2.22027E+00 +5.99597E+00 +1.09887E+00 +6.57362E+00 -1.42748E-01 +6.93554E+00
 -1.46427E+00 +7.06037E+00 -2.82226E+00 +6.93353E+00 -4.17097E+00 +6.54756E+00 -5.46326E+00 +5.90239E+00
 -6.65142E+00 +5.00569E+00 -7.68817E+00 +3.87324E+00 -8.52786E+00 +2.52918E+00 -9.12780E+00 +1.00632E+00
 -9.44987E+00 -6.53941E-01 -9.46233E+00 -2.40181E+00 -9.14177E+00 -4.17984E+00 -8.47506E+00 -5.92405E+00
 -7.46134E+00 -7.56570E+00 -6.11356E+00 -9.03358E+00 -4.45979E+00 -1.02569E+01 -2.54373E+00 -1.11684E+01
 -4.24626E-01 -1.17085E+01 +1.82387E+00 -1.18286E+01 +4.11572E+00 -1.14947E+01 +6.35551E+00 -1.06914E+01
 +8.44247E+00 -9.42366E+00 +1.02751E+01 -7.71938E+00 +1.17566E+01 -5.62957E+00 +1.28004E+01 -3.22787E+00
 +1.33356E+01 -6.08495E-01 +1.33121E+01 +2.11724E+00 +1.27051E+01 +4.82565E+00 +1.15182E+01 +7.38664E+00
 +9.78501E+00 +9.67039E+00 +7.56947E+00 +1.15546E+01 +4.96397E+00 +1.29320E+01 +2.08593E+00 +1.37167E+01
 -9.27492E-01 +1.38509E+01 -3.92611E+00 +1.33090E+01 -6.75461E+00 +1.21011E+01 -9.26116E+00 +1.02739E+01
 -1.13062E+01 +7.90946E+00 -1.27711E+01 +5.12218E+00 -1.35655E+01 +2.05339E+00 -1.36340E+01 -1.13586E+00
 -1.29599E+01 -4.27341E+00 -1.15680E+01 -7.18559E+00 -9.52422E+00 -9.70733E+00 -6.93269E+00 -1.16919E+01
 -3.93090E+00 -1.30200E+01 -6.82382E-01 -1.36075E+01 +2.63223E+00 -1.34106E+01 +5.82541E+00 -1.24300E+01
 +8.71360E+00 -1.07111E+01 +1.11279E+01 -8.34224E+00 +1.29245E+01 -5.45031E+00 +1.39928E+01 -2.19375E+00
 +1.42629E+01 +1.24630E+00 +1.37097E+01 +4.67632E+00 +1.23552E+01 +7.90160E+00 +1.02668E+01 +1.07375E+01
 +7.55427E+00 +1.30204E+01 +4.36344E+00 +1.46170E+01 +8.67623E-01 +1.54323E+01 -2.74226E+00 +1.54149E+01
 -6.26866E+00 +1.45603E+01 -9.51880E+00 +1.29102E+01 -1.23157E+01 +1.05508E+01 -1.45080E+01 +7.60697E+00
 -1.59784E+01 +4.23480E+00 -1.66501E+01 +6.12742E-01 -1.64902E+01 -3.06900E+00 -1.55110E+01 -6.61922E+00
 -1.37686E+01 -9.85644E+00 -1.13589E+01 -1.26188E+01 -8.41110E+00 -1.47724E+01 -5.08000E+00 -1.62183E+01
 -1.53676E+00 -1.68965E+01 +2.04095E+00 -1.67884E+01 +5.47875E+00 -1.59163E+01 +8.61485E+00 -1.43405E+01
 +1.13082E+01 -1.21548E+01 +1.34450E+01 -9.48007E+00 +1.49435E+01 -6.45664E+00 +1.57570E+01 -3.23592E+00
 +1.58738E+01 +2.79568E-02 +1.53165E+01 +3.18625E+00 +1.41383E+01 +6.10285E+00 +1.24189E+01 +8.66037E+00
 +1.02583E+01 +1.07647E+01 +7.77039E+00 +1.23481E+01 +5.07695E+00 +1.33703E+01 +2.30062E+00 +1.38185E+01
