 Created: 19-Jan-2021
 $NMID
 ID='D:\BASISSIMULATI'
 FMTDAT='(8E13.5)'
 VOLUME=   1.00000E+00
 TRAMP=   1.00000E+00
 $END
 +4.91558E+01 +1.15524E+00 +4.26137E+01 +1.31257E+01 +2.60059E+01 +2.25916E+01 +4.10617E+00 +2.77027E+01
 -1.68578E+01 +2.73010E+01 -3.10891E+01 +2.12145E+01 -3.49296E+01 +1.04490E+01 -2.78623E+01 -2.83254E+00
 -1.25181E+01 -1.56297E+01 +6.27079E+00 -2.47345E+01 +2.30304E+01 -2.75574E+01 +3.32950E+01 -2.29304E+01
 +3.48325E+01 -1.16149E+01 +2.80950E+01 +3.70530E+00 +1.58221E+01 +1.90302E+01 +1.99718E+00 +3.01278E+01
 -9.45550E+00 +3.37979E+01 -1.58009E+01 +2.89152E+01 -1.61225E+01 +1.68861E+01 -1.13224E+01 +1.32279E+00
 -3.58157E+00 -1.30119E+01 +4.46912E+00 -2.16790E+01 +1.05643E+01 -2.19889E+01 +1.33586E+01 -1.39012E+01
 +1.26045E+01 -7.77251E-02 +8.98567E+00 +1.49517E+01 +3.74216E+00 +2.62563E+01 -1.74079E+00 +3.01236E+01
 -6.25056E+00 +2.52914E+01 -8.92025E+00 +1.33745E+01 -9.28437E+00 -1.66338E+00 -7.28326E+00 -1.48195E+01
 -3.26976E+00 -2.17074E+01 +1.97820E+00 -2.00021E+01 +7.28777E+00 -1.01968E+01 +1.12344E+01 +4.57499E+00
 +1.24375E+01 +1.95808E+01 +9.97461E+00 +3.00346E+01 +3.79571E+00 +3.26297E+01 -5.03196E+00 +2.65581E+01
 -1.44024E+01 +1.37020E+01 -2.16345E+01 -2.03355E+00 -2.42408E+01 -1.59963E+01 -2.07835E+01 -2.42343E+01
 -1.15215E+01 -2.46490E+01 +1.41933E+00 -1.75100E+01 +1.44873E+01 -5.21942E+00 +2.36865E+01 +8.54129E+00
 +2.58242E+01 +1.99647E+01 +1.96228E+01 +2.61917E+01 +6.30230E+00 +2.59950E+01 -1.06116E+01 +1.99208E+01
 -2.62508E+01 +9.92438E+00 -3.58701E+01 -1.31465E+00 -3.63554E+01 -1.11483E+01 -2.72784E+01 -1.75680E+01
 -1.11287E+01 -1.95382E+01 +7.38370E+00 -1.70449E+01 +2.27539E+01 -1.09334E+01 +3.03873E+01 -2.64224E+00
 +2.80359E+01 +6.08045E+00 +1.64985E+01 +1.34444E+01 -6.43630E-01 +1.78735E+01 -1.81649E+01 +1.82695E+01
 -3.08345E+01 +1.42718E+01 -3.50242E+01 +6.45432E+00 -2.97730E+01 -3.63601E+00 -1.69864E+01 -1.36873E+01
 -7.37876E-01 -2.11041E+01 +1.40689E+01 -2.36874E+01 +2.32262E+01 -2.03352E+01 +2.44467E+01 -1.15299E+01
 +1.79231E+01 +5.97184E-01 +6.09349E+00 +1.27211E+01 -7.25374E+00 +2.12236E+01 -1.82046E+01 +2.32965E+01
 -2.38675E+01 +1.78985E+01 -2.31033E+01 +6.22820E+00 -1.66614E+01 -8.49202E+00 -6.75448E+00 -2.19088E+01
 +3.72743E+00 -2.98585E+01 +1.20814E+01 -2.97052E+01 +1.64709E+01 -2.12505E+01 +1.62611E+01 -6.89229E+00
 +1.19854E+01 +9.05390E+00 +5.03336E+00 +2.16778E+01 -2.79085E+00 +2.70255E+01 -9.69667E+00 +2.33739E+01
 -1.42339E+01 +1.18063E+01 -1.54950E+01 -4.11084E+00 -1.32149E+01 -1.94494E+01 -7.80083E+00 -2.94787E+01
 -2.98981E-01 -3.11541E+01 +7.72461E+00 -2.40543E+01 +1.44236E+01 -1.04720E+01 +1.80423E+01 +5.35545E+00
 +1.73699E+01 +1.86099E+01 +1.21656E+01 +2.53978E+01 +3.40110E+00 +2.39142E+01 -6.81427E+00 +1.49115E+01
 -1.56821E+01 +1.35613E+00 -2.04639E+01 -1.25755E+01 -1.93349E+01 -2.28127E+01 -1.20677E+01 -2.65883E+01
 -2.89311E-01 -2.31619E+01 +1.28339E+01 -1.38839E+01 +2.34473E+01 -1.64071E+00 +2.81660E+01 +1.00922E+01
 +2.51845E+01 +1.82681E+01 +1.49611E+01 +2.10519E+01 +2.18888E-01 +1.81728E+01 -1.47838E+01 +1.08113E+01
 -2.55184E+01 +1.12229E+00 -2.85973E+01 -8.41123E+00 -2.28769E+01 -1.55958E+01 -9.88215E+00 -1.89694E+01
 +6.60740E+00 -1.80070E+01 +2.16951E+01 -1.31082E+01 +3.08737E+01 -5.42881E+00 +3.14209E+01 +3.37510E+00
 +2.32357E+01 +1.14450E+01 +8.84955E+00 +1.70380E+01 -7.38492E+00 +1.88496E+01 -2.06599E+01 +1.63108E+01
 -2.71887E+01 +9.79653E+00 -2.53249E+01 +6.64532E-01 -1.59827E+01 -8.94353E+00 -2.25316E+00 -1.65528E+01
 +1.16294E+01 -1.99861E+01 +2.16174E+01 -1.80166E+01 +2.50472E+01 -1.08384E+01 +2.13428E+01 -1.67616E-01
 +1.20418E+01 +1.11166E+01 +1.87578E-01 +1.97398E+01 -1.06770E+01 +2.30061E+01 -1.75760E+01 +1.96819E+01
 -1.89007E+01 +1.04871E+01 -1.47356E+01 -2.00262E+00 -6.66715E+00 -1.40592E+01 +2.80699E+00 -2.19213E+01
 +1.10463E+01 -2.29883E+01 +1.59754E+01 -1.67000E+01 +1.65477E+01 -4.79643E+00 +1.28844E+01 +9.15378E+00
 +6.11246E+00 +2.08313E+01 -2.00195E+00 +2.65174E+01 -9.50076E+00 +2.42870E+01 -1.46552E+01 +1.46518E+01
 -1.62938E+01 +4.37247E-01 -1.40067E+01 -1.40766E+01 -8.22098E+00 -2.44795E+01 -1.41796E-01 -2.75987E+01
 +8.44268E+00 -2.24735E+01 +1.54915E+01 -1.06349E+01 +1.91466E+01 +4.39164E+00 +1.82024E+01 +1.81850E+01
 +1.24975E+01 +2.67748E+01 +3.09805E+00 +2.78095E+01 -7.82805E+00 +2.11940E+01 -1.74735E+01 +9.02737E+00
 -2.31105E+01 -5.10832E+00 -2.28856E+01 -1.72537E+01 -1.64504E+01 -2.42198E+01 -5.20709E+00 -2.44337E+01
 +7.95609E+00 -1.82599E+01 +1.94113E+01 -7.74859E+00 +2.58267E+01 +4.06236E+00 +2.51864E+01 +1.40471E+01
 +1.74687E+01 +1.98213E+01 +4.74262E+00 +2.02825E+01 -9.37911E+00 +1.57542E+01 -2.07900E+01 +7.75231E+00
 -2.61283E+01 -1.51116E+00 -2.38174E+01 -9.72363E+00 -1.45723E+01 -1.50118E+01 -1.19981E+00 -1.63161E+01
 +1.22550E+01 -1.35508E+01 +2.17526E+01 -7.55319E+00 +2.45010E+01 +1.40440E-01 +1.98040E+01 +7.63870E+00
 +9.25047E+00 +1.31014E+01 -3.80973E+00 +1.51447E+01 -1.53271E+01 +1.31761E+01 -2.18104E+01 +7.58328E+00
 -2.13833E+01 -2.85981E-01 -1.43161E+01 -8.38673E+00 -2.88482E+00 -1.44562E+01 +9.37649E+00 -1.66154E+01
 +1.87774E+01 -1.39401E+01 +2.25764E+01 -6.82576E+00 +1.97557E+01 +2.99450E+00 +1.12508E+01 +1.28327E+01
 -4.00767E-01 +1.97616E+01 -1.18557E+01 +2.14781E+01 -1.99422E+01 +1.70565E+01 -2.25296E+01 +7.34479E+00
 -1.90520E+01 -5.15680E+00 -1.05719E+01 -1.69380E+01 +5.92067E-01 -2.44789E+01 +1.15344E+01 -2.53166E+01
 +1.95265E+01 -1.88475E+01 +2.26743E+01 -6.59828E+00 +2.03223E+01 +8.14273E+00 +1.31377E+01 +2.12454E+01
 +2.89072E+00 +2.89414E+01 -7.99201E+00 +2.89473E+01 -1.69879E+01 +2.11613E+01 -2.20344E+01 +7.71353E+00
 -2.19744E+01 -7.64872E+00 -1.68103E+01 -2.06551E+01 -7.71583E+00 -2.77522E+01 +3.20198E+00 -2.71149E+01
 +1.33590E+01 -1.91310E+01 +2.02843E+01 -6.22731E+00 +2.22228E+01 +7.89050E+00 +1.86041E+01 +1.93385E+01
 +1.02462E+01 +2.51578E+01 -7.86910E-01 +2.40982E+01 -1.16708E+01 +1.68710E+01 -1.95452E+01 +5.83018E+00
 -2.22951E+01 -5.78888E+00 -1.91668E+01 -1.48254E+01 -1.10278E+01 -1.90569E+01 -1.68511E-01 -1.77353E+01
 +1.03202E+01 -1.16741E+01 +1.74307E+01 -2.90123E+00 +1.91262E+01 +5.98599E+00 +1.49620E+01 +1.25622E+01
 +6.23973E+00 +1.52045E+01 -4.36671E+00 +1.34574E+01 -1.36125E+01 +8.06567E+00 -1.86700E+01 +6.97730E-01
 -1.80002E+01 -6.54192E+00 -1.18337E+01 -1.16752E+01 -2.10654E+00 -1.33487E+01 +8.13341E+00 -1.11555E+01
 +1.56678E+01 -5.71811E+00 +1.81041E+01 +1.47969E+00 +1.46171E+01 +8.46733E+00 +6.20653E+00 +1.32848E+01
 -4.60659E+00 +1.44898E+01 -1.45481E+01 +1.15546E+01 -2.05830E+01 +5.05058E+00 -2.08282E+01 -3.44165E+00
 -1.51109E+01 -1.16950E+01 -5.01141E+00 -1.73997E+01 +6.61071E+00 -1.87939E+01 +1.64566E+01 -1.51935E+01
 +2.17388E+01 -7.26279E+00 +2.09642E+01 +3.07438E+00 +1.43336E+01 +1.30896E+01 +3.65531E+00 +1.99694E+01
 -8.18070E+00 +2.16109E+01 -1.80087E+01 +1.72655E+01 -2.32400E+01 +7.83003E+00 -2.25339E+01 -4.32191E+00
 -1.61170E+01 -1.59469E+01 -5.68487E+00 -2.38197E+01 +6.06876E+00 -2.56543E+01 +1.61600E+01 -2.07863E+01
 +2.20724E+01 -1.04087E+01 +2.23762E+01 +2.72331E+00 +1.70633E+01 +1.50436E+01 +7.52638E+00 +2.31727E+01
 -3.80319E+00 +2.48734E+01 -1.40659E+01 +1.96857E+01 -2.06840E+01 +9.05742E+00 -2.20013E+01 -4.06946E+00
 -1.76966E+01 -1.60920E+01 -8.87035E+00 -2.37582E+01 +2.22348E+00 -2.50646E+01 +1.27407E+01 -1.97881E+01
 +1.99711E+01 -9.50832E+00 +2.20423E+01 +2.87192E+00 +1.84215E+01 +1.39589E+01 +1.00743E+01 +2.08106E+01
 -7.70763E-01 +2.17237E+01 -1.12034E+01 +1.66548E+01 -1.84097E+01 +7.17450E+00 -2.04406E+01 -4.01373E+00
 -1.67552E+01 -1.38414E+01 -8.38389E+00 -1.97107E+01 +2.34639E+00 -2.01715E+01 +1.24534E+01 -1.52677E+01
 +1.91329E+01 -6.47452E+00 +2.05485E+01 +3.74029E+00 +1.63502E+01 +1.26010E+01 +7.77260E+00 +1.77682E+01
 -2.72098E+00 +1.79476E+01 -1.21441E+01 +1.32087E+01 -1.78411E+01 +4.93885E+00 -1.82412E+01 -4.54809E+00
 -1.32974E+01 -1.26421E+01 -4.48360E+00 -1.71386E+01 +5.64175E+00 -1.68282E+01 +1.41776E+01 -1.18190E+01
 +1.87098E+01 -3.50577E+00 +1.79898E+01 +5.80767E+00 +1.22728E+01 +1.35357E+01 +3.22456E+00 +1.75202E+01
 -6.56754E+00 +1.66312E+01 -1.43348E+01 +1.10901E+01 -1.79052E+01 +2.42378E+00 -1.63030E+01 -6.94767E+00
 -1.00062E+01 -1.43788E+01 -7.98401E-01 -1.77410E+01 +8.73688E+00 -1.60307E+01 +1.59349E+01 -9.66735E+00
 +1.87826E+01 -3.93171E-01 +1.64679E+01 +9.20481E+00 +9.59786E+00 +1.64183E+01 +3.25796E-02 +1.91835E+01
 -9.62044E+00 +1.66711E+01 -1.67131E+01 +9.52985E+00 -1.92765E+01 -2.86917E-01 -1.65605E+01 -1.00646E+01
 -9.24886E+00 -1.70862E+01 +7.12478E-01 -1.93922E+01 +1.06299E+01 -1.63262E+01 +1.77869E+01 -8.71552E+00
 +2.01856E+01 +1.36249E+00 +1.71036E+01 +1.11575E+01 +9.31082E+00 +1.80037E+01 -1.11974E+00 +2.00468E+01
 -1.13639E+01 +1.67409E+01 -1.86151E+01 +8.98497E+00 -2.08606E+01 -1.13200E+00 -1.74490E+01 -1.09023E+01
 -9.28534E+00 -1.77279E+01 +1.40573E+00 -1.98109E+01 +1.16904E+01 -1.66236E+01 +1.87400E+01 -9.03858E+00
 +2.06217E+01 +9.10485E-01 +1.68402E+01 +1.05712E+01 +8.47501E+00 +1.73740E+01 -2.12651E+00 +1.95104E+01
 -1.20133E+01 +1.64112E+01 -1.84614E+01 +8.90132E+00 -1.97335E+01 -1.01271E+00 -1.55526E+01 -1.06687E+01
 -7.15808E+00 -1.74560E+01 +3.06472E+00 -1.95179E+01 +1.22695E+01 -1.62648E+01 +1.79482E+01 -8.55237E+00
 +1.86168E+01 +1.52842E+00 +1.42011E+01 +1.12058E+01 +6.02146E+00 +1.77825E+01 -3.60415E+00 +1.93880E+01
 -1.20179E+01 +1.55192E+01 -1.69514E+01 +7.20829E+00 -1.71264E+01 -3.23966E+00 -1.25712E+01 -1.28777E+01
 -4.58004E+00 -1.89465E+01 +4.66075E+00 -1.96679E+01 +1.26682E+01 -1.47719E+01 +1.73187E+01 -5.59720E+00
 +1.73956E+01 +5.27387E+00 +1.28914E+01 +1.47463E+01 +4.99869E+00 +2.01025E+01 -4.20495E+00 +1.97910E+01
 -1.22920E+01 +1.38818E+01 -1.71088E+01 +4.05067E+00 -1.73326E+01 -6.90308E+00 -1.28250E+01 -1.58650E+01
 -4.68967E+00 -2.03014E+01 +4.98645E+00 -1.89804E+01 +1.36538E+01 -1.23089E+01 +1.89589E+01 -2.19399E+00
 +1.93769E+01 +8.52210E+00 +1.46503E+01 +1.68810E+01 +5.90650E+00 +2.06384E+01 -4.59489E+00 +1.88686E+01
 -1.40366E+01 +1.21803E+01 -1.97999E+01 +2.49868E+00 -2.02002E+01 -7.50567E+00 -1.49933E+01 -1.51654E+01
