 Created: 19-Jan-2021
 $NMID
 ID='D:\BASISSIMULATI'
 FMTDAT='(8E13.5)'
 VOLUME=   1.00000E+00
 TRAMP=   1.00000E+00
 $END
 +7.50164E+01 +1.94638E+00 +6.66831E+01 +3.12656E+01 +4.55788E+01 +5.30121E+01 +1.69969E+01 +6.19973E+01
 -1.19338E+01 +5.62874E+01 -3.40855E+01 +3.76720E+01 -4.41539E+01 +1.11665E+01 -3.99895E+01 -1.63143E+01
 -2.30969E+01 -3.77567E+01 +1.81837E+00 -4.78479E+01 +2.81251E+01 -4.43036E+01 +4.90151E+01 -2.83863E+01
 +5.92622E+01 -4.49132E+00 +5.65287E+01 +2.10716E+01 +4.18890E+01 +4.17662E+01 +1.94477E+01 +5.25323E+01
 -4.82356E+00 +5.10570E+01 -2.47067E+01 +3.82883E+01 -3.53752E+01 +1.80777E+01 -3.46164E+01 -3.93405E+00
 -2.33254E+01 -2.18692E+01 -5.15958E+00 -3.11822E+01 +1.45321E+01 -2.98261E+01 +3.01987E+01 -1.87171E+01
 +3.75871E+01 -1.39289E+00 +3.48515E+01 +1.70240E+01 +2.29836E+01 +3.12592E+01 +5.46756E+00 +3.73239E+01
 -1.27296E+01 +3.35680E+01 -2.65438E+01 +2.10770E+01 -3.21955E+01 +3.32101E+00 -2.81948E+01 -1.48345E+01
 -1.57088E+01 -2.84749E+01 +1.79575E+00 -3.39715E+01 +1.95226E+01 -2.99477E+01 +3.26592E+01 -1.76236E+01
 +3.76753E+01 -4.58125E-01 +3.32584E+01 +1.68033E+01 +2.06464E+01 +2.94124E+01 +3.27498E+00 +3.38863E+01
 -1.41531E+01 +2.89240E+01 -2.69232E+01 +1.57345E+01 -3.15522E+01 -2.30024E+00 -2.66932E+01 -2.05299E+01
 -1.34695E+01 -3.42611E+01 +4.83982E+00 -3.99776E+01 +2.36704E+01 -3.62390E+01 +3.83642E+01 -2.40278E+01
 +4.53673E+01 -6.46611E+00 +4.31239E+01 +1.20153E+01 +3.24414E+01 +2.68291E+01 +1.62439E+01 +3.44038E+01
 -1.21294E+00 +3.30734E+01 -1.54500E+01 +2.34625E+01 -2.29079E+01 +8.27833E+00 -2.18297E+01 -8.42347E+00
 -1.26645E+01 -2.22999E+01 +2.10047E+00 -2.98297E+01 +1.86232E+01 -2.91861E+01 +3.27171E+01 -2.06553E+01
 +4.09234E+01 -6.50630E+00 +4.13690E+01 +9.64169E+00 +3.41956E+01 +2.37788E+01 +2.14635E+01 +3.25371E+01
 +6.56588E+00 +3.40294E+01 -6.68079E+00 +2.82846E+01 -1.50284E+01 +1.71781E+01 -1.66138E+01 +3.88979E+00
 -1.13942E+01 -7.95933E+00 -1.09924E+00 -1.52585E+01 +1.12753E+01 -1.61990E+01 +2.22879E+01 -1.07047E+01
 +2.89648E+01 -3.99041E-01 +2.95658E+01 +1.18714E+01 +2.40061E+01 +2.28207E+01 +1.38322E+01 +2.96018E+01
 +1.76870E+00 +3.05466E+01 -9.03466E+00 +2.55763E+01 -1.58497E+01 +1.61806E+01 -1.70852E+01 +4.98173E+00
 -1.26830E+01 -4.99299E+00 -4.09715E+00 -1.11309E+01 +6.13073E+00 -1.19257E+01 +1.50795E+01 -7.35857E+00
 +2.02449E+01 +1.12671E+00 +2.02089E+01 +1.10424E+01 +1.50067E+01 +1.95499E+01 +6.09330E+00 +2.42365E+01
 -4.07201E+00 +2.37668E+01 -1.27087E+01 +1.82321E+01 -1.74770E+01 +9.10999E+00 -1.71112E+01 -1.15344E+00
 -1.17554E+01 -9.81990E+00 -2.91230E+00 -1.46088E+01 +6.97801E+00 -1.43166E+01 +1.52107E+01 -9.13814E+00
 +1.95575E+01 -6.04768E-01 +1.88734E+01 +8.84116E+00 +1.34058E+01 +1.65185E+01 +4.72219E+00 +2.02417E+01
 -4.72134E+00 +1.89179E+01 -1.22524E+01 +1.28443E+01 -1.57122E+01 +3.62714E+00 -1.40441E+01 -6.25601E+00
 -7.58210E+00 -1.41290E+01 +2.03880E+00 -1.78434E+01 +1.23242E+01 -1.63602E+01 +2.05937E+01 -1.00301E+01
 +2.47031E+01 -4.98448E-01 +2.36197E+01 +9.74004E+00 +1.76959E+01 +1.80128E+01 +8.56891E+00 +2.21864E+01
 -1.28454E+00 +2.12347E+01 -9.21658E+00 +1.55057E+01 -1.31175E+01 +6.61748E+00 -1.19749E+01 -2.98651E+00
 -6.13206E+00 -1.06991E+01 +2.81945E+00 -1.44486E+01 +1.24827E+01 -1.32457E+01 +2.03089E+01 -7.43163E+00
 +2.42825E+01 +1.43478E+00 +2.34526E+01 +1.10179E+01 +1.81679E+01 +1.88492E+01 +9.95437E+00 +2.29957E+01
 +1.07540E+00 +2.25725E+01 -6.10220E+00 +1.79585E+01 -9.75921E+00 +1.06620E+01 -9.11270E+00 +2.87809E+00
 -4.60925E+00 -3.13838E+00 +2.22727E+00 -5.70503E+00 +9.24742E+00 -4.17562E+00 +1.42984E+01 +8.94059E-01
 +1.58411E+01 +7.92200E+00 +1.33878E+01 +1.47664E+01 +7.63806E+00 +1.93500E+01 +2.74419E-01 +2.02654E+01
 -6.52560E+00 +1.71901E+01 -1.07232E+01 +1.09912E+01 -1.10188E+01 +3.48890E+00 -7.24861E+00 -3.05915E+00
 -4.60731E-01 -6.60854E+00 +7.35550E+00 -5.93227E+00 +1.38170E+01 -1.00564E+00 +1.68225E+01 +6.94163E+00
 +1.51688E+01 +1.57284E+01 +8.93311E+00 +2.28044E+01 -4.91617E-01 +2.59562E+01 -1.07279E+01 +2.39442E+01
 -1.90299E+01 +1.68921E+01 -2.30236E+01 +6.31444E+00 -2.13712E+01 -5.23493E+00 -1.41775E+01 -1.48098E+01
 -3.02011E+00 -1.98459E+01 +9.41375E+00 -1.88574E+01 +1.99976E+01 -1.18683E+01 +2.59712E+01 -4.54862E-01
 +2.56707E+01 +1.26185E+01 +1.89896E+01 +2.40837E+01 +7.44275E+00 +3.10001E+01 -6.18848E+00 +3.15153E+01
 -1.85452E+01 +2.53583E+01 -2.65378E+01 +1.39310E+01 -2.81334E+01 -2.84877E-02 -2.28790E+01 -1.31287E+01
 -1.20235E+01 -2.21779E+01 +1.79439E+00 -2.49894E+01 +1.52130E+01 -2.09307E+01 +2.49977E+01 -1.10749E+01
 +2.88539E+01 +2.08228E+00 +2.59952E+01 +1.52680E+01 +1.73205E+01 +2.52684E+01 +5.15907E+00 +2.97406E+01
 -7.34829E+00 +2.77899E+01 -1.70654E+01 +2.01666E+01 -2.16620E+01 +9.03531E+00 -2.01912E+01 -2.61611E+00
 -1.32969E+01 -1.17691E+01 -3.00216E+00 -1.61579E+01 +7.85740E+00 -1.48384E+01 +1.64013E+01 -8.39720E+00
 +2.04654E+01 +1.24779E+00 +1.91559E+01 +1.13959E+01 +1.30519E+01 +1.93076E+01 +4.00871E+00 +2.29431E+01
 -5.37772E+00 +2.14961E+01 -1.24969E+01 +1.55837E+01 -1.54403E+01 +7.04538E+00 -1.35137E+01 -1.58827E+00
 -7.41042E+00 -7.80923E+00 +1.00116E+00 -9.83042E+00 +9.21117E+00 -7.07845E+00 +1.47764E+01 -3.46729E-01
 +1.60062E+01 +8.43111E+00 +1.24385E+01 +1.67240E+01 +4.97400E+00 +2.21125E+01 -4.36744E+00 +2.29684E+01
 -1.30023E+01 +1.89182E+01 -1.84993E+01 +1.09613E+01 -1.92581E+01 +1.20957E+00 -1.49663E+01 -7.68380E+00
 -6.70451E+00 -1.32501E+01 +3.32904E+00 -1.38890E+01 +1.24052E+01 -9.32257E+00 +1.80028E+01 -6.92966E-01
 +1.85005E+01 +9.72646E+00 +1.36332E+01 +1.91319E+01 +4.58490E+00 +2.49420E+01 -6.30925E+00 +2.55005E+01
 -1.61769E+01 +2.05375E+01 -2.23753E+01 +1.12619E+01 -2.32054E+01 +5.61575E-02 -1.83810E+01 -1.01481E+01
 -9.12254E+00 -1.66505E+01 +2.15204E+00 -1.77081E+01 +1.24617E+01 -1.30135E+01 +1.90546E+01 -3.79212E+00
 +2.01468E+01 +7.50957E+00 +1.54101E+01 +1.78664E+01 +6.07471E+00 +2.44786E+01 -5.38449E+00 +2.55234E+01
 -1.58970E+01 +2.06533E+01 -2.26124E+01 +1.11048E+01 -2.36656E+01 -6.14673E-01 -1.86867E+01 -1.13832E+01
 -8.91760E+00 -1.82914E+01 +3.09990E+00 -1.94215E+01 +1.41860E+01 -1.43713E+01 +2.13615E+01 -4.38044E+00
 +2.26421E+01 +7.97879E+00 +1.75774E+01 +1.94665E+01 +7.38961E+00 +2.70250E+01 -5.32884E+00 +2.85885E+01
 -1.72825E+01 +2.36397E+01 -2.53312E+01 +1.33636E+01 -2.73158E+01 +3.54597E-01 -2.26326E+01 -1.20482E+01
 -1.24049E+01 -2.06255E+01 +7.95046E-01 -2.31171E+01 +1.36051E+01 -1.88155E+01 +2.27393E+01 -8.75673E+00
 +2.58376E+01 +4.53983E+00 +2.20764E+01 +1.77185E+01 +1.23809E+01 +2.74503E+01 -8.15082E-01 +3.12883E+01
 -1.41992E+01 +2.82917E+01 -2.44342E+01 +1.92590E+01 -2.90126E+01 +6.50883E+00 -2.68900E+01 -6.72811E+00
 -1.87349E+01 -1.71478E+01 -6.73183E+00 -2.22203E+01 +6.00351E+00 -2.08253E+01 +1.62424E+01 -1.35140E+01
 +2.14762E+01 -2.33177E+00 +2.05477E+01 +9.74290E+00 +1.39171E+01 +1.95924E+01 +3.50114E+00 +2.47734E+01
 -7.86705E+00 +2.41355E+01 -1.72063E+01 +1.80861E+01 -2.21766E+01 +8.43720E+00 -2.16797E+01 -2.11635E+00
 -1.61143E+01 -1.07413E+01 -7.22383E+00 -1.52297E+01 +2.41286E+00 -1.45760E+01 +1.01062E+01 -9.21663E+00
 +1.37945E+01 -8.71702E-01 +1.25959E+01 +7.96006E+00 +7.02760E+00 +1.47112E+01 -1.16554E+00 +1.74630E+01
 -9.51877E+00 +1.54731E+01 -1.55501E+01 +9.37148E+00 -1.74619E+01 +9.71884E-01 -1.46482E+01 -7.24573E+00
 -7.86793E+00 -1.28381E+01 +9.63593E-01 -1.40921E+01 +9.30676E+00 -1.05169E+01 +1.47080E+01 -2.99787E+00
 +1.54928E+01 +6.43069E+00 +1.12499E+01 +1.51358E+01 +2.97292E+00 +2.06088E+01 -7.18458E+00 +2.11651E+01
 -1.64761E+01 +1.64296E+01 -2.23019E+01 +7.47163E+00 -2.29218E+01 -3.45045E+00 -1.79489E+01 -1.34716E+01
 -8.48685E+00 -1.98771E+01 +3.12933E+00 -2.08328E+01 +1.39264E+01 -1.58932E+01 +2.10655E+01 -6.15016E+00
 +2.25914E+01 +6.02356E+00 +1.79609E+01 +1.75711E+01 +8.20801E+00 +2.55361E+01 -4.30051E+00 +2.78310E+01
 -1.64594E+01 +2.37871E+01 -2.52160E+01 +1.43428E+01 -2.83546E+01 +1.81650E+00 -2.50693E+01 -1.06776E+01
 -1.61769E+01 -2.00212E+01 -3.91303E+00 -2.38883E+01 +8.63643E+00 -2.13381E+01 +1.83220E+01 -1.30541E+01
 +2.27328E+01 -1.16555E+00 +2.08075E+01 +1.13008E+01 +1.30972E+01 +2.11969E+01 +1.61279E+00 +2.60572E+01
 -1.07002E+01 +2.47220E+01 -2.07241E+01 +1.76212E+01 -2.59690E+01 +6.64703E+00 -2.52044E+01 -5.34879E+00
 -1.87596E+01 -1.53007E+01 -8.41832E+00 -2.07228E+01 +3.06299E+00 -2.03433E+01 +1.26837E+01 -1.44179E+01
 +1.79838E+01 -4.64121E+00 +1.76780E+01 +6.31609E+00 +1.19771E+01 +1.55206E+01 +2.51173E+00 +2.05509E+01
 -8.11565E+00 +2.01300E+01 -1.70314E+01 +1.44495E+01 -2.18568E+01 +5.10217E+00 -2.13363E+01 -5.35654E+00
 -1.56628E+01 -1.40995E+01 -6.41409E+00 -1.87873E+01 +3.87995E+00 -1.81924E+01 +1.24230E+01 -1.25232E+01
 +1.69072E+01 -3.36166E+00 +1.61343E+01 +6.76842E+00 +1.03377E+01 +1.50852E+01 +1.11793E+00 +1.93019E+01
 -8.99022E+00 +1.82467E+01 -1.72034E+01 +1.21818E+01 -2.12438E+01 +2.73643E+00 -1.99590E+01 -7.53062E+00
 -1.36392E+01 -1.58206E+01 -3.94603E+00 -1.98527E+01 +6.53009E+00 -1.84845E+01 +1.49657E+01 -1.20290E+01
 +1.90669E+01 -2.17875E+00 +1.76931E+01 +8.44251E+00 +1.11730E+01 +1.69826E+01 +1.22529E+00 +2.11294E+01
 -9.49572E+00 +1.97379E+01 -1.81098E+01 +1.31463E+01 -2.22850E+01 +3.09350E+00 -2.08687E+01 -7.74049E+00
 -1.42034E+01 -1.64508E+01 -4.04249E+00 -2.06869E+01 +6.91497E+00 -1.92870E+01 +1.57447E+01 -1.25938E+01
 +2.00813E+01 -2.36823E+00 +1.87534E+01 +8.67934E+00 +1.21007E+01 +1.76132E+01 +1.88463E+00 +2.20584E+01
 -9.18228E+00 +2.08375E+01 -1.81628E+01 +1.42850E+01 -2.26816E+01 +4.15739E+00 -2.15599E+01 -6.84005E+00
 -1.51288E+01 -1.57791E+01 -5.13614E+00 -2.02938E+01 +5.72686E+00 -1.92120E+01 +1.45506E+01 -1.28647E+01
 +1.89880E+01 -2.99053E+00 +1.78817E+01 +7.73838E+00 +1.15674E+01 +1.64383E+01 +1.77509E+00 +2.07900E+01
 -8.84481E+00 +1.96578E+01 -1.74403E+01 +1.33878E+01 -2.17268E+01 +3.70374E+00 -2.05984E+01 -6.76661E+00
 -1.44173E+01 -1.52067E+01 -4.90571E+00 -1.93722E+01 +5.32932E+00 -1.81935E+01 +1.35067E+01 -1.20564E+01
 +1.74251E+01 -2.68794E+00 +1.60556E+01 +7.31942E+00 +9.81391E+00 +1.52158E+01 +4.40101E-01 +1.88403E+01
