 Created: 19-Jan-2021
 $NMID
 ID='D:\BASISSIMULATI'
 FMTDAT='(8E13.5)'
 VOLUME=   1.00000E+00
 TRAMP=   1.00000E+00
 $END
 +5.61617E+01 +7.42260E-01 +4.95361E+01 -1.73399E+01 +3.16912E+01 -2.95284E+01 +7.49332E+00 -3.15933E+01
 -1.65040E+01 -2.23676E+01 -3.39308E+01 -4.12317E+00 -4.04074E+01 +1.80682E+01 -3.47652E+01 +3.78029E+01
 -1.93305E+01 +4.92165E+01 +8.05690E-01 +4.87087E+01 +1.93137E+01 +3.60208E+01 +3.04981E+01 +1.43467E+01
 +3.09694E+01 -1.05543E+01 +2.06255E+01 -3.19893E+01 +2.66115E+00 -4.42345E+01 -1.73960E+01 -4.41576E+01
 -3.33357E+01 -3.20928E+01 -4.01158E+01 -1.17166E+01 -3.53706E+01 +1.10349E+01 -2.01342E+01 +2.96892E+01
 +1.43306E+00 +3.90986E+01 +2.32363E+01 +3.69005E+01 +3.90066E+01 +2.41548E+01 +4.41190E+01 +4.98066E+00
 +3.69377E+01 -1.46943E+01 +1.92987E+01 -2.89008E+01 -4.00945E+00 -3.33913E+01 -2.66142E+01 -2.68854E+01
 -4.23774E+01 -1.14339E+01 -4.71381E+01 +8.19828E+00 -3.98744E+01 +2.59473E+01 -2.29546E+01 +3.62451E+01
 -1.41105E+00 +3.56681E+01 +1.85457E+01 +2.39574E+01 +3.13343E+01 +4.11473E+00 +3.36064E+01 -1.84522E+01
 +2.51818E+01 -3.74838E+01 +9.05028E+00 -4.76683E+01 -9.55190E+00 -4.61651E+01 -2.47135E+01 -3.34105E+01
 -3.16036E+01 -1.29774E+01 -2.78973E+01 +9.46591E+00 -1.44558E+01 +2.77894E+01 +4.93023E+00 +3.71531E+01
 +2.46567E+01 +3.53681E+01 +3.89483E+01 +2.34785E+01 +4.35468E+01 +5.40372E+00 +3.69535E+01 -1.32452E+01
 +2.08654E+01 -2.68241E+01 -3.15530E-01 -3.13012E+01 -2.07536E+01 -2.54132E+01 -3.48572E+01 -1.10005E+01
 -3.88754E+01 +7.56763E+00 -3.19514E+01 +2.47010E+01 -1.63346E+01 +3.52420E+01 +3.30337E+00 +3.59787E+01
 +2.12416E+01 +2.65796E+01 +3.23674E+01 +9.68023E+00 +3.36372E+01 -9.89434E+00 +2.49197E+01 -2.65400E+01
 +8.98572E+00 -3.55011E+01 -9.34261E+00 -3.42412E+01 -2.46256E+01 -2.31619E+01 -3.24005E+01 -5.46663E+00
 -3.04706E+01 +1.37823E+01 -1.95202E+01 +2.91340E+01 -2.88234E+00 +3.63156E+01 +1.44618E+01 +3.34415E+01
 +2.73532E+01 +2.15207E+01 +3.19624E+01 +4.12372E+00 +2.68959E+01 -1.36844E+01 +1.35843E+01 -2.68259E+01
 -4.15278E+00 -3.16755E+01 -2.12300E+01 -2.70822E+01 -3.27752E+01 -1.46618E+01 -3.55314E+01 +1.71776E+00
 -2.87779E+01 +1.70960E+01 -1.45089E+01 +2.68806E+01 +3.17237E+00 +2.81804E+01 +1.92588E+01 +2.06282E+01
 +2.92891E+01 +6.45814E+00 +3.06187E+01 -1.01721E+01 +2.31494E+01 -2.44097E+01 +9.31202E+00 -3.21226E+01
 -6.67860E+00 -3.10890E+01 -2.00733E+01 -2.16206E+01 -2.69720E+01 -6.44570E+00 -2.54399E+01 +1.01046E+01
 -1.60375E+01 +2.33619E+01 -1.61845E+00 +2.96661E+01 +1.35325E+01 +2.74015E+01 +2.49650E+01 +1.74290E+01
 +2.93578E+01 +2.79744E+00 +2.54679E+01 -1.21696E+01 +1.44651E+01 -2.31410E+01 -4.37210E-01 -2.70251E+01
 -1.49367E+01 -2.28396E+01 -2.48980E+01 -1.19568E+01 -2.75430E+01 +2.33503E+00 -2.22313E+01 +1.58165E+01
 -1.06135E+01 +2.45750E+01 +3.87888E+00 +2.61335E+01 +1.70485E+01 +2.01450E+01 +2.51509E+01 +8.45981E+00
 +2.59633E+01 -5.44421E+00 +1.93959E+01 -1.74937E+01 +7.47846E+00 -2.42078E+01 -6.26332E+00 -2.36964E+01
 -1.78523E+01 -1.61838E+01 -2.40153E+01 -3.91270E+00 -2.31141E+01 +9.53169E+00 -1.55878E+01 +2.02749E+01
 -3.78608E+00 +2.52722E+01 +8.74574E+00 +2.31707E+01 +1.83162E+01 +1.46690E+01 +2.21604E+01 +2.28114E+00
 +1.92264E+01 -1.04185E+01 +1.04530E+01 -1.98409E+01 -1.53325E+00 -2.34128E+01 -1.32041E+01 -2.02950E+01
 -2.11632E+01 -1.15874E+01 -2.31256E+01 +2.94683E-02 -1.85596E+01 +1.11016E+01 -8.81399E+00 +1.84159E+01
 +3.29974E+00 +1.99254E+01 +1.43379E+01 +1.53196E+01 +2.12229E+01 +6.08106E+00 +2.21175E+01 -4.97802E+00
 +1.69267E+01 -1.45559E+01 +7.28868E+00 -1.98287E+01 -3.93215E+00 -1.92630E+01 -1.34943E+01 -1.30411E+01
 -1.87194E+01 -2.98347E+00 -1.82505E+01 +8.00090E+00 -1.24132E+01 +1.67692E+01 -3.08337E+00 +2.08526E+01
 +6.89082E+00 +1.91548E+01 +1.45360E+01 +1.22429E+01 +1.76209E+01 +2.15545E+00 +1.52913E+01 -8.20917E+00
 +8.29469E+00 -1.59392E+01 -1.26450E+00 -1.89429E+01 -1.05578E+01 -1.65294E+01 -1.68651E+01 -9.57420E+00
 -1.83620E+01 -2.30302E-01 -1.46341E+01 +8.72210E+00 -6.77699E+00 +1.46931E+01 +2.94277E+00 +1.60278E+01
 +1.17572E+01 +1.24648E+01 +1.71997E+01 +5.18120E+00 +1.78065E+01 -3.57935E+00 +1.35171E+01 -1.11818E+01
 +5.66279E+00 -1.53748E+01 -3.44379E+00 -1.49406E+01 -1.11932E+01 -1.00330E+01 -1.54345E+01 -2.11206E+00
 -1.50829E+01 +6.49946E+00 -1.04059E+01 +1.33017E+01 -2.91358E+00 +1.63438E+01 +5.10794E+00 +1.47785E+01
 +1.12782E+01 +9.09000E+00 +1.38166E+01 +9.32553E-01 +1.20489E+01 -7.36412E+00 +6.58199E+00 -1.34756E+01
 -8.96728E-01 -1.57487E+01 -8.13049E+00 -1.36614E+01 -1.29609E+01 -7.94756E+00 -1.39557E+01 -3.56833E-01
 -1.08153E+01 +6.87294E+00 -4.44416E+00 +1.16736E+01 +3.32794E+00 +1.27415E+01 +1.02879E+01 +9.89801E+00
 +1.44833E+01 +4.11704E+00 +1.47794E+01 -2.78375E+00 +1.11713E+01 -8.69052E+00 +4.76359E+00 -1.18171E+01
 -2.56999E+00 -1.12223E+01 -8.74165E+00 -7.07277E+00 -1.20561E+01 -5.78603E-01 -1.16909E+01 +6.37294E+00
 -7.91477E+00 +1.17749E+01 -1.98423E+00 +1.40839E+01 +4.24421E+00 +1.26599E+01 +8.86928E+00 +7.93723E+00
 +1.05029E+01 +1.28169E+00 +8.66865E+00 -5.41901E+00 +3.92746E+00 -1.03084E+01 -2.30128E+00 -1.20950E+01
 -8.16650E+00 -1.04122E+01 -1.19316E+01 -5.90272E+00 -1.24797E+01 -9.13775E-03 -9.63134E+00 +5.46507E+00
 -4.18551E+00 +8.89045E+00 +2.32356E+00 +9.28596E+00 +8.07893E+00 +6.59518E+00 +1.15079E+01 +1.68718E+00
 +1.17295E+01 -3.91402E+00 +8.79361E+00 -8.48798E+00 +3.64671E+00 -1.06279E+01 -2.16202E+00 -9.65246E+00
 -6.94330E+00 -5.80043E+00 -9.36187E+00 -1.54503E-01 -8.81743E+00 +5.68019E+00 -5.60318E+00 +1.00459E+01
 -7.99547E-01 +1.17116E+01 +4.06167E+00 +1.02230E+01 +7.46046E+00 +6.02297E+00 +8.34148E+00 +3.10563E-01
 +6.42380E+00 -5.31535E+00 +2.27838E+00 -9.32205E+00 -2.84658E+00 -1.06808E+01 -7.39847E+00 -9.14996E+00
 -9.97981E+00 -5.32379E+00 -9.75912E+00 -4.36724E-01 -6.71356E+00 +4.01525E+00 -1.63414E+00 +6.72209E+00
 +4.10541E+00 +6.94370E+00 +8.94647E+00 +4.71859E+00 +1.15924E+01 +8.38299E-01 +1.13742E+01 -3.40159E+00
 +8.43051E+00 -6.59770E+00 +3.65134E+00 -7.66359E+00 -1.59282E+00 -6.15745E+00 -5.85565E+00 -2.41677E+00
 -8.03268E+00 +2.53819E+00 -7.67033E+00 +7.30222E+00 -5.07785E+00 +1.04955E+01 -1.21290E+00 +1.11655E+01
 +2.62159E+00 +9.06377E+00 +5.17720E+00 +4.71667E+00 +5.63652E+00 -7.27208E-01 +3.85557E+00 -5.82777E+00
 +4.01585E-01 -9.26384E+00 -3.62291E+00 -1.02036E+01 -6.91569E+00 -8.52871E+00 -8.36961E+00 -4.84851E+00
 -7.40915E+00 -3.05066E-01 -4.16951E+00 +3.77207E+00 +5.34005E-01 +6.25705E+00 +5.43677E+00 +6.55014E+00
 +9.18742E+00 +4.73778E+00 +1.07359E+01 +1.54604E+00 +9.63378E+00 -1.89550E+00 +6.16037E+00 -4.40674E+00
 +1.23919E+00 -5.12049E+00 -3.82883E+00 -3.74804E+00 -7.73639E+00 -6.68594E-01 -9.53661E+00 +3.18315E+00
 -8.89946E+00 +6.59675E+00 -6.18554E+00 +8.44962E+00 -2.31892E+00 +8.04649E+00 +1.50025E+00 +5.33446E+00
 +4.15645E+00 +9.30188E-01 +4.94559E+00 -4.04846E+00 +3.77238E+00 -8.29714E+00 +1.16186E+00 -1.06940E+01
 -1.91540E+00 -1.06160E+01 -4.35026E+00 -8.11086E+00 -5.24089E+00 -3.87728E+00 -4.17414E+00 +9.40496E-01
 -1.35836E+00 +5.08082E+00 +2.43126E+00 +7.52017E+00 +6.07870E+00 +7.75271E+00 +8.45710E+00 +5.91435E+00
 +8.76533E+00 +2.71836E+00 +6.77181E+00 -7.75002E-01 +2.89394E+00 -3.48436E+00 -1.91043E+00 -4.63079E+00
 -6.40774E+00 -3.96358E+00 -9.43289E+00 -1.82286E+00 -1.02132E+01 +9.77423E-01 -8.57904E+00 +3.40919E+00
 -5.00223E+00 +4.55357E+00 -4.52219E-01 +3.89076E+00 +3.88500E+00 +1.46956E+00 +6.94306E+00 -2.09385E+00
 +8.06840E+00 -5.78818E+00 +7.18668E+00 -8.49940E+00 +4.79687E+00 -9.33763E+00 +1.79854E+00 -7.90260E+00
 -7.93756E-01 -4.40996E+00 -2.16223E+00 +3.58473E-01 -1.93116E+00 +5.26604E+00 -2.73624E-01 +9.13304E+00
 +2.15049E+00 +1.10591E+01 +4.40493E+00 +1.06641E+01 +5.57189E+00 +8.17932E+00 +5.04266E+00 +4.36607E+00
 +2.71682E+00 +2.86807E-01 -9.49374E-01 -3.00184E+00 -5.06065E+00 -4.74485E+00 -8.53227E+00 -4.68791E+00
 -1.03990E+01 -3.12466E+00 -1.00937E+01 -7.81544E-01 -7.61416E+00 +1.42190E+00 -3.53117E+00 +2.66415E+00
 +1.16546E+00 +2.47655E+00 +5.33718E+00 +8.86358E-01 +8.00585E+00 -1.59354E+00 +8.61349E+00 -4.12401E+00
 +7.15957E+00 -5.79965E+00 +4.17928E+00 -5.93146E+00 +5.72183E-01 -4.26772E+00 -2.66609E+00 -1.08730E+00
 -4.72971E+00 +2.86286E+00 -5.22301E+00 +6.56850E+00 -4.25300E+00 +9.02925E+00 -2.37011E+00 +9.53906E+00
 -3.78334E-01 +7.88535E+00 +9.26270E-01 +4.41012E+00 +1.00945E+00 -8.35899E-02 -2.30973E-01 -4.55204E+00
 -2.42858E+00 -7.99394E+00 -4.85594E+00 -9.71551E+00 -6.64360E+00 -9.50286E+00 -7.04527E+00 -7.65500E+00
 -5.67059E+00 -4.87170E+00 -2.61660E+00 -2.03223E+00 +1.54109E+00 +6.82060E-02 +5.89534E+00 +9.46666E-01
 +9.45067E+00 +5.59810E-01 +1.13928E+01 -7.04617E-01 +1.13079E+01 -2.16640E+00 +9.28932E+00 -3.07775E+00
 +5.90331E+00 -2.86599E+00 +2.02536E+00 -1.32099E+00 -1.40470E+00 +1.32822E+00 -3.63764E+00 +4.47021E+00
 -4.30779E+00 +7.28424E+00 -3.51067E+00 +8.97850E+00 -1.74678E+00 +9.02353E+00 +2.48540E-01 +7.31256E+00
 +1.73643E+00 +4.20218E+00 +2.19787E+00 +4.21589E-01 +1.48386E+00 -3.12321E+00 -1.50128E-01 -5.59399E+00
 -2.13321E+00 -6.44394E+00 -3.76287E+00 -5.55755E+00 -4.42741E+00 -3.26865E+00 -3.80033E+00 -2.53846E-01
 -1.94890E+00 +2.66557E+00 +6.74873E-01 +4.75505E+00 +3.35801E+00 +5.56490E+00 +5.32845E+00 +5.03960E+00
 +5.97616E+00 +3.50967E+00 +5.02938E+00 +1.57209E+00 +2.63520E+00 -1.02714E-01 -6.77762E-01 -9.78771E-01
 -4.14326E+00 -8.15874E-01 -6.96573E+00 +2.62313E-01 -8.53326E+00 +1.81167E+00 -8.57506E+00 +3.20788E+00
 -7.22014E+00 +3.84062E+00 -4.94315E+00 +3.30351E+00 -2.41564E+00 +1.52384E+00 -3.07785E-01 -1.20593E+00
 +9.01193E-01 -4.30345E+00 +1.04990E+00 -7.05617E+00 +3.24099E-01 -8.81867E+00 -8.17109E-01 -9.19058E+00
 -1.79373E+00 -8.12445E+00 -2.08923E+00 -5.93354E+00 -1.41177E+00 -3.19898E+00 +2.14927E-01 -6.04464E-01
 +2.45654E+00 +1.25324E+00 +4.76611E+00 +2.02351E+00 +6.54498E+00 +1.68643E+00 +7.31849E+00 +5.40585E-01
 +6.87516E+00 -8.99476E-01 +5.32888E+00 -2.06417E+00 +3.08710E+00 -2.49982E+00 +7.35334E-01 -1.99991E+00
 -1.12763E+00 -6.59399E-01 -2.05575E+00 +1.16164E+00 -1.87541E+00 +2.95220E+00 -7.25414E-01 +4.20704E+00
