 Created: 19-Jan-2021
 $NMID
 ID='D:\BASISSIMULATI'
 FMTDAT='(8E13.5)'
 VOLUME=   1.00000E+00
 TRAMP=   1.00000E+00
 $END
 +9.58026E+01 +4.80367E-01 +9.20128E+01 +2.48001E+01 +8.17639E+01 +4.71097E+01 +6.58810E+01 +6.56941E+01
 +4.56367E+01 +7.91415E+01 +2.26470E+01 +8.64567E+01 -1.26090E+00 +8.71408E+01 -2.41976E+01 +8.12298E+01
 -4.43652E+01 +6.92894E+01 -6.02032E+01 +5.23663E+01 -7.05140E+01 +3.19011E+01 -7.45583E+01 +9.60774E+00
 -7.21130E+01 -1.26670E+01 -6.34861E+01 -3.30958E+01 -4.94877E+01 -5.00203E+01 -3.13606E+01 -6.20854E+01
 -1.06747E+01 -6.83489E+01 +1.08038E+01 -6.83560E+01 +3.12599E+01 -6.21729E+01 +4.89797E+01 -5.03784E+01
 +6.24911E+01 -3.40114E+01 +7.06845E+01 -1.44827E+01 +7.29017E+01 +6.54546E+00 +6.89882E+01 +2.72986E+01
 +5.93017E+01 +4.60384E+01 +4.46798E+01 +6.12075E+01 +2.63668E+01 +7.15578E+01 +5.90705E+00 +7.62528E+01
 -1.49854E+01 +7.49353E+01 -3.45716E+01 +6.77542E+01 -5.12333E+01 +5.53494E+01 -6.36079E+01 +3.87952E+01
 -7.07018E+01 +1.95087E+01 -7.19718E+01 -8.71853E-01 -6.73690E+01 -2.06250E+01 -5.73409E+01 -3.80918E+01
 -4.27914E+01 -5.18152E+01 -2.50035E+01 -6.06620E+01 -5.52976E+00 -6.39178E+01 +1.39396E+01 -6.13461E+01
 +3.17197E+01 -5.32068E+01 +4.62732E+01 -4.02339E+01 +5.63402E+01 -2.35728E+01 +6.10444E+01 -4.68256E+00
 +5.99669E+01 +1.47868E+01 +5.31820E+01 +3.31342E+01 +4.12505E+01 +4.87510E+01 +2.51733E+01 +6.02568E+01
 +6.30732E+00 +6.66162E+01 -1.37483E+01 +6.72266E+01 -3.32861E+01 +6.19698E+01 -5.06341E+01 +5.12227E+01
 -6.42957E+01 +3.58275E+01 -7.30762E+01 +1.70216E+01 -7.61833E+01 -3.66461E+00 -7.32944E+01 -2.45350E+01
 -6.45853E+01 -4.38687E+01 -5.07167E+01 -6.00637E+01 -3.27802E+01 -7.17704E+01 -1.22093E+01 -7.80045E+01
 +9.33933E+00 -7.82295E+01 +3.01222E+01 -7.24026E+01 +4.84536E+01 -6.09787E+01 +6.28449E+01 -4.48743E+01
 +7.21281E+01 -2.53919E+01 +7.55526E+01 -4.11351E+00 +7.28476E+01 +1.72300E+01 +6.42449E+01 +3.69012E+01
 +5.04598E+01 +5.32996E+01 +3.26326E+01 +6.50934E+01 +1.22348E+01 +7.13289E+01 -9.05267E+00 +7.15096E+01
 -2.94773E+01 +6.56362E+01 -4.73599E+01 +5.42065E+01 -6.12322E+01 +3.81740E+01 -6.99579E+01 +1.88689E+01
 -7.28255E+01 -2.11213E+00 -6.96064E+01 -2.30376E+01 -6.05727E+01 -4.21838E+01 -4.64742E+01 -5.79772E+01
 -2.84753E+01 -6.91234E+01 -8.05847E+00 -7.47130E+01 +1.30987E+01 -7.42961E+01 +3.32622E+01 -6.79178E+01
 +5.07849E+01 -5.61135E+01 +6.42417E+01 -3.98633E+01 +7.25468E+01 -2.05100E+01 +7.50422E+01 +3.53174E-01
 +7.15504E+01 +2.10142E+01 +6.23880E+01 +3.97843E+01 +4.83377E+01 +5.51376E+01 +3.05819E+01 +6.58364E+01
 +1.06038E+01 +7.10325E+01 -9.93642E+00 +7.03363E+01 -2.93397E+01 +6.38470E+01 -4.60089E+01 +5.21432E+01
 -5.85809E+01 +3.62328E+01 -6.60388E+01 +1.74681E+01 -6.77949E+01 -2.56778E+00 -6.37382E+01 -2.21928E+01
 -5.42418E+01 -3.97665E+01 -4.01306E+01 -5.38260E+01 -2.26109E+01 -6.32068E+01 -3.16888E+00 -6.71394E+01
 +1.65537E+01 -6.53115E+01 +3.48970E+01 -5.78929E+01 +5.03213E+01 -4.55202E+01 +6.15346E+01 -2.92421E+01
 +6.76003E+01 -1.04315E+01 +6.80140E+01 +9.33038E+00 +6.27445E+01 +2.83856E+01 +5.22357E+01 +4.51385E+01
 +3.73683E+01 +5.81879E+01 +1.93857E+01 +6.64444E+01 -2.10263E-01 +6.92196E+01 -1.97851E+01 +6.62836E+01
 -3.77081E+01 +5.78830E+01 -5.24878E+01 +4.47196E+01 -6.28966E+01 +2.78912E+01 -6.80722E+01 +8.79973E+00
 -6.75890E+01 -1.09662E+01 -6.14927E+01 -2.97637E+01 -5.02959E+01 -4.60323E+01 -3.49350E+01 -5.84241E+01
 -1.66912E+01 -6.59153E+01 +2.91653E+00 -6.78908E+01 +2.22579E+01 -6.41951E+01 +3.97275E+01 -5.51443E+01
 +5.38780E+01 -4.14990E+01 +6.35405E+01 -2.44004E+01 +6.79213E+01 -5.27470E+00 +6.66671E+01 +1.42859E+01
 +5.98940E+01 +3.26561E+01 +4.81768E+01 +4.83128E+01 +3.25003E+01 +5.99618E+01 +1.41771E+01 +6.66446E+01
 -5.26275E+00 +6.78184E+01 -2.41992E+01 +6.34000E+01 -4.10575E+01 +5.37723E+01 -5.44388E+01 +3.97514E+01
 -6.32371E+01 +2.25184E+01 -6.67304E+01 +3.51981E+00 -6.46407E+01 -1.56528E+01 -5.71561E+01 -3.33961E+01
 -4.49152E+01 -4.82282E+01 -2.89527E+01 -5.89127E+01 -1.06129E+01 -6.45606E+01 +8.56259E+00 -6.47051E+01
 +2.69636E+01 -5.93393E+01 +4.30460E+01 -4.89168E+01 +5.54600E+01 -3.43134E+01 +6.31627E+01 -1.67540E+01
 +6.55050E+01 +2.28985E+00 +6.22855E+01 +2.12228E+01 +5.37667E+01 +3.84585E+01 +4.06538E+01 +5.25517E+01
 +2.40351E+01 +6.23188E+01 +5.29177E+00 +6.69363E+01 -1.40172E+01 +6.60093E+01 -3.22849E+01 +5.96043E+01
 -4.79898E+01 +4.82437E+01 -5.98226E+01 +3.28626E+01 -6.67949E+01 +1.47308E+01 -6.83216E+01 -4.65231E+00
 -6.42691E+01 -2.36825E+01 -5.49668E+01 -4.07838E+01 -4.11797E+01 -5.45390E+01 -2.40451E+01 -6.38076E+01
 -4.97830E+00 -6.78200E+01 +1.44447E+01 -6.62415E+01 +3.26174E+01 -5.92000E+01 +4.80364E+01 -4.72754E+01
 +5.94250E+01 -3.14513E+01 +6.58392E+01 -1.30342E+01 +6.67456E+01 +6.45527E+00 +6.20652E+01 +2.54074E+01
 +5.21795E+01 +4.22567E+01 +3.78993E+01 +5.56112E+01 +2.03970E+01 +6.43666E+01 +1.10982E+00 +6.77976E+01
 -1.83788E+01 +6.56169E+01 -3.64701E+01 +5.79986E+01 -5.16814E+01 +4.55632E+01 -6.27681E+01 +2.93254E+01
 -6.88258E+01 +1.06104E+01 -6.93637E+01 -9.05619E+00 -6.43441E+01 -2.80739E+01 -5.41847E+01 -4.48998E+01
 -3.97225E+01 -5.81747E+01 -2.21439E+01 -6.68348E+01 -2.88581E+00 -7.01981E+01 +1.64833E+01 -6.80191E+01
 +3.43932E+01 -6.05075E+01 +4.94014E+01 -4.83091E+01 +6.03111E+01 -3.24507E+01 +6.62691E+01 -1.42534E+01
 +6.68346E+01 +4.77719E+00 +6.20135E+01 +2.30766E+01 +5.22560E+01 +3.91513E+01 +3.84167E+01 +5.17013E+01
 +2.16821E+01 +5.97275E+01 +3.47012E+00 +6.26128E+01 -1.46884E+01 +6.01713E+01 -3.12779E+01 +5.26613E+01
 -4.49240E+01 +4.07619E+01 -5.45070E+01 +2.55142E+01 -5.92547E+01 +8.23256E+00 -5.88044E+01 -9.60647E+00
 -5.32321E+01 -2.64882E+01 -4.30433E+01 -4.09869E+01 -2.91298E+01 -5.18846E+01 -1.26925E+01 -5.82726E+01
 +4.85983E+00 -5.96263E+01 +2.20301E+01 -5.58484E+01 +3.73585E+01 -4.72750E+01 +4.95457E+01 -3.46469E+01
 +5.75614E+01 -1.90455E+01 +6.07304E+01 -1.80143E+00 +5.87890E+01 +1.56180E+01 +5.19066E+01 +3.17327E+01
 +4.06706E+01 +4.51746E+01 +2.60367E+01 +5.48027E+01 +9.24844E+00 +5.97990E+01 -8.26821E+00 +5.97376E+01
 -2.50245E+01 +5.46204E+01 -3.95944E+01 +4.48775E+01 -5.07347E+01 +3.13307E+01 -5.74900E+01 +1.51253E+01
 -5.92732E+01 -2.36593E+00 -5.59155E+01 -1.96578E+01 -4.76818E+01 -3.52772E+01 -3.52488E+01 -4.78870E+01
 -1.96498E+01 -5.63978E+01 -2.18862E+00 -6.00608E+01 +1.56682E+01 -5.85306E+01 +3.24140E+01 -5.18958E+01
 +4.66271E+01 -4.06724E+01 +5.70901E+01 -2.57629E+01 +6.28916E+01 -8.38177E+00 +6.35029E+01 +1.00443E+01
 +5.88231E+01 +2.79939E+01 +4.91891E+01 +4.39770E+01 +3.53486E+01 +5.66581E+01 +1.84000E+01 +6.49672E+01
 -2.97577E-01 +6.81888E+01 -1.92357E+01 +6.60215E+01 -3.68800E+01 +5.86041E+01 -5.17967E+01 +4.65046E+01
 -6.27700E+01 +3.06748E+01 -6.89021E+01 +1.23723E+01 -6.96875E+01 -6.94179E+00 -6.50536E+01 -2.57226E+01
 -5.53678E+01 -4.24675E+01 -4.14063E+01 -5.58391E+01 -2.42914E+01 -6.47740E+01 -5.39854E+00 -6.85695E+01
 +1.37554E+01 -6.69402E+01 +3.16368E+01 -6.00402E+01 +4.68199E+01 -4.84500E+01 +5.81032E+01 -3.31272E+01
 +6.46066E+01 -1.53277E+01 +6.58415E+01 +3.49854E+00 +6.17499E+01 +2.18260E+01 +5.27066E+01 +3.81792E+01
 +3.94864E+01 +5.12528E+01 +2.31988E+01 +6.00173E+01 +5.19518E+00 +6.38022E+01 -1.30433E+01 +6.23487E+01
 -3.00285E+01 +5.58282E+01 -4.43868E+01 +4.48258E+01 -5.49725E+01 +3.02891E+01 -6.09594E+01 +1.34478E+01
 -6.19079E+01 -4.28960E+00 -5.77976E+01 -2.14538E+01 -4.90268E+01 -3.66362E+01 -3.63759E+01 -4.86057E+01
 -2.09402E+01 -5.64094E+01 -4.03653E+00 -5.94498E+01 +1.29082E+01 -5.75324E+01 +2.84768E+01 -5.08785E+01
 +4.13797E+01 -4.01045E+01 +5.05628E+01 -2.61673E+01 +5.52939E+01 -1.02821E+01 +5.52223E+01 +6.18132E+00
 +5.04061E+01 +2.18148E+01 +4.13052E+01 +3.52906E+01 +2.87404E+01 +4.54727E+01 +1.38224E+01 +5.15124E+01
 -2.14323E+00 +5.29184E+01 -1.77674E+01 +4.95976E+01 -3.16955E+01 +4.18612E+01 -4.27219E+01 +3.03978E+01
 -4.98923E+01 +1.62139E+01 -5.25840E+01 +5.47897E-01 -5.05589E+01 -1.52348E+01 -4.39833E+01 -2.97583E+01
 -3.34139E+01 -4.17525E+01 -1.97511E+01 -5.01614E+01 -4.16276E+00 -5.42328E+01 +1.20141E+01 -5.35826E+01
 +2.73860E+01 -4.82283E+01 +4.06213E+01 -3.85883E+01 +5.05623E+01 -2.54485E+01 +5.63238E+01 -9.89662E+00
 +5.73690E+01 +6.76807E+00 +5.35557E+01 +2.31430E+01 +4.51505E+01 +3.78400E+01 +3.28077E+01 +4.96015E+01
 +1.75169E+01 +5.74063E+01 +5.21533E-01 +6.05567E+01 -1.67832E+01 +5.87373E+01 -3.29661E+01 +5.20437E+01
 -4.66785E+01 +4.09765E+01 -5.67664E+01 +2.64012E+01 -6.23672E+01 +9.47870E+00 -6.29816E+01 -8.42965E+00
 -5.85166E+01 -2.58734E+01 -4.92948E+01 -4.14321E+01 -3.60287E+01 -5.38322E+01 -1.97642E+01 -6.20518E+01
 -1.79492E+00 -6.54052E+01 +1.64423E+01 -6.35999E+01 +3.34851E+01 -5.67610E+01 +4.79649E+01 -4.54214E+01
 +5.87184E+01 -3.04793E+01 +6.48825E+01 -1.31244E+01 +6.59649E+01 +5.25828E+00 +6.18835E+01 +2.32019E+01
 +5.29730E+01 +3.92768E+01 +3.99567E+01 +5.22066E+01 +2.38873E+01 +6.09723E+01 +6.06001E+00 +6.48937E+01
 -1.20931E+01 +6.36842E+01 -2.91205E+01 +5.74726E+01 -4.36688E+01 +4.67908E+01 -5.45931E+01 +3.25289E+01
 -6.10489E+01 +1.58608E+01 -6.25594E+01 -1.85279E+00 -5.90523E+01 -1.91768E+01 -5.08633E+01 -3.47192E+01
 -3.87060E+01 -4.72447E+01 -2.36108E+01 -5.57745E+01 -6.83841E+00 -5.96653E+01 +1.02256E+01 -5.86592E+01
 +2.61853E+01 -5.29022E+01 +3.97501E+01 -4.29291E+01 +4.98398E+01 -2.96161E+01 +5.56723E+01 -1.41060E+01
 +5.68264E+01 +2.28888E+00 +5.32736E+01 +1.81968E+01 +4.53772E+01 +3.23012E+01 +3.38591E+01 +4.34497E+01
 +1.97369E+01 +5.07494E+01 +4.23643E+00 +5.36393E+01 -1.13125E+01 +5.19350E+01 -2.55883E+01 +4.58415E+01
 -3.73890E+01 +3.59335E+01 -4.57323E+01 +2.31045E+01 -4.99376E+01 +8.48974E+00 -4.96818E+01 -6.63131E+00
 -4.50246E+01 -2.09436E+01 -3.64024E+01 -3.32082E+01 -2.45893E+01 -4.23673E+01 -1.06307E+01 -4.76331E+01
 +4.24641E+00 -4.85542E+01 +1.87378E+01 -4.50534E+01 +3.15733E+01 -3.74338E+01 +4.16245E+01 -2.63526E+01
 +4.80009E+01 -1.27653E+01 +5.01254E+01 +2.15514E+00 +4.77841E+01 +1.71181E+01 +4.11446E+01 +3.08242E+01
 +3.07427E+01 +4.20760E+01 +1.74383E+01 +4.98789E+01 +2.34330E+00 +5.35269E+01 -1.32716E+01 +5.26624E+01
