 Created: 19-Jan-2021
 $NMID
 ID='D:\BASISSIMULATI'
 FMTDAT='(8E13.5)'
 VOLUME=   1.00000E+00
 TRAMP=   1.00000E+00
 $END
 +2.17168E+01 +1.09805E-01 +2.09451E+01 +4.60506E+00 +1.91529E+01 +8.73257E+00 +1.64808E+01 +1.22488E+01
 +1.31280E+01 +1.49596E+01 +9.33600E+00 +1.67339E+01 +5.36920E+00 +1.75123E+01 +1.49367E+00 +1.73097E+01
 -2.04329E+00 +1.62124E+01 -5.03197E+00 +1.43685E+01 -7.31546E+00 +1.19747E+01 -8.80034E+00 +9.25875E+00
 -9.46191E+00 +6.46020E+00 -9.34367E+00 +3.81021E+00 -8.55120E+00 +1.51300E+00 -7.24112E+00 -2.70243E-01
 -5.60598E+00 -1.43346E+00 -3.85657E+00 -1.93289E+00 -2.20313E+00 -1.78881E+00 -8.36901E-01 -1.08192E+00
 +8.61564E-02 +5.54287E-02 +4.58470E-01 +1.45220E+00 +2.29506E-01 +2.91466E+00 -5.90572E-01 +4.24417E+00
 -1.93251E+00 +5.25496E+00 -3.67460E+00 +5.79077E+00 -5.65378E+00 +5.73860E+00 -7.68007E+00 +5.03874E+00
 -9.55326E+00 +3.69009E+00 -1.10803E+01 +1.75055E+00 -1.20921E+01 -6.67661E-01 -1.24578E+01 -3.40720E+00
 -1.20963E+01 -6.27850E+00 -1.09835E+01 -9.07534E+00 -9.15415E+00 -1.15917E+01 -6.69975E+00 -1.36383E+01
 -3.76120E+00 -1.50581E+01 -5.17701E-01 -1.57388E+01 +2.82736E+00 -1.56213E+01 +6.06237E+00 -1.47044E+01
 +8.98398E+00 -1.30445E+01 +1.14126E+01 -1.07506E+01 +1.32060E+01 -7.97535E+00 +1.42694E+01 -4.90268E+00
 +1.45619E+01 -1.73314E+00 +1.40988E+01 +1.33174E+00 +1.29481E+01 +4.10491E+00 +1.12247E+01 +6.42771E+00
 +9.07981E+00 +8.18124E+00 +6.68779E+00 +9.29421E+00 +4.23198E+00 +9.74681E+00 +1.88985E+00 +9.57031E+00
 -1.80867E-01 +8.84253E+00 -1.85401E+00 +7.67968E+00 -3.04390E+00 +6.22532E+00 -3.71062E+00 +4.63739E+00
 -3.86145E+00 +3.07446E+00 -3.54817E+00 +1.68239E+00 -2.86089E+00 +5.82422E-01 -1.91877E+00 -1.38312E-01
 -8.58549E-01 -4.33074E-01 +1.78049E-01 -2.98244E-01 +1.05703E+00 +2.27723E-01 +1.66381E+00 +1.06890E+00
 +1.91301E+00 +2.11959E+00 +1.75546E+00 +3.25439E+00 +1.18196E+00 +4.33978E+00 +2.23575E-01 +5.24606E+00
 -1.05160E+00 +5.85890E+00 -2.54469E+00 +6.08923E+00 -4.13490E+00 +5.88086E+00 -5.69005E+00 +5.21522E+00
 -7.07792E+00 +4.11284E+00 -8.17744E+00 +2.63143E+00 -8.88881E+00 +8.61012E-01 -9.14162E+00 -1.08370E+00
 -8.90053E+00 -3.07274E+00 -8.16785E+00 -4.97158E+00 -6.98311E+00 -6.65184E+00 -5.41945E+00 -8.00151E+00
 -3.57753E+00 -8.93350E+00 -1.57712E+00 -9.39206E+00 +4.52478E-01 -9.35657E+00 +2.38270E+00 -8.84233E+00
 +4.09561E+00 -7.89853E+00 +5.49267E+00 -6.60349E+00 +6.50178E+00 -5.05775E+00 +7.08188E+00 -3.37551E+00
 +7.22503E+00 -1.67537E+00 +6.95565E+00 -7.08468E-02 +6.32726E+00 +1.33818E+00 +5.41697E+00 +2.47275E+00
 +4.31822E+00 +3.28006E+00 +3.13252E+00 +3.73639E+00 +1.96086E+00 +3.84749E+00 +8.95499E-01 +3.64662E+00
 +1.28410E-02 +3.19026E+00 -6.32076E-01 +2.55223E+00 -1.00906E+00 +1.81645E+00 -1.11401E+00 +1.06929E+00
 -9.67877E-01 +3.92016E-01 -6.13573E-01 -1.46093E-01 -1.11091E-01 -4.93175E-01 +4.68604E-01 -6.18582E-01
 +1.05040E+00 -5.14655E-01 +1.56195E+00 -1.96443E-01 +1.94005E+00 +3.00542E-01 +2.13598E+00 +9.24267E-01
 +2.11942E+00 +1.61141E+00 +1.88057E+00 +2.29337E+00 +1.43044E+00 +2.90257E+00 +7.99271E-01 +3.37840E+00
 +3.34180E-02 +3.67236E+00 -8.09143E-01 +3.75200E+00 -1.66411E+00 +3.60332E+00 -2.46652E+00 +3.23151E+00
 -3.15631E+00 +2.65999E+00 -3.68322E+00 +1.92794E+00 -4.01068E+00 +1.08657E+00 -4.11849E+00 +1.94520E-01
 -4.00381E+00 -6.87245E-01 -3.68087E+00 -1.50048E+00 -3.17908E+00 -2.19431E+00 -2.53997E+00 -2.72903E+00
 -1.81334E+00 -3.07878E+00 -1.05276E+00 -3.23297E+00 -3.11072E-01 -3.19632E+00 +3.63872E-01 -2.98757E+00
 +9.32780E-01 -2.63711E+00 +1.36758E+00 -2.18375E+00 +1.65294E+00 -1.67092E+00 +1.78666E+00 -1.14276E+00
 +1.77877E+00 -6.40349E-01 +1.64977E+00 -1.98464E-01 +1.42798E+00 +1.56850E-01 +1.14636E+00 +4.09805E-01
 +8.39235E-01 +5.55340E-01 +5.39023E-01 +5.98577E-01 +2.73493E-01 +5.53383E-01 +6.36026E-02 +4.40222E-01
 -7.78199E-02 +2.83545E-01 -1.46511E-01 +1.09009E-01 -1.46330E-01 -5.92097E-02 -8.80383E-02 -2.00735E-01
 +1.25224E-02 -3.00741E-01 +1.36640E-01 -3.50990E-01 +2.65073E-01 -3.50098E-01 +3.80278E-01 -3.03040E-01
 +4.68286E-01 -2.19994E-01 +5.20059E-01 -1.14681E-01 +5.32193E-01 -2.40860E-03 +5.06931E-01 +1.01953E-01
 +4.51508E-01 +1.85843E-01 +3.76936E-01 +2.40514E-01 +2.96369E-01 +2.62018E-01 +2.23269E-01 +2.51577E-01
 +1.69565E-01 +2.15307E-01 +1.44039E-01 +1.63334E-01 +1.51106E-01 +1.08425E-01 +1.90141E-01 +6.42821E-02
 +2.55419E-01 +4.37046E-02 +3.36695E-01 +5.68325E-02 +4.20340E-01 +1.09674E-01 +4.90935E-01 +2.03089E-01
 +5.33127E-01 +3.32364E-01 +5.33566E-01 +4.87426E-01 +4.82671E-01 +6.53700E-01 +3.76065E-01 +8.13534E-01
 +2.15465E-01 +9.48043E-01 +8.93626E-03 +1.03919E+00 -2.29545E-01 +1.07188E+00 -4.81216E-01 +1.03585E+00
 -7.24222E-01 +9.27138E-01 -9.35753E-01 +7.48927E-01 -1.09439E+00 +5.11720E-01 -1.18242E+00 +2.32713E-01
 -1.18795E+00 -6.55442E-02 -1.10644E+00 -3.57122E-01 -9.41670E-01 -6.15136E-01 -7.05826E-01 -8.14407E-01
 -4.18794E-01 -9.34082E-01 -1.06628E-01 -9.59970E-01 +2.00676E-01 -8.86337E-01 +4.71916E-01 -7.16961E-01
 +6.77677E-01 -4.65302E-01 +7.93305E-01 -1.53746E-01 +8.01584E-01 +1.88063E-01 +6.94821E-01 +5.25675E-01
 +4.76132E-01 +8.22866E-01 +1.59767E-01 +1.04501E+00 -2.29607E-01 +1.16243E+00 -6.58632E-01 +1.15352E+00
 -1.08789E+00 +1.00720E+00 -1.47523E+00 +7.24533E-01 -1.77946E+00 +3.19333E-01 -1.96423E+00 -1.82414E-01
 -2.00153E+00 -7.44237E-01 -1.87467E+00 -1.32190E+00 -1.58039E+00 -1.86696E+00 -1.12977E+00 -2.33082E+00
 -5.47981E-01 -2.66899E+00 +1.27225E-01 -2.84520E+00 +8.48252E-01 -2.83485E+00 +1.56132E+00 -2.62769E+00
 +2.21080E+00 -2.22925E+00 +2.74390E+00 -1.66101E+00 +3.11524E+00 -9.59156E-01 +3.29093E+00 -1.72033E-01
 +3.25185E+00 +6.43513E-01 +2.99564E+00 +1.42666E+00 +2.53745E+00 +2.11761E+00 +1.90909E+00 +2.66259E+00
 +1.15683E+00 +3.01856E+00 +3.37818E-01 +3.15705E+00 -4.84437E-01 +3.06685E+00 -1.24529E+00 +2.75535E+00
 -1.88439E+00 +2.24823E+00 -2.35081E+00 +1.58768E+00 -2.60754E+00 +8.29080E-01 -2.63488E+00 +3.65368E-02
 -2.43234E+00 -7.22410E-01 -2.01905E+00 -1.38251E+00 -1.43236E+00 -1.88639E+00 -7.25011E-01 -2.18963E+00
 +3.92417E-02 -2.26478E+00 +7.90884E-01 -2.10394E+00 +1.46057E+00 -1.71986E+00 +1.98511E+00 -1.14511E+00
 +2.31305E+00 -4.29643E-01 +2.40934E+00 +3.63228E-01 +2.25867E+00 +1.16205E+00 +1.86718E+00 +1.89328E+00
 +1.26234E+00 +2.48756E+00 +4.91014E-01 +2.88585E+00 -3.84152E-01 +3.04468E+00 -1.28983E+00 +2.94025E+00
 -2.14803E+00 +2.57086E+00 -2.88274E+00 +1.95758E+00 -3.42637E+00 +1.14285E+00 -3.72576E+00 +1.87425E-01
 -3.74693E+00 -8.34465E-01 -3.47839E+00 -1.84108E+00 -2.93255E+00 -2.74993E+00 -2.14514E+00 -3.48465E+00
 -1.17265E+00 -3.98156E+00 -8.80337E-02 -4.19520E+00 +1.02512E+00 -4.10243E+00 +2.07937E+00 -3.70472E+00
 +2.99056E+00 -3.02848E+00 +3.68493E+00 -2.12315E+00 +4.10526E+00 -1.05752E+00 +4.21593E+00 +8.57360E-02
 +4.00604E+00 +1.21672E+00 +3.49064E+00 +2.24563E+00 +2.70976E+00 +3.09019E+00 +1.72535E+00 +3.68248E+00
 +6.16359E-01 +3.97471E+00 -5.27613E-01 +3.94334E+00 -1.61366E+00 +3.59116E+00 -2.55320E+00 +2.94732E+00
 -3.26936E+00 +2.06505E+00 -3.70342E+00 +1.01742E+00 -3.81975E+00 -1.08612E-01 -3.60895E+00 -1.21932E+00
 -3.08871E+00 -2.22200E+00 -2.30253E+00 -3.03266E+00 -1.31618E+00 -3.58308E+00 -2.12319E-01 -3.82656E+00
 +9.16293E-01 -3.74191E+00 +1.97455E+00 -3.33537E+00 +2.87291E+00 -2.64018E+00 +3.53495E+00 -1.71393E+00
 +3.90381E+00 -6.33820E-01 +3.94706E+00 +5.09689E-01 +3.65951E+00 +1.62043E+00 +3.06383E+00 +2.60458E+00
 +2.20871E+00 +3.37855E+00 +1.16496E+00 +3.87603E+00 +1.96279E-02 +4.05373E+00 -1.13121E+00 +3.89504E+00
 -2.19049E+00 +3.41165E+00 -3.06833E+00 +2.64269E+00 -3.68958E+00 +1.65159E+00 -4.00028E+00 +5.20917E-01
 -3.97227E+00 -6.54468E-01 -3.60576E+00 -1.77529E+00 -2.92945E+00 -2.74617E+00 -1.99831E+00 -3.48362E+00
 -8.89178E-01 -3.92314E+00 +3.05569E-01 -4.02474E+00 +1.48560E+00 -3.77641E+00 +2.55097E+00 -3.19534E+00
 +3.41044E+00 -2.32666E+00 +3.98914E+00 -1.23987E+00 +4.23486E+00 -2.32121E-02 +4.12258E+00 +1.22351E+00
 +3.65663E+00 +2.39715E+00 +2.87054E+00 +3.39971E+00 +1.82443E+00 +4.14648E+00 +6.00176E-01 +4.57304E+00
 -7.05240E-01 +4.64065E+00 -1.98761E+00 +4.33957E+00 -3.14401E+00 +3.68992E+00 -4.08128E+00 +2.74010E+00
 -4.72358E+00 +1.56292E+00 -5.01868E+00 +2.49673E-01 -4.94218E+00 -1.09732E+00 -4.49953E+00 -2.37305E+00
 -3.72554E+00 -3.47837E+00 -2.68147E+00 -4.32811E+00 -1.44999E+00 -4.85796E+00 -1.28344E-01 -5.02967E+00
 +1.17967E+00 -4.83404E+00 +2.37223E+00 -4.29157E+00 +3.35778E+00 -3.45061E+00 +4.06257E+00 -2.38321E+00
 +4.43657E+00 -1.17905E+00 +4.45743E+00 +6.20923E-02 +4.13220E+00 +1.23867E+00 +3.49646E+00 +2.25581E+00
 +2.61123E+00 +3.03314E+00 +1.55763E+00 +3.51144E+00 +4.30040E-01 +3.65746E+00 -6.71994E-01 +3.46651E+00
 -1.65211E+00 +2.96272E+00 -2.42527E+00 +2.19690E+00 -2.92489E+00 +1.24204E+00 -3.10843E+00 +1.87154E-01
 -2.96089E+00 -8.70383E-01 -2.49612E+00 -1.83306E+00 -1.75555E+00 -2.61152E+00 -8.04699E-01 -3.13211E+00
 +2.72310E-01 -3.34317E+00 +1.37986E+00 -3.21939E+00 +2.41886E+00 -2.76405E+00 +3.29506E+00 -2.00882E+00
 +3.92699E+00 -1.01121E+00 +4.25276E+00 +1.50166E-01 +4.23536E+00 +1.38199E+00 +3.86577E+00 +2.58395E+00
 +3.16381E+00 +3.65699E+00 +2.17664E+00 +4.51145E+00 +9.74961E-01 +5.07441E+00 -3.52730E-01 +5.29570E+00
 -1.70726E+00 +5.15196E+00 -2.98683E+00 +4.64857E+00 -4.09522E+00 +3.81915E+00 -4.94950E+00 +2.72282E+00
 -5.48667E+00 +1.43934E+00 -5.66858E+00 +6.26498E-02 -5.48483E+00 -1.30679E+00 -4.95340E+00 -2.57007E+00
 -4.11892E+00 -3.63769E+00 -3.04883E+00 -4.43672E+00 -1.82766E+00 -4.91635E+00 -5.50049E-01 -5.05176E+00
 +6.87084E-01 -4.84572E+00 +1.79240E+00 -4.32792E+00 +2.68746E+00 -3.55211E+00 +3.31296E+00 -2.59135E+00
 +3.63320E+00 -1.53160E+00 +3.63865E+00 -4.64453E-01 +3.34626E+00 +5.20591E-01 +2.79759E+00 +1.34356E+00
 +2.05486E+00 +1.94053E+00 +1.19541E+00 +2.26879E+00 +3.04884E-01 +2.31010E+00 -5.30168E-01 +2.07190E+00
 -1.22971E+00 +1.58636E+00 -1.72700E+00 +9.07304E-01 -1.97419E+00 +1.05415E-01 -1.94630E+00 -7.38014E-01
 -1.64319E+00 -1.53813E+00 -1.08949E+00 -2.21381E+00 -3.32396E-01 -2.69467E+00 +5.62407E-01 -2.92697E+00
