 Created: 19-Jan-2021
 $NMID
 ID='D:\BASISSIMULATI'
 FMTDAT='(8E13.5)'
 VOLUME=   1.00000E+00
 TRAMP=   1.00000E+00
 $END
 +3.13183E+01 +1.55843E-01 +3.02388E+01 +8.34184E+00 +2.70440E+01 +1.59681E+01 +2.19544E+01 +2.24951E+01
 +1.53258E+01 +2.74607E+01 +7.62402E+00 +3.05133E+01 -6.08372E-01 +3.14375E+01 -8.79118E+00 +3.01692E+01
 -1.63483E+01 +2.68005E+01 -2.27489E+01 +2.15725E+01 -2.75459E+01 +1.48582E+01 -3.04072E+01 +7.13478E+00
 -3.11395E+01 -1.05051E+00 -2.97018E+01 -9.12010E+00 -2.62069E+01 -1.65076E+01 -2.09133E+01 -2.26984E+01
 -1.42052E+01 -2.72660E+01 -6.56434E+00 -2.99022E+01 +1.46509E+00 -3.04382E+01 +9.31619E+00 -2.88556E+01
 +1.64400E+01 -2.52862E+01 +2.23446E+01 -2.00012E+01 +2.66298E+01 -1.33906E+01 +2.90146E+01 -5.93369E+00
 +2.93560E+01 +1.83624E+00 +2.76578E+01 +9.37051E+00 +2.40678E+01 +1.61447E+01 +1.88657E+01 +2.16956E+01
 +1.24412E+01 +2.56539E+01 +5.26422E+00 +2.77684E+01 -2.14991E+00 +2.79230E+01 -9.27794E+00 +2.61421E+01
 -1.56264E+01 +2.25865E+01 -2.07661E+01 +1.75397E+01 -2.43621E+01 +1.13852E+01 -2.61954E+01 +4.57700E+00
 -2.61763E+01 -2.39434E+00 -2.43482E+01 -9.03737E+00 -2.08816E+01 -1.48951E+01 -1.60589E+01 -1.95770E+01
 -1.02518E+01 -2.27851E+01 -3.89211E+00 -2.43335E+01 +2.56041E+00 -2.41585E+01 +8.65175E+00 -2.23205E+01
 +1.39661E+01 -1.89957E+01 +1.81547E+01 -1.44608E+01 +2.09589E+01 -9.07021E+00 +2.22259E+01 -3.22810E+00
 +2.19171E+01 +2.64192E+00 +2.01067E+01 +8.12797E+00 +1.69733E+01 +1.28591E+01 +1.27832E+01 +1.65307E+01
 +7.86873E+00 +1.89243E+01 +2.60142E+00 +1.99200E+01 -2.63575E+00 +1.95023E+01 -7.47664E+00 +1.77566E+01
 -1.15978E+01 +1.48597E+01 -1.47402E+01 +1.10637E+01 -1.67255E+01 +6.67417E+00 -1.74659E+01 +2.02604E+00
 -1.69662E+01 -2.54184E+00 -1.53204E+01 -6.71172E+00 -1.26999E+01 -1.02092E+01 -9.33831E+00 -1.28212E+01
 -5.51103E+00 -1.44090E+01 -1.51316E+00 -1.49146E+01 +2.36313E+00 -1.43613E+01 +5.85005E+00 -1.28478E+01
 +8.72274E+00 -1.05370E+01 +1.08137E+01 -7.64065E+00 +1.20220E+01 -4.40104E+00 +1.23176E+01 -1.07103E+00
 +1.17389E+01 +2.10536E+00 +1.03865E+01 +4.91081E+00 +8.41156E+00 +7.16955E+00 +6.00136E+00 +8.75812E+00
 +3.36271E+00 +9.61154E+00 +7.04856E-01 +9.72452E+00 -1.77679E+00 +9.14795E+00 -3.91493E+00 +7.98115E+00
 -5.58145E+00 +6.36078E+00 -6.69480E+00 +4.44741E+00 -7.22307E+00 +2.41107E+00 -7.18285E+00 +4.16894E-01
 -6.63422E+00 -1.38785E+00 -5.67249E+00 -2.88442E+00 -4.41750E+00 -3.99017E+00 -3.00164E+00 -4.66259E+00
 -1.55752E+00 -4.89959E+00 -2.06573E-01 -4.73635E+00 +9.50668E-01 -4.23908E+00 +1.84176E+00 -3.49651E+00
 +2.42655E+00 -2.60988E+00 +2.69811E+00 -1.68250E+00 +2.68062E+00 -8.09800E-01 +2.42442E+00 -7.07398E-02
 +1.99888E+00 +4.78667E-01 +1.48393E+00 +8.09251E-01 +9.60933E-01 +9.19723E-01 +5.03937E-01 +8.34906E-01
 +1.72112E-01 +6.01407E-01 +3.96828E-03 +2.81278E-01 +1.39540E-02 -5.56965E-02 +1.91639E-01 -3.40253E-01
 +5.03526E-01 -5.11654E-01 +8.97250E-01 -5.24649E-01 +1.30771E+00 -3.54711E-01 +1.66453E+00 -1.07649E-03
 +1.90002E+00 +5.12712E-01 +1.95700E+00 +1.14081E+00 +1.79558E+00 +1.81939E+00 +1.39826E+00 +2.47294E+00
 +7.72911E-01 +3.02183E+00 -4.67698E-02 +3.39056E+00 -1.00333E+00 +3.51575E+00 -2.02008E+00 +3.35331E+00
 -3.00756E+00 +2.88387E+00 -3.87157E+00 +2.11610E+00 -4.52183E+00 +1.08747E+00 -4.88070E+00 -1.37604E-01
 -4.89096E+00 -1.47223E+00 -4.52215E+00 -2.81366E+00 -3.77465E+00 -4.05165E+00 -2.68121E+00 -5.07770E+00
 -1.30569E+00 -5.79461E+00 +2.60899E-01 -6.12525E+00 +1.90693E+00 -6.02005E+00 +3.50857E+00 -5.46230E+00
 +4.93951E+00 -4.47088E+00 +6.08128E+00 -3.10014E+00 +6.83315E+00 -1.43679E+00 +7.12088E+00 +4.05949E-01
 +6.90358E+00 +2.29653E+00 +6.17799E+00 +4.09492E+00 +4.97990E+00 +5.66345E+00 +3.38246E+00 +6.87768E+00
 +1.49140E+00 +7.63646E+00 -5.62293E-01 +7.87037E+00 -2.63196E+00 +7.54786E+00 -4.56619E+00 +6.67848E+00
 -6.22033E+00 +5.31297E+00 -7.46766E+00 +3.54022E+00 -8.20933E+00 +1.48110E+00 -8.38228E+00 -7.20115E-01
 -7.96457E+00 -2.90634E+00 -6.97752E+00 -4.91931E+00 -5.48467E+00 -6.61148E+00 -3.58744E+00 -7.85712E+00
 -1.41795E+00 -8.56195E+00 +8.70591E-01 -8.67041E+00 +3.11512E+00 -8.17005E+00 +5.15471E+00 -7.09267E+00
 +6.84255E+00 -5.51225E+00 +8.05674E+00 -3.53953E+00 +8.70941E+00 -1.31404E+00 +8.75318E+00 +1.00619E+00
 +8.18464E+00 +3.25619E+00 +7.04459E+00 +5.27616E+00 +5.41495E+00 +6.92316E+00 +3.41266E+00 +8.08148E+00
 +1.18102E+00 +8.67099E+00 -1.12090E+00 +8.65279E+00 -3.32991E+00 +8.03182E+00 -5.29058E+00 +6.85617E+00
 -6.86649E+00 +5.21328E+00 -7.94991E+00 +3.22324E+00 -8.46937E+00 +1.02978E+00 -8.39441E+00 -1.21037E+00
 -7.73733E+00 -3.33896E+00 -6.55176E+00 -5.20766E+00 -4.92828E+00 -6.68863E+00 -2.98732E+00 -7.68345E+00
 -8.70078E-01 -8.12975E+00 +1.27198E+00 -8.00515E+00 +3.28816E+00 -7.32819E+00 +5.03939E+00 -6.15625E+00
 +6.40794E+00 -4.58080E+00 +7.30550E+00 -2.72012E+00 +7.67887E+00 -7.10316E-01 +7.51312E+00 +1.30481E+00
 +6.83175E+00 +3.18420E+00 +5.69423E+00 +4.79957E+00 +4.19086E+00 +6.04431E+00 +2.43559E+00 +6.84054E+00
 +5.57364E-01 +7.14401E+00 -1.30954E+00 +6.94636E+00 -3.03519E+00 +6.27480E+00 -4.50312E+00 +5.18923E+00
 -5.61830E+00 +3.77701E+00 -6.31324E+00 +2.14606E+00 -6.55204E+00 +4.16476E-01 -6.33197E+00 -1.28828E+00
 -5.68265E+00 -2.85033E+00 -4.66297E+00 -4.16552E+00 -3.35593E+00 -5.15041E+00 -1.86197E+00 -5.74751E+00
 -2.91289E-01 -5.92849E+00 +1.24430E+00 -5.69519E+00 +2.63938E+00 -5.07844E+00 +3.80211E+00 -4.13487E+00
 +4.66031E+00 -2.94195E+00 +5.16577E+00 -1.59175E+00 +5.29679E+00 -1.83903E-01 +5.05872E+00 +1.18176E+00
 +4.48251E+00 +2.41221E+00 +3.62153E+00 +3.42756E+00 +2.54690E+00 +4.16616E+00 +1.34179E+00 +4.58819E+00
 +9.50240E-02 +4.67758E+00 -1.10538E+00 +4.44213E+00 -2.17838E+00 +3.91197E+00 -3.05527E+00 +3.13647E+00
 -3.68404E+00 +2.17993E+00 -4.03220E+00 +1.11643E+00 -4.08824E+00 +2.41690E-02 -3.86148E+00 -1.02016E+00
 -3.38046E+00 -1.94671E+00 -2.69006E+00 -2.69701E+00 -1.84756E+00 -3.22754E+00 -9.18148E-01 -3.51205E+00
 +3.01006E-02 -3.54259E+00 +9.31040E-01 -3.32912E+00 +1.72498E+00 -2.89804E+00 +2.36252E+00 -2.28946E+00
 +2.80747E+00 -1.55380E+00 +3.03867E+00 -7.47764E-01 +3.05075E+00 +6.99193E-02 +2.85366E+00 +8.42621E-01
 +2.47125E+00 +1.51963E+00 +1.93886E+00 +2.05936E+00 +1.30037E+00 +2.43170E+00 +6.04678E-01 +2.61953E+00
 -9.78574E-02 +2.61920E+00 -7.58961E-01 +2.44011E+00 -1.33562E+00 +2.10336E+00 -1.79276E+00 +1.63970E+00
 -2.10519E+00 +1.08698E+00 -2.25880E+00 +4.87169E-01 -2.25099E+00 -1.16672E-01 -2.09016E+00 -6.83373E-01
 -1.79466E+00 -1.17632E+00 -1.39101E+00 -1.56569E+00 -9.11693E-01 -1.83010E+00 -3.92691E-01 -1.95759E+00
 +1.29086E-01 -1.94599E+00 +6.18310E-01 -1.80253E+00 +1.04350E+00 -1.54292E+00 +1.37892E+00 -1.18987E+00
 +1.60600E+00 -7.71282E-01 +1.71421E+00 -3.18160E-01 +1.70138E+00 +1.37593E-01 +1.57346E+00 +5.65289E-01
 +1.34376E+00 +9.37408E-01 +1.03176E+00 +1.23125E+00 +6.61587E-01 +1.43022E+00 +2.60227E-01 +1.52463E+00
 -1.44315E-01 +1.51204E+00 -5.24878E-01 +1.39715E+00 -8.56863E-01 +1.19122E+00 -1.11973E+00 +9.11077E-01
 -1.29816E+00 +5.77865E-01 -1.38289E+00 +2.15513E-01 -1.37108E+00 -1.50885E-01 -1.26631E+00 -4.96722E-01
 -1.07818E+00 -7.99443E-01 -8.21480E-01 -1.03994E+00 -5.15117E-01 -1.20369E+00 -1.80811E-01 -1.28157E+00
 +1.58389E-01 -1.27033E+00 +4.79622E-01 -1.17265E+00 +7.61682E-01 -9.96866E-01 +9.86367E-01 -7.56312E-01
 +1.13960E+00 -4.68364E-01 +1.21230E+00 -1.53246E-01 +1.20085E+00 +1.67337E-01 +1.10732E+00 +4.71640E-01
 +9.39221E-01 +7.39305E-01 +7.08938E-01 +9.52687E-01 +4.32892E-01 +1.09799E+00 +1.30390E-01 +1.16615E+00
 -1.77677E-01 +1.15339E+00 -4.70245E-01 +1.06143E+00 -7.27491E-01 +8.97353E-01 -9.32154E-01 +6.73054E-01
 -1.07069E+00 +4.04445E-01 -1.13416E+00 +1.10338E-01 -1.11884E+00 -1.88847E-01 -1.02642E+00 -4.72481E-01
 -8.63864E-01 -7.21141E-01 -6.42948E-01 -9.17940E-01 -3.79385E-01 -1.04968E+00 -9.17430E-02 -1.10774E+00
 +1.99860E-01 -1.08868E+00 +4.75163E-01 -9.94439E-01 +7.15176E-01 -8.32166E-01 +9.03506E-01 -6.13719E-01
 +1.02749E+00 -3.54797E-01 +1.07908E+00 -7.38143E-02 +1.05535E+00 +2.09417E-01 +9.58734E-01 +4.75092E-01
 +7.96744E-01 +7.04827E-01 +5.81450E-01 +8.82949E-01 +3.28562E-01 +9.97594E-01 +5.62761E-02 +1.04153E+00
 -2.16046E-01 +1.01261E+00 -4.69286E-01 +9.13897E-01 -6.85936E-01 +7.53382E-01 -8.51347E-01 +5.43335E-01
 -9.54747E-01 +2.99377E-01 -9.89969E-01 +3.92965E-02 -9.55828E-01 -2.18271E-01 -8.56133E-01 -4.55212E-01
 -6.99320E-01 -6.55246E-01 -4.97753E-01 -8.05078E-01 -2.66748E-01 -8.95317E-01 -2.33847E-02 -9.21085E-01
 +2.14782E-01 -8.82272E-01 +4.31026E-01 -7.83438E-01 +6.10665E-01 -6.33364E-01 +7.42091E-01 -4.44292E-01
 +8.17547E-01 -2.30924E-01 +8.33595E-01 -9.26352E-03 +7.91236E-01 +2.04619E-01 +6.95702E-01 +3.95784E-01
 +5.55920E-01 +5.51503E-01 +3.83713E-01 +6.62137E-01 +1.92807E-01 +7.21747E-01 -2.27641E-03 +7.28399E-01
 -1.87353E-01 +6.84154E-01 -3.49635E-01 +5.94740E-01 -4.78645E-01 +4.68956E-01 -5.66910E-01 +3.17860E-01
 -6.10394E-01 +1.53814E-01 -6.08630E-01 -1.05334E-02 -5.64582E-01 -1.63240E-01 -4.84218E-01 -2.93960E-01
 -3.75885E-01 -3.94658E-01 -2.49508E-01 -4.60109E-01 -1.15715E-01 -4.88135E-01 +1.50521E-02 -4.79586E-01
 +1.33356E-01 -4.38074E-01 +2.31458E-01 -3.69491E-01 +3.03818E-01 -2.81373E-01 +3.47388E-01 -1.82163E-01
 +3.61670E-01 -8.04460E-02 +3.48552E-01 +1.57700E-02 +3.11959E-01 +9.96810E-02 +2.57340E-01 +1.66157E-01
 +1.91071E-01 +2.12034E-01 +1.19815E-01 +2.36202E-01 +4.99150E-02 +2.39512E-01 -1.31432E-02 +2.24502E-01
 -6.51345E-02 +1.94999E-01 -1.03349E-01 +1.55626E-01 -1.26678E-01 +1.11286E-01 -1.35538E-01 +6.66663E-02
 -1.31647E-01 +2.58022E-02 -1.17700E-01 -8.23937E-03 -9.69658E-02 -3.35522E-02 -7.28739E-02 -4.94390E-02
 -4.86188E-02 -5.63235E-02 -2.68372E-02 -5.55476E-02 -9.38157E-03 -4.90837E-02 +2.78936E-03 -3.92031E-02
 +9.59783E-03 -2.81429E-02 +1.17233E-02 -1.78107E-02 +1.03897E-02 -9.56374E-03 +7.09699E-03 -4.08492E-03
 +3.33490E-03 -1.36773E-03 +3.19427E-04 -8.07749E-04 -1.21224E-03 -1.38421E-03 -1.11963E-03 -1.90397E-03
 +1.26926E-04 -1.27192E-03 +1.53944E-03 +1.25214E-03 +1.80158E-03 +5.84904E-03 -4.70230E-04 +1.20216E-02
