 Created: 19-Jan-2021
 $NMID
 ID='D:\BASISSIMULATI'
 FMTDAT='(8E13.5)'
 VOLUME=   1.00000E+00
 TRAMP=   1.00000E+00
 $END
 +3.53849E+01 +1.13061E-01 +3.00367E+01 +1.62736E+01 +1.66310E+01 +2.60919E+01 +7.39361E-01 +2.60846E+01
 -1.11426E+01 +1.69500E+01 -1.43794E+01 +3.22774E+00 -8.16294E+00 -8.68977E+00 +4.17844E+00 -1.33307E+01
 +1.66557E+01 -8.50384E+00 +2.32343E+01 +3.76899E+00 +2.04576E+01 +1.81432E+01 +8.94834E+00 +2.82733E+01
 -6.85449E+00 +2.95602E+01 -2.06032E+01 +2.11392E+01 -2.67656E+01 +6.25533E+00 -2.29909E+01 -9.12860E+00
 -1.11005E+01 -1.88853E+01 +3.71538E+00 -1.93352E+01 +1.51414E+01 -1.07928E+01 +1.84493E+01 +2.60965E+00
 +1.25092E+01 +1.47388E+01 +2.39449E-01 +2.01238E+01 -1.26910E+01 +1.63175E+01 -2.03377E+01 +4.93998E+00
 -1.90631E+01 -9.03846E+00 -9.11217E+00 -1.94567E+01 +5.49159E+00 -2.16285E+01 +1.86777E+01 -1.43636E+01
 +2.49353E+01 -4.78863E-01 +2.16689E+01 +1.44150E+01 +1.02923E+01 +2.43192E+01 -4.40315E+00 +2.54059E+01
 -1.63242E+01 +1.76291E+01 -2.06951E+01 +4.70185E+00 -1.60902E+01 -7.54158E+00 -5.01139E+00 -1.36822E+01
 +7.23098E+00 -1.10562E+01 +1.48398E+01 -8.91469E-01 +1.40501E+01 +1.22408E+01 +4.75895E+00 +2.24143E+01
 -9.43023E+00 +2.49115E+01 -2.27595E+01 +1.82563E+01 -2.97879E+01 +4.84512E+00 -2.77157E+01 -1.00886E+01
 -1.75619E+01 -2.07200E+01 -3.69825E+00 -2.31176E+01 +8.05116E+00 -1.68980E+01 +1.29170E+01 -5.34466E+00
 +9.21768E+00 +6.04810E+00 -9.52153E-01 +1.19699E+01 -1.26653E+01 +9.59046E+00 -2.03191E+01 -2.29406E-01
 -2.00705E+01 -1.33269E+01 -1.14984E+01 -2.40473E+01 +2.21648E+00 -2.76880E+01 +1.56621E+01 -2.25208E+01
 +2.35181E+01 -1.05257E+01 +2.28253E+01 +3.47041E+00 +1.42287E+01 +1.38698E+01 +1.66624E+00 +1.66946E+01
 -9.35065E+00 +1.12626E+01 -1.41155E+01 +4.34507E-01 -1.07371E+01 -1.06619E+01 -9.21142E-01 -1.68711E+01
 +1.08037E+01 -1.52405E+01 +1.90698E+01 -6.28521E+00 +2.00014E+01 +6.25175E+00 +1.28884E+01 +1.70283E+01
 +4.86745E-01 +2.14106E+01 -1.21732E+01 +1.74631E+01 -1.99479E+01 +6.76630E+00 -1.97752E+01 -6.27747E+00
 -1.19603E+01 -1.63433E+01 -8.21941E-03 -1.94608E+01 +1.09127E+01 -1.46892E+01 +1.62050E+01 -4.47710E+00
 +1.38084E+01 +6.43690E+00 +5.05489E+00 +1.30961E+01 -5.94339E+00 +1.24715E+01 -1.40983E+01 +4.75893E+00
 -1.55561E+01 -6.72458E+00 -9.35940E+00 -1.69867E+01 +2.14803E+00 -2.15174E+01 +1.43386E+01 -1.82242E+01
 +2.22907E+01 -8.31537E+00 +2.28887E+01 +4.23791E+00 +1.61309E+01 +1.44184E+01 +5.09179E+00 +1.83101E+01
 -5.43283E+00 +1.47517E+01 -1.10028E+01 +5.79006E+00 -9.43455E+00 -4.24694E+00 -1.71137E+00 -1.06481E+01
 +8.47856E+00 -1.03611E+01 +1.63639E+01 -3.30014E+00 +1.81637E+01 +7.63512E+00 +1.27175E+01 +1.78262E+01
 +1.97513E+00 +2.29315E+01 -9.85287E+00 +2.07467E+01 -1.81071E+01 +1.21332E+01 -1.96669E+01 +6.24909E-01
 -1.42593E+01 -9.10482E+00 -4.53477E+00 -1.32468E+01 +5.10925E+00 -1.04656E+01 +1.04383E+01 -2.42950E+00
 +9.19757E+00 +6.95465E+00 +2.05512E+00 +1.32591E+01 -7.72204E+00 +1.34564E+01 -1.57072E+01 +7.21732E+00
 -1.82377E+01 -2.96597E+00 -1.39913E+01 -1.28708E+01 -4.54281E+00 -1.83691E+01 +6.32787E+00 -1.71944E+01
 +1.42659E+01 -9.89372E+00 +1.62002E+01 +4.34560E-01 +1.16319E+01 +9.49153E+00 +2.80571E+00 +1.36248E+01
 -6.29382E+00 +1.13744E+01 -1.16781E+01 +4.05832E+00 -1.10677E+01 -4.84121E+00 -4.84844E+00 -1.12122E+01
 +4.13032E+00 -1.20985E+01 +1.18143E+01 -6.96607E+00 +1.47068E+01 +2.08638E+00 +1.13724E+01 +1.12509E+01
 +3.03939E+00 +1.66577E+01 -6.94642E+00 +1.60316E+01 -1.45683E+01 +9.64611E+00 -1.68549E+01 +1.76168E-01
 -1.31263E+01 -8.47377E+00 -5.24399E+00 -1.28507E+01 +3.23052E+00 -1.14156E+01 +8.59116E+00 -5.16495E+00
 +8.58125E+00 +2.84468E+00 +3.34137E+00 +8.84842E+00 -4.68617E+00 +1.00098E+01 -1.18408E+01 +5.63625E+00
 -1.48369E+01 -2.54313E+00 -1.21754E+01 -1.11426E+01 -4.77278E+00 -1.65867E+01 +4.45420E+00 -1.66397E+01
 +1.18529E+01 -1.13420E+01 +1.45963E+01 -2.96024E+00 +1.18690E+01 +5.01217E+00 +5.17374E+00 +9.36292E+00
 -2.35648E+00 +8.52304E+00 -7.33278E+00 +3.20290E+00 -7.57052E+00 -3.95914E+00 -3.00839E+00 -9.56907E+00
 +4.29891E+00 -1.09549E+01 +1.10967E+01 -7.31150E+00 +1.43480E+01 -2.65909E-02 +1.25376E+01 +7.93858E+00
 +6.30491E+00 +1.33343E+01 -1.85423E+00 +1.40121E+01 -8.67468E+00 +9.82237E+00 -1.15201E+01 +2.64412E+00
 -9.48851E+00 -4.45161E+00 -3.75719E+00 -8.53177E+00 +2.96647E+00 -8.04715E+00 +7.63805E+00 -3.46250E+00
 +8.19012E+00 +2.98764E+00 +4.40268E+00 +8.29700E+00 -2.03491E+00 +9.99821E+00 -8.28226E+00 +7.21905E+00
 -1.15872E+01 +1.03637E+00 -1.04664E+01 -6.01141E+00 -5.32297E+00 -1.10293E+01 +1.75308E+00 -1.20041E+01
 +7.90081E+00 -8.64434E+00 +1.07160E+01 -2.46961E+00 +9.25967E+00 +3.87381E+00 +4.42006E+00 +7.76344E+00
 -1.51205E+00 +7.71585E+00 -5.85829E+00 +3.99088E+00 -6.71070E+00 -1.56311E+00 -3.73484E+00 -6.34072E+00
 +1.71850E+00 -8.11778E+00 +7.22618E+00 -6.00284E+00 +1.03528E+01 -7.98499E-01 +9.69505E+00 +5.36965E+00
 +5.46411E+00 +9.98238E+00 -6.33312E-01 +1.12053E+01 -6.14899E+00 +8.65246E+00 -8.94630E+00 +3.51579E+00
 -8.09591E+00 -1.98019E+00 -4.23555E+00 -5.55014E+00 +7.47298E-01 -5.82113E+00 +4.55765E+00 -2.89152E+00
 +5.48780E+00 +1.75295E+00 +3.13564E+00 +5.91438E+00 -1.45372E+00 +7.64584E+00 -6.26928E+00 +6.08369E+00
 -9.21731E+00 +1.79638E+00 -9.01885E+00 -3.48720E+00 -5.73785E+00 -7.63824E+00 -7.23823E-01 -9.04037E+00
 +3.99130E+00 -7.26037E+00 +6.57044E+00 -3.19780E+00 +6.14115E+00 +1.33628E+00 +3.13278E+00 +4.41592E+00
 -9.50567E-01 +4.82180E+00 -4.20803E+00 +2.53670E+00 -5.16841E+00 -1.28716E+00 -3.40802E+00 -4.85907E+00
 +2.97804E-01 -6.53772E+00 +4.34003E+00 -5.53190E+00 +6.98667E+00 -2.21746E+00 +7.12515E+00 +2.05308E+00
 +4.71853E+00 +5.55138E+00 +7.90081E-01 +6.91564E+00 -3.04212E+00 +5.71364E+00 -5.26769E+00 +2.59234E+00
 -5.11641E+00 -1.03557E+00 -2.85376E+00 -3.61893E+00 +3.74452E-01 -4.13100E+00 +3.06592E+00 -2.48432E+00
 +4.01761E+00 +4.70097E-01 +2.82902E+00 +3.34355E+00 +4.41542E-02 +4.82459E+00 -3.11475E+00 +4.23790E+00
 -5.29258E+00 +1.81087E+00 -5.58260E+00 -1.45428E+00 -3.89451E+00 -4.23297E+00 -9.61243E-01 -5.44943E+00
 +2.00354E+00 -4.71893E+00 +3.83680E+00 -2.47807E+00 +3.91215E+00 +2.38405E-01 +2.37598E+00 +2.26368E+00
 +4.47114E-02 +2.79857E+00 -1.97721E+00 +1.73053E+00 -2.78254E+00 -3.54914E-01 -2.03811E+00 -2.46027E+00
 -9.81663E-02 -3.62295E+00 +2.18067E+00 -3.32443E+00 +3.82859E+00 -1.68925E+00 +4.17942E+00 +5.99663E-01
 +3.13597E+00 +2.61812E+00 +1.17963E+00 +3.60219E+00 -8.65509E-01 +3.25853E+00 -2.19889E+00 +1.85704E+00
 -2.37656E+00 +7.94748E-02 -1.47136E+00 -1.29583E+00 -3.33870E-03 -1.72843E+00 +1.31428E+00 -1.12549E+00
 +1.89257E+00 +1.53862E-01 +1.50752E+00 +1.48667E+00 +3.66876E-01 +2.27214E+00 -1.01235E+00 +2.18561E+00
 -2.04817E+00 +1.29424E+00 -2.34509E+00 -3.87024E-03 -1.84433E+00 -1.17615E+00 -8.17033E-01 -1.79127E+00
 +2.82201E-01 -1.68913E+00 +1.02490E+00 -1.01806E+00 +1.18454E+00 -1.36551E-01 +8.05829E-01 +5.63561E-01
 +1.49110E-01 +8.26802E-01 -4.51300E-01 +6.22964E-01 -7.41750E-01 +1.25836E-01 -6.46293E-01 -3.94735E-01
 -2.70061E-01 -7.07241E-01 +1.79533E-01 -7.14297E-01 +5.05291E-01 -4.70926E-01 +6.08083E-01 -1.28323E-01
 +5.11240E-01 +1.58102E-01 +3.19259E-01 +3.04810E-01 +1.42550E-01 +3.23353E-01 +3.41447E-02 +2.86127E-01
 -2.71446E-02 +2.62020E-01 -1.02036E-01 +2.64094E-01 -2.30178E-01 +2.41768E-01 -3.84285E-01 +1.22091E-01
 -4.70947E-01 -1.25767E-01 -3.82326E-01 -4.44416E-01 -7.15212E-02 -6.94121E-01 +3.93220E-01 -7.15763E-01
 +8.33165E-01 -4.22169E-01 +1.03088E+00 +1.31672E-01 +8.39942E-01 +7.44011E-01 +2.77816E-01 +1.14149E+00
 -4.51424E-01 +1.10657E+00 -1.02784E+00 +5.97778E-01 -1.15704E+00 -2.00856E-01 -7.19964E-01 -9.36635E-01
 +1.43312E-01 -1.23699E+00 +1.06597E+00 -8.88000E-01 +1.60125E+00 +4.14635E-02 +1.42563E+00 +1.19683E+00
 +5.06508E-01 +2.07091E+00 -8.49330E-01 +2.22375E+00 -2.10164E+00 +1.49369E+00 -2.70181E+00 +9.93803E-02
 -2.34261E+00 -1.42510E+00 -1.11849E+00 -2.44617E+00 +4.85481E-01 -2.51029E+00 +1.78447E+00 -1.56300E+00
 +2.19044E+00 -1.94603E-03 +1.48600E+00 +1.47253E+00 -5.13167E-02 +2.15537E+00 -1.74160E+00 +1.65734E+00
 -2.78402E+00 +1.03680E-01 -2.61173E+00 -1.88738E+00 -1.16369E+00 -3.45041E+00 +1.05440E+00 -3.84530E+00
 +3.16031E+00 -2.79601E+00 +4.26522E+00 -6.41072E-01 +3.86718E+00 +1.78234E+00 +2.09292E+00 +3.48295E+00
 -3.28237E-01 +3.74604E+00 -2.36009E+00 +2.46207E+00 -3.10584E+00 +2.01236E-01 -2.21283E+00 -2.01127E+00
 -5.31931E-02 -3.13280E+00 +2.41028E+00 -2.56824E+00 +4.02734E+00 -4.56443E-01 +3.96472E+00 +2.35727E+00
 +2.09199E+00 +4.66373E+00 -9.27797E-01 +5.40874E+00 -3.89481E+00 +4.16515E+00 -5.57682E+00 +1.34723E+00
 -5.24766E+00 -1.93780E+00 -3.02287E+00 -4.34906E+00 +1.63138E-01 -4.89062E+00 +2.94125E+00 -3.35821E+00
 +4.09615E+00 -4.52284E-01 +3.10631E+00 +2.50407E+00 +3.95626E-01 +4.13099E+00 -2.82393E+00 +3.60122E+00
 -5.06272E+00 +1.02573E+00 -5.20319E+00 -2.56193E+00 -3.00713E+00 -5.62832E+00 +7.47443E-01 -6.79673E+00
 +4.57152E+00 -5.45598E+00 +6.89175E+00 -2.05239E+00 +6.73270E+00 +2.07287E+00 +4.15690E+00 +5.24260E+00
 +2.62729E-01 +6.16464E+00 -3.27103E+00 +4.50330E+00 -4.90633E+00 +1.04638E+00 -3.92332E+00 -2.61602E+00
 -7.55796E-01 -4.77267E+00 +3.17130E+00 -4.34282E+00 +6.04383E+00 -1.37028E+00 +6.44700E+00 +2.96323E+00
 +3.99948E+00 +6.82355E+00 -4.48522E-01 +8.50809E+00 -5.15087E+00 +7.19238E+00 -8.20069E+00 +3.31173E+00
 -8.35315E+00 -1.59764E+00 -5.57822E+00 -5.54091E+00 -1.09585E+00 -6.92059E+00 +3.13311E+00 -5.23674E+00
 +5.24937E+00 -1.32229E+00 +4.30993E+00 +2.99924E+00 +7.18420E-01 +5.69584E+00 -3.92509E+00 +5.41637E+00
 -7.50104E+00 +2.10048E+00 -8.28922E+00 -2.96335E+00 -5.73288E+00 -7.66811E+00 -7.11281E-01 -9.98759E+00
 +4.80814E+00 -8.85955E+00 +8.59860E+00 -4.66701E+00 +9.13172E+00 +8.99599E-01 +6.24909E+00 +5.55130E+00
 +1.25005E+00 +7.38177E+00 -3.65311E+00 +5.69831E+00 -6.28600E+00 +1.33784E+00 -5.46172E+00 -3.67855E+00
 -1.51501E+00 -7.01329E+00 +3.81893E+00 -7.03269E+00 +8.13927E+00 -3.53769E+00 +9.41819E+00 +2.11869E+00
 +6.89582E+00 +7.58872E+00 +1.43892E+00 +1.05311E+01 -4.80168E+00 +9.62680E+00 -9.29756E+00 +5.16867E+00
