 Created: 19-Jan-2021
 $NMID
 ID='D:\BASISSIMULATI'
 FMTDAT='(8E13.5)'
 VOLUME=   1.00000E+00
 TRAMP=   1.00000E+00
 $END
 +4.64189E+01 +9.53486E-01 +4.08629E+01 -1.40875E+01 +2.61935E+01 -2.40793E+01 +6.57706E+00 -2.54619E+01
 -1.24722E+01 -1.73897E+01 -2.57607E+01 -1.99199E+00 -2.99622E+01 +1.62926E+01 -2.45655E+01 +3.20892E+01
 -1.19433E+01 +4.07325E+01 +3.46181E+00 +3.96695E+01 +1.65578E+01 +2.91944E+01 +2.31784E+01 +1.23030E+01
 +2.13216E+01 -6.26210E+00 +1.16839E+01 -2.14596E+01 -2.64849E+00 -2.94334E+01 -1.72230E+01 -2.85809E+01
 -2.76165E+01 -1.99010E+01 -3.07617E+01 -6.55321E+00 -2.58057E+01 +7.19939E+00 -1.42659E+01 +1.73086E+01
 +5.25110E-01 +2.11112E+01 +1.44760E+01 +1.80099E+01 +2.39493E+01 +9.49505E+00 +2.67595E+01 -1.45061E+00
 +2.26793E+01 -1.13398E+01 +1.33454E+01 -1.72377E+01 +1.64220E+00 -1.75695E+01 -9.20888E+00 -1.24661E+01
 -1.65641E+01 -3.58778E+00 -1.90131E+01 +6.46759E+00 -1.66181E+01 +1.49619E+01 -1.07187E+01 +1.97682E+01
 -3.41108E+00 +1.98723E+01 +3.10849E+00 +1.55164E+01 +7.13731E+00 +7.99622E+00 +7.84450E+00 -7.85588E-01
 +5.36748E+00 -8.85257E+00 +6.48994E-01 -1.46236E+01 -4.89740E+00 -1.72123E+01 -9.77858E+00 -1.65184E+01
 -1.27666E+01 -1.31317E+01 -1.31309E+01 -8.11276E+00 -1.07356E+01 -2.72069E+00 -6.01369E+00 +1.84976E+00
 +1.50023E-01 +4.68311E+00 +6.59715E+00 +5.29138E+00 +1.21067E+01 +3.68775E+00 +1.56171E+01 +3.80226E-01
 +1.64340E+01 -3.71978E+00 +1.43897E+01 -7.47347E+00 +9.91682E+00 -9.75867E+00 +3.99882E+00 -9.74216E+00
 -2.01448E+00 -7.11880E+00 -6.70617E+00 -2.24690E+00 -8.94467E+00 +3.87662E+00 -8.19859E+00 +9.82084E+00
 -4.71794E+00 +1.40718E+01 +4.88163E-01 +1.54454E+01 +5.89290E+00 +1.34450E+01 +9.86111E+00 +8.45157E+00
 +1.11175E+01 +1.67252E+00 +9.13597E+00 -5.15491E+00 +4.32673E+00 -1.02322E+01 -2.04778E+00 -1.22093E+01
 -8.21559E+00 -1.05831E+01 -1.24030E+01 -5.85927E+00 -1.33585E+01 +5.79235E-01 -1.07336E+01 +6.86523E+00
 -5.20235E+00 +1.11884E+01 +1.72241E+00 +1.23231E+01 +8.12243E+00 +9.98392E+00 +1.22288E+01 +4.90167E+00
 +1.29312E+01 -1.40187E+00 +1.00899E+01 -7.07037E+00 +4.56033E+00 -1.04611E+01 -2.07293E+00 -1.06196E+01
 -7.96656E+00 -7.54259E+00 -1.15500E+01 -2.15561E+00 -1.19603E+01 +3.97727E+00 -9.25711E+00 +9.11850E+00
 -4.36546E+00 +1.18540E+01 +1.22501E+00 +1.14774E+01 +5.90514E+00 +8.15716E+00 +8.40110E+00 +2.85069E+00
 +8.11017E+00 -2.99564E+00 +5.23077E+00 -7.86318E+00 +6.64807E-01 -1.05717E+01 -4.26488E+00 -1.05724E+01
 -8.19182E+00 -8.05279E+00 -1.00699E+01 -3.84095E+00 -9.42916E+00 +8.50742E-01 -6.46665E+00 +4.76163E+00
 -1.96162E+00 +6.90742E+00 +2.94856E+00 +6.81315E+00 +7.06660E+00 +4.60500E+00 +9.43061E+00 +9.49776E-01
 +9.53752E+00 -3.13284E+00 +7.44782E+00 -6.53381E+00 +3.75414E+00 -8.33028E+00 -5.73788E-01 -8.01022E+00
 -4.42977E+00 -5.59726E+00 -6.84263E+00 -1.64811E+00 -7.21682E+00 +2.87788E+00 -5.48574E+00 +6.84977E+00
 -2.13833E+00 +9.24607E+00 +1.89391E+00 +9.41973E+00 +5.46917E+00 +7.27999E+00 +7.53506E+00 +3.33872E+00
 +7.42125E+00 -1.40078E+00 +5.04494E+00 -5.69443E+00 +9.65536E-01 -8.38885E+00 -3.73899E+00 -8.74688E+00
 -7.75211E+00 -6.67327E+00 -9.88563E+00 -2.76802E+00 -9.43171E+00 +1.82048E+00 -6.39413E+00 +5.71216E+00
 -1.52152E+00 +7.69759E+00 +3.88007E+00 +7.10890E+00 +8.31112E+00 +4.04423E+00 +1.05176E+01 -6.31292E-01
 +9.87353E+00 -5.52014E+00 +6.58717E+00 -9.10102E+00 +1.65799E+00 -1.01923E+01 -3.41058E+00 -8.32812E+00
 -7.06284E+00 -3.92534E+00 -8.17029E+00 +1.81726E+00 -6.38957E+00 +7.26589E+00 -2.28257E+00 +1.08423E+01
 +2.84479E+00 +1.15082E+01 +7.34059E+00 +9.09023E+00 +9.72057E+00 +4.34202E+00 +9.13715E+00 -1.28258E+00
 +5.65470E+00 -6.07580E+00 +2.41768E-01 -8.60429E+00 -5.52046E+00 -8.15341E+00 -9.92349E+00 -4.94713E+00
 -1.16589E+01 -7.34091E-02 -1.02219E+01 +4.86136E+00 -6.06428E+00 +8.23950E+00 -4.49593E-01 +8.94045E+00
 +4.94236E+00 +6.69017E+00 +8.53589E+00 +2.14308E+00 +9.34048E+00 -3.32695E+00 +7.24310E+00 -8.05759E+00
 +3.02351E+00 -1.06134E+01 -1.90693E+00 -1.02239E+01 -5.95611E+00 -7.00871E+00 -7.84742E+00 -1.92606E+00
 -7.00651E+00 +3.53475E+00 -3.72200E+00 +7.81447E+00 +9.63156E-01 +9.75328E+00 +5.58792E+00 +8.92448E+00
 +8.72704E+00 +5.73556E+00 +9.42012E+00 +1.27424E+00 +7.44669E+00 -3.04385E+00 +3.37034E+00 -5.91159E+00
 -1.65198E+00 -6.51617E+00 -6.22831E+00 -4.76113E+00 -9.14381E+00 -1.26641E+00 -9.70252E+00 +2.84289E+00
 -7.90252E+00 +6.28622E+00 -4.40219E+00 +8.00646E+00 -2.99247E-01 +7.46663E+00 +3.20362E+00 +4.78381E+00
 +5.14452E+00 +6.71338E-01 +5.06140E+00 -3.78321E+00 +3.09713E+00 -7.43254E+00 -6.89362E-02 -9.38430E+00
 -3.43356E+00 -9.22987E+00 -5.95996E+00 -7.13089E+00 -6.86332E+00 -3.74897E+00 -5.81612E+00 -4.66337E-02
 -3.02378E+00 +2.98120E+00 +8.42201E-01 +4.57176E+00 +4.82986E+00 +4.38739E+00 +7.95888E+00 +2.59105E+00
 +9.47339E+00 -2.10301E-01 +9.03216E+00 -3.13599E+00 +6.79018E+00 -5.27020E+00 +3.35313E+00 -5.90778E+00
 -3.82871E-01 -4.74527E+00 -3.46580E+00 -1.96861E+00 -5.13740E+00 +1.78619E+00 -5.03420E+00 +5.59152E+00
 -3.28648E+00 +8.46790E+00 -4.86512E-01 +9.64424E+00 +2.46968E+00 +8.77048E+00 +4.62857E+00 +6.02337E+00
 +5.24922E+00 +2.07250E+00 +4.02286E+00 -2.08976E+00 +1.17816E+00 -5.41287E+00 -2.56317E+00 -7.07643E+00
 -6.17411E+00 -6.72155E+00 -8.60596E+00 -4.55672E+00 -9.08934E+00 -1.30309E+00 -7.36582E+00 +2.01003E+00
 -3.77954E+00 +4.34439E+00 +8.02638E-01 +4.96085E+00 +5.22455E+00 +3.64499E+00 +8.36292E+00 +7.80737E-01
 +9.44523E+00 -2.75373E+00 +8.26930E+00 -5.84039E+00 +5.25798E+00 -7.45269E+00 +1.33135E+00 -6.96534E+00
 -2.36668E+00 -4.34944E+00 -4.80595E+00 -1.93186E-01 -5.37077E+00 +4.45929E+00 -4.03404E+00 +8.40338E+00
 -1.35357E+00 +1.06160E+01 +1.70640E+00 +1.05426E+01 +4.07267E+00 +8.24572E+00 +4.88874E+00 +4.37323E+00
 +3.77103E+00 -3.95662E-02 +9.21035E-01 -3.87223E+00 -2.93639E+00 -6.23431E+00 -6.76562E+00 -6.70142E+00
 -9.51752E+00 -5.40746E+00 -1.04225E+01 -2.97311E+00 -9.19604E+00 -2.99486E-01 -6.10265E+00 +1.70681E+00
 -1.86744E+00 +2.39495E+00 +2.53151E+00 +1.54462E+00 +6.12624E+00 -5.89415E-01 +8.20276E+00 -3.36676E+00
 +8.46265E+00 -5.95183E+00 +7.06650E+00 -7.54720E+00 +4.55802E+00 -7.60557E+00 +1.69811E+00 -5.96746E+00
 -7.41616E-01 -2.89519E+00 -2.17221E+00 +9.97707E-01 -2.32224E+00 +4.89766E+00 -1.28738E+00 +7.98293E+00
 +5.10710E-01 +9.61075E+00 +2.44148E+00 +9.45930E+00 +3.82951E+00 +7.59595E+00 +4.12811E+00 +4.45936E+00
 +3.06458E+00 +7.59632E-01 +7.24177E-01 -2.68289E+00 -2.44852E+00 -5.12715E+00 -5.73662E+00 -6.08805E+00
 -8.31264E+00 -5.45854E+00 -9.44233E+00 -3.54377E+00 -8.68359E+00 -9.91371E-01 -6.02819E+00 +1.37308E+00
 -1.94219E+00 +2.77009E+00 +2.71707E+00 +2.69355E+00 +6.89777E+00 +1.07680E+00 +9.62053E+00 -1.65637E+00
 +1.02460E+01 -4.68233E+00 +8.66570E+00 -6.99605E+00 +5.35390E+00 -7.70333E+00 +1.25410E+00 -6.30446E+00
 -2.47772E+00 -2.88154E+00 -4.80527E+00 +1.87603E+00 -5.12269E+00 +6.82842E+00 -3.44748E+00 +1.06896E+01
 -4.29380E-01 +1.23951E+01 +2.83657E+00 +1.14233E+01 +5.14332E+00 +7.97006E+00 +5.55304E+00 +2.91460E+00
 +3.70785E+00 -2.42096E+00 -3.08662E-02 -6.65096E+00 -4.66493E+00 -8.73181E+00 -8.84490E+00 -8.26859E+00
 -1.12746E+01 -5.62579E+00 -1.11106E+01 -1.80525E+00 -8.23092E+00 +1.87243E+00 -3.28753E+00 +4.18412E+00
 +2.47706E+00 +4.38701E+00 +7.59259E+00 +2.44774E+00 +1.07911E+01 -9.54105E-01 +1.13710E+01 -4.64746E+00
 +9.38298E+00 -7.34410E+00 +5.58520E+00 -8.04571E+00 +1.18613E+00 -6.35512E+00 -2.53761E+00 -2.59591E+00
 -4.62601E+00 +2.29227E+00 -4.70345E+00 +7.04346E+00 -3.05183E+00 +1.04440E+01 -4.76807E-01 +1.16796E+01
 +1.97952E+00 +1.05466E+01 +3.37996E+00 +7.47002E+00 +3.17772E+00 +3.33701E+00 +1.36090E+00 -7.90453E-01
 -1.57761E+00 -3.98598E+00 -4.82088E+00 -5.69621E+00 -7.48944E+00 -5.84165E+00 -8.89527E+00 -4.76681E+00
 -8.71228E+00 -3.07507E+00 -7.02269E+00 -1.41515E+00 -4.24386E+00 -2.92295E-01 -9.77167E-01 +4.28761E-02
 +2.16177E+00 -3.90637E-01 +4.67791E+00 -1.36823E+00 +6.26683E+00 -2.56261E+00 +6.81997E+00 -3.64205E+00
 +6.38836E+00 -4.33460E+00 +5.13647E+00 -4.45239E+00 +3.30893E+00 -3.89086E+00 +1.21471E+00 -2.62657E+00
 -7.85597E-01 -7.30209E-01 -2.31131E+00 +1.60625E+00 -3.02681E+00 +4.04839E+00 -2.73511E+00 +6.13384E+00
 -1.47128E+00 +7.34484E+00 +4.47158E-01 +7.23848E+00 +2.45224E+00 +5.60406E+00 +3.85512E+00 +2.59293E+00
 +4.05111E+00 -1.23879E+00 +2.74120E+00 -5.01488E+00 +9.13814E-02 -7.75017E+00 -3.24156E+00 -8.63850E+00
 -6.25119E+00 -7.32948E+00 -7.86704E+00 -4.09539E+00 -7.30538E+00 +1.86436E-01 -4.37121E+00 +4.25389E+00
 +4.00122E-01 +6.83247E+00 +5.82994E+00 +7.04912E+00 +1.04076E+01 +4.75076E+00 +1.27432E+01 +6.10344E-01
 +1.20218E+01 -4.03448E+00 +8.30672E+00 -7.57710E+00 +2.57804E+00 -8.65659E+00 -3.52568E+00 -6.62633E+00
 -8.19569E+00 -1.81618E+00 -1.00235E+01 +4.51257E+00 -8.46864E+00 +1.05224E+01 -4.06421E+00 +1.43632E+01
 +1.72035E+00 +1.47680E+01 +6.92736E+00 +1.14843E+01 +9.73406E+00 +5.39329E+00 +9.05104E+00 -1.73545E+00
 +4.89805E+00 -7.78389E+00 -1.57296E+00 -1.09522E+01 -8.42377E+00 -1.03370E+01 -1.35394E+01 -6.22978E+00
 -1.53060E+01 -3.40649E-02 -1.31367E+01 +6.17834E+00 -7.67111E+00 +1.03302E+01 -5.79414E-01 +1.10072E+01
 +5.96617E+00 +7.91278E+00 +9.98344E+00 +1.96278E+00 +1.03098E+01 -5.01323E+00 +6.96516E+00 -1.08637E+01
 +1.13175E+00 -1.38067E+01 -5.23954E+00 -1.29950E+01 -1.00644E+01 -8.77368E+00 -1.17925E+01 -2.54894E+00
 -9.89051E+00 +3.68108E+00 -4.98778E+00 +7.97605E+00 +1.35525E+00 +9.06864E+00 +7.17071E+00 +6.74704E+00
 +1.07218E+01 +1.88711E+00 +1.10458E+01 -3.86521E+00 +8.22935E+00 -8.64707E+00 +3.33676E+00 -1.09796E+01
 -1.97190E+00 -1.02207E+01 -5.99544E+00 -6.72891E+00 -7.53215E+00 -1.69923E+00 -6.23194E+00 +3.26026E+00
 -2.65619E+00 +6.66095E+00 +1.95778E+00 +7.59670E+00 +6.13362E+00 +5.99197E+00 +8.64007E+00 +2.56820E+00
 +8.86198E+00 -1.44174E+00 +6.94605E+00 -4.72089E+00 +3.69043E+00 -6.28819E+00 +2.34495E-01 -5.77557E+00
 -2.33382E+00 -3.48439E+00 -3.31779E+00 -2.22536E-01 -2.59275E+00 +3.00353E+00 -5.84485E-01 +5.32665E+00
 +1.92685E+00 +6.27241E+00 +4.09351E+00 +5.85423E+00 +5.27256E+00 +4.49736E+00 +5.19537E+00 +2.83891E+00
