 Created: 19-Jan-2021
 $NMID
 ID='D:\BASISSIMULATI'
 FMTDAT='(8E13.5)'
 VOLUME=   1.00000E+00
 TRAMP=   1.00000E+00
 $END
 +4.57743E+01 +2.21987E-01 +4.19666E+01 -8.27167E+00 +3.12203E+01 -1.43337E+01 +1.56956E+01 -1.59654E+01
 -1.49346E+00 -1.22831E+01 -1.69610E+01 -3.76172E+00 -2.77856E+01 +7.85048E+00 -3.21331E+01 +1.99287E+01
 -2.96245E+01 +2.95863E+01 -2.13695E+01 +3.43625E+01 -9.66335E+00 +3.28188E+01 +2.57660E+00 +2.49032E+01
 +1.24987E+01 +1.19939E+01 +1.79670E+01 -3.38757E+00 +1.80226E+01 -1.81287E+01 +1.30555E+01 -2.92148E+01
 +4.65201E+00 -3.43951E+01 -4.83437E+00 -3.26737E+01 -1.28817E+01 -2.45147E+01 -1.74198E+01 -1.17200E+01
 -1.73236E+01 +2.98872E+00 -1.26659E+01 +1.65799E+01 -4.67423E+00 +2.63739E+01 +4.58989E+00 +3.06042E+01
 +1.27464E+01 +2.87544E+01 +1.76794E+01 +2.16048E+01 +1.80456E+01 +1.09884E+01 +1.35914E+01 -6.74868E-01
 +5.20504E+00 -1.09480E+01 -5.29922E+00 -1.79165E+01 -1.56095E+01 -2.05744E+01 -2.34499E+01 -1.89761E+01
 -2.70932E+01 -1.41330E+01 -2.57332E+01 -7.69374E+00 -1.96365E+01 -1.49738E+00 -1.00485E+01 +2.88663E+00
 +1.11710E+00 +4.52065E+00 +1.17202E+01 +3.28204E+00 +1.98633E+01 -1.66129E-01 +2.42769E+01 -4.59668E+00
 +2.45391E+01 -8.56666E+00 +2.10911E+01 -1.07991E+01 +1.50591E+01 -1.05023E+01 +7.93887E+00 -7.55108E+00
 +1.22860E+00 -2.49366E+00 -3.90016E+00 +3.60875E+00 -6.81883E+00 +9.45946E+00 -7.50442E+00 +1.38463E+01
 -6.44899E+00 +1.59227E+01 -4.45427E+00 +1.53833E+01 -2.37527E+00 +1.24973E+01 -8.84443E-01 +8.00336E+00
 -3.15816E-01 +2.89965E+00 -6.22702E-01 -1.80785E+00 -1.44913E+00 -5.33411E+00 -2.28428E+00 -7.26462E+00
 -2.64858E+00 -7.59544E+00 -2.25499E+00 -6.66440E+00 -1.09945E+00 -5.00302E+00 +5.42279E-01 -3.15803E+00
 +2.20627E+00 -1.53551E+00 +3.38953E+00 -3.10582E-01 +3.70994E+00 +5.76694E-01 +3.02836E+00 +1.34511E+00
 +1.49619E+00 +2.24561E+00 -4.85489E-01 +3.42820E+00 -2.38334E+00 +4.84758E+00 -3.69093E+00 +6.23984E+00
 -4.08253E+00 +7.18076E+00 -3.51541E+00 +7.21053E+00 -2.24896E+00 +5.98888E+00 -7.72622E-01 +3.43327E+00
 +3.39123E-01 -2.04258E-01 +6.04543E-01 -4.35040E+00 -2.05571E-01 -8.21820E+00 -1.97379E+00 -1.09863E+01
 -4.23848E+00 -1.20054E+01 -6.29769E+00 -1.09774E+01 -7.39121E+00 -8.05657E+00 -6.91475E+00 -3.84160E+00
 -4.60878E+00 +7.46854E-01 -6.68944E-01 +4.67688E+00 +4.25690E+00 +7.05451E+00 +9.19127E+00 +7.34919E+00
 +1.30444E+01 +5.53704E+00 +1.48752E+01 +2.12221E+00 +1.41325E+01 -1.97353E+00 +1.08120E+01 -5.62968E+00
 +5.48921E+00 -7.80291E+00 -7.88368E-01 -7.79257E+00 -6.72655E+00 -5.42919E+00 -1.10770E+01 -1.13677E+00
 -1.29274E+01 +4.15005E+00 -1.19194E+01 +9.19729E+00 -8.33975E+00 +1.27627E+01 -3.05992E+00 +1.38972E+01
 +2.66275E+00 +1.21834E+01 +7.47763E+00 +7.85227E+00 +1.02576E+01 +1.74734E+00 +1.03646E+01 -4.85710E+00
 +7.80059E+00 -1.05427E+01 +3.20648E+00 -1.40717E+01 -2.29011E+00 -1.46722E+01 -7.34330E+00 -1.22178E+01
 -1.07093E+01 -7.25765E+00 -1.15425E+01 -8.90714E-01 -9.59732E+00 +5.48621E+00 -5.28770E+00 +1.04975E+01
 +4.08796E-01 +1.30994E+01 +6.17952E+00 +1.28105E+01 +1.06829E+01 +9.80913E+00 +1.28602E+01 +4.87681E+00
 +1.21796E+01 -7.96057E-01 +8.75637E+00 -5.89472E+00 +3.32300E+00 -9.28661E+00 -2.94219E+00 -1.02778E+01
 -8.68571E+00 -8.76051E+00 -1.26847E+01 -5.22046E+00 -1.41168E+01 -6.04756E-01 -1.27335E+01 +3.91415E+00
 -8.89908E+00 +7.22099E+00 -3.49044E+00 +8.51917E+00 +2.31427E+00 +7.51066E+00 +7.30736E+00 +4.45450E+00
 +1.05186E+01 +9.37870E-02 +1.14172E+01 -4.52820E+00 +1.00055E+01 -8.31648E+00 +6.78735E+00 -1.03781E+01
 +2.62490E+00 -1.02220E+01 -1.47824E+00 -7.86175E+00 -4.61397E+00 -3.79938E+00 -6.17095E+00 +1.09980E+00
 -5.95551E+00 +5.80977E+00 -4.20875E+00 +9.37422E+00 -1.52121E+00 +1.11115E+01 +1.32910E+00 +1.07493E+01
 +3.57345E+00 +8.46199E+00 +4.63599E+00 +4.80865E+00 +4.26193E+00 +5.89647E-01 +2.56335E+00 -3.33959E+00
 -2.35659E-02 -6.25421E+00 -2.85530E+00 -7.70330E+00 -5.24045E+00 -7.58202E+00 -6.60272E+00 -6.12183E+00
 -6.60973E+00 -3.80733E+00 -5.23971E+00 -1.24448E+00 -2.77477E+00 +9.85861E-01 +2.73801E-01 +2.45485E+00
 +3.28700E+00 +2.96557E+00 +5.67632E+00 +2.57203E+00 +7.00682E+00 +1.53849E+00 +7.07903E+00 +2.53723E-01
 +5.95466E+00 -8.75506E-01 +3.92496E+00 -1.52531E+00 +1.43326E+00 -1.52670E+00 -1.02768E+00 -8.94635E-01
 -3.01913E+00 +1.89129E-01 -4.23863E+00 +1.43131E+00 -4.56556E+00 +2.50465E+00 -4.06430E+00 +3.12799E+00
 -2.94908E+00 +3.13039E+00 -1.52208E+00 +2.48615E+00 -1.01294E-01 +1.31505E+00 +1.04578E+00 -1.49371E-01
 +1.74925E+00 -1.61418E+00 +1.95751E+00 -2.79067E+00 +1.73062E+00 -3.45316E+00 +1.21122E+00 -3.48134E+00
 +5.82167E-01 -2.87899E+00 +2.11593E-02 -1.76749E+00 -3.37954E-01 -3.57234E-01 -4.30103E-01 +1.09552E+00
 -2.66792E-01 +2.33755E+00 +7.29727E-02 +3.16394E+00 +4.65247E-01 +3.45210E+00 +7.71745E-01 +3.17945E+00
 +8.72107E-01 +2.42284E+00 +6.91689E-01 +1.34070E+00 +2.19805E-01 +1.41541E-01 -4.84886E-01 -9.55330E-01
 -1.30299E+00 -1.76038E+00 -2.07583E+00 -2.14855E+00 -2.63621E+00 -2.08192E+00 -2.84318E+00 -1.61613E+00
 -2.61419E+00 -8.88563E-01 -1.94791E+00 -9.00632E-02 -9.32022E-01 +5.75201E-01 +2.67077E-01 +9.34071E-01
 +1.43253E+00 +8.83916E-01 +2.33890E+00 +4.18479E-01 +2.80000E+00 -3.66541E-01 +2.71253E+00 -1.29085E+00
 +2.08538E+00 -2.12752E+00 +1.04623E+00 -2.65424E+00 -1.78031E-01 -2.70679E+00 -1.30536E+00 -2.22218E+00
 -2.05891E+00 -1.26043E+00 -2.23110E+00 +1.83854E-03 -1.73677E+00 +1.30638E+00 -6.41799E-01 +2.37045E+00
 +8.41325E-01 +2.95348E+00 +2.39258E+00 +2.91765E+00 +3.65142E+00 +2.26696E+00 +4.29771E+00 +1.15380E+00
 +4.12846E+00 -1.50741E-01 +3.11176E+00 -1.31768E+00 +1.40392E+00 -2.03884E+00 -6.76307E-01 -2.10496E+00
 -2.71261E+00 -1.46368E+00 -4.28141E+00 -2.41827E-01 -5.04755E+00 +1.27564E+00 -4.84271E+00 +2.70731E+00
 -3.70757E+00 +3.66455E+00 -1.88647E+00 +3.84773E+00 +2.25492E-01 +3.12609E+00 +2.17140E+00 +1.58080E+00
 +3.53715E+00 -5.01187E-01 +4.04700E+00 -2.68343E+00 +3.62682E+00 -4.47494E+00 +2.41959E+00 -5.44264E+00
 +7.48784E-01 -5.31501E+00 -9.61906E-01 -4.05197E+00 -2.29315E+00 -1.86319E+00 -2.93332E+00 +8.30820E-01
 -2.75501E+00 +3.48701E+00 -1.84564E+00 +5.55783E+00 -4.84203E-01 +6.61173E+00 +9.30519E-01 +6.42825E+00
 +1.98246E+00 +5.04532E+00 +2.34623E+00 +2.74812E+00 +1.87327E+00 +2.36675E-03 +6.34595E-01 -2.65163E+00
 -1.09138E+00 -4.71882E+00 -2.88311E+00 -5.85476E+00 -4.27711E+00 -5.93217E+00 -4.88117E+00 -5.05430E+00
 -4.47180E+00 -3.51409E+00 -3.05205E+00 -1.71122E+00 -8.55457E-01 -4.93297E-02 +1.70457E+00 +1.16032E+00
 +4.12750E+00 +1.76500E+00 +5.93769E+00 +1.79130E+00 +6.78862E+00 +1.41776E+00 +6.53476E+00 +9.08911E-01
 +5.25501E+00 +5.30379E-01 +3.22413E+00 +4.68880E-01 +8.41388E-01 +7.78847E-01 -1.46400E+00 +1.36964E+00
 -3.32628E+00 +2.03575E+00 -4.51271E+00 +2.52055E+00 -4.95396E+00 +2.59497E+00 -4.73112E+00 +2.12858E+00
 -4.02722E+00 +1.13293E+00 -3.05982E+00 -2.35015E-01 -2.01581E+00 -1.71035E+00 -1.00736E+00 -2.98811E+00
 -6.05103E-02 -3.80244E+00 +8.62358E-01 -3.99492E+00 +1.81597E+00 -3.55287E+00 +2.81881E+00 -2.60724E+00
 +3.81267E+00 -1.39091E+00 +4.65114E+00 -1.69882E-01 +5.12411E+00 +8.32351E-01 +5.01409E+00 +1.49487E+00
 +4.16923E+00 +1.82572E+00 +2.57116E+00 +1.94641E+00 +3.75053E-01 +2.03863E+00 -2.09441E+00 +2.26923E+00
 -4.39620E+00 +2.71680E+00 -6.06627E+00 +3.32389E+00 -6.72962E+00 +3.89300E+00 -6.20228E+00 +4.13180E+00
 -4.55448E+00 +3.73891E+00 -2.11437E+00 +2.50814E+00 +5.93901E-01 +4.21421E-01 +2.96672E+00 -2.29927E+00
 +4.46582E+00 -5.20177E+00 +4.75539E+00 -7.68104E+00 +3.79529E+00 -9.11103E+00 +1.86308E+00 -9.00202E+00
 -5.05021E-01 -7.14418E+00 -2.64390E+00 -3.69800E+00 -3.93015E+00 +7.97493E-01 -3.95113E+00 +5.50917E+00
 -2.62827E+00 +9.47440E+00 -2.59123E-01 +1.18119E+01 +2.53748E+00 +1.19304E+01 +4.96532E+00 +9.68446E+00
 +6.25169E+00 +5.43548E+00 +5.85678E+00 -2.63791E-03 +3.63803E+00 -5.52651E+00 -7.60497E-02 -9.98201E+00
 -4.52749E+00 -1.24250E+01 -8.68299E+00 -1.23428E+01 -1.14693E+01 -9.78201E+00 -1.20356E+01 -5.34881E+00
 -9.98083E+00 -7.69712E-02 -5.48523E+00 +4.80812E+00 +6.88544E-01 +8.17638E+00 +7.33486E+00 +9.26288E+00
 +1.30574E+01 +7.85528E+00 +1.65802E+01 +4.35162E+00 +1.70453E+01 -3.28747E-01 +1.42272E+01 -4.96256E+00
 +8.60870E+00 -8.31861E+00 +1.29731E+00 -9.46200E+00 -6.20491E+00 -7.99257E+00 -1.23274E+01 -4.15807E+00
 -1.57803E+01 +1.18863E+00 -1.58455E+01 +6.78136E+00 -1.25424E+01 +1.12386E+01 -6.62706E+00 +1.33979E+01
 +5.76584E-01 +1.26057E+01 +7.47496E+00 +8.89347E+00 +1.25650E+01 +2.99300E+00 +1.47724E+01 -3.81483E+00
 +1.36894E+01 -9.98591E+00 +9.65739E+00 -1.40678E+01 +3.67506E+00 -1.50410E+01 -2.84430E+00 -1.25658E+01
 -8.40911E+00 -7.07584E+00 -1.17989E+01 +3.06523E-01 -1.23446E+01 +8.01322E+00 -1.00733E+01 +1.43783E+01
 -5.68609E+00 +1.80094E+01 -3.74701E-01 +1.80982E+01 +4.47603E+00 +1.45980E+01 +7.62801E+00 +8.22876E+00
 +8.28974E+00 +3.10071E-01 +6.30455E+00 -7.53744E+00 +2.18342E+00 -1.37524E+01 -3.02404E+00 -1.71711E+01
 -7.98745E+00 -1.72669E+01 -1.14193E+01 -1.42394E+01 -1.23860E+01 -8.93682E+00 -1.05320E+01 -2.63593E+00
 -6.16462E+00 +3.26530E+00 -1.81766E-01 +7.56693E+00 +6.13896E+00 +9.52391E+00 +1.14368E+01 +8.98325E+00
 +1.45795E+01 +6.37522E+00 +1.49157E+01 +2.56800E+00 +1.24123E+01 -1.37232E+00 +7.64624E+00 -4.45357E+00
 +1.65881E+00 -5.99367E+00 -4.28961E+00 -5.76513E+00 -9.00348E+00 -4.01762E+00 -1.16074E+01 -1.37927E+00
 -1.17154E+01 +1.33197E+00 -9.47991E+00 +3.33475E+00 -5.51657E+00 +4.08934E+00 -7.31506E-01 +3.42978E+00
 +3.90214E+00 +1.59296E+00 +7.56076E+00 -8.58513E-01 +9.72933E+00 -3.19506E+00 +1.02698E+01 -4.71631E+00
 +9.39097E+00 -4.93262E+00 +7.53864E+00 -3.68590E+00 +5.24175E+00 -1.18130E+00 +2.96148E+00 +2.07439E+00
 +9.83517E-01 +5.40723E+00 -6.20499E-01 +8.14537E+00 -1.95804E+00 +9.77730E+00 -3.22477E+00 +1.00590E+01
 -4.59054E+00 +9.04541E+00 -6.10098E+00 +7.04273E+00 -7.62736E+00 +4.50142E+00 -8.88201E+00 +1.88289E+00
 -9.49613E+00 -4.59809E-01 -9.13732E+00 -2.35388E+00 -7.63113E+00 -3.81312E+00 -5.04832E+00 -4.98093E+00
 -1.72802E+00 -6.03164E+00 +1.77530E+00 -7.06460E+00 +4.81157E+00 -8.02796E+00 +6.79200E+00 -8.70045E+00
