 Created: 19-Jan-2021
 $NMID
 ID='D:\BASISSIMULATI'
 FMTDAT='(8E13.5)'
 VOLUME=   1.00000E+00
 TRAMP=   1.00000E+00
 $END
 +5.45143E+01 -1.64608E+00 +4.44399E+01 +3.06373E+01 +1.64800E+01 +4.89212E+01 -1.58355E+01 +4.51294E+01
 -3.71259E+01 +2.21095E+01 -3.78380E+01 -7.95027E+00 -1.88984E+01 -2.97755E+01 +8.97810E+00 -3.27186E+01
 +3.09026E+01 -1.60092E+01 +3.54369E+01 +1.10840E+01 +2.03293E+01 +3.41854E+01 -6.52771E+00 +4.12548E+01
 -3.13346E+01 +2.87088E+01 -4.15782E+01 +3.11194E+00 -3.24572E+01 -2.23678E+01 -9.25221E+00 -3.48564E+01
 +1.55318E+01 -2.84412E+01 +2.87311E+01 -7.17914E+00 +2.33840E+01 +1.70738E+01 +2.35095E+00 +3.08596E+01
 -2.31539E+01 +2.61304E+01 -3.93451E+01 +4.46334E+00 -3.69766E+01 -2.36768E+01 -1.61348E+01 -4.42375E+01
 +1.37337E+01 -4.67174E+01 +3.85551E+01 -2.94980E+01 +4.66968E+01 -6.64787E-01 +3.47714E+01 +2.60746E+01
 +9.24663E+00 +3.82709E+01 -1.69129E+01 +3.09100E+01 -3.08222E+01 +8.77495E+00 -2.61090E+01 -1.61504E+01
 -5.95872E+00 -3.08537E+01 +1.87149E+01 -2.78672E+01 +3.49656E+01 -8.90924E+00 +3.44241E+01 +1.61987E+01
 +1.74487E+01 +3.47075E+01 -7.24908E+00 +3.75012E+01 -2.72349E+01 +2.36775E+01 -3.28017E+01 +8.39179E-01
 -2.19098E+01 -1.89816E+01 -1.10674E+00 -2.56144E+01 +1.79892E+01 -1.59973E+01 +2.47840E+01 +4.30331E+00
 +1.52199E+01 +2.40414E+01 -6.12076E+00 +3.21516E+01 -2.83732E+01 +2.34900E+01 -3.99682E+01 +1.51416E+00
 -3.45544E+01 -2.34491E+01 -1.42422E+01 -3.94317E+01 +1.14645E+01 -3.88625E+01 +3.04674E+01 -2.23425E+01
 +3.41387E+01 +1.73342E+00 +2.15696E+01 +2.14688E+01 -1.17802E-01 +2.74556E+01 -1.94942E+01 +1.74152E+01
 -2.66404E+01 -2.82786E+00 -1.80863E+01 -2.24642E+01 +1.60244E+00 -3.12596E+01 +2.23250E+01 -2.47004E+01
 +3.36847E+01 -6.12980E+00 +3.02548E+01 +1.51420E+01 +1.41998E+01 +2.87103E+01 -6.02444E+00 +2.83912E+01
 -2.01482E+01 +1.52642E+01 -2.13949E+01 -3.06444E+00 -9.89088E+00 -1.65283E+01 +7.53378E+00 -1.78569E+01
 +2.09904E+01 -6.30980E+00 +2.27025E+01 +1.20023E+01 +1.10322E+01 +2.73253E+01 -8.68471E+00 +3.13116E+01
 -2.68825E+01 +2.13083E+01 -3.46468E+01 +1.70431E+00 -2.82235E+01 -1.83129E+01 -1.08694E+01 -2.94090E+01
 +8.85595E+00 -2.67727E+01 +2.14426E+01 -1.24441E+01 +2.11877E+01 +5.83671E+00 +8.95377E+00 +1.86181E+01
 -8.42345E+00 +1.95013E+01 -2.17097E+01 +8.26579E+00 -2.39657E+01 -9.18104E+00 -1.39696E+01 -2.39313E+01
 +3.32343E+00 -2.86316E+01 +1.94452E+01 -2.11325E+01 +2.67747E+01 -5.41447E+00 +2.23488E+01 +1.06092E+01
 +9.20565E+00 +1.92178E+01 -5.35535E+00 +1.67939E+01 -1.36353E+01 +5.53888E+00 -1.15016E+01 -7.82784E+00
 -4.32443E-01 -1.56506E+01 +1.33587E+01 -1.33222E+01 +2.22122E+01 -1.62847E+00 +2.09971E+01 +1.37118E+01
 +9.73150E+00 +2.50235E+01 -6.46116E+00 +2.66080E+01 -1.99898E+01 +1.76142E+01 -2.46430E+01 +2.41174E+00
 -1.86758E+01 -1.16751E+01 -5.59229E+00 -1.80786E+01 +7.72237E+00 -1.42404E+01 +1.45212E+01 -2.78224E+00
 +1.15588E+01 +9.94683E+00 +6.13627E-01 +1.71505E+01 -1.25462E+01 +1.49985E+01 -2.11645E+01 +4.45679E+00
 -2.09029E+01 -9.33775E+00 -1.19299E+01 -1.97716E+01 +1.31542E+00 -2.21010E+01 +1.24933E+01 -1.57473E+01
 +1.66047E+01 -4.42106E+00 +1.24422E+01 +5.91714E+00 +3.04036E+00 +1.01595E+01 -6.03903E+00 +6.61295E+00
 -9.64763E+00 -2.26008E+00 -5.68843E+00 -1.12405E+01 +3.88008E+00 -1.51183E+01 +1.41363E+01 -1.13794E+01
 +1.97718E+01 -1.45301E+00 +1.78048E+01 +1.00761E+01 +9.05240E+00 +1.78365E+01 -2.34986E+00 +1.83814E+01
 -1.10860E+01 +1.18651E+01 -1.33338E+01 +1.86963E+00 -8.61621E+00 -6.47916E+00 +7.38377E-02 -9.10923E+00
 +7.88385E+00 -4.99221E+00 +1.05861E+01 +3.45067E+00 +6.66505E+00 +1.16757E+01 -2.01960E+00 +1.53536E+01
 -1.12742E+01 +1.25143E+01 -1.67324E+01 +4.43678E+00 -1.60165E+01 -5.11048E+00 -9.82014E+00 -1.18331E+01
 -1.41772E+00 -1.30498E+01 +5.08756E+00 -8.93052E+00 +6.84731E+00 -2.25475E+00 +3.62472E+00 +3.12549E+00
 -2.22393E+00 +4.28936E+00 -7.07432E+00 +6.91183E-01 -7.94330E+00 -5.65797E+00 -3.99663E+00 -1.13100E+01
 +3.08751E+00 -1.31841E+01 +1.00364E+01 -1.01193E+01 +1.36703E+01 -3.40733E+00 +1.24817E+01 +3.92411E+00
 +7.32298E+00 +8.66601E+00 +8.92132E-01 +9.01240E+00 -3.67323E+00 +5.38340E+00 -4.35876E+00 +1.11140E-01
 -1.21000E+00 -3.80449E+00 +3.79165E+00 -4.21146E+00 +7.80163E+00 -8.30373E-01 +8.55761E+00 +4.69293E+00
 +5.46631E+00 +9.68372E+00 -1.83931E-01 +1.17926E+01 -5.94193E+00 +1.01178E+01 -9.43842E+00 +5.55731E+00
 -9.51586E+00 +2.63887E-01 -6.69634E+00 -3.47583E+00 -2.79959E+00 -4.35270E+00 +4.68604E-02 -2.59177E+00
 +4.79433E-01 +2.82836E-01 -1.48078E+00 +2.30700E+00 -4.53427E+00 +2.09517E+00 -6.83615E+00 -4.94297E-01
 -6.95346E+00 -4.35180E+00 -4.56105E+00 -7.72783E+00 -5.51209E-01 -9.12235E+00 +3.45785E+00 -7.99858E+00
 +5.93469E+00 -4.98499E+00 +6.15204E+00 -1.50285E+00 +4.46907E+00 +9.59945E-01 +2.07481E+00 +1.55333E+00
 +3.57036E-01 +4.12294E-01 +2.26871E-01 -1.49052E+00 +1.72356E+00 -2.87619E+00 +4.06226E+00 -2.79146E+00
 +6.06373E+00 -1.03552E+00 +6.73059E+00 +1.79929E+00 +5.68897E+00 +4.65521E+00 +3.30537E+00 +6.51829E+00
 +4.58565E-01 +6.85758E+00 -1.89285E+00 +5.80245E+00 -3.12926E+00 +4.00773E+00 -3.18948E+00 +2.30379E+00
 -2.51767E+00 +1.31329E+00 -1.79559E+00 +1.20822E+00 -1.60502E+00 +1.69538E+00 -2.17625E+00 +2.20691E+00
 -3.31906E+00 +2.18741E+00 -4.54194E+00 +1.34368E+00 -5.28621E+00 -2.41576E-01 -5.16619E+00 -2.16167E+00
 -4.11975E+00 -3.86368E+00 -2.42130E+00 -4.87036E+00 -5.65164E-01 -4.95910E+00 +9.27738E-01 -4.23614E+00
 +1.70625E+00 -3.08529E+00 +1.71800E+00 -2.01361E+00 +1.22481E+00 -1.45011E+00 +6.96062E-01 -1.57074E+00
 +6.14405E-01 -2.21762E+00 +1.26444E+00 -2.95148E+00 +2.58938E+00 -3.22768E+00 +4.18368E+00 -2.63386E+00
 +5.43960E+00 -1.09184E+00 +5.79927E+00 +1.07035E+00 +5.00892E+00 +3.22380E+00 +3.25768E+00 +4.69122E+00
 +1.12415E+00 +5.04318E+00 -6.62004E-01 +4.30149E+00 -1.54514E+00 +2.94404E+00 -1.40491E+00 +1.69280E+00
 -6.20949E-01 +1.17262E+00 +1.04833E-01 +1.60031E+00 +9.60209E-02 +2.66148E+00 -9.44646E-01 +3.64960E+00
 -2.75491E+00 +3.81343E+00 -4.60916E+00 +2.74892E+00 -5.65950E+00 +6.37266E-01 -5.36170E+00 -1.80294E+00
 -3.77185E+00 -3.64259E+00 -1.55329E+00 -4.19614E+00 +3.26749E-01 -3.37648E+00 +1.07148E+00 -1.76200E+00
 +4.64625E-01 -3.26318E-01 -9.98285E-01 +4.73038E-02 -2.33853E+00 -9.72981E-01 -2.58155E+00 -2.96946E+00
 -1.26385E+00 -4.95312E+00 +1.29995E+00 -5.84239E+00 +4.13603E+00 -5.00888E+00 +6.06926E+00 -2.61358E+00
 +6.29745E+00 +4.44505E-01 +4.79326E+00 +2.95204E+00 +2.32524E+00 +3.97102E+00 +7.99349E-02 +3.29830E+00
 -9.29582E-01 +1.55916E+00 -3.70360E-01 -1.17561E-01 +1.24826E+00 -6.81753E-01 +2.84349E+00 +2.93992E-01
 +3.32494E+00 +2.38854E+00 +2.16877E+00 +4.54407E+00 -2.96412E-01 +5.61054E+00 -3.04296E+00 +4.94479E+00
 -4.86244E+00 +2.75440E+00 -4.98437E+00 +5.27772E-03 -3.47613E+00 -2.06428E+00 -1.21433E+00 -2.57585E+00
 +5.62275E-01 -1.46371E+00 +8.91353E-01 +4.87785E-01 -4.11030E-01 +2.04590E+00 -2.64549E+00 +2.16690E+00
 -4.57893E+00 +5.42582E-01 -5.07209E+00 -2.22580E+00 -3.66481E+00 -4.91760E+00 -8.19297E-01 -6.30007E+00
 +2.30299E+00 -5.74351E+00 +4.41625E+00 -3.53110E+00 +4.74317E+00 -7.07966E-01 +3.38418E+00 +1.44986E+00
 +1.23916E+00 +2.07227E+00 -4.71556E-01 +1.11292E+00 -8.35953E-01 -6.60650E-01 +2.94938E-01 -2.09075E+00
 +2.25522E+00 -2.24172E+00 +3.93315E+00 -8.82036E-01 +4.36185E+00 +1.40903E+00 +3.22191E+00 +3.55736E+00
 +9.97640E-01 +4.56033E+00 -1.28714E+00 +4.00484E+00 -2.60847E+00 +2.26912E+00 -2.47125E+00 +3.09534E-01
 -1.15305E+00 -8.49134E-01 +4.58542E-01 -6.49236E-01 +1.34312E+00 +7.17041E-01 +8.85407E-01 +2.41993E+00
 -8.06186E-01 +3.43342E+00 -2.96065E+00 +3.07072E+00 -4.54536E+00 +1.33537E+00 -4.79236E+00 -1.08796E+00
 -3.57663E+00 -3.18844E+00 -1.45775E+00 -4.13731E+00 +6.24170E-01 -3.68465E+00 +1.82903E+00 -2.24712E+00
 +1.82066E+00 -6.56327E-01 +8.91860E-01 +2.86254E-01 -2.37946E-01 +2.08994E-01 -8.28781E-01 -6.78614E-01
 -5.06863E-01 -1.74603E+00 +5.68476E-01 -2.30955E+00 +1.83110E+00 -2.00121E+00 +2.64160E+00 -9.43074E-01
 +2.63658E+00 +3.53330E-01 +1.90482E+00 +1.29103E+00 +9.05718E-01 +1.51764E+00 +1.89873E-01 +1.09986E+00
 +8.68677E-02 +4.55458E-01 +5.34606E-01 +9.40553E-02 +1.13751E+00 +3.20692E-01 +1.40943E+00 +1.06977E+00
 +1.05607E+00 +1.95595E+00 +1.36144E-01 +2.50301E+00 -9.83725E-01 +2.41296E+00 -1.84473E+00 +1.72120E+00
 -2.15084E+00 +7.55221E-01 -1.91480E+00 -6.89997E-02 -1.41662E+00 -4.86137E-01 -1.00911E+00 -5.13778E-01
 -8.94592E-01 -4.03997E-01 -1.01084E+00 -4.51692E-01 -1.09421E+00 -7.84059E-01 -8.77555E-01 -1.26628E+00
 -2.95029E-01 -1.58618E+00 +4.41155E-01 -1.46806E+00 +9.50529E-01 -8.81532E-01 +9.22821E-01 -1.06393E-01
 +3.40834E-01 +4.02470E-01 -4.58248E-01 +2.84187E-01 -9.40550E-01 -4.81483E-01 -6.78748E-01 -1.50736E+00
 +3.69383E-01 -2.17405E+00 +1.77930E+00 -1.96839E+00 +2.84579E+00 -8.00392E-01 +2.95537E+00 +8.91274E-01
 +1.94607E+00 +2.32874E+00 +2.44421E-01 +2.79837E+00 -1.32004E+00 +2.05564E+00 -1.94543E+00 +4.99690E-01
 -1.30868E+00 -1.00187E+00 +2.17563E-01 -1.56755E+00 +1.72462E+00 -8.00780E-01 +2.24397E+00 +9.46029E-01
 +1.29601E+00 +2.71030E+00 -7.92308E-01 +3.41492E+00 -2.99840E+00 +2.47034E+00 -4.11562E+00 +1.53927E-01
 -3.41158E+00 -2.46350E+00 -1.07812E+00 -4.03882E+00 +1.79263E+00 -3.67172E+00 +3.72954E+00 -1.43375E+00
 +3.65177E+00 +1.59310E+00 +1.48347E+00 +3.82567E+00 -1.73254E+00 +3.99763E+00 -4.31814E+00 +1.86332E+00
 -4.81842E+00 -1.60147E+00 -2.79582E+00 -4.64271E+00 +8.71875E-01 -5.61660E+00 +4.37989E+00 -3.87274E+00
 +5.90295E+00 -1.57695E-01 +4.56358E+00 +3.70440E+00 +9.47642E-01 +5.72306E+00 -3.13277E+00 +4.78916E+00
 -5.54163E+00 +1.30679E+00 -4.93894E+00 -2.94926E+00 -1.53181E+00 -5.71322E+00 +2.96207E+00 -5.41237E+00
 +6.15741E+00 -2.03940E+00 +6.24056E+00 +2.76680E+00 +2.96424E+00 +6.51250E+00 -2.14274E+00 +7.13287E+00
 -6.49884E+00 +4.10909E+00 -7.78508E+00 -1.18186E+00 -5.18185E+00 -6.10466E+00 +1.31151E-01 -8.09670E+00
 +5.50812E+00 -6.01879E+00 +8.16571E+00 -8.12902E-01 +6.63866E+00 +4.90895E+00 +1.60001E+00 +8.17126E+00
 -4.41162E+00 +7.18386E+00 -8.25651E+00 +2.32643E+00 -7.82213E+00 -3.97106E+00 -3.17170E+00 -8.43075E+00
