 Created: 16-Jan-2021
 $NMID
 ID='D:\BASISSIMULATI'
 FMTDAT='(8E13.5)'
 VOLUME=   1.00000E+00
 TRAMP=   1.00000E+00
 $END
 +6.59110E+00 +7.72436E-03 +5.03143E+00 +3.70413E+00 +1.55310E+00 +5.26756E+00 -1.77299E+00 +4.07460E+00
 -3.12027E+00 +1.13970E+00 -1.96518E+00 -1.59682E+00 +7.05941E-01 -2.47966E+00 +3.09975E+00 -1.08348E+00
 +3.73120E+00 +1.64877E+00 +2.25135E+00 +4.07958E+00 -4.69645E-01 +4.88194E+00 -2.96800E+00 +3.75108E+00
 -4.07027E+00 +1.44715E+00 -3.49345E+00 -7.65003E-01 -1.86225E+00 -1.87175E+00 -2.27869E-01 -1.60592E+00
 +5.57191E-01 -4.52747E-01 +2.38838E-01 +7.42764E-01 -8.31354E-01 +1.27216E+00 -1.99419E+00 +8.79075E-01
 -2.65595E+00 -2.20551E-01 -2.53236E+00 -1.53912E+00 -1.69182E+00 -2.57526E+00 -4.52106E-01 -2.99868E+00
 +7.71697E-01 -2.72381E+00 +1.60432E+00 -1.90101E+00 +1.81872E+00 -8.59364E-01 +1.41556E+00 -7.27394E-03
 +6.48910E-01 +3.12242E-01 -4.46676E-02 -1.92823E-02 -2.26538E-01 -7.99843E-01 +3.14861E-01 -1.55738E+00
 +1.41010E+00 -1.76404E+00 +2.54491E+00 -1.12517E+00 +3.10471E+00 +2.19535E-01 +2.71332E+00 +1.72182E+00
 +1.47205E+00 +2.69445E+00 -5.78089E-02 +2.68915E+00 -1.14292E+00 +1.76531E+00 -1.28472E+00 +4.80089E-01
 -5.10315E-01 -4.11232E-01 +6.30135E-01 -3.81357E-01 +1.36842E+00 +5.62195E-01 +1.15579E+00 +1.87187E+00
 -1.86203E-02 +2.76498E+00 -1.61359E+00 +2.66636E+00 -2.83538E+00 +1.53534E+00 -3.08014E+00 -1.09019E-01
 -2.26750E+00 -1.47737E+00 -8.78351E-01 -1.94757E+00 +3.20202E-01 -1.40274E+00 +7.03706E-01 -2.82768E-01
 +1.30984E-01 +6.73940E-01 -9.90693E-01 +8.47935E-01 -1.94556E+00 +8.04244E-02 -2.11408E+00 -1.24811E+00
 -1.31460E+00 -2.43904E+00 +1.04975E-01 -2.86646E+00 +1.46904E+00 -2.31768E+00 +2.15008E+00 -1.09720E+00
 +1.90620E+00 +1.55700E-01 +9.95823E-01 +8.26147E-01 +1.44635E-02 +6.55731E-01 -4.46499E-01 -1.34195E-01
 -1.23924E-01 -9.87615E-01 +7.87754E-01 -1.33603E+00 +1.76437E+00 -9.12363E-01 +2.25428E+00 +1.15710E-01
 +1.98001E+00 +1.25683E+00 +1.07401E+00 +1.97698E+00 -1.56317E-02 +1.98669E+00 -7.83224E-01 +1.37768E+00
 -9.35845E-01 +5.45607E-01 -5.29401E-01 -4.33142E-02 +9.17361E-02 -1.03821E-01 +5.02278E-01 +3.34317E-01
 +4.27396E-01 +9.69908E-01 -1.25884E-01 +1.41159E+00 -8.95523E-01 +1.38855E+00 -1.51911E+00 +8.79231E-01
 -1.72392E+00 +1.01651E-01 -1.45324E+00 -6.14461E-01 -8.74066E-01 -9.97108E-01 -2.76044E-01 -9.56235E-01
 +7.78722E-02 -6.08553E-01 +7.34332E-02 -2.02309E-01 -2.13807E-01 +1.27220E-02 -5.69484E-01 -9.47607E-02
 -7.52659E-01 -4.81389E-01 -6.14149E-01 -9.57892E-01 -1.66699E-01 -1.28534E+00 +4.23609E-01 -1.29221E+00
 +9.19213E-01 -9.57315E-01 +1.12694E+00 -4.19343E-01 +9.91983E-01 +9.19409E-02 +6.23385E-01 +3.69860E-01
 +2.37079E-01 +3.33766E-01 +4.41021E-02 +6.79570E-02 +1.40961E-01 -2.24789E-01 +4.59820E-01 -3.32057E-01
 +8.05837E-01 -1.46067E-01 +9.62606E-01 +2.77823E-01 +8.09340E-01 +7.50365E-01 +3.86347E-01 +1.04988E+00
 -1.26694E-01 +1.04076E+00 -5.07384E-01 +7.44560E-01 -6.08882E-01 +3.25452E-01 -4.35243E-01 -7.43216E-04
 -1.33711E-01 -8.31382E-02 +8.99707E-02 +8.58642E-02 +8.53668E-02 +3.71958E-01 -1.62210E-01 +5.77126E-01
 -5.27216E-01 +5.50112E-01 -8.15590E-01 +2.68470E-01 -8.71726E-01 -1.51336E-01 -6.61955E-01 -5.19232E-01
 -2.90110E-01 -6.74962E-01 +6.14707E-02 -5.72817E-01 +2.31766E-01 -3.02371E-01 +1.66753E-01 -3.55017E-02
 -5.52505E-02 +6.99293E-02 -2.71176E-01 -4.36236E-02 -3.26365E-01 -3.04165E-01 -1.61305E-01 -5.53215E-01
 +1.55979E-01 -6.36345E-01 +4.69290E-01 -4.90251E-01 +6.22614E-01 -1.77687E-01 +5.47343E-01 +1.48862E-01
 +2.99139E-01 +3.33561E-01 +2.41250E-02 +3.04175E-01 -1.25515E-01 +1.10172E-01 -7.76693E-02 -1.09091E-01
 +1.21160E-01 -2.06743E-01 +3.36157E-01 -1.13152E-01 +4.24511E-01 +1.25741E-01 +3.18367E-01 +3.77553E-01
 +6.25528E-02 +5.01592E-01 -2.13398E-01 +4.29681E-01 -3.70895E-01 +2.03166E-01 -3.40699E-01 -5.36756E-02
 -1.59201E-01 -2.06355E-01 +5.64145E-02 -1.85852E-01 +1.77529E-01 -2.42629E-02 +1.36890E-01 +1.67965E-01
 -3.62116E-02 +2.67792E-01 -2.36370E-01 +2.09585E-01 -3.44199E-01 +2.01440E-02 -2.93849E-01 -1.99152E-01
 -1.08320E-01 -3.30973E-01 +1.15611E-01 -3.07493E-01 +2.62701E-01 -1.46406E-01 +2.63039E-01 +6.12854E-02
 +1.29002E-01 +2.03572E-01 -5.43207E-02 +2.09934E-01 -1.78926E-01 +8.91749E-02 -1.75369E-01 -7.81061E-02
 -5.11147E-02 -1.87481E-01 +1.15770E-01 -1.71318E-01 +2.23474E-01 -3.70681E-02 +2.06189E-01 +1.38780E-01
 +7.15476E-02 +2.57010E-01 -1.06145E-01 +2.54242E-01 -2.32031E-01 +1.38440E-01 -2.47368E-01 -1.95956E-02
 -1.61737E-01 -1.32272E-01 -4.17368E-02 -1.48896E-01 +3.48261E-02 -8.30099E-02 +2.83452E-02 +2.64331E-03
 -4.16791E-02 +4.12919E-02 -1.16035E-01 +5.82532E-03 -1.39616E-01 -7.80573E-02 -9.79295E-02 -1.55824E-01
 -2.14317E-02 -1.85527E-01 +4.28296E-02 -1.65640E-01 +6.89203E-02 -1.29812E-01 +6.97600E-02 -1.14676E-01
 +8.18643E-02 -1.27283E-01 +1.30153E-01 -1.38601E-01 +2.01860E-01 -1.08755E-01 +2.51912E-01 -2.41260E-02
 +2.37557E-01 +8.41356E-02 +1.56041E-01 +1.57446E-01 +5.46988E-02 +1.52636E-01 +2.13882E-03 +7.87485E-02
 +3.87169E-02 -1.85170E-03 +1.42073E-01 -1.28402E-02 +2.35138E-01 +8.16471E-02 +2.34635E-01 +2.46099E-01
 +1.08496E-01 +3.90310E-01 -9.76237E-02 +4.25120E-01 -2.84639E-01 +3.20816E-01 -3.60613E-01 +1.28788E-01
 -2.98137E-01 -4.87795E-02 -1.50984E-01 -1.21644E-01 -1.97813E-02 -6.59648E-02 +1.01703E-02 +6.37715E-02
 -8.11209E-02 +1.70887E-01 -2.40427E-01 +1.75514E-01 -3.76772E-01 +5.90008E-02 -4.14806E-01 -1.31002E-01
 -3.32939E-01 -3.12678E-01 -1.67151E-01 -4.15485E-01 +1.50576E-02 -4.11631E-01 +1.50113E-01 -3.20354E-01
 +2.03097E-01 -1.90531E-01 +1.74270E-01 -7.68705E-02 +9.25414E-02 -2.16697E-02 +4.43654E-03 -4.43235E-02
 -3.82667E-02 -1.35155E-01 +5.32022E-03 -2.53013E-01 +1.44790E-01 -3.32563E-01 +3.42233E-01 -3.07693E-01
 +5.15337E-01 -1.47390E-01 +5.69397E-01 +1.14110E-01 +4.49482E-01 +3.77028E-01 +1.84417E-01 +5.17572E-01
 -1.10207E-01 +4.56700E-01 -2.83553E-01 +2.17536E-01 -2.34756E-01 -6.94633E-02 +1.68253E-02 -2.28172E-01
 +3.24719E-01 -1.38043E-01 +4.87079E-01 +1.83389E-01 +3.63413E-01 +5.72182E-01 -3.11916E-02 +7.99434E-01
 -5.16251E-01 +7.02789E-01 -8.36330E-01 +2.91979E-01 -8.06431E-01 -2.39518E-01 -4.28474E-01 -6.12879E-01
 +9.46622E-02 -6.22158E-01 +4.64326E-01 -2.61323E-01 +4.56044E-01 +2.58729E-01 +5.68005E-02 +6.20995E-01
 -5.14398E-01 +5.83040E-01 -9.21855E-01 +1.24266E-01 -9.03650E-01 -5.29308E-01 -4.28730E-01 -1.02375E+00
 +2.73410E-01 -1.07649E+00 +8.33579E-01 -6.42992E-01 +9.49907E-01 +4.80395E-02 +5.63579E-01 +6.16508E-01
 -1.00070E-01 +7.44382E-01 -6.53237E-01 +3.59757E-01 -7.64223E-01 -3.16032E-01 -3.48810E-01 -8.88931E-01
 +3.76668E-01 -1.01431E+00 +1.01358E+00 -5.94401E-01 +1.20490E+00 +1.62739E-01 +8.37214E-01 +8.57953E-01
 +1.05329E-01 +1.12435E+00 -5.97189E-01 +8.32061E-01 -8.98235E-01 +1.58280E-01 -6.52425E-01 -5.15033E-01
 -1.65133E-02 -8.15177E-01 +6.43653E-01 -5.82176E-01 +9.57626E-01 +5.04461E-02 +7.49758E-01 +7.36878E-01
 +1.25733E-01 +1.11050E+00 -5.93836E-01 +9.77113E-01 -1.04821E+00 +4.08140E-01 -1.02182E+00 -3.07596E-01
 -5.45472E-01 -8.18359E-01 +1.30046E-01 -8.85505E-01 +6.64775E-01 -4.94456E-01 +7.95494E-01 +1.46157E-01
 +4.58733E-01 +7.08859E-01 -1.81142E-01 +9.03077E-01 -8.07694E-01 +6.12810E-01 -1.09883E+00 -4.31633E-02
 -8.82052E-01 -7.57276E-01 -2.29415E-01 -1.17187E+00 +5.58545E-01 -1.05505E+00 +1.08612E+00 -4.32125E-01
 +1.06163E+00 +4.01505E-01 +4.65981E-01 +1.01114E+00 -4.07587E-01 +1.04754E+00 -1.08514E+00 +4.52041E-01
 -1.16387E+00 -4.80264E-01 -5.51684E-01 -1.23651E+00 +4.50573E-01 -1.36544E+00 +1.29283E+00 -7.48060E-01
 +1.48212E+00 +3.06360E-01 +8.79397E-01 +1.21470E+00 -1.96388E-01 +1.45115E+00 -1.13562E+00 +8.64201E-01
 -1.39057E+00 -2.17358E-01 -8.05084E-01 -1.16577E+00 +2.83083E-01 -1.42323E+00 +1.23776E+00 -8.36309E-01
 +1.50314E+00 +2.50891E-01 +9.34555E-01 +1.20487E+00 -1.22187E-01 +1.48394E+00 -1.04869E+00 +9.56669E-01
 -1.32910E+00 -3.58430E-02 -8.48226E-01 -9.03361E-01 +6.53201E-02 -1.16659E+00 +8.62384E-01 -7.27593E-01
 +1.10908E+00 +1.06544E-01 +7.23408E-01 +8.40095E-01 -1.93144E-02 +1.09134E+00 -6.88386E-01 +7.90763E-01
 -9.59041E-01 +1.71114E-01 -7.69341E-01 -4.12121E-01 -2.99240E-01 -6.93696E-01 +1.78658E-01 -6.13277E-01
 +4.58235E-01 -2.89023E-01 +4.73381E-01 +9.37935E-02 +2.72616E-01 +3.84481E-01 -4.77225E-02 +5.02318E-01
 -3.86177E-01 +4.19309E-01 -6.38163E-01 +1.43387E-01 -6.94049E-01 -2.65867E-01 -4.76188E-01 -6.71980E-01
 -1.03261E-02 -8.81789E-01 +5.29136E-01 -7.38195E-01 +8.67490E-01 -2.42484E-01 +7.78003E-01 +3.88354E-01
 +2.48507E-01 +8.02966E-01 -4.57403E-01 +7.17152E-01 -9.18115E-01 +1.16632E-01 -8.04415E-01 -6.85800E-01
 -1.09361E-01 -1.20604E+00 +8.05722E-01 -1.08182E+00 +1.40468E+00 -3.20071E-01 +1.30459E+00 +6.74115E-01
 +5.30942E-01 +1.32628E+00 -4.74907E-01 +1.24645E+00 -1.11561E+00 +4.82838E-01 -1.00765E+00 -4.94960E-01
 -2.25069E-01 -1.08111E+00 +7.42413E-01 -9.09204E-01 +1.29270E+00 -7.90130E-02 +1.08298E+00 +9.09398E-01
 +2.34279E-01 +1.46901E+00 -7.55621E-01 +1.28437E+00 -1.32667E+00 +4.90415E-01 -1.19389E+00 -4.31164E-01
 -4.98914E-01 -9.58753E-01 +3.04508E-01 -8.40329E-01 +7.41254E-01 -2.18035E-01 +5.91746E-01 +4.90652E-01
 -8.31872E-03 +8.60095E-01 -6.84142E-01 +6.98029E-01 -1.05913E+00 +1.24222E-01 -9.60244E-01 -5.35947E-01
 -4.80571E-01 -9.54055E-01 +1.10591E-01 -9.68747E-01 +5.32354E-01 -6.37993E-01 +6.29651E-01 -1.71474E-01
 +4.21189E-01 +1.94674E-01 +5.87253E-02 +3.06529E-01 -2.59297E-01 +1.41989E-01 -3.72750E-01 -1.99855E-01
 -2.16737E-01 -5.48329E-01 +1.57184E-01 -7.28296E-01 +5.97293E-01 -6.29301E-01 +9.06892E-01 -2.58970E-01
 +9.29501E-01 +2.44431E-01 +6.33205E-01 +6.60899E-01 +1.46847E-01 +7.92366E-01 -2.87702E-01 +5.75331E-01
 -4.38759E-01 +1.34955E-01 -2.21883E-01 -2.65938E-01 +2.33984E-01 -3.69421E-01 +6.44322E-01 -7.93321E-02
 +7.29596E-01 +4.66081E-01 +3.86909E-01 +9.61104E-01 -2.35665E-01 +1.10867E+00 -8.16153E-01 +8.01585E-01
 -1.04688E+00 +1.94595E-01 -8.20066E-01 -3.82563E-01 -2.94512E-01 -6.21299E-01 +2.00027E-01 -4.19121E-01
 +3.62438E-01 +6.12202E-02 +1.00200E-01 +4.94105E-01 -4.20191E-01 +5.89651E-01 -8.79662E-01 +2.65204E-01
