 Created: 16-Jan-2021
 $NMID
 ID='D:\BASISSIMULATI'
 FMTDAT='(8E13.5)'
 VOLUME=   1.00000E+00
 TRAMP=   1.00000E+00
 $END
 +5.52957E+00 +6.22558E-03 +3.63738E+00 +4.15558E+00 -7.24158E-01 +5.46794E+00 -4.58218E+00 +3.05778E+00
 -5.31378E+00 -1.42619E+00 -2.42917E+00 -4.92884E+00 +2.10049E+00 -5.07015E+00 +5.19005E+00 -1.76246E+00
 +4.74165E+00 +2.73574E+00 +1.06916E+00 +5.36183E+00 -3.32134E+00 +4.33427E+00 -5.44169E+00 +3.61180E-01
 -3.85534E+00 -3.84761E+00 +3.49382E-01 -5.42874E+00 +4.30590E+00 -3.31334E+00 +5.32367E+00 +1.05045E+00
 +2.71779E+00 +4.68878E+00 -1.73016E+00 +5.12872E+00 -4.99011E+00 +2.07907E+00 -4.84766E+00 -2.37709E+00
 -1.40825E+00 -5.20519E+00 +2.98040E+00 -4.48569E+00 +5.33081E+00 -7.16882E-01 +4.04936E+00 +3.53008E+00
 +1.68053E-02 +5.36526E+00 -4.01706E+00 +3.54645E+00 -5.30844E+00 -6.80046E-01 -2.98585E+00 -4.43338E+00
 +1.36186E+00 -5.16176E+00 +4.77233E+00 -2.37734E+00 +4.92816E+00 +2.01712E+00 +1.73152E+00 +5.02853E+00
 -2.63485E+00 +4.61204E+00 -5.19807E+00 +1.05954E+00 -4.21919E+00 -3.20473E+00 -3.72929E-01 -5.27848E+00
 +3.71734E+00 -3.75666E+00 +5.26885E+00 +3.16570E-01 +3.23266E+00 +4.16425E+00 -9.97236E-01 +5.16980E+00
 -4.53821E+00 +2.65639E+00 -4.98346E+00 -1.65756E+00 -2.03790E+00 -4.83322E+00 +2.28642E+00 -4.71342E+00
 +5.04469E+00 -1.38791E+00 +4.36470E+00 +2.87330E+00 +7.17602E-01 +5.16942E+00 -3.40844E+00 +3.94361E+00
 -5.20575E+00 +3.84730E-02 -3.45766E+00 -3.88303E+00 +6.37905E-01 -5.15350E+00 +4.28929E+00 -2.91543E+00
 +5.01399E+00 +1.30006E+00 +2.32641E+00 +4.62068E+00 -1.93682E+00 +4.79004E+00 -4.87194E+00 +1.70084E+00
 -4.48587E+00 -2.53749E+00 -1.04953E+00 -5.03921E+00 +3.09206E+00 -4.10705E+00 +5.12007E+00 -3.83655E-01
 +3.66038E+00 +3.59135E+00 -2.85393E-01 +5.11358E+00 -4.02714E+00 +3.15380E+00 -5.02029E+00 -9.46241E-01
 -2.59620E+00 -4.39237E+00 +1.58771E+00 -4.84221E+00 +4.68117E+00 -1.99731E+00 +4.58279E+00 +2.19900E+00
 +1.36750E+00 +4.88904E+00 -2.76988E+00 +4.24686E+00 -5.01283E+00 +7.17635E-01 -3.84049E+00 -3.29086E+00
 -5.88376E-02 -5.05089E+00 +3.75335E+00 -3.37095E+00 +5.00298E+00 +5.97655E-01 +2.84651E+00 +4.14978E+00
 -1.24071E+00 +4.87036E+00 -4.47375E+00 +2.27637E+00 -4.65569E+00 -1.85947E+00 -1.67043E+00 -4.72013E+00
 +2.44355E+00 -4.36304E+00 +4.88512E+00 -1.03916E+00 +3.99777E+00 +2.98320E+00 +3.93408E-01 +4.96633E+00
 -3.46950E+00 +3.56644E+00 -4.96280E+00 -2.55785E-01 -3.07671E+00 -3.89443E+00 +8.97379E-01 -4.87500E+00
 +4.25111E+00 -2.53719E+00 +4.70487E+00 +1.52052E+00 +1.95729E+00 +4.53381E+00 -2.11471E+00 +4.45569E+00
 -4.73809E+00 +1.34706E+00 -4.13210E+00 -2.67002E+00 -7.17019E-01 -4.86090E+00 +3.17719E+00 -3.73996E+00
 +4.90054E+00 -7.79573E-02 +3.28628E+00 +3.62788E+00 -5.59224E-01 +4.85677E+00 -4.01469E+00 +2.77906E+00
 -4.73074E+00 -1.18371E+00 -2.22720E+00 -4.33140E+00 +1.78497E+00 -4.52502E+00 +4.57296E+00 -1.64029E+00
 +4.24348E+00 +2.35290E+00 +1.02846E+00 +4.73565E+00 -2.87803E+00 +3.89129E+00 -4.81712E+00 +4.02235E-01
 -3.47479E+00 -3.35166E+00 +2.27679E-01 -4.81637E+00 +3.76599E+00 -3.00137E+00 +4.73384E+00 +8.50569E-01
 +2.47936E+00 +4.11429E+00 -1.45589E+00 +4.57133E+00 -4.39098E+00 +1.91786E+00 -4.33201E+00 -2.03346E+00
 -1.32661E+00 -4.59172E+00 +2.57360E+00 -4.02033E+00 +4.71348E+00 -7.15794E-01 +3.64194E+00 +3.06732E+00
 +9.58876E-02 +4.75459E+00 -3.50649E+00 +3.20360E+00 -4.71475E+00 -5.22539E-01 -2.71306E+00 -3.88390E+00
 +1.12899E+00 -4.59505E+00 +4.19348E+00 -2.17891E+00 +4.39792E+00 +1.71323E+00 +1.61043E+00 +4.43028E+00
 -2.26545E+00 +4.12709E+00 -4.59067E+00 +1.01746E+00 -3.78754E+00 -2.77643E+00 -4.10184E-01 -4.67230E+00
 +3.23770E+00 -3.38537E+00 +4.67418E+00 +2.01014E-01 +2.92773E+00 +3.64167E+00 -8.05734E-01 +4.59667E+00
 -3.98178E+00 +2.42267E+00 -4.44150E+00 -1.39374E+00 -1.87901E+00 -4.25257E+00 +1.95513E+00 -4.21168E+00
 +4.44979E+00 -1.30616E+00 +3.91149E+00 +2.48050E+00 +7.13996E-01 +4.57045E+00 -2.96112E+00 +3.54638E+00
 -4.61290E+00 +1.12682E-01 -3.12289E+00 -3.38905E+00 +4.87531E-01 -4.57680E+00 +3.75727E+00 -2.64848E+00
 +4.46316E+00 +1.07646E+00 +2.13148E+00 +4.05985E+00 -1.64415E+00 +4.27430E+00 -4.29197E+00 +1.58088E+00
 -4.01380E+00 -2.18107E+00 -1.00619E+00 -4.45004E+00 +2.67827E+00 -3.68645E+00 +4.53176E+00 -4.17298E-01
 +3.29814E+00 +3.12749E+00 -1.75728E-01 +4.53610E+00 -3.52135E+00 +2.85577E+00 -4.46340E+00 -7.62798E-01
 -2.36713E+00 -3.85344E+00 +1.33397E+00 -4.31526E+00 +4.11843E+00 -1.84074E+00 +4.09459E+00 +1.87963E+00
 +1.28572E+00 +4.31215E+00 -2.39063E+00 +3.80550E+00 -4.43168E+00 +7.11661E-01 -3.45323E+00 -2.85847E+00
 -1.28392E-01 -4.47535E+00 +3.27543E+00 -3.04408E+00 +4.44280E+00 +4.54133E-01 +2.58530E+00 +3.63467E+00
 -1.02603E+00 +4.33497E+00 -3.93040E+00 +2.08491E+00 -4.15407E+00 -1.57763E+00 -1.55163E+00 -4.15789E+00
 +2.09967E+00 -3.90353E+00 +4.31364E+00 -9.94676E-01 +3.58797E+00 +2.58345E+00 +4.23621E-01 +4.39536E+00
 -3.02092E+00 +3.21305E+00 -4.40202E+00 -1.51765E-01 -2.78546E+00 -3.40491E+00 +7.21688E-01 -4.33391E+00
 +3.72915E+00 -2.31270E+00 +4.19253E+00 +1.27650E+00 +1.80305E+00 +3.98843E+00 -1.80685E+00 +3.98068E+00
 -4.17869E+00 +1.26533E+00 -3.70228E+00 -2.30386E+00 -7.08822E-01 -4.29704E+00 +2.75926E+00 -3.36242E+00
 +4.34182E+00 -1.43067E-01 +2.96715E+00 +3.16551E+00 -4.22281E-01 +4.31264E+00 -3.51598E+00 +2.52349E+00
 -4.21038E+00 -9.77624E-01 -2.03919E+00 -3.80498E+00 +1.51358E+00 -4.03714E+00 +4.02792E+00 -1.52270E+00
 +3.79620E+00 +2.02115E+00 +9.82938E-01 +4.18134E+00 -2.49185E+00 +3.49201E+00 -4.26299E+00 +4.29191E-01
 -3.13005E+00 -2.91787E+00 +1.29067E-01 -4.27183E+00 +3.29221E+00 -2.71675E+00 +4.20809E+00 +6.82335E-01
 +2.25938E+00 +3.60877E+00 -1.22124E+00 +4.07322E+00 -3.86246E+00 +1.76594E+00 -3.86984E+00 -1.73671E+00
 -1.24499E+00 -4.04928E+00 +2.22010E+00 -3.60178E+00 +4.16641E+00 -7.05511E-01 +3.27389E+00 +2.66337E+00
 +1.56754E-01 +4.21220E+00 -3.05918E+00 +2.89205E+00 -4.18623E+00 -3.91914E-01 -2.46302E+00 -3.40106E+00
 +9.31175E-01 -4.08930E+00 +3.68348E+00 -1.99431E+00 +3.92342E+00 +1.45192E+00 +1.49409E+00 +3.90193E+00
 -1.94540E+00 +3.69174E+00 -4.05302E+00 +9.71003E-01 -3.39853E+00 -2.40337E+00 -4.34050E-01 -4.13453E+00
 +2.81823E+00 -3.04909E+00 +4.14542E+00 +1.07582E-01 +2.64961E+00 +3.18315E+00 -6.44672E-01 +4.08586E+00
 -3.49219E+00 +2.20715E+00 -3.95721E+00 -1.16812E+00 -1.72942E+00 -3.74038E+00 +1.66911E+00 -3.76202E+00
 +3.92380E+00 -1.22472E+00 +3.50391E+00 +2.13924E+00 +7.01758E-01 +4.03968E+00 -2.57069E+00 +3.18760E+00
 -4.08637E+00 +1.69498E-01 -2.81875E+00 -2.95632E+00 +3.62971E-01 -4.06344E+00 +3.28982E+00 -2.40388E+00
 +3.97162E+00 +8.86608E-01 +1.95027E+00 +3.56577E+00 -1.39256E+00 +3.81282E+00 -3.77980E+00 +1.46581E+00
 -3.59007E+00 -1.87233E+00 -9.58892E-01 -3.92856E+00 +2.31790E+00 -3.30747E+00 +4.00986E+00 -4.38233E-01
 +2.97012E+00 +2.72188E+00 -8.72581E-02 +4.02267E+00 -3.07761E+00 +2.58402E+00 -3.96710E+00 -6.08632E-01
 -2.15598E+00 -3.37929E+00 +1.11706E+00 -3.84444E+00 +3.62207E+00 -1.69348E+00 +3.65711E+00 +1.60396E+00
 +1.20454E+00 +3.80214E+00 -2.06119E+00 +3.40862E+00 -3.91673E+00 +6.97594E-01 -3.10349E+00 -2.48112E+00
 -1.81344E-01 -3.96423E+00 +2.85682E+00 -2.74720E+00 +3.94418E+00 +3.35396E-01 +2.34603E+00 +3.18212E+00
 -8.43850E-01 +3.85726E+00 -3.45175E+00 +1.90704E+00 -3.70526E+00 -1.33543E+00 -1.43787E+00 -3.66141E+00
 +1.80186E+00 -3.49111E+00 +3.80785E+00 -9.46627E-01 +3.21875E+00 +2.23536E+00 +4.41777E-01 +3.88889E+00
 -2.62872E+00 +2.89310E+00 -3.90348E+00 -6.80450E-02 -2.51995E+00 -2.97547E+00 +5.74155E-01 -3.85172E+00
 +3.26996E+00 -2.10588E+00 +3.73481E+00 +1.06798E+00 +1.65812E+00 +3.50744E+00 -1.54119E+00 +3.55506E+00
 -3.68417E+00 +1.18445E+00 -3.31584E+00 -1.98585E+00 -6.93045E-01 -3.79745E+00 +2.39457E+00 -3.02152E+00
 +3.84568E+00 -1.92334E-01 +2.67736E+00 +2.76057E+00 -3.09133E-01 +3.82836E+00 -3.07786E+00 +2.28946E+00
 -3.74611E+00 -8.02836E-01 -1.86463E+00 -3.34129E+00 +1.28043E+00 -3.60067E+00 +3.54666E+00 -1.41026E+00
 +3.39481E+00 +1.73389E+00 +9.34228E-01 +3.69078E+00 -2.15563E+00 +3.13233E+00 -3.77149E+00 +4.44715E-01
 -2.81798E+00 -2.53865E+00 +4.98952E-02 -3.78776E+00 +2.87663E+00 -2.45735E+00 +3.73963E+00 +5.41178E-01
 +2.05680E+00 +3.16408E+00 -1.02081E+00 +3.62823E+00 -3.39635E+00 +1.62334E+00 -3.45578E+00 -1.48070E+00
 -1.16447E+00 -3.56979E+00 +1.91314E+00 -3.22551E+00 +3.68173E+00 -6.88139E-01 +2.94162E+00 +2.31092E+00
 +2.02507E-01 +3.73060E+00 -2.66747E+00 +2.60920E+00 -3.71586E+00 -2.84129E-01 -2.23414E+00 -2.97693E+00
 +7.63500E-01 -3.63810E+00 +3.23429E+00 -1.82302E+00 +3.49895E+00 +1.22750E+00 +1.38301E+00 +3.43544E+00
 -1.66833E+00 +3.30109E+00 -3.57724E+00 +9.21714E-01 -3.04815E+00 -2.07862E+00 -4.47081E-01 -3.65758E+00
 +2.45156E+00 -2.74473E+00 +3.67540E+00 +3.27630E-02 +2.39621E+00 +2.78099E+00 -5.09645E-01 +3.63073E+00
 -3.06155E+00 +2.00875E+00 -3.52462E+00 -9.75482E-01 -1.58913E+00 -3.28871E+00 +1.42242E+00 -3.35920E+00
 +3.45889E+00 -1.14462E+00 +3.13756E+00 +1.84296E+00 +6.82900E-01 +3.56948E+00 -2.23009E+00 +2.86375E+00
 -3.61889E+00 +2.11902E-01 -2.54268E+00 -2.57742E+00 +2.60333E-01 -3.60661E+00 +2.87923E+00 -2.18004E+00
 +3.53314E+00 +7.25780E-01 +1.78221E+00 +3.13064E+00 -1.17657E+00 +3.40004E+00 -3.32763E+00 +1.35610E+00
 -3.20988E+00 -1.60512E+00 -9.09102E-01 -3.46712E+00 +2.00426E+00 -2.96616E+00 +3.54703E+00 -4.48907E-01
 +2.67329E+00 +2.36736E+00 -1.66041E-02 +3.56631E+00 -2.68845E+00 +2.33649E+00 -3.52494E+00 -4.79499E-01
 -1.96171E+00 -2.96227E+00 +9.31930E-01 -3.42391E+00 +3.18442E+00 -1.55549E+00 +3.26525E+00 +1.36627E+00
 +1.12489E+00 +3.35137E+00 -1.77523E+00 +3.05193E+00 -3.46058E+00 +6.77354E-01 -2.78786E+00 -2.15199E+00
 -2.20557E-01 -3.51047E+00 +2.49032E+00 -2.47777E+00 +3.50050E+00 +2.37696E-01 +2.12715E+00 +2.78466E+00
 -6.89614E-01 +3.43114E+00 -3.03024E+00 +1.74218E+00 -3.30386E+00 -1.12756E+00 -1.32955E+00 -3.22314E+00
 +1.54415E+00 -3.12112E+00 +3.36033E+00 -8.96410E-01 +2.88629E+00 +1.93244E+00 +4.50221E-01 +3.43977E+00
 -2.28597E+00 +2.60362E+00 -3.46040E+00 -1.37612E-03 -2.27816E+00 -2.59890E+00 +4.50686E-01 -3.42216E+00
