 Created: 16-Jan-2021
 $NMID
 ID='D:\BASISSIMULATI'
 FMTDAT='(8E13.5)'
 VOLUME=   1.00000E+00
 TRAMP=   1.00000E+00
 $END
 +6.71751E+00 +7.66450E-03 +4.36517E+00 +4.76317E+00 -6.89343E-01 +5.64510E+00 -4.08174E+00 +2.19252E+00
 -3.03593E+00 -2.24441E+00 +1.19180E+00 -3.53892E+00 +4.48817E+00 -4.84568E-01 +3.59831E+00 +4.14910E+00
 -9.55465E-01 +6.12182E+00 -5.34953E+00 +3.52405E+00 -5.87707E+00 -1.52713E+00 -2.23632E+00 -4.79205E+00
 +2.24028E+00 -3.68398E+00 +3.59147E+00 +4.64696E-01 +7.58193E-01 +3.64978E+00 -3.51157E+00 +2.80893E+00
 -5.16389E+00 -1.44329E+00 -2.48188E+00 -5.38855E+00 +2.38836E+00 -5.54242E+00 +5.36775E+00 -1.75467E+00
 +4.07621E+00 +2.68681E+00 -8.50622E-02 +4.00943E+00 -3.23697E+00 +1.30408E+00 -2.51257E+00 -2.71664E+00
 +1.39937E+00 -4.19456E+00 +4.91098E+00 -1.59274E+00 +4.76968E+00 +2.94620E+00 +9.59574E-01 +5.53557E+00
 -3.30899E+00 +4.01192E+00 -4.47762E+00 -1.69149E-01 -1.79032E+00 -3.27542E+00 +2.08883E+00 -2.64303E+00
 +3.50584E+00 +9.77240E-01 +1.09186E+00 +4.14549E+00 -3.04212E+00 +3.84232E+00 -5.22526E+00 +1.63253E-01
 -3.51113E+00 -3.79313E+00 +6.12877E-01 -4.70540E+00 +3.58825E+00 -1.96939E+00 +2.96499E+00 +1.81615E+00
 -4.53275E-01 +3.21293E+00 -3.38815E+00 +1.01210E+00 -3.05126E+00 -2.72855E+00 +3.73946E-01 -4.56882E+00
 +3.93111E+00 -2.77110E+00 +4.55144E+00 +1.17355E+00 +1.77383E+00 +3.90865E+00 -1.89091E+00 +3.20775E+00
 -3.23540E+00 -8.30673E-02 -1.20647E+00 -2.86083E+00 +2.20781E+00 -2.56680E+00 +3.80654E+00 +5.47918E-01
 +2.04791E+00 +3.69299E+00 -1.60252E+00 +4.05940E+00 -4.01559E+00 +1.31276E+00 -3.19296E+00 -2.15102E+00
 -8.10332E-03 -3.37232E+00 +2.62843E+00 -1.45004E+00 +2.38878E+00 +1.71230E+00 -4.24334E-01 +3.15949E+00
 -3.20400E+00 +1.53192E+00 -3.40110E+00 -1.75666E+00 -7.86859E-01 -3.82345E+00 +2.38568E+00 -2.89553E+00
 +3.41930E+00 +1.46825E-01 +1.55856E+00 +2.60540E+00 -1.39402E+00 +2.38613E+00 -2.73616E+00 -1.70192E-01
 -1.27872E+00 -2.65354E+00 +1.63799E+00 -2.77109E+00 +3.38975E+00 -3.77455E-01 +2.41974E+00 +2.44231E+00
 -4.09295E-01 +3.26280E+00 -2.63191E+00 +1.46276E+00 -2.38970E+00 -1.27593E+00 -4.75999E-02 -2.51264E+00
 +2.19381E+00 -1.21902E+00 +2.29371E+00 +1.35580E+00 +1.69689E-01 +2.85318E+00 -2.28155E+00 +1.91914E+00
 -2.90943E+00 -6.26203E-01 -1.21021E+00 -2.56799E+00 +1.27665E+00 -2.28153E+00 +2.38112E+00 -1.39363E-01
 +1.22614E+00 +1.88084E+00 -1.04634E+00 +1.98669E+00 -2.34770E+00 +1.40806E-01 -1.51235E+00 -1.96394E+00
 +7.05336E-01 -2.44953E+00 +2.35418E+00 -9.09853E-01 +2.03623E+00 +1.27986E+00 +1.11937E-01 +2.22684E+00
 -1.67811E+00 +1.19382E+00 -1.78656E+00 -8.00708E-01 -2.04585E-01 -1.94195E+00 +1.59102E+00 -1.23875E+00
 +1.98931E+00 +6.40244E-01 +6.61128E-01 +2.01560E+00 -1.20191E+00 +1.70462E+00 -1.98690E+00 +3.41710E-02
 -1.08164E+00 -1.50568E+00 +6.36213E-01 -1.60759E+00 +1.62919E+00 -2.74770E-01 +1.06712E+00 +1.24294E+00
 -4.84342E-01 +1.59486E+00 -1.62174E+00 +5.08982E-01 -1.36330E+00 -1.02248E+00 +1.90842E-02 -1.66455E+00
 +1.29660E+00 -9.12330E-01 +1.39394E+00 +5.14985E-01 +3.08470E-01 +1.35955E+00 -9.47145E-01 +9.38303E-01
 -1.27505E+00 -3.02075E-01 -4.41932E-01 -1.23587E+00 +7.71845E-01 -1.06683E+00 +1.30355E+00 +7.86116E-03
 +7.36183E-01 +1.02770E+00 -3.86034E-01 +1.13803E+00 -1.08465E+00 +3.11286E-01 -8.08161E-01 -6.86402E-01
 +1.31143E-01 -1.00152E+00 +8.85644E-01 -4.21547E-01 +8.28937E-01 +4.94885E-01 +6.58075E-02 +9.49236E-01
 -7.14955E-01 +5.92760E-01 -8.65156E-01 -2.19456E-01 -3.13022E-01 -7.84795E-01 +4.29312E-01 -6.65906E-01
 +7.42229E-01 -2.56184E-02 +4.16075E-01 +5.65380E-01 -2.20566E-01 +6.34406E-01 -6.23741E-01 +1.77948E-01
 -4.93823E-01 -3.87546E-01 +1.46213E-02 -6.04490E-01 +4.68096E-01 -3.38481E-01 +5.24605E-01 +1.57021E-01
 +1.83583E-01 +4.83457E-01 -2.57932E-01 +4.15765E-01 -4.63920E-01 +4.57322E-02 -3.07820E-01 -3.26281E-01
 +6.47608E-02 -4.31162E-01 +3.70104E-01 -2.13995E-01 +3.94264E-01 +1.51668E-01 +1.30296E-01 +3.99945E-01
 -2.29295E-01 +3.54853E-01 -4.25945E-01 +4.56920E-02 -3.09879E-01 -3.09962E-01 +4.93858E-02 -4.48791E-01
 +3.94858E-01 -2.49012E-01 +4.55137E-01 +1.62060E-01 +1.54824E-01 +4.75489E-01 -2.97247E-01 +4.24755E-01
 -5.39928E-01 +1.27899E-02 -3.43266E-01 -4.51153E-01 +1.74586E-01 -5.73482E-01 +6.01329E-01 -2.07581E-01
 +5.53486E-01 +3.83440E-01 +2.03643E-02 +7.06586E-01 -5.79868E-01 +4.50169E-01 -7.24043E-01 -2.15224E-01
 -2.42924E-01 -7.35605E-01 +4.87690E-01 -6.32312E-01 +8.30711E-01 +5.67885E-02 +4.39771E-01 +7.60233E-01
 -3.98280E-01 +8.41079E-01 -9.66027E-01 +1.69960E-01 -7.30053E-01 -7.12710E-01 +1.58567E-01 -1.03212E+00
 +9.47080E-01 -4.65085E-01 +9.20220E-01 +5.31389E-01 +5.43584E-02 +1.07920E+00 -9.11919E-01 +6.49589E-01
 -1.09875E+00 -4.30522E-01 -2.77873E-01 -1.21918E+00 +8.76803E-01 -9.77831E-01 +1.34626E+00 +1.43358E-01
 +6.72754E-01 +1.18874E+00 -5.91783E-01 +1.22010E+00 -1.33235E+00 +1.70844E-01 -8.55641E-01 -1.04721E+00
 +4.56700E-01 -1.32343E+00 +1.44073E+00 -3.50076E-01 +1.17090E+00 +1.05667E+00 -1.85660E-01 +1.64386E+00
 -1.46866E+00 +8.39726E-01 -1.53260E+00 -6.96007E-01 -2.86655E-01 -1.61724E+00 +1.17930E+00 -1.08444E+00
 +1.53693E+00 +4.52694E-01 +4.17440E-01 +1.61276E+00 -1.21467E+00 +1.30199E+00 -1.88535E+00 -2.79425E-01
 -9.30035E-01 -1.76792E+00 +8.72540E-01 -1.82881E+00 +1.95327E+00 -3.66123E-01 +1.34582E+00 +1.34847E+00
 -4.19318E-01 +1.78282E+00 -1.74887E+00 +5.24622E-01 -1.39928E+00 -1.30938E+00 +3.82562E-01 -2.03853E+00
 +2.03451E+00 -9.26044E-01 +2.05293E+00 +1.12181E+00 +3.55648E-01 +2.32421E+00 -1.60198E+00 +1.60918E+00
 -2.09943E+00 -3.99406E-01 -6.98418E-01 -1.90261E+00 +1.32919E+00 -1.52493E+00 +2.11093E+00 +4.28620E-01
 +8.56553E-01 +2.20464E+00 -1.39523E+00 +2.15171E+00 -2.66662E+00 +2.18782E-01 -1.80274E+00 -1.95629E+00
 +4.67089E-01 -2.48267E+00 +2.14576E+00 -9.14626E-01 +1.74386E+00 +1.31814E+00 -3.65126E-01 +2.16562E+00
 -2.24492E+00 +8.00688E-01 -2.11678E+00 -1.60406E+00 +2.50666E-02 -2.89122E+00 +2.36565E+00 -1.84604E+00
 +2.86510E+00 +6.86741E-01 +1.08985E+00 +2.52197E+00 -1.37007E+00 +2.07607E+00 -2.30138E+00 -1.98381E-01
 -8.55160E-01 -2.19022E+00 +1.66259E+00 -2.01179E+00 +2.93307E+00 +2.87037E-01 +1.70280E+00 +2.72373E+00
 -1.06190E+00 +3.13313E+00 -3.00213E+00 +1.11337E+00 -2.46248E+00 -1.58440E+00 +1.36801E-02 -2.59938E+00
 +2.14758E+00 -1.07640E+00 +1.95919E+00 +1.54570E+00 -4.38620E-01 +2.80364E+00 -2.90798E+00 +1.42293E+00
 -3.18256E+00 -1.50742E+00 -9.09366E-01 -3.47347E+00 +2.00238E+00 -2.77263E+00 +3.06352E+00 -5.08234E-02
 +1.43010E+00 +2.25332E+00 -1.32540E+00 +2.08374E+00 -2.60990E+00 -3.77329E-01 -1.14182E+00 -2.84903E+00
 +1.87044E+00 -2.98580E+00 +3.77963E+00 -4.96133E-01 +2.86078E+00 +2.56120E+00 -1.27988E-01 +3.59203E+00
 -2.59882E+00 +1.78339E+00 -2.43807E+00 -1.15680E+00 +9.49161E-02 -2.51907E+00 +2.58670E+00 -1.02630E+00
 +2.63061E+00 +1.99913E+00 +3.72871E-03 +3.79853E+00 -3.09941E+00 +2.64664E+00 -4.00620E+00 -5.81431E-01
 -1.95487E+00 -3.16434E+00 +1.21051E+00 -2.95295E+00 +2.67852E+00 -2.93881E-01 +1.18865E+00 +2.27477E+00
 -1.82738E+00 +2.29984E+00 -3.51870E+00 -3.70104E-01 -2.17669E+00 -3.42169E+00 +1.20828E+00 -4.13074E+00
 +3.80263E+00 -1.80427E+00 +3.44717E+00 +1.58099E+00 +5.87303E-01 +3.12997E+00 -2.12146E+00 +1.61378E+00
 -2.19283E+00 -1.42837E+00 +4.51464E-01 -3.06852E+00 +3.39581E+00 -1.62609E+00 +3.88825E+00 +1.80071E+00
 +1.31638E+00 +4.29114E+00 -2.22029E+00 +3.70216E+00 -3.76662E+00 +5.87724E-01 -2.14382E+00 -2.28891E+00
 +1.00055E+00 -2.42378E+00 +2.67361E+00 +1.84589E-01 +1.23056E+00 +3.03171E+00 -2.13278E+00 +3.35610E+00
 -4.43383E+00 +6.30798E-01 -3.56884E+00 -2.93837E+00 -2.04845E-01 -4.36400E+00 +2.80228E+00 -2.53744E+00
 +2.95077E+00 +7.84529E-01 +3.23268E-01 +2.55624E+00 -2.49609E+00 +1.17637E+00 -2.74923E+00 -2.07086E+00
 +6.17940E-03 -4.16288E+00 +3.47851E+00 -3.05212E+00 +4.67677E+00 +4.84206E-01 +2.58030E+00 +3.51928E+00
 -9.47695E-01 +3.57780E+00 -2.82457E+00 +8.36574E-01 -1.50338E+00 -2.04745E+00 +1.64871E+00 -2.32989E+00
 +3.58542E+00 +3.49940E-01 +2.32518E+00 +3.63509E+00 -1.25454E+00 +4.55635E+00 -4.18245E+00 +2.19292E+00
 -4.03575E+00 -1.49516E+00 -1.09484E+00 -3.40979E+00 +1.91866E+00 -2.07368E+00 +2.28560E+00 +1.06440E+00
 -2.74243E-01 +2.94599E+00 -3.35533E+00 +1.66022E+00 -4.02927E+00 -1.82899E+00 -1.47902E+00 -4.53332E+00
 +2.25547E+00 -4.10593E+00 +4.08724E+00 -9.35567E-01 +2.62677E+00 +2.20463E+00 -5.95396E-01 +2.63663E+00
 -2.51868E+00 +1.63718E-01 -1.30633E+00 -2.77140E+00 +2.00472E+00 -3.29348E+00 +4.43309E+00 -6.86243E-01
 +3.72504E+00 +2.95242E+00 +3.74883E-01 +4.57517E+00 -2.81264E+00 +2.89715E+00 -3.22145E+00 -4.71575E-01
 -7.45204E-01 -2.48093E+00 +2.14377E+00 -1.37434E+00 +2.63146E+00 +1.74779E+00 +9.60085E-02 +3.92893E+00
 -3.32962E+00 +3.01778E+00 -4.66347E+00 -3.96250E-01 -2.73694E+00 -3.50221E+00 +7.68740E-01 -3.76951E+00
 +2.83186E+00 -1.18980E+00 +1.78659E+00 +1.74232E+00 -1.20792E+00 +2.28202E+00 -3.23207E+00 -1.03700E-01
 -2.23999E+00 -3.26627E+00 +1.09917E+00 -4.30868E+00 +3.99547E+00 -2.18238E+00 +4.02578E+00 +1.37582E+00
 +1.28398E+00 +3.39581E+00 -1.72413E+00 +2.31648E+00 -2.33419E+00 -6.46211E-01 -1.00387E-01 -2.61863E+00
 +2.82713E+00 -1.66079E+00 +3.64875E+00 +1.49446E+00 +1.43237E+00 +4.10278E+00 -2.05084E+00 +3.86504E+00
 -3.90801E+00 +9.74825E-01 -2.69681E+00 -2.06777E+00 +3.12934E-01 -2.69482E+00 +2.30361E+00 -5.50103E-01
 +1.44289E+00 +2.22405E+00 -1.48561E+00 +2.93257E+00 -3.80215E+00 +7.51833E-01 -3.34061E+00 -2.53551E+00
 -3.84504E-01 -4.13790E+00 +2.59411E+00 -2.74172E+00 +3.14267E+00 +3.36829E-01 +9.98626E-01 +2.35020E+00
 -1.71128E+00 +1.57915E+00 -2.40216E+00 -1.15031E+00 -3.50465E-01 -3.23601E+00 +2.67021E+00 -2.64730E+00
 +3.98844E+00 +2.57423E-01 +2.42257E+00 +3.05880E+00 -6.78583E-01 +3.43796E+00 -2.65608E+00 +1.22809E+00
 -1.91252E+00 -1.46948E+00 +6.88803E-01 -2.18749E+00 +2.63248E+00 -2.96853E-01 +2.02218E+00 +2.45379E+00
 -7.25402E-01 +3.52536E+00 -3.26664E+00 +1.86453E+00 -3.43046E+00 -1.16615E+00 -1.14276E+00 -3.01743E+00
 +1.53477E+00 -2.22315E+00 +2.26335E+00 +3.21058E-01 +5.06200E-01 +2.19520E+00 -2.02434E+00 +1.63616E+00
