 Created: 16-Jan-2021
 $NMID
 ID='D:\BASISSIMULATI'
 FMTDAT='(8E13.5)'
 VOLUME=   1.00000E+00
 TRAMP=   1.00000E+00
 $END
 +6.61709E+00 +7.48438E-03 +6.41590E+00 +1.31151E+00 +5.90267E+00 +2.51265E+00 +5.11795E+00 +3.53350E+00
 +4.12131E+00 +4.31098E+00 +2.98661E+00 +4.80089E+00 +1.79615E+00 +4.98093E+00 +6.34387E-01 +4.85204E+00
 -4.18595E-01 +4.43783E+00 -1.29301E+00 +3.78238E+00 -1.93449E+00 +2.94638E+00 -2.30785E+00 +2.00213E+00
 -2.39934E+00 +1.02769E+00 -2.21714E+00 +1.00742E-01 -1.79011E+00 -7.07437E-01 -1.16499E+00 -1.33732E+00
 -4.02209E-01 -1.74542E+00 +4.29240E-01 -1.90725E+00 +1.25752E+00 -1.81867E+00 +2.01374E+00 -1.49556E+00
 +2.63734E+00 -9.71921E-01 +3.08067E+00 -2.96605E-01 +3.31245E+00 +4.71147E-01 +3.31975E+00 +1.26682E+00
 +3.10845E+00 +2.02607E+00 +2.70215E+00 +2.69001E+00 +2.13965E+00 +3.20987E+00 +1.47126E+00 +3.55073E+00
 +7.54182E-01 +3.69406E+00 +4.75660E-02 +3.63868E+00 -5.92616E-01 +3.40044E+00 -1.11822E+00 +3.01032E+00
 -1.49283E+00 +2.51138E+00 -1.69462E+00 +1.95477E+00 -1.71783E+00 +1.39503E+00 -1.57297E+00 +8.85373E-01
 -1.28553E+00 +4.72992E-01 -8.93460E-01 +1.95076E-01 -4.43690E-01 +7.56984E-02 +1.21603E-02 +1.23885E-01
 +4.22360E-01 +3.32991E-01 +7.39610E-01 +6.81429E-01 +9.25170E-01 +1.13466E+00 +9.52204E-01 +1.64829E+00
 +8.08091E-01 +2.17195E+00 +4.95512E-01 +2.65368E+00 +3.22295E-02 +3.04441E+00 -5.50403E-01 +3.30222E+00
 -1.21007E+00 +3.39587E+00 -1.89705E+00 +3.30757E+00 -2.55834E+00 +3.03448E+00 -3.14208E+00 +2.58907E+00
 -3.60189E+00 +1.99813E+00 -3.90066E+00 +1.30065E+00 -4.01370E+00 +5.44700E-01 -3.93075E+00 -2.16455E-01
 -3.65687E+00 -9.28634E-01 -3.21211E+00 -1.54108E+00 -2.62992E+00 -2.01054E+00 -1.95448E+00 -2.30466E+00
 -1.23730E+00 -2.40460E+00 -5.33068E-01 -2.30650E+00 +1.04570E-01 -2.02169E+00 +6.27222E-01 -1.57587E+00
 +9.95478E-01 -1.00698E+00 +1.18192E+00 -3.62241E-01 +1.17318E+00 +3.05557E-01 +9.70845E-01 +9.42140E-01
 +5.91236E-01 +1.49594E+00 +6.40215E-02 +1.92199E+00 -5.70181E-01 +2.18530E+00 -1.26302E+00 +2.26342E+00
 -1.96218E+00 +2.14795E+00 -2.61537E+00 +1.84499E+00 -3.17431E+00 +1.37449E+00 -3.59828E+00 +7.68471E-01
 -3.85704E+00 +6.84442E-02 -3.93291E+00 -6.77915E-01 -3.82185E+00 -1.42046E+00 -3.53344E+00 -2.11040E+00
 -3.08983E+00 -2.70390E+00 -2.52380E+00 -3.16525E+00 -1.87599E+00 -3.46934E+00 -1.19163E+00 -3.60323E+00
 -5.17035E-01 -3.56674E+00 +1.03947E-01 -3.37210E+00 +6.33137E-01 -3.04261E+00 +1.04073E+00 -2.61049E+00
 +1.30724E+00 -2.11414E+00 +1.42463E+00 -1.59502E+00 +1.39649E+00 -1.09430E+00 +1.23730E+00 -6.49818E-01
 +9.70919E-01 -2.93213E-01 +6.28339E-01 -4.77874E-02 +2.45022E-01 +7.29807E-02 -1.42053E-01 +6.60804E-02
 -4.97341E-01 -6.12314E-02 -7.89449E-01 -2.92428E-01 -9.93437E-01 -6.03401E-01 -1.09251E+00 -9.64685E-01
 -1.07899E+00 -1.34401E+00 -9.54559E-01 -1.70900E+00 -7.29708E-01 -2.02972E+00 -4.22525E-01 -2.28100E+00
 -5.69235E-02 -2.44420E+00 +3.39528E-01 -2.50846E+00 +7.37980E-01 -2.47122E+00 +1.11068E+00 -2.33803E+00
 +1.43316E+00 -2.12180E+00 +1.68607E+00 -1.84141E+00 +1.85655E+00 -1.51987E+00 +1.93893E+00 -1.18234E+00
 +1.93491E+00 -8.53919E-01 +1.85309E+00 -5.57624E-01 +1.70794E+00 -3.12586E-01 +1.51835E+00 -1.32651E-01
 +1.30588E+00 -2.54712E-02 +1.09284E+00 +7.85500E-03 +9.00441E-01 -2.74135E-02 +7.47036E-01 -1.20371E-01
 +6.46748E-01 -2.55612E-01 +6.08452E-01 -4.14705E-01 +6.35260E-01 -5.77851E-01 +7.24487E-01 -7.25584E-01
 +8.68113E-01 -8.40382E-01 +1.05365E+00 -9.08036E-01 +1.26536E+00 -9.18699E-01 +1.48566E+00 -8.67525E-01
 +1.69664E+00 -7.54875E-01 +1.88155E+00 -5.86080E-01 +2.02609E+00 -3.70810E-01 +2.11946E+00 -1.22125E-01
 +2.15511E+00 +1.44719E-01 +2.13106E+00 +4.13578E-01 +2.04983E+00 +6.68734E-01 +1.91806E+00 +8.96121E-01
 +1.74580E+00 +1.08434E+00 +1.54552E+00 +1.22540E+00 +1.33102E+00 +1.31520E+00 +1.11631E+00 +1.35358E+00
 +9.14511E-01 +1.34412E+00 +7.36888E-01 +1.29365E+00 +5.92121E-01 +1.21152E+00 +4.85812E-01 +1.10870E+00
 +4.20269E-01 +9.96858E-01 +3.94571E-01 +8.87429E-01 +4.04875E-01 +7.90760E-01 +4.44928E-01 +7.15431E-01
 +5.06728E-01 +6.67760E-01 +5.81252E-01 +6.51527E-01 +6.59204E-01 +6.67921E-01 +7.31703E-01 +7.15692E-01
 +7.90871E-01 +7.91466E-01 +8.30278E-01 +8.90197E-01 +8.45226E-01 +1.00568E+00 +8.32867E-01 +1.13107E+00
 +7.92168E-01 +1.25945E+00 +7.23750E-01 +1.38418E+00 +6.29638E-01 +1.49932E+00 +5.12950E-01 +1.59984E+00
 +3.77577E-01 +1.68175E+00 +2.27882E-01 +1.74209E+00 +6.84389E-02 +1.77896E+00 -9.61622E-02 +1.79137E+00
 -2.61451E-01 +1.77911E+00 -4.23151E-01 +1.74271E+00 -5.77216E-01 +1.68327E+00 -7.19839E-01 +1.60245E+00
 -8.47468E-01 +1.50248E+00 -9.56846E-01 +1.38614E+00 -1.04508E+00 +1.25681E+00 -1.10977E+00 +1.11849E+00
 -1.14919E+00 +9.75807E-01 -1.16246E+00 +8.33917E-01 -1.14978E+00 +6.98394E-01 -1.11262E+00 +5.74983E-01
 -1.05386E+00 +4.69297E-01 -9.77842E-01 +3.86434E-01 -8.90325E-01 +3.30552E-01 -7.98276E-01 +3.04445E-01
 -7.09552E-01 +3.09146E-01 -6.32442E-01 +3.43622E-01 -5.75092E-01 +4.04594E-01 -5.44870E-01 +4.86522E-01
 -5.47714E-01 +5.81783E-01 -5.87513E-01 +6.81044E-01 -6.65596E-01 +7.73824E-01 -7.80381E-01 +8.49213E-01
 -9.27231E-01 +8.96701E-01 -1.09856E+00 +9.07055E-01 -1.28419E+00 +8.73161E-01 -1.47195E+00 +7.90774E-01
 -1.64853E+00 +6.59070E-01 -1.80043E+00 +4.80971E-01 -1.91506E+00 +2.63172E-01 -1.98181E+00 +1.58529E-02
 -1.99301E+00 -2.47920E-01 -1.94477E+00 -5.13071E-01 -1.83748E+00 -7.63615E-01 -1.67603E+00 -9.83904E-01
 -1.46963E+00 -1.15991E+00 -1.23132E+00 -1.28044E+00 -9.77046E-01 -1.33821E+00 -7.24526E-01 -1.33057E+00
 -4.91858E-01 -1.25999E+00 -2.96056E-01 -1.13403E+00 -1.51601E-01 -9.64920E-01 -6.91392E-02 -7.68792E-01
 -5.44472E-02 -5.64442E-01 -1.07761E-01 -3.71891E-01 -2.23541E-01 -2.10761E-01 -3.90721E-01 -9.86094E-02
 -5.93417E-01 -4.93874E-02 -8.12086E-01 -7.21277E-02 -1.02502E+00 -1.70002E-01 -1.21011E+00 -3.39831E-01
 -1.34664E+00 -5.72117E-01 -1.41712E+00 -8.51597E-01 -1.40888E+00 -1.15831E+00 -1.31525E+00 -1.46908E+00
 -1.13639E+00 -1.75936E+00 -8.79499E-01 -2.00517E+00 -5.58492E-01 -2.18517E+00 -1.93060E-01 -2.28248E+00
 +1.92739E-01 -2.28623E+00 +5.72321E-01 -2.19269E+00 +9.18675E-01 -2.00576E+00 +1.20656E+00 -1.73693E+00
 +1.41464E+00 -1.40460E+00 +1.52731E+00 -1.03272E+00 +1.53619E+00 -6.49076E-01 +1.44095E+00 -2.83091E-01
 +1.24965E+00 +3.64997E-02 +9.78202E-01 +2.84002E-01 +6.49398E-01 +4.38923E-01 +2.91175E-01 +4.87768E-01
 -6.54863E-02 +4.25302E-01 -3.88990E-01 +2.55173E-01 -6.49656E-01 -1.01638E-02 -8.22144E-01 -3.50250E-01
 -8.87591E-01 -7.38082E-01 -8.35261E-01 -1.14213E+00 -6.63567E-01 -1.52877E+00 -3.80392E-01 -1.86490E+00
 -2.63674E-03 -2.12062E+00 +4.44952E-01 -2.27163E+00 +9.31605E-01 -2.30127E+00 +1.42287E+00 -2.20196E+00
 +1.88326E+00 -1.97592E+00 +2.27905E+00 -1.63516E+00 +2.58094E+00 -1.20065E+00 +2.76642E+00 -7.00758E-01
 +2.82159E+00 -1.69123E-01 +2.74235E+00 +3.57944E-01 +2.53475E+00 +8.44291E-01 +2.21465E+00 +1.25676E+00
 +1.80648E+00 +1.56781E+00 +1.34136E+00 +1.75770E+00 +8.54658E-01 +1.81606E+00 +3.83248E-01 +1.74274E+00
 -3.74431E-02 +1.54784E+00 -3.76224E-01 +1.25086E+00 -6.08619E-01 +8.79200E-01 -7.18808E-01 +4.65949E-01
 -7.00871E-01 +4.72135E-02 -5.59244E-01 -3.40770E-01 -3.08330E-01 -6.64553E-01 +2.86932E-02 -8.96164E-01
 +4.21774E-01 -1.01535E+00 +8.36452E-01 -1.01122E+00 +1.23668E+00 -8.83056E-01 +1.58776E+00 -6.40383E-01
 +1.85920E+00 -3.02136E-01 +2.02720E+00 +1.04918E-01 +2.07659E+00 +5.48406E-01 +2.00206E+00 +9.93033E-01
 +1.80860E+00 +1.40351E+00 +1.51105E+00 +1.74750E+00 +1.13286E+00 +1.99827E+00 +7.04123E-01 +2.13696E+00
 +2.59078E-01 +2.15412E+00 -1.66780E-01 +2.05055E+00 -5.39665E-01 +1.83721E+00 -8.30355E-01 +1.53436E+00
 -1.01667E+00 +1.16983E+00 -1.08537E+00 +7.76736E-01 -1.03333E+00 +3.90713E-01 -8.67861E-01 +4.68863E-02
 -6.06171E-01 -2.23096E-01 -2.73992E-01 -3.93774E-01 +9.65127E-02 -4.48097E-01 +4.69407E-01 -3.78958E-01
 +8.07967E-01 -1.89922E-01 +1.07778E+00 +1.04937E-01 +1.24965E+00 +4.82067E-01 +1.30219E+00 +9.10268E-01
 +1.22366E+00 +1.35318E+00 +1.01316E+00 +1.77224E+00 +6.80893E-01 +2.12980E+00 +2.47516E-01 +2.39234E+00
 -2.57382E-01 +2.53322E+00 -7.97525E-01 +2.53503E+00 -1.33279E+00 +2.39120E+00 -1.82240E+00 +2.10668E+00
 -2.22820E+00 +1.69779E+00 -2.51778E+00 +1.19111E+00 -2.66716E+00 +6.21473E-01 -2.66285E+00 +2.93954E-02
 -2.50312E+00 -5.42104E-01 -2.19824E+00 -1.05085E+00 -1.76993E+00 -1.45887E+00 -1.24973E+00 -1.73542E+00
 -6.76728E-01 -1.85948E+00 -9.45189E-02 -1.82156E+00 +4.52094E-01 -1.62452E+00 +9.20603E-01 -1.28350E+00
 +1.27411E+00 -8.24852E-01 +1.48424E+00 -2.84196E-01 +1.53341E+00 +2.96278E-01 +1.41624E+00 +8.71023E-01
 +1.14006E+00 +1.39463E+00 +7.24408E-01 +1.82534E+00 +1.99551E-01 +2.12825E+00 -3.95794E-01 +2.27807E+00
 -1.01743E+00 +2.26102E+00 -1.61906E+00 +2.07597E+00 -2.15586E+00 +1.73445E+00 -2.58790E+00 +1.25983E+00
 -2.88323E+00 +6.85456E-01 -3.02027E+00 +5.20507E-02 -2.98945E+00 -5.95421E-01 -2.79389E+00 -1.21125E+00
 -2.44906E+00 -1.75250E+00 -1.98151E+00 -2.18230E+00 -1.42671E+00 -2.47266E+00 -8.26253E-01 -2.60652E+00
 -2.24521E-01 -2.57900E+00 +3.34766E-01 -2.39762E+00 +8.11970E-01 -2.08158E+00 +1.17459E+00 -1.66009E+00
 +1.39972E+00 -1.16999E+00 +1.47573E+00 -6.52678E-01 +1.40303E+00 -1.50799E-01 +1.19387E+00 +2.95173E-01
 +8.71169E-01 +6.50138E-01 +4.66555E-01 +8.87112E-01 +1.76598E-02 +9.89286E-01 -4.34999E-01 +9.51239E-01
 -8.51354E-01 +7.79224E-01 -1.19505E+00 +4.90492E-01 -1.43639E+00 +1.11742E-01 -1.55467E+00 -3.23197E-01
 -1.53977E+00 -7.76239E-01 -1.39293E+00 -1.20824E+00 -1.12645E+00 -1.58227E+00 -7.62633E-01 -1.86663E+00
 -3.31769E-01 -2.03748E+00 +1.30408E-01 -2.08077E+00 +5.85775E-01 -1.99330E+00 +9.97021E-01 -1.78297E+00
 +1.33078E+00 -1.46803E+00 +1.56039E+00 -1.07550E+00 +1.66814E+00 -6.38888E-01 +1.64673E+00 -1.95326E-01
 +1.49982E+00 +2.17536E-01 +1.24178E+00 +5.64699E-01 +8.96401E-01 +8.16753E-01 +4.94989E-01 +9.52350E-01
 +7.36896E-02 +9.60003E-01 -3.29498E-01 +8.39067E-01 -6.77897E-01 +5.99830E-01 -9.39214E-01 +2.62687E-01
 -1.08824E+00 -1.43506E-01 -1.10898E+00 -5.83790E-01 -9.96016E-01 -1.01996E+00 -7.55013E-01 -1.41370E+00
