 Created: 16-Jan-2021
 $NMID
 ID='D:\BASISSIMULATI'
 FMTDAT='(8E13.5)'
 VOLUME=   1.00000E+00
 TRAMP=   1.00000E+00
 $END
 +4.24672E+00 +5.03090E-03 +3.71987E+00 +1.77309E+00 +2.44398E+00 +2.99814E+00 +8.37631E-01 +3.39798E+00
 -6.11073E-01 +2.96876E+00 -1.50958E+00 +1.96836E+00 -1.68451E+00 +8.12507E-01 -1.22389E+00 -7.64053E-02
 -4.28079E-01 -4.13772E-01 +3.08826E-01 -1.41533E-01 +6.42770E-01 +5.65843E-01 +3.98222E-01 +1.37553E+00
 -3.77520E-01 +1.92093E+00 -1.43909E+00 +1.93146E+00 -2.43409E+00 +1.32341E+00 -3.02598E+00 +2.23284E-01
 -3.00591E+00 -1.08033E+00 -2.35676E+00 -2.23623E+00 -1.25107E+00 -2.94560E+00 +1.25355E-02 -3.05360E+00
 +1.10984E+00 -2.58925E+00 +1.79338E+00 -1.74379E+00 +1.96338E+00 -7.98586E-01 +1.68645E+00 -2.93331E-02
 +1.15957E+00 +3.81159E-01 +6.34612E-01 +3.93925E-01 +3.30176E-01 +1.14608E-01 +3.60076E-01 -2.53106E-01
 +7.00387E-01 -4.83594E-01 +1.20363E+00 -4.08826E-01 +1.65323E+00 +2.44088E-02 +1.83892E+00 +7.37010E-01
 +1.62835E+00 +1.54389E+00 +1.01195E+00 +2.21434E+00 +1.07683E-01 +2.54634E+00 -8.75095E-01 +2.43095E+00
 -1.70038E+00 +1.88659E+00 -2.17815E+00 +1.05290E+00 -2.22180E+00 +1.46407E-01 -1.87236E+00 -6.07471E-01
 -1.28187E+00 -1.04449E+00 -6.61553E-01 -1.11120E+00 -2.11244E-01 -8.78033E-01 -5.32476E-02 -5.11622E-01
 -1.92339E-01 -2.14918E-01 -5.15634E-01 -1.54871E-01 -8.33037E-01 -4.01759E-01 -9.45401E-01 -9.01093E-01
 -7.17729E-01 -1.48864E+00 -1.32280E-01 -1.94465E+00 +6.97543E-01 -2.06995E+00 +1.55882E+00 -1.75799E+00
 +2.20699E+00 -1.03786E+00 +2.44765E+00 -7.18459E-02 +2.20432E+00 +8.93121E-01 +1.54798E+00 +1.60499E+00
 +6.76715E-01 +1.89031E+00 -1.48933E-01 +1.71305E+00 -6.93625E-01 +1.18708E+00 -8.27608E-01 +5.36702E-01
 -5.71306E-01 +1.79207E-02 -8.74185E-02 -1.72692E-01 +3.77840E-01 +3.07612E-02 +5.84504E-01 +5.38000E-01
 +3.88130E-01 +1.13302E+00 -2.03548E-01 +1.55081E+00 -1.02769E+00 +1.57378E+00 -1.81945E+00 +1.11366E+00
 -2.30321E+00 +2.49116E-01 -2.29018E+00 -7.95256E-01 -1.74745E+00 -1.72232E+00 -8.13571E-01 -2.26278E+00
 +2.45639E-01 -2.26738E+00 +1.12608E+00 -1.75827E+00 +1.58809E+00 -9.21081E-01 +1.53671E+00 -4.02747E-02
 +1.05138E+00 +5.99391E-01 +3.54680E-01 +8.10659E-01 -2.68484E-01 +5.66375E-01 -5.72384E-01 +5.21186E-03
 -4.36796E-01 -6.20936E-01 +9.20865E-02 -1.03865E+00 +8.19921E-01 -1.05103E+00 +1.47436E+00 -6.07485E-01
 +1.80166E+00 +1.78648E-01 +1.65545E+00 +1.06995E+00 +1.04702E+00 +1.78716E+00 +1.40445E-01 +2.10438E+00
 -8.04284E-01 +1.92403E+00 -1.51910E+00 +1.30652E+00 -1.81575E+00 +4.45869E-01 -1.64380E+00 -3.98274E-01
 -1.10048E+00 -9.87615E-01 -3.91215E-01 -1.18093E+00 +2.43441E-01 -9.73785E-01 +6.08257E-01 -4.90911E-01
 +6.13930E-01 +6.34405E-02 +2.98994E-01 +4.78104E-01 -1.91687E-01 +6.05063E-01 -6.61773E-01 +4.04084E-01
 -9.31304E-01 -5.08492E-02 -8.94513E-01 -6.02547E-01 -5.49726E-01 -1.06613E+00 +5.92101E-03 -1.28933E+00
 +6.12316E-01 -1.19814E+00 +1.09886E+00 -8.14824E-01 +1.33600E+00 -2.45384E-01 +1.27024E+00 +3.56799E-01
 +9.34099E-01 +8.38027E-01 +4.30582E-01 +1.08722E+00 -1.00606E-01 +1.06301E+00 -5.23735E-01 +7.99291E-01
 -7.42918E-01 +3.90012E-01 -7.24265E-01 -4.04410E-02 -5.00107E-01 -3.72253E-01 -1.55972E-01 -5.21334E-01
 +1.95059E-01 -4.59394E-01 +4.43630E-01 -2.18883E-01 +5.13328E-01 +1.17604E-01 +3.80979E-01 +4.40578E-01
 +8.31113E-02 +6.43894E-01 -2.93311E-01 +6.54673E-01 -6.34190E-01 +4.55201E-01 -8.30310E-01 +9.04913E-02
 -8.09844E-01 -3.41674E-01 -5.62099E-01 -7.16844E-01 -1.44642E-01 -9.19881E-01 +3.29859E-01 -8.80788E-01
 +7.24894E-01 -5.99206E-01 +9.21132E-01 -1.48801E-01 +8.54848E-01 +3.41613E-01 +5.40980E-01 +7.25911E-01
 +7.20521E-02 +8.86409E-01 -4.08345E-01 +7.72828E-01 -7.50216E-01 +4.20973E-01 -8.45939E-01 -5.63324E-02
 -6.66773E-01 -5.04416E-01 -2.74098E-01 -7.77202E-01 +1.99514E-01 -7.86253E-01 +5.93943E-01 -5.31476E-01
 +7.75574E-01 -1.02283E-01 +6.83282E-01 +3.51980E-01 +3.50157E-01 +6.72784E-01 -1.07069E-01 +7.47049E-01
 -5.27749E-01 +5.46642E-01 -7.62666E-01 +1.38718E-01 -7.25769E-01 -3.36995E-01 -4.24152E-01 -7.16219E-01
 +4.42732E-02 -8.66709E-01 +5.24578E-01 -7.33590E-01 +8.58129E-01 -3.57633E-01 +9.36625E-01 +1.39662E-01
 +7.37995E-01 +5.98600E-01 +3.31942E-01 +8.76128E-01 -1.46188E-01 +8.93664E-01 -5.43356E-01 +6.61414E-01
 -7.41298E-01 +2.71383E-01 -6.95125E-01 -1.37523E-01 -4.45086E-01 -4.29178E-01 -9.83879E-02 -5.16860E-01
 +2.11370E-01 -3.90664E-01 +3.72078E-01 -1.16979E-01 +3.31269E-01 +1.88580E-01 +1.11693E-01 +4.04090E-01
 -2.00050E-01 +4.44398E-01 -4.86511E-01 +2.89337E-01 -6.41463E-01 -1.19417E-02 -6.05987E-01 -3.60749E-01
 -3.86456E-01 -6.44578E-01 -4.92999E-02 -7.75556E-01 +3.04245E-01 -7.18310E-01 +5.73496E-01 -4.98431E-01
 +6.91141E-01 -1.89987E-01 +6.42589E-01 +1.12242E-01 +4.66339E-01 +3.25330E-01 +2.36660E-01 +4.04285E-01
 +3.57471E-02 +3.53421E-01 -7.45399E-02 +2.20347E-01 -7.19011E-02 +7.59384E-02 +2.19172E-02 -1.20039E-02
 +1.51771E-01 -2.20118E-03 +2.50319E-01 +1.07075E-01 +2.62113E-01 +2.78974E-01 +1.62536E-01 +4.51851E-01
 -3.42260E-02 +5.60660E-01 -2.80185E-01 +5.58719E-01 -5.09320E-01 +4.32886E-01 -6.58708E-01 +2.07649E-01
 -6.88222E-01 -6.27809E-02 -5.92702E-01 -3.11566E-01 -4.02973E-01 -4.80035E-01 -1.75540E-01 -5.35643E-01
 +2.57503E-02 -4.81501E-01 +1.50322E-01 -3.54449E-01 +1.77207E-01 -2.12126E-01 +1.21704E-01 -1.13025E-01
 +2.98870E-02 -9.58580E-02 -3.77173E-02 -1.65144E-01 -2.82255E-02 -2.88238E-01 +8.30310E-02 -4.05493E-01
 +2.80794E-01 -4.50867E-01 +5.11830E-01 -3.76398E-01 +7.00897E-01 -1.72083E-01 +7.76113E-01 +1.26385E-01
 +6.95299E-01 +4.45839E-01 +4.63784E-01 +6.98153E-01 +1.36467E-01 +8.10008E-01 -1.97887E-01 +7.49584E-01
 -4.45746E-01 +5.40123E-01 -5.41561E-01 +2.54371E-01 -4.72294E-01 -9.45027E-03 -2.84006E-01 -1.62468E-01
 -6.67792E-02 -1.58474E-01 +7.77646E-02 -1.30581E-02 +7.52096E-02 +1.99638E-01 -9.10112E-02 +3.72784E-01
 -3.69327E-01 +4.06925E-01 -6.55376E-01 +2.49820E-01 -8.28763E-01 -7.92708E-02 -7.98487E-01 -4.91182E-01
 -5.40158E-01 -8.55347E-01 -1.10221E-01 -1.04594E+00 +3.69603E-01 -9.89057E-01 +7.53394E-01 -6.92970E-01
 +9.23345E-01 -2.49047E-01 +8.33944E-01 +1.98504E-01 +5.30838E-01 +5.03984E-01 +1.36084E-01 +5.74036E-01
 -1.95956E-01 +4.03534E-01 -3.36388E-01 +7.91256E-02 -2.31629E-01 -2.52112E-01 +7.40882E-02 -4.38149E-01
 +4.53136E-01 -3.81139E-01 +7.41563E-01 -7.75781E-02 +8.01792E-01 +3.76620E-01 +5.77298E-01 +8.19250E-01
 +1.17948E-01 +1.08164E+00 -4.34683E-01 +1.05294E+00 -8.97565E-01 +7.24400E-01 -1.11377E+00 +1.95893E-01
 -1.01184E+00 -3.58637E-01 -6.34120E-01 -7.54695E-01 -1.22319E-01 -8.65974E-01 +3.34791E-01 -6.72114E-01
 +5.72394E-01 -2.66789E-01 +5.12321E-01 +1.77656E-01 +1.93249E-01 +4.76102E-01 -2.43727E-01 +5.02189E-01
 -6.09202E-01 +2.37998E-01 -7.38942E-01 -2.17611E-01 -5.58621E-01 -6.85805E-01 -1.14649E-01 -9.76133E-01
 +4.41291E-01 -9.60445E-01 +9.08681E-01 -6.23881E-01 +1.11431E+00 -7.29109E-02 +9.79003E-01 +5.03220E-01
 +5.49070E-01 +9.03335E-01 -2.00033E-02 +9.90520E-01 -5.21825E-01 +7.44385E-01 -7.77271E-01 +2.69080E-01
 -7.02628E-01 -2.46340E-01 -3.41441E-01 -6.00281E-01 +1.52397E-01 -6.56042E-01 +5.74072E-01 -3.94541E-01
 +7.47101E-01 +7.80811E-02 +5.92003E-01 +5.71129E-01 +1.57893E-01 +8.82846E-01 -3.95345E-01 +8.78625E-01
 -8.57677E-01 +5.43843E-01 -1.04924E+00 -9.06441E-03 -8.89620E-01 -5.82237E-01 -4.29548E-01 -9.66957E-01
 +1.67318E-01 -1.02275E+00 +6.85605E-01 -7.30834E-01 +9.39227E-01 -2.01508E-01 +8.41361E-01 +3.67336E-01
 +4.36815E-01 +7.64794E-01 -1.15381E-01 +8.46282E-01 -6.02443E-01 +5.87548E-01 -8.38303E-01 +9.30529E-02
 -7.33568E-01 -4.44213E-01 -3.28665E-01 -8.16033E-01 +2.22090E-01 -8.77546E-01 +7.09133E-01 -6.01501E-01
 +9.46623E-01 -8.80114E-02 +8.41983E-01 +4.73450E-01 +4.30060E-01 +8.75152E-01 -1.40446E-01 +9.68401E-01
 -6.62697E-01 +7.18207E-01 -9.48357E-01 +2.15288E-01 -8.96475E-01 -3.58424E-01 -5.29308E-01 -7.97327E-01
 +1.75616E-02 -9.47316E-01 +5.46334E-01 -7.60818E-01 +8.69772E-01 -3.11947E-01 +8.78593E-01 +2.32883E-01
 +5.79035E-01 +6.77137E-01 +8.77044E-02 +8.65693E-01 -4.13293E-01 +7.39551E-01 -7.43589E-01 +3.54413E-01
 -7.89245E-01 -1.42501E-01 -5.41734E-01 -5.67771E-01 -9.80426E-02 -7.68380E-01 +3.76817E-01 -6.75418E-01
 +7.10281E-01 -3.26249E-01 +7.83425E-01 +1.51617E-01 +5.71255E-01 +5.87825E-01 +1.48765E-01 +8.29853E-01
 -3.38024E-01 +7.95347E-01 -7.24510E-01 +4.98245E-01 -8.84338E-01 +4.08032E-02 -7.70864E-01 -4.24238E-01
 -4.29810E-01 -7.47050E-01 +1.98336E-02 -8.30787E-01 +4.28649E-01 -6.61618E-01 +6.67820E-01 -3.09609E-01
 +6.70927E-01 +9.83167E-02 +4.53118E-01 +4.22983E-01 +1.02532E-01 +5.59536E-01 -2.51838E-01 +4.70677E-01
 -4.84232E-01 +1.96422E-01 -5.13397E-01 -1.61618E-01 -3.27969E-01 -4.75258E-01 +1.13969E-02 -6.32131E-01
 +3.92911E-01 -5.71793E-01 +6.90208E-01 -3.04496E-01 +8.02729E-01 +9.26699E-02 +6.87374E-01 +5.00477E-01
 +3.71876E-01 +7.95074E-01 -5.38997E-02 +8.86625E-01 -4.65862E-01 +7.47259E-01 -7.44183E-01 +4.19822E-01
 -8.10622E-01 +4.72835E-03 -6.53172E-01 -3.71233E-01 -3.30258E-01 -5.94746E-01 +4.72648E-02 -6.02209E-01
 +3.51208E-01 -4.00907E-01 +4.77650E-01 -6.78947E-02 +3.81927E-01 +2.73858E-01 +9.53966E-02 +4.95265E-01
 -2.82341E-01 +5.04565E-01 -6.14399E-01 +2.80207E-01 -7.71607E-01 -1.18332E-01 -6.77185E-01 -5.66629E-01
 -3.35926E-01 -9.14323E-01 +1.62890E-01 -1.03505E+00 +6.71337E-01 -8.70812E-01 +1.03010E+00 -4.55163E-01
 +1.12199E+00 +9.38254E-02 +9.13457E-01 +6.10047E-01 +4.69138E-01 +9.34004E-01 -6.70111E-02 +9.67420E-01
 -5.18823E-01 +7.08704E-01 -7.37983E-01 +2.55976E-01 -6.56390E-01 -2.24739E-01 -3.12004E-01 -5.56283E-01
 +1.61988E-01 -6.12889E-01 +5.82164E-01 -3.66433E-01 +7.79153E-01 +1.00625E-01 +6.58919E-01 +6.21357E-01
 +2.39045E-01 +1.00144E+00 -3.53724E-01 +1.08775E+00 -9.24883E-01 +8.24190E-01 -1.27879E+00 +2.74678E-01
 -1.28731E+00 -3.95954E-01 -9.36175E-01 -9.77059E-01 -3.31935E-01 -1.28446E+00 +3.33334E-01 -1.22449E+00
 +8.47832E-01 -8.26913E-01 +1.05320E+00 -2.34845E-01 +8.99231E-01 +3.45234E-01 +4.60626E-01 +7.15717E-01
 -9.01897E-02 +7.56905E-01 -5.44601E-01 +4.68368E-01 -7.31803E-01 -3.19745E-02 -5.79023E-01 -5.50533E-01
