 Created: 16-Jan-2021
 $NMID
 ID='D:\BASISSIMULATI'
 FMTDAT='(8E13.5)'
 VOLUME=   1.00000E+00
 TRAMP=   1.00000E+00
 $END
 +1.02975E+01 +1.15751E-02 +6.61459E+00 +7.03997E+00 -8.68286E-01 +8.10340E+00 -5.54778E+00 +2.98273E+00
 -3.91243E+00 -3.01698E+00 +1.42985E+00 -4.45466E+00 +4.83980E+00 -9.08110E-01 +3.45834E+00 +3.20101E+00
 -2.57484E-01 +3.61964E+00 -1.67698E+00 +7.07658E-01 +7.42130E-01 -1.29607E+00 +3.74542E+00 +7.68212E-01
 +2.93213E+00 +5.21647E+00 -2.16857E+00 +7.07361E+00 -7.10133E+00 +3.40484E+00 -6.82454E+00 -3.19481E+00
 -1.00168E+00 -6.77530E+00 +5.27611E+00 -3.84466E+00 +6.25348E+00 +3.04594E+00 +1.05848E+00 +7.63974E+00
 -5.51250E+00 +5.94826E+00 -7.71617E+00 -8.52446E-02 -4.30942E+00 -4.79050E+00 +6.72073E-01 -4.45258E+00
 +2.34899E+00 -6.76895E-01 -7.71992E-02 +1.80120E+00 -2.93711E+00 +3.24720E-01 -2.41054E+00 -2.99547E+00
 +1.18229E+00 -3.84127E+00 +3.70596E+00 -6.41333E-01 +1.78870E+00 +3.44704E+00 -3.24842E+00 +3.73011E+00
 -6.38439E+00 -9.49879E-01 -3.94179E+00 -6.62273E+00 +2.48243E+00 -7.89856E+00 +7.32026E+00 -3.30824E+00
 +6.36632E+00 +3.14249E+00 +8.12143E-01 +5.81393E+00 -4.03546E+00 +2.82070E+00 -3.98466E+00 -2.39578E+00
 +1.56969E-01 -4.73967E+00 +3.83155E+00 -2.51020E+00 +3.60010E+00 +1.28247E+00 +5.13773E-01 +2.45795E+00
 -1.39240E+00 +1.74756E-01 +3.03488E-01 -2.34024E+00 +3.69006E+00 -1.50260E+00 +4.57716E+00 +2.51727E+00
 +1.13382E+00 +5.72153E+00 -3.84330E+00 +4.41728E+00 -5.53724E+00 -7.43355E-01 -2.00393E+00 -5.09674E+00
 +3.67914E+00 -4.46765E+00 +6.28128E+00 +6.84143E-01 +3.46369E+00 +5.67150E+00 -2.04701E+00 +6.12767E+00
 -5.26615E+00 +2.11781E+00 -3.81635E+00 -2.23352E+00 +4.56972E-02 -3.03977E+00 +2.10786E+00 -3.98875E-01
 +6.26514E-01 +2.14259E+00 -2.11169E+00 +1.61657E+00 -2.56304E+00 -1.19891E+00 +5.54645E-02 -2.77767E+00
 +2.82745E+00 -8.52025E-01 +2.28270E+00 +2.90422E+00 -1.71497E+00 +4.43750E+00 -5.50054E+00 +1.55725E+00
 -5.17375E+00 -3.56495E+00 -5.93785E-01 -6.31754E+00 +4.30479E+00 -4.12871E+00 +5.25352E+00 +1.00156E+00
 +1.71222E+00 +4.45455E+00 -2.77453E+00 +3.43574E+00 -4.16862E+00 -5.36025E-01 -1.77725E+00 -3.45242E+00
 +1.45895E+00 -2.91409E+00 +2.28856E+00 -2.80562E-01 +4.88713E-01 +1.16808E+00 -1.21144E+00 -8.22910E-02
 -3.65265E-01 -2.20543E+00 +2.36156E+00 -2.18040E+00 +3.82359E+00 +7.13898E-01 +1.83119E+00 +3.84914E+00
 -2.26913E+00 +3.84680E+00 -4.67419E+00 +1.66103E-01 -2.86444E+00 -4.07538E+00 +1.78621E+00 -4.99396E+00
 +5.21385E+00 -1.68557E+00 +4.50754E+00 +2.91539E+00 +5.76263E-01 +4.88383E+00 -2.93173E+00 +2.97422E+00
 -3.23647E+00 -4.91297E-01 -8.95056E-01 -2.21091E+00 +1.20535E+00 -1.17319E+00 +1.04758E+00 +6.97874E-01
 -5.46084E-01 +9.64726E-01 -1.13264E+00 -5.72872E-01 +4.15879E-01 -1.74545E+00 +2.50177E+00 -5.67803E-01
 +2.46794E+00 +2.33488E+00 -4.20980E-01 +4.10695E+00 -3.88369E+00 +2.54991E+00 -4.67921E+00 -1.45797E+00
 -1.80150E+00 -4.56847E+00 +2.41988E+00 -4.07817E+00 +4.45082E+00 -4.76636E-01 +2.81282E+00 +3.07262E+00
 -7.11491E-01 +3.73982E+00 -2.98821E+00 +1.52296E+00 -2.51939E+00 -1.12529E+00 -5.41073E-01 -1.93540E+00
 +6.54392E-01 -9.30143E-01 +2.14536E-01 +4.19964E-02 -5.97515E-01 -3.82498E-01 -1.14529E-01 -1.52333E+00
 +1.62962E+00 -1.51068E+00 +2.75530E+00 +4.39699E-01 +1.55388E+00 +2.86016E+00 -1.48331E+00 +3.32595E+00
 -3.84083E+00 +9.42502E-01 -3.30226E+00 -2.54915E+00 -1.24773E-01 -4.25378E+00 +3.11865E+00 -2.77629E+00
 +3.88346E+00 +5.41850E-01 +1.88774E+00 +2.95771E+00 -8.71826E-01 +2.84453E+00 -2.17203E+00 +9.36069E-01
 -1.54633E+00 -7.50907E-01 -3.15512E-01 -1.01702E+00 +1.13199E-01 -4.23416E-01 -2.59476E-01 -2.77035E-01
 -2.81317E-01 -9.48243E-01 +7.71008E-01 -1.41808E+00 +2.12718E+00 -5.21677E-01 +2.20603E+00 +1.52319E+00
 +3.54052E-01 +3.03747E+00 -2.22708E+00 +2.44412E+00 -3.42353E+00 -9.43136E-02 -2.15274E+00 -2.65964E+00
 +6.03908E-01 -3.25565E+00 +2.68620E+00 -1.56094E+00 +2.67019E+00 +9.03502E-01 +9.73214E-01 +2.25521E+00
 -7.96112E-01 +1.86769E+00 -1.43408E+00 +6.18425E-01 -1.05978E+00 -2.64369E-01 -5.89597E-01 -4.24501E-01
 -5.37686E-01 -4.43367E-01 -5.06349E-01 -8.63448E-01 +1.50052E-01 -1.38138E+00 +1.33205E+00 -1.14505E+00
 +2.05924E+00 +1.86271E-01 +1.41237E+00 +1.82554E+00 -4.25398E-01 +2.43309E+00 -2.15418E+00 +1.36192E+00
 -2.45158E+00 -6.72664E-01 -1.12760E+00 -2.17840E+00 +7.57354E-01 -2.15894E+00 +1.86833E+00 -8.66899E-01
 +1.68468E+00 +5.94147E-01 +7.15987E-01 +1.30999E+00 -1.95270E-01 +1.19781E+00 -6.57372E-01 +7.51697E-01
 -8.38815E-01 +3.49713E-01 -9.65720E-01 -6.60818E-02 -9.08299E-01 -6.67111E-01 -3.57384E-01 -1.26890E+00
 +6.51096E-01 -1.34780E+00 +1.53173E+00 -5.79203E-01 +1.58037E+00 +6.97741E-01 +6.37735E-01 +1.64206E+00
 -6.99110E-01 +1.59381E+00 -1.54964E+00 +6.22219E-01 -1.45062E+00 -5.75063E-01 -6.33790E-01 -1.27862E+00
 +3.01770E-01 -1.25395E+00 +9.09799E-01 -7.40417E-01 +1.09921E+00 -7.94641E-02 +9.46472E-01 +5.45991E-01
 +4.77870E-01 +1.03566E+00 -2.72908E-01 +1.19328E+00 -1.05176E+00 +7.91520E-01 -1.38893E+00 -1.25984E-01
 -9.52563E-01 -1.08397E+00 +7.55270E-02 -1.44970E+00 +1.04417E+00 -9.56076E-01 +1.33463E+00 +4.09993E-02
 +8.58976E-01 +8.59395E-01 +6.88380E-02 +1.06434E+00 -5.10812E-01 +7.54059E-01 -7.19522E-01 +3.10709E-01
 -7.33283E-01 -5.13834E-02 -6.79507E-01 -4.14661E-01 -4.11164E-01 -8.50569E-01 +2.50656E-01 -1.10679E+00
 +1.09257E+00 -7.57218E-01 +1.47979E+00 +2.67346E-01 +9.00476E-01 +1.37202E+00 -4.23293E-01 +1.67646E+00
 -1.55669E+00 +8.18713E-01 -1.61315E+00 -6.12343E-01 -5.67055E-01 -1.52576E+00 +7.02743E-01 -1.28913E+00
 +1.22304E+00 -2.70490E-01 +8.00014E-01 +5.80840E-01 +8.65071E-02 +6.80697E-01 -1.93183E-01 +3.05267E-01
 -1.17432E-02 +1.41356E-01 +3.20349E-02 +4.19249E-01 -4.70261E-01 +6.16984E-01 -1.11557E+00 +1.00536E-01
 -1.02925E+00 -9.97868E-01 +1.24970E-01 -1.69737E+00 +1.56585E+00 -1.10204E+00 +1.98553E+00 +5.67546E-01
 +8.25241E-01 +1.98394E+00 -1.05561E+00 +1.88849E+00 -2.08365E+00 +3.18611E-01 -1.43063E+00 -1.37075E+00
 +2.11281E-01 -1.77298E+00 +1.33223E+00 -7.44687E-01 +1.08555E+00 +5.47209E-01 +4.29808E-02 +8.75775E-01
 -5.29357E-01 +1.92495E-01 -8.02272E-02 -4.36222E-01 +6.49574E-01 -1.01386E-01 +5.11608E-01 +8.62356E-01
 -6.60203E-01 +1.19450E+00 -1.70277E+00 +1.40384E-01 -1.29157E+00 -1.54608E+00 +5.54815E-01 -2.19806E+00
 +2.27068E+00 -9.25985E-01 +2.18659E+00 +1.33265E+00 +2.23471E-01 +2.57872E+00 -1.91713E+00 +1.66165E+00
 -2.34424E+00 -5.69973E-01 -7.95666E-01 -2.07563E+00 +1.14963E+00 -1.60874E+00 +1.68423E+00 +1.18129E-01
 +5.60550E-01 +1.26087E+00 -7.74698E-01 +7.84765E-01 -8.06759E-01 -5.11567E-01 +3.98219E-01 -9.52024E-01
 +1.28605E+00 +1.14615E-01 +5.66077E-01 +1.52318E+00 -1.25536E+00 +1.51251E+00 -2.26171E+00 -2.96166E-01
 -1.12245E+00 -2.29505E+00 +1.37068E+00 -2.41251E+00 +2.91492E+00 -2.68945E-01 +1.94523E+00 +2.28246E+00
 -7.41262E-01 +2.88625E+00 -2.69047E+00 +9.98419E-01 -2.17555E+00 -1.56447E+00 +1.33247E-01 -2.42746E+00
 +1.90707E+00 -9.94508E-01 +1.54027E+00 +1.05379E+00 -2.77826E-01 +1.58458E+00 -1.40688E+00 +2.40514E-01
 -5.98700E-01 -1.25894E+00 +1.14982E+00 -1.04523E+00 +1.68537E+00 +7.99731E-01 +9.24515E-02 +2.23909E+00
 -2.16814E+00 +1.44136E+00 -2.66734E+00 -1.14843E+00 -5.70617E-01 -3.06941E+00 +2.32595E+00 -2.28383E+00
 +3.26181E+00 +6.73657E-01 +1.26157E+00 +3.09614E+00 -1.83402E+00 +2.73242E+00 -3.15377E+00 +8.10717E-03
 -1.61907E+00 -2.42442E+00 +1.05646E+00 -2.35568E+00 +2.19133E+00 -1.81895E-01 +8.83269E-01 +1.63727E+00
 -1.16135E+00 +1.22099E+00 -1.54648E+00 -7.70862E-01 +1.94207E-01 -1.91260E+00 +2.06516E+00 -6.97088E-01
 +1.75921E+00 +1.73107E+00 -7.65359E-01 +2.68721E+00 -3.04793E+00 +8.04103E-01 -2.58444E+00 -2.35997E+00
 +5.13005E-01 -3.73420E+00 +3.45051E+00 -1.81527E+00 +3.45078E+00 +1.72957E+00 +5.18685E-01 +3.63321E+00
 -2.54872E+00 +2.23177E+00 -2.94071E+00 -9.36570E-01 -5.81187E-01 -2.75025E+00 +1.93566E+00 -1.66251E+00
 +2.10423E+00 +8.43146E-01 +7.14150E-02 +1.95615E+00 -1.64986E+00 +5.69098E-01 -9.74887E-01 -1.56684E+00
 +1.43202E+00 -1.78059E+00 +2.80382E+00 +5.40591E-01 +1.25145E+00 +3.12280E+00 -2.05832E+00 +3.09228E+00
 -3.89876E+00 +5.20263E-02 -2.23560E+00 -3.28970E+00 +1.58770E+00 -3.70562E+00 +4.04177E+00 -6.82923E-01
 +2.85053E+00 +2.99845E+00 -7.82478E-01 +3.97464E+00 -3.41455E+00 +1.57249E+00 -2.79688E+00 -1.65088E+00
 -2.91239E-03 -2.59946E+00 +1.87097E+00 -7.54884E-01 +1.00690E+00 +1.47832E+00 -1.29941E+00 +1.47944E+00
 -2.16241E+00 -7.31912E-01 -3.35440E-01 -2.52567E+00 +2.31665E+00 -1.55617E+00 +2.72552E+00 +1.55257E+00
 -4.61623E-02 +3.64204E+00 -3.57285E+00 +2.23708E+00 -4.34660E+00 -1.75597E+00 -1.32602E+00 -4.73441E+00
 +2.88319E+00 -3.88654E+00 +4.49427E+00 +1.34629E-02 +2.21242E+00 +3.34810E+00 -1.57564E+00 +3.20197E+00
 -3.26330E+00 +1.32372E-01 -1.59475E+00 -2.59382E+00 +1.28119E+00 -2.42408E+00 +2.25654E+00 -3.65101E-02
 +5.73263E-01 +1.60651E+00 -1.48205E+00 +5.78164E-01 -1.18480E+00 -1.88035E+00 +1.52909E+00 -2.69823E+00
 +3.81909E+00 -3.80967E-01 +2.89644E+00 +3.15156E+00 -8.84374E-01 +4.34357E+00 -4.10198E+00 +1.66223E+00
 -3.57859E+00 -2.64232E+00 +3.90694E-01 -4.58694E+00 +4.20839E+00 -2.33066E+00 +4.43763E+00 +2.02015E+00
 +1.09699E+00 +4.50167E+00 -2.50253E+00 +3.15825E+00 -3.14402E+00 -2.08726E-01 -8.25817E-01 -2.09310E+00
 +1.51993E+00 -9.23997E-01 +1.28857E+00 +1.48387E+00 -1.04182E+00 +2.09185E+00 -2.54632E+00 +3.81335E-02
 -1.15657E+00 -2.36919E+00 +1.92296E+00 -2.14741E+00 +3.32467E+00 +1.01154E+00 +1.07288E+00 +4.13507E+00
 -3.13119E+00 +3.87620E+00 -5.37879E+00 +5.11745E-03 -3.39683E+00 -4.14458E+00 +1.11931E+00 -4.83902E+00
 +4.09250E+00 -1.57813E+00 +3.00912E+00 +2.45486E+00 -7.31965E-01 +3.56430E+00 -3.38005E+00 +1.10997E+00
 -2.63360E+00 -2.09955E+00 +2.15565E-01 -2.86608E+00 +1.90071E+00 -8.71537E-01 +7.48674E-01 +1.20914E+00
 -1.58860E+00 +7.63941E-01 -2.03227E+00 -1.83555E+00 +4.53530E-01 -3.57787E+00 +3.55054E+00 -2.08086E+00
 +3.90484E+00 +1.67531E+00 +7.08695E-01 +4.11106E+00 -3.22032E+00 +2.63480E+00 -4.09817E+00 -1.60787E+00
 -9.39425E-01 -4.70461E+00 +3.39958E+00 -3.76473E+00 +4.99070E+00 +2.73483E-01 +2.63669E+00 +3.63471E+00
