 Created: 16-Jan-2021
 $NMID
 ID='D:\BASISSIMULATI'
 FMTDAT='(8E13.5)'
 VOLUME=   1.00000E+00
 TRAMP=   1.00000E+00
 $END
 +2.35519E+01 +2.66458E-02 +2.15288E+01 +9.13039E+00 +1.59828E+01 +1.65496E+01 +7.96691E+00 +2.09714E+01
 -1.01162E+00 +2.16626E+01 -9.28640E+00 +1.86064E+01 -1.53557E+01 +1.24980E+01 -1.81714E+01 +4.60071E+00
 -1.73361E+01 -3.50827E+00 -1.31704E+01 -1.02501E+01 -6.63777E+00 -1.43540E+01 +8.56011E-01 -1.51017E+01
 +7.74856E+00 -1.24596E+01 +1.26336E+01 -7.07352E+00 +1.45384E+01 -1.28209E-01 +1.31108E+01 +6.89836E+00
 +8.67966E+00 +1.25358E+01 +2.17837E+00 +1.56164E+01 -5.05184E+00 +1.55055E+01 -1.15379E+01 +1.22211E+01
 -1.59734E+01 +6.42173E+00 -1.74798E+01 -7.36321E-01 -1.57770E+01 -7.83874E+00 -1.12317E+01 -1.35027E+01
 -4.77264E+00 -1.66558E+01 +2.30549E+00 -1.67481E+01 +8.61120E+00 -1.38552E+01 +1.29408E+01 -8.65270E+00
 +1.45211E+01 -2.26741E+00 +1.31608E+01 +3.96091E+00 +9.28060E+00 +8.75950E+00 +3.81622E+00 +1.11854E+01
 -1.98333E+00 +1.08173E+01 -6.82145E+00 +7.83799E+00 -9.62728E+00 +2.98964E+00 -9.78063E+00 -2.58630E+00
 -7.24191E+00 -7.59263E+00 -2.56052E+00 -1.08520E+01 +3.24004E+00 -1.15572E+01 +8.87646E+00 -9.44540E+00
 +1.30750E+01 -4.85812E+00 +1.48407E+01 +1.32351E+00 +1.36696E+01 +7.85681E+00 +9.66199E+00 +1.33921E+01
 +3.51023E+00 +1.67518E+01 -3.63490E+00 +1.71761E+01 -1.03939E+01 +1.44860E+01 -1.54373E+01 +9.12812E+00
 -1.77570E+01 +2.09231E+00 -1.68744E+01 -5.28226E+00 -1.29435E+01 -1.15738E+01 -6.72546E+00 -1.55635E+01
 +5.58717E-01 -1.64826E+01 +7.47024E+00 -1.41699E+01 +1.26398E+01 -9.10872E+00 +1.50425E+01 -2.33298E+00
 +1.42055E+01 +4.77660E+00 +1.03056E+01 +1.07678E+01 +4.13666E+00 +1.44079E+01 -3.04623E+00 +1.49310E+01
 -9.77593E+00 +1.21947E+01 -1.46656E+01 +6.71023E+00 -1.66860E+01 -4.55481E-01 -1.53720E+01 -7.89066E+00
 -1.09177E+01 -1.41178E+01 -4.13969E+00 -1.78863E+01 +3.68252E+00 -1.84208E+01 +1.10585E+01 -1.55747E+01
 +1.65801E+01 -9.85930E+00 +1.91982E+01 -2.34228E+00 +1.84273E+01 +5.56294E+00 +1.44382E+01 +1.23759E+01
 +8.02028E+00 +1.68396E+01 +4.22014E-01 +1.81644E+01 -6.89843E+00 +1.61790E+01 -1.25618E+01 +1.13563E+01
 -1.55382E+01 +4.71260E+00 -1.53454E+01 -2.40045E+00 -1.21365E+01 -8.56869E+00 -6.65939E+00 -1.25972E+01
 -9.88087E-02 -1.37451E+01 +6.16800E+00 -1.18673E+01 +1.08509E+01 -7.43422E+00 +1.30057E+01 -1.42803E+00
 +1.22207E+01 +4.86294E+00 +8.69336E+00 +1.01097E+01 +3.18280E+00 +1.32135E+01 -3.15069E+00 +1.35268E+01
 -8.98638E+00 +1.09817E+01 -1.31141E+01 +6.09812E+00 -1.46807E+01 -1.26974E-01 -1.33615E+01 -6.42658E+00
 -9.42324E+00 -1.15245E+01 -3.66579E+00 -1.43962E+01 +2.74480E+00 -1.44763E+01 +8.51662E+00 -1.17719E+01
 +1.24968E+01 -6.85725E+00 +1.39065E+01 -7.53245E-01 +1.24986E+01 +5.28395E+00 +8.60510E+00 +1.00217E+01
 +3.06682E+00 +1.25037E+01 -2.94183E+00 +1.22454E+01 -8.15547E+00 +9.33201E+00 -1.14787E+01 +4.39975E+00
 -1.22117E+01 -1.49641E+00 -1.01944E+01 -7.10035E+00 -5.84002E+00 -1.12139E+01 -5.08505E-02 -1.29443E+01
 +5.96619E+00 -1.18887E+01 +1.09469E+01 -8.21959E+00 +1.38293E+01 -2.65173E+00 +1.39725E+01 +3.70128E+00
 +1.12906E+01 +9.55264E+00 +6.27326E+00 +1.37039E+01 -1.10216E-01 +1.52893E+01 -6.60496E+00 +1.39540E+01
 -1.19231E+01 +9.92816E+00 -1.50038E+01 +3.98368E+00 -1.52282E+01 -2.71922E+00 -1.25453E+01 -8.86415E+00
 -7.48409E+00 -1.32427E+01 -1.04828E+00 -1.49975E+01 +5.48460E+00 -1.37941E+01 +1.08192E+01 -9.88879E+00
 +1.39020E+01 -4.07695E+00 +1.41328E+01 +2.46706E+00 +1.14839E+01 +8.42578E+00 +6.50527E+00 +1.26033E+01
 +2.12903E-01 +1.41649E+01 -6.11630E+00 +1.28043E+01 -1.12015E+01 +8.80375E+00 -1.40155E+01 +2.97588E+00
 -1.39902E+01 -3.50072E+00 -1.11304E+01 -9.31942E+00 -6.01040E+00 -1.33085E+01 +3.42010E-01 -1.46665E+01
 +6.65398E+00 -1.31220E+01 +1.16639E+01 -8.98677E+00 +1.43750E+01 -3.09150E+00 +1.42546E+01 +3.38323E+00
 +1.13397E+01 +9.14518E+00 +6.22721E+00 +1.30507E+01 -4.84059E-02 +1.43338E+01 -6.22479E+00 +1.27589E+01
 -1.10668E+01 +8.66541E+00 -1.36151E+01 +2.89685E+00 -1.33775E+01 -3.37139E+00 -1.04265E+01 -8.87063E+00
 -5.38148E+00 -1.24952E+01 +7.18995E-01 -1.35247E+01 +6.62875E+00 -1.17678E+01 +1.11469E+01 -7.59819E+00
 +1.33606E+01 -1.87665E+00 +1.28281E+01 +4.22522E+00 +9.66682E+00 +9.46336E+00 +4.52700E+00 +1.27735E+01
 -1.54165E+00 +1.34860E+01 -7.30392E+00 +1.14603E+01 -1.15899E+01 +7.11144E+00 -1.35318E+01 +1.32487E+00
 -1.27387E+01 -4.72447E+00 -9.37458E+00 -9.81066E+00 -4.12398E+00 -1.29051E+01 +1.94808E+00 -1.33841E+01
 +7.61220E+00 -1.11543E+01 +1.17236E+01 -6.67007E+00 +1.34533E+01 -8.40699E-01 +1.24550E+01 +5.15460E+00
 +8.93352E+00 +1.01054E+01 +3.60249E+00 +1.30146E+01 -2.46142E+00 +1.32990E+01 -8.03659E+00 +1.09056E+01
 -1.20033E+01 +6.32119E+00 -1.35693E+01 +4.71730E-01 -1.24282E+01 -5.46547E+00 -8.81947E+00 -1.03002E+01
 -3.47807E+00 -1.30695E+01 +2.51615E+00 -1.32307E+01 +7.95773E+00 -1.07692E+01 +1.17595E+01 -6.19860E+00
 +1.31716E+01 -4.54698E-01 +1.19313E+01 +5.29590E+00 +8.31348E+00 +9.89285E+00 +3.07244E+00 +1.24168E+01
 -2.71340E+00 +1.23746E+01 -7.86166E+00 +9.79676E+00 -1.13264E+01 +5.22916E+00 -1.24100E+01 -3.80305E-01
 -1.09031E+01 -5.87597E+00 -7.12559E+00 -1.01302E+01 -1.85944E+00 -1.22725E+01 +3.81183E+00 -1.18661E+01
 +8.72455E+00 -8.99515E+00 +1.18720E+01 -4.24665E+00 +1.26088E+01 +1.41048E+00 +1.07819E+01 +6.82326E+00
 +6.76019E+00 +1.08897E+01 +1.35922E+00 +1.27829E+01 -4.32586E+00 +1.21189E+01 -9.14334E+00 +9.03417E+00
 -1.21193E+01 +4.15716E+00 -1.26556E+01 -1.52011E+00 -1.06511E+01 -6.84426E+00 -6.52181E+00 -1.07354E+01
 -1.11603E+00 -1.24067E+01 +4.45870E+00 -1.15246E+01 +9.06094E+00 -8.27668E+00 +1.17478E+01 -3.33332E+00
 +1.19669E+01 +2.28820E+00 +9.66941E+00 +7.43056E+00 +5.32048E+00 +1.10316E+01 -1.94284E-01 +1.23406E+01
 -5.74785E+00 +1.10714E+01 -1.02000E+01 +7.46176E+00 -1.26284E+01 +2.22668E+00 -1.25162E+01 -3.58510E+00
 -9.85757E+00 -8.80209E+00 -5.16043E+00 -1.23661E+01 +6.54427E-01 -1.35460E+01 +6.43763E+00 -1.20854E+01
 +1.10417E+01 -8.25509E+00 +1.35510E+01 -2.79977E+00 +1.34656E+01 +3.21097E+00 +1.08013E+01 +8.59646E+00
 +6.08588E+00 +1.23010E+01 +2.53529E-01 +1.36047E+01 -5.54280E+00 +1.22663E+01 -1.01621E+01 +8.57043E+00
 -1.27029E+01 +3.26870E+00 -1.26827E+01 -2.57195E+00 -1.01324E+01 -7.78389E+00 -5.58740E+00 -1.13327E+01
 +2.15027E-02 -1.25234E+01 +5.55696E+00 -1.11379E+01 +9.90387E+00 -7.47554E+00 +1.21928E+01 -2.29094E+00
 +1.19728E+01 +3.36060E+00 +9.29943E+00 +8.33632E+00 +4.72073E+00 +1.16359E+01 -8.36111E-01 +1.26012E+01
 -6.25311E+00 +1.10468E+01 -1.04473E+01 +7.29325E+00 -1.25882E+01 +2.10014E+00 -1.22625E+01 -3.49022E+00
 -9.55449E+00 -8.36422E+00 -5.02499E+00 -1.15615E+01 +4.05323E-01 -1.24670E+01 +5.64443E+00 -1.09322E+01
 +9.65080E+00 -7.30056E+00 +1.16433E+01 -2.33444E+00 +1.12570E+01 +2.94340E+00 +8.61347E+00 +7.45925E+00
 +4.29174E+00 +1.03070E+01 -7.93167E-01 +1.09310E+01 -5.57958E+00 +9.23687E+00 -9.07710E+00 +5.60728E+00
 -1.05688E+01 +8.20466E-01 -9.75665E+00 -4.11138E+00 -6.82062E+00 -8.15100E+00 -2.37998E+00 -1.04492E+01
 +2.63523E+00 -1.05187E+01 +7.17592E+00 -8.33385E+00 +1.02897E+01 -4.33539E+00 +1.13164E+01 +6.60283E-01
 +1.00241E+01 +5.62834E+00 +6.65652E+00 +9.54549E+00 +1.88470E+00 +1.15996E+01 -3.33007E+00 +1.13564E+01
 -7.93177E+00 +8.84884E+00 -1.09851E+01 +4.57173E+00 -1.18662E+01 -6.18158E-01 -1.03910E+01 -5.67566E+00
 -6.85322E+00 -9.57944E+00 -1.96596E+00 -1.15397E+01 +3.28210E+00 -1.11590E+01 +7.82687E+00 -8.51420E+00
 +1.07446E+01 -4.14162E+00 +1.14394E+01 +1.07054E+00 +9.76502E+00 +6.06133E+00 +6.05529E+00 +9.81159E+00
 +1.05787E+00 +1.15503E+01 -4.21589E+00 +1.09110E+01 -8.69464E+00 +8.00711E+00 -1.14631E+01 +3.40998E+00
 -1.19468E+01 -1.96499E+00 -1.00287E+01 -7.04193E+00 -6.07362E+00 -1.08004E+01 -8.55595E-01 -1.24806E+01
 +4.59655E+00 -1.17355E+01 +9.20514E+00 -8.70124E+00 +1.20592E+01 -3.96966E+00 +1.25963E+01 +1.53018E+00
 +1.07144E+01 +6.71783E+00 +6.79163E+00 +1.05773E+01 +1.60896E+00 +1.23597E+01 -3.80643E+00 +1.17313E+01
 -8.38725E+00 +8.83868E+00 -1.12393E+01 +4.27711E+00 -1.18188E+01 -1.03088E+00 -1.00394E+01 -6.02163E+00
 -6.28616E+00 -9.70403E+00 -1.33536E+00 -1.13574E+01 +3.80361E+00 -1.06743E+01 +8.09257E+00 -7.81886E+00
 +1.06733E+01 -3.39091E+00 +1.10390E+01 +1.69800E+00 +9.13357E+00 +6.41027E+00 +5.36002E+00 +9.79223E+00
 +4.96017E-01 +1.11659E+01 -4.46564E+00 +1.02642E+01 -8.51895E+00 +7.28178E+00 -1.08481E+01 +2.83331E+00
 -1.09914E+01 -2.17389E+00 -8.93225E+00 -6.72504E+00 -5.10016E+00 -9.90404E+00 -2.80862E-01 -1.10784E+01
 +4.54490E+00 -1.00260E+01 +8.40142E+00 -6.97727E+00 +1.05160E+01 -2.56654E+00 +1.04746E+01 +2.29940E+00
 +8.30453E+00 +6.62683E+00 +4.46616E+00 +9.53770E+00 -2.42443E-01 +1.04477E+01 -4.84962E+00 +9.18414E+00
 -8.40887E+00 +6.01935E+00 -1.01917E+01 +1.61372E+00 -9.83569E+00 -3.12023E+00 -7.41744E+00 -7.20477E+00
 -3.43609E+00 -9.79657E+00 +1.28920E+00 -1.03587E+01 +5.78676E+00 -8.76993E+00 +9.13075E+00 -5.34902E+00
 +1.06299E+01 -7.89858E-01 +9.96853E+00 +3.98005E+00 +7.27072E+00 +7.98832E+00 +3.07557E+00 +1.04155E+01
 -1.77223E+00 +1.07617E+01 -6.29372E+00 +8.94847E+00 -9.57416E+00 +5.33501E+00 -1.09486E+01 +6.45515E-01
 -1.01367E+01 -4.17717E+00 -7.29948E+00 -8.16239E+00 -3.00722E+00 -1.05080E+01 +1.87620E+00 -1.07425E+01
 +6.36768E+00 -8.82036E+00 +9.56358E+00 -5.13095E+00 +1.08221E+01 -4.19730E-01 +9.89263E+00 +4.36246E+00
 +6.96601E+00 +8.25151E+00 +2.63551E+00 +1.04646E+01 -2.22336E+00 +1.05577E+01 -6.62979E+00 +8.51510E+00
 -9.69566E+00 +4.75146E+00 -1.08045E+01 +2.78083E-02 -9.73530E+00 -4.70264E+00 -6.70639E+00 -8.48700E+00
 -2.33047E+00 -1.05648E+01 +2.50963E+00 -1.05209E+01 +6.83959E+00 -8.36841E+00 +9.79015E+00 -4.54500E+00
 +1.07721E+01 +1.76343E-01 +9.59413E+00 +4.84401E+00 +6.50062E+00 +8.52009E+00 +2.12080E+00 +1.04694E+01
 -2.65912E+00 +1.03070E+01 -6.87547E+00 +8.07487E+00 -9.68174E+00 +4.23202E+00 -1.05189E+01 -4.39561E-01
 -9.22747E+00 -4.99369E+00 -6.07791E+00 -8.51155E+00 -1.71504E+00 -1.02871E+01 +2.97374E+00 -9.96889E+00
 +7.03842E+00 -7.63001E+00 +9.65859E+00 -3.75178E+00 +1.03088E+01 +8.74791E-01 +8.86401E+00 +5.30989E+00
