 Created: 16-Jan-2021
 $NMID
 ID='D:\BASISSIMULATI'
 FMTDAT='(8E13.5)'
 VOLUME=   1.00000E+00
 TRAMP=   1.00000E+00
 $END
 +1.10588E+01 +1.24837E-02 +9.92137E+00 +2.43767E+00 +6.84904E+00 +4.54970E+00 +2.66129E+00 +6.06407E+00
 -1.55469E+00 +6.74799E+00 -4.76010E+00 +6.46977E+00 -6.25738E+00 +5.25447E+00 -5.87210E+00 +3.32116E+00
 -3.97302E+00 +1.07527E+00 -1.33144E+00 -9.60446E-01 +1.12979E+00 -2.27087E+00 +2.61599E+00 -2.49957E+00
 +2.68322E+00 -1.57874E+00 +1.34146E+00 +2.11420E-01 -9.82957E-01 +2.28638E+00 -3.60207E+00 +3.90510E+00
 -5.78088E+00 +4.38682E+00 -6.94234E+00 +3.33317E+00 -6.80396E+00 +7.83437E-01 -5.41578E+00 -2.75432E+00
 -3.10358E+00 -6.41695E+00 -3.50098E-01 -9.21928E+00 +2.34020E+00 -1.03405E+01 +4.55087E+00 -9.37651E+00
 +6.01380E+00 -6.47686E+00 +6.61849E+00 -2.32017E+00 +6.38671E+00 +2.07040E+00 +5.43633E+00 +5.61757E+00
 +3.95278E+00 +7.49875E+00 +2.17373E+00 +7.37862E+00 +3.78632E-01 +5.49458E+00 -1.13213E+00 +2.57050E+00
 -2.08076E+00 -4.12493E-01 -2.27750E+00 -2.51508E+00 -1.69128E+00 -3.11587E+00 -4.96973E-01 -2.08165E+00
 +9.29562E-01 +2.15367E-01 +2.08425E+00 +3.03134E+00 +2.46747E+00 +5.48711E+00 +1.74317E+00 +6.82992E+00
 -1.25867E-01 +6.64081E+00 -2.81773E+00 +4.93009E+00 -5.69837E+00 +2.10271E+00 -7.97551E+00 -1.18387E+00
 -8.92192E+00 -4.21595E+00 -8.10277E+00 -6.41059E+00 -5.53391E+00 -7.44085E+00 -1.71424E+00 -7.27314E+00
 +2.48767E+00 -6.12182E+00 +6.06610E+00 -4.35067E+00 +8.16347E+00 -2.36141E+00 +8.32162E+00 -5.04461E-01
 +6.61984E+00 +9.69795E-01 +3.65372E+00 +1.92053E+00 +3.58668E-01 +2.30251E+00 -2.26953E+00 +2.14836E+00
 -3.47132E+00 +1.55995E+00 -2.94606E+00 +7.08583E-01 -9.32999E-01 -1.68089E-01 +1.87222E+00 -7.88865E-01
 +4.53673E+00 -8.81554E-01 +6.17507E+00 -2.60646E-01 +6.21066E+00 +1.09135E+00 +4.53592E+00 +2.97108E+00
 +1.52739E+00 +4.96031E+00 -2.08115E+00 +6.50575E+00 -5.42126E+00 +7.06171E+00 -7.73544E+00 +6.25934E+00
 -8.57173E+00 +4.04892E+00 -7.87483E+00 +7.62792E-01 -5.95766E+00 -2.93312E+00 -3.37533E+00 -6.19764E+00
 -7.50556E-01 -8.24290E+00 +1.39220E+00 -8.56670E+00 +2.73763E+00 -7.11467E+00 +3.21363E+00 -4.31614E+00
 +2.95460E+00 -9.74730E-01 +2.22111E+00 +1.95918E+00 +1.31062E+00 +3.66778E+00 +4.88115E-01 +3.71144E+00
 -5.04578E-02 +2.16326E+00 -1.85928E-01 -4.11419E-01 +1.29991E-01 -3.12599E+00 +8.78174E-01 -5.04230E+00
 +1.96560E+00 -5.45569E+00 +3.21430E+00 -4.10776E+00 +4.36120E+00 -1.26230E+00 +5.08598E+00 +2.37648E+00
 +5.07490E+00 +5.87484E+00 +4.11187E+00 +8.34191E+00 +2.17127E+00 +9.17941E+00 -5.23279E-01 +8.23510E+00
 -3.50567E+00 +5.81941E+00 -6.15370E+00 +2.58911E+00 -7.84202E+00 -6.58036E-01 -8.12188E+00 -3.20984E+00
 -6.87202E+00 -4.61914E+00 -4.36700E+00 -4.78859E+00 -1.23081E+00 -3.94735E+00 +1.72112E+00 -2.54046E+00
 +3.71104E+00 -1.07597E+00 +4.23137E+00 +1.90752E-02 +3.20702E+00 +4.93466E-01 +1.03205E+00 +2.99955E-01
 -1.53722E+00 -4.36248E-01 -3.60478E+00 -1.48399E+00 -4.40752E+00 -2.57781E+00 -3.55357E+00 -3.47192E+00
 -1.15158E+00 -3.96845E+00 +2.21132E+00 -3.92628E+00 +5.63737E+00 -3.26491E+00 +8.18061E+00 -1.97577E+00
 +9.12342E+00 -1.43482E-01 +8.18242E+00 +2.03302E+00 +5.58273E+00 +4.23826E+00 +1.98139E+00 +6.07422E+00
 -1.73215E+00 +7.13655E+00 -4.69378E+00 +7.12071E+00 -6.30090E+00 +5.92802E+00 -6.35821E+00 +3.73319E+00
 -5.09593E+00 +9.80326E-01 -3.06473E+00 -1.70596E+00 -9.49074E-01 -3.67916E+00 +6.38237E-01 -4.45718E+00
 +1.31775E+00 -3.87846E+00 +1.01876E+00 -2.17366E+00 -4.25998E-02 +7.90339E-02 -1.46248E+00 +2.11072E+00
 -2.78456E+00 +3.18923E+00 -3.62591E+00 +2.84905E+00 -3.75900E+00 +1.05059E+00 -3.13606E+00 -1.78540E+00
 -1.86377E+00 -4.88506E+00 -1.50439E-01 -7.34181E+00 +1.74922E+00 -8.38464E+00 +3.57457E+00 -7.61197E+00
 +5.08122E+00 -5.11811E+00 +6.05324E+00 -1.47240E+00 +6.31898E+00 +2.44308E+00 +5.77933E+00 +5.68705E+00
 +4.44609E+00 +7.52572E+00 +2.47556E+00 +7.63194E+00 +1.76011E-01 +6.15872E+00 -2.02919E+00 +3.66963E+00
 -3.68672E+00 +9.53237E-01 -4.43109E+00 -1.21676E+00 -4.10167E+00 -2.30087E+00 -2.81780E+00 -2.12843E+00
 -9.77820E-01 -9.13924E-01 +8.30483E-01 +8.40208E-01 +1.99118E+00 +2.51468E+00 +2.04914E+00 +3.56043E+00
 +8.67538E-01 +3.64456E+00 -1.30100E+00 +2.71764E+00 -3.86053E+00 +9.93291E-01 -6.03018E+00 -1.14024E+00
 -7.07188E+00 -3.23962E+00 -6.51960E+00 -4.91679E+00 -4.33713E+00 -5.91109E+00 -9.51742E-01 -6.11302E+00
 +2.85205E+00 -5.54800E+00 +6.14967E+00 -4.33987E+00 +8.14033E+00 -2.67446E+00 +8.37684E+00 -7.74786E-01
 +6.89104E+00 +1.11266E+00 +4.17655E+00 +2.73133E+00 +1.03542E+00 +3.83998E+00 -1.66269E+00 +4.25595E+00
 -3.23364E+00 +3.90922E+00 -3.36749E+00 +2.88836E+00 -2.19808E+00 +1.45411E+00 -2.37754E-01 +2.21001E-03
 +1.79625E+00 -1.02717E+00 +3.20529E+00 -1.27461E+00 +3.51253E+00 -5.84914E-01 +2.58648E+00 +9.14340E-01
 +6.54551E-01 +2.81405E+00 -1.78775E+00 +4.51618E+00 -4.13481E+00 +5.39930E+00 -5.84256E+00 +5.01103E+00
 -6.56211E+00 +3.22721E+00 -6.20222E+00 +3.22880E-01 -4.91378E+00 -3.07533E+00 -3.01472E+00 -6.14905E+00
 -8.88473E-01 -8.11694E+00 +1.10900E+00 -8.46413E+00 +2.71014E+00 -7.10070E+00 +3.75762E+00 -4.39735E+00
 +4.19627E+00 -1.08379E+00 +4.05226E+00 +1.96135E+00 +3.41526E+00 +3.96586E+00 +2.43015E+00 +4.48633E+00
 +1.29327E+00 +3.52969E+00 +2.40762E-01 +1.53773E+00 -4.82767E-01 -7.58299E-01 -6.78054E-01 -2.56582E+00
 -2.56559E-01 -3.26994E+00 +7.05322E-01 -2.61042E+00 +1.94963E+00 -7.45533E-01 +3.07643E+00 +1.81109E+00
 +3.64055E+00 +4.35482E+00 +3.28407E+00 +6.20017E+00 +1.86553E+00 +6.87119E+00 -4.59189E-01 +6.21716E+00
 -3.23948E+00 +4.42647E+00 -5.82681E+00 +1.94476E+00 -7.54568E+00 -6.68007E-01 -7.89117E+00 -2.89248E+00
 -6.69191E+00 -4.37057E+00 -4.18363E+00 -4.96301E+00 -9.63470E-01 -4.73898E+00 +2.16768E+00 -3.91497E+00
 +4.43129E+00 -2.77242E+00 +5.29780E+00 -1.58356E+00 +4.64350E+00 -5.64070E-01 +2.78714E+00 +1.44051E-01
 +3.93029E-01 +4.68897E-01 -1.73091E+00 +3.99558E-01 -2.87808E+00 -1.70346E-02 -2.65577E+00 -6.71508E-01
 -1.10010E+00 -1.38838E+00 +1.34043E+00 -1.93744E+00 +3.94521E+00 -2.07117E+00 +5.93989E+00 -1.58821E+00
 +6.72400E+00 -4.08274E-01 +6.03893E+00 +1.36756E+00 +4.02859E+00 +3.43933E+00 +1.18034E+00 +5.35234E+00
 -1.82866E+00 +6.60184E+00 -4.32767E+00 +6.77479E+00 -5.82983E+00 +5.68676E+00 -6.14091E+00 +3.46753E+00
 -5.37476E+00 +5.59905E-01 -3.88215E+00 -2.37833E+00 -2.12499E+00 -4.64784E+00 -5.40468E-01 -5.70791E+00
 +5.64041E-01 -5.34168E+00 +1.06069E+00 -3.73187E+00 +9.92720E-01 -1.41798E+00 +5.24103E-01 +8.57253E-01
 -1.26834E-01 +2.36833E+00 -7.45353E-01 +2.62756E+00 -1.15594E+00 +1.53683E+00 -1.23530E+00 -5.77898E-01
 -9.12900E-01 -3.06175E+00 -1.71872E-01 -5.12702E+00 +9.41938E-01 -6.08996E+00 +2.30542E+00 -5.57525E+00
 +3.71011E+00 -3.62591E+00 +4.87609E+00 -6.87085E-01 +5.49782E+00 +2.52856E+00 +5.31923E+00 +5.24924E+00
 +4.21994E+00 +6.86107E+00 +2.28347E+00 +7.06844E+00 -1.82537E-01 +5.95343E+00 -2.69286E+00 +3.92344E+00
 -4.69558E+00 +1.57088E+00 -5.72134E+00 -5.06104E-01 -5.52727E+00 -1.86546E+00 -4.18760E+00 -2.32017E+00
 -2.09537E+00 -1.95279E+00 +1.34138E-01 -1.05254E+00 +1.83585E+00 -4.66355E-03 +2.49383E+00 +8.27845E-01
 +1.90493E+00 +1.19456E+00 +2.53398E-01 +9.99331E-01 -1.93185E+00 +2.92681E-01 -3.92845E+00 -7.70026E-01
 -5.03674E+00 -1.98186E+00 -4.79503E+00 -3.12941E+00 -3.12670E+00 -4.02011E+00 -3.72639E-01 -4.49430E+00
 +2.80233E+00 -4.43230E+00 +5.60043E+00 -3.76739E+00 +7.32060E+00 -2.50841E+00 +7.55673E+00 -7.65336E-01
 +6.30494E+00 +1.23724E+00 +3.95034E+00 +3.17563E+00 +1.14130E+00 +4.68049E+00 -1.40600E+00 +5.42304E+00
 -3.11112E+00 +5.21262E+00 -3.67965E+00 +4.07367E+00 -3.15951E+00 +2.27064E+00 -1.89374E+00 +2.61942E-01
 -3.92837E-01 -1.41340E+00 +8.27925E-01 -2.28857E+00 +1.39435E+00 -2.11593E+00 +1.16138E+00 -9.59427E-01
 +2.24843E-01 +8.03173E-01 -1.13560E+00 +2.57675E+00 -2.55503E+00 +3.72069E+00 -3.68747E+00 +3.74620E+00
 -4.28469E+00 +2.47770E+00 -4.23304E+00 +1.25134E-01 -3.54903E+00 -2.75966E+00 -2.34788E+00 -5.43323E+00
 -8.04164E-01 -7.17395E+00 +8.79920E-01 -7.49382E+00 +2.49367E+00 -6.28335E+00 +3.82913E+00 -3.84458E+00
 +4.69514E+00 -8.02187E-01 +4.94283E+00 +2.07951E+00 +4.50265E+00 +4.11655E+00 +3.42247E+00 +4.89522E+00
 +1.88847E+00 +4.37546E+00 +2.10948E-01 +2.88011E+00 -1.23326E+00 +9.78289E-01 -2.09434E+00 -6.96250E-01
 -2.15485E+00 -1.63360E+00 -1.41263E+00 -1.58609E+00 -1.08371E-01 -6.19055E-01 +1.32056E+00 +9.33882E-01
 +2.35557E+00 +2.58884E+00 +2.55190E+00 +3.86081E+00 +1.68690E+00 +4.39648E+00 -1.47940E-01 +4.05402E+00
 -2.54618E+00 +2.91416E+00 -4.88470E+00 +1.23011E+00 -6.49679E+00 -6.58450E-01 -6.86979E+00 -2.41568E+00
 -5.80618E+00 -3.77778E+00 -3.49602E+00 -4.58612E+00 -4.74826E-01 -4.78737E+00 +2.52334E+00 -4.41375E+00
 +4.77444E+00 -3.55942E+00 +5.77133E+00 -2.36368E+00 +5.36579E+00 -1.00241E+00 +3.80240E+00 +3.19815E-01
 +1.63545E+00 +1.38779E+00 -4.44146E-01 +2.01054E+00 -1.81676E+00 +2.06993E+00 -2.11299E+00 +1.56901E+00
 -1.31037E+00 +6.59006E-01 +2.77747E-01 -3.73545E-01 +2.11223E+00 -1.16753E+00 +3.59855E+00 -1.38606E+00
 +4.26250E+00 -8.27038E-01 +3.87841E+00 +4.91003E-01 +2.51572E+00 +2.30116E+00 +4.97428E-01 +4.13702E+00
 -1.70847E+00 +5.45203E+00 -3.62537E+00 +5.77857E+00 -4.88930E+00 +4.87900E+00 -5.32233E+00 +2.83905E+00
 -4.94498E+00 +6.87874E-02 -3.93536E+00 -2.79578E+00 -2.55783E+00 -5.06566E+00 -1.08861E+00 -6.19587E+00
 +2.39688E-01 -5.94633E+00 +1.26527E+00 -4.45518E+00 +1.89960E+00 -2.20003E+00 +2.11723E+00 +1.43082E-01
 +1.94579E+00 +1.90030E+00 +1.46294E+00 +2.59877E+00 +7.97708E-01 +2.10268E+00 +1.26520E-01 +6.45436E-01
 -3.47198E-01 -1.25005E+00 -4.34775E-01 -2.93612E+00 -1.93699E-02 -3.83762E+00 +8.88894E-01 -3.62067E+00
 +2.12273E+00 -2.28302E+00 +3.37204E+00 -1.42560E-01 +4.24958E+00 +2.26704E+00 +4.39649E+00 +4.35663E+00
 +3.59892E+00 +5.64638E+00 +1.87773E+00 +5.88609E+00 -4.83069E-01 +5.10006E+00 -2.98703E+00 +3.55117E+00
 -5.04816E+00 +1.64421E+00 -6.15375E+00 -1.95598E-01 -6.01874E+00 -1.63038E+00 -4.68167E+00 -2.47494E+00
 -2.50802E+00 -2.70911E+00 -9.45067E-02 -2.44488E+00 +1.90037E+00 -1.86881E+00 +2.94947E+00 -1.18327E+00
