 Created: 16-Jan-2021
 $NMID
 ID='D:\BASISSIMULATI'
 FMTDAT='(8E13.5)'
 VOLUME=   1.00000E+00
 TRAMP=   1.00000E+00
 $END
 +3.68605E+00 +4.17727E-03 +3.58494E+00 +8.37292E-01 +3.29826E+00 +1.62491E+00 +2.84132E+00 +2.32633E+00
 +2.23825E+00 +2.90539E+00 +1.52067E+00 +3.33240E+00 +7.26059E-01 +3.58559E+00 -1.04190E-01 +3.65228E+00
 -9.26954E-01 +3.52949E+00 -1.69960E+00 +3.22404E+00 -2.38221E+00 +2.75224E+00 -2.93962E+00 +2.13895E+00
 -3.34325E+00 +1.41633E+00 -3.57256E+00 +6.22107E-01 -3.61611E+00 -2.02373E-01 -3.47210E+00 -1.01429E+00
 -3.14847E+00 -1.77160E+00 -2.66245E+00 -2.43517E+00 -2.03964E+00 -2.97084E+00 -1.31266E+00 -3.35117E+00
 -5.19457E-01 -3.55683E+00 +2.98678E-01 -3.57760E+00 +1.09928E+00 -3.41287E+00 +1.84088E+00 -3.07164E+00
 +2.48520E+00 -2.57205E+00 +2.99908E+00 -1.94038E+00 +3.35620E+00 -1.20971E+00 +3.53846E+00 -4.18171E-01
 +3.53683E+00 +3.93058E-01 +3.35188E+00 +1.18188E+00 +2.99363E+00 +1.90745E+00 +2.48111E+00 +2.53233E+00
 +1.84126E+00 +3.02437E+00 +1.10757E+00 +3.35840E+00 +3.18309E-01 +3.51751E+00 -4.85470E-01 +3.49388E+00
 -1.26207E+00 +3.28920E+00 -1.97129E+00 +2.91453E+00 -2.57655E+00 +2.38972E+00 -3.04673E+00 +1.74236E+00
 -3.35780E+00 +1.00630E+00 -3.49403E+00 +2.19927E-01 -3.44880E+00 -5.75873E-01 -3.22491E+00 -1.33982E+00
 -2.83441E+00 -2.03240E+00 -2.29797E+00 -2.61789E+00 -1.64375E+00 -3.06621E+00 -9.05971E-01 -3.35446E+00
 -1.23080E-01 -3.46810E+00 +6.64226E-01 -3.40168E+00 +1.41513E+00 -3.15910E+00 +2.09078E+00 -2.75337E+00
 +2.65637E+00 -2.20593E+00 +3.08283E+00 -1.54552E+00 +3.34843E+00 -8.06650E-01 +3.43978E+00 -2.78213E-02
 +3.35260E+00 +7.50494E-01 +3.09185E+00 +1.48795E+00 +2.67148E+00 +2.14643E+00 +2.11369E+00 +2.69199E+00
 +1.44773E+00 +3.09664E+00 +7.08399E-01 +3.33975E+00 -6.57990E-02 +3.40913E+00 -8.34643E-01 +3.30162E+00
 -1.55829E+00 +3.02323E+00 -2.19935E+00 +2.58883E+00 -2.72479E+00 +2.02132E+00 -3.10766E+00 +1.35046E+00
 -3.32849E+00 +6.11280E-01 -3.37622E+00 -1.57733E-01 -3.24882E+00 -9.16639E-01 -2.95334E+00 -1.62612E+00
 -2.50550E+00 -2.24954E+00 -1.92891E+00 -2.75478E+00 -1.25378E+00 -3.11595E+00 -5.15354E-01 -3.31469E+00
 +2.47934E-01 -3.34112E+00 +9.96454E-01 -3.19428E+00 +1.69144E+00 -2.88224E+00 +2.29701E+00 -2.42157E+00
 +2.78198E+00 -1.83653E+00 +3.12153E+00 -1.15776E+00 +3.29842E+00 -4.20678E-01 +3.30388E+00 +3.36358E-01
 +3.13807E+00 +1.07406E+00 +2.81001E+00 +1.75423E+00 +2.33711E+00 +2.34176E+00 +1.74425E+00 +2.80643E+00
 +1.06246E+00 +3.12446E+00 +3.27308E-01 +3.27973E+00 -4.22965E-01 +3.26459E+00 -1.14943E+00 +3.08027E+00
 -1.81449E+00 +2.73674E+00 -2.38382E+00 +2.25221E+00 -2.82816E+00 +1.65215E+00 -3.12477E+00 +9.67953E-01
 -3.25867E+00 +2.35298E-01 -3.22331E+00 -5.07715E-01 -3.02095E+00 -1.22254E+00 -2.66251E+00 -1.87221E+00
 -2.16695E+00 -2.42319E+00 -1.56030E+00 -2.84718E+00 -8.74300E-01 -3.12252E+00 -1.44700E-01 -3.23530E+00
 +5.90570E-01 -3.18010E+00 +1.29338E+00 -2.96019E+00 +1.92738E+00 -2.58738E+00 +2.45989E+00 -2.08139E+00
 +2.86354E+00 -1.46878E+00 +3.11774E+00 -7.81563E-01 +3.20969E+00 -5.55625E-02 +3.13504E+00 +6.71496E-01
 +2.89805E+00 +1.36192E+00 +2.51144E+00 +1.98002E+00 +1.99562E+00 +2.49392E+00 +1.37764E+00 +2.87726E+00
 +6.89803E-01 +3.11049E+00 -3.20658E-02 +3.18190E+00 -7.50460E-01 +3.08819E+00 -1.42815E+00 +2.83463E+00
 -2.03011E+00 +2.43477E+00 -2.52532E+00 +1.90971E+00 -2.88839E+00 +1.28697E+00 -3.10082E+00 +5.99077E-01
 -3.15198E+00 -1.18140E-01 -3.03962E+00 -8.27432E-01 -2.76999E+00 -1.49205E+00 -2.35744E+00 -2.07766E+00
 -1.82373E+00 -2.55410E+00 -1.19682E+00 -2.89695E+00 -5.09442E-01 -3.08877E+00 +2.02616E-01 -3.12000E+00
 +9.02382E-01 -2.98941E+00 +1.55362E+00 -2.70420E+00 +2.12268E+00 -2.27952E+00 +2.58029E+00 -1.73775E+00
 +2.90299E+00 -1.10726E+00 +3.07440E+00 -4.20952E-01 +3.08601E+00 +2.85452E-01 +2.93763E+00 +9.75286E-01
 +2.63734E+00 +1.61283E+00 +2.20110E+00 +2.16518E+00 +1.65185E+00 +2.60390E+00 +1.01835E+00 +2.90654E+00
 +3.33660E-01 +3.05776E+00 -3.66610E-01 +3.05009E+00 -1.04612E+00 +2.88434E+00 -1.66969E+00 +2.56949E+00
 -2.20515E+00 +2.12223E+00 -2.62496E+00 +1.56609E+00 -2.90764E+00 +9.30164E-01 -3.03890E+00 +2.47617E-01
 -3.01229E+00 -4.46052E-01 -2.82961E+00 -1.11486E+00 -2.50071E+00 -1.72419E+00 -2.04300E+00 -2.24262E+00
 -1.48054E+00 -2.64350E+00 -8.42749E-01 -2.90635E+00 -1.62871E-01 -3.01787E+00 +5.23742E-01 -2.97269E+00
 +1.18148E+00 -2.77352E+00 +1.77633E+00 -2.43108E+00 +2.27760E+00 -1.96348E+00 +2.65956E+00 -1.39527E+00
 +2.90269E+00 -7.56168E-01 +2.99474E+00 -7.94700E-02 +2.93133E+00 +5.99649E-01 +2.71613E+00 +1.24598E+00
 +2.36067E+00 +1.82610E+00 +1.88373E+00 +2.31011E+00 +1.31035E+00 +2.67315E+00 +6.70477E-01 +2.89671E+00
 -2.54207E-03 +2.96956E+00 -6.73740E-01 +2.88829E+00 -1.30833E+00 +2.65751E+00 -1.87350E+00 +2.28955E+00
 -2.34015E+00 +1.80383E+00 -2.68431E+00 +1.22583E+00 -2.88847E+00 +5.85730E-01 -2.94238E+00 -8.31219E-02
 -2.84364E+00 -7.45986E-01 -2.59773E+00 -1.36852E+00 -2.21779E+00 -1.91855E+00 -1.72384E+00 -2.36774E+00
 -1.14177E+00 -2.69308E+00 -5.01980E-01 -2.87799E+00 +1.62228E-01 -2.91326E+00 +8.16360E-01 -2.79743E+00
 +1.42653E+00 -2.53687E+00 +1.96123E+00 -2.14547E+00 +2.39292E+00 -1.64384E+00 +2.69948E+00 -1.05825E+00
 +2.86534E+00 -4.19280E-01 +2.88226E+00 +2.39822E-01 +2.74973E+00 +8.84838E-01 +2.47499E+00 +1.48237E+00
 +2.07265E+00 +2.00156E+00 +1.56388E+00 +2.41569E+00 +9.75318E-01 +2.70356E+00 +3.37678E-01 +2.85056E+00
 -3.15866E-01 +2.84944E+00 -9.51396E-01 +2.70061E+00 -1.53601E+00 +2.41216E+00 -2.03954E+00 +1.99940E+00
 -2.43608E+00 +1.48403E+00 -2.70535E+00 +8.93031E-01 -2.83371E+00 +2.57222E-01 -2.81485E+00 -3.90325E-01
 -2.65013E+00 -1.01601E+00 -2.34845E+00 -1.58746E+00 -1.92579E+00 -2.07519E+00 -1.40436E+00 -2.45412E+00
 -8.11446E-01 -2.70489E+00 -1.77958E-01 -2.81482E+00 +4.63165E-01 -2.77856E+00 +1.07867E+00 -2.59836E+00
 +1.63671E+00 -2.28392E+00 +2.10852E+00 -1.85188E+00 +2.46984E+00 -1.32493E+00 +2.70222E+00 -7.30619E-01
 +2.79395E+00 -9.99304E-02 +2.74062E+00 +5.34355E-01 +2.54536E+00 +1.13935E+00 +2.21864E+00 +1.68376E+00
 +1.77774E+00 +2.13953E+00 +1.24579E+00 +2.48325E+00 +6.50602E-01 +2.69738E+00 +2.31816E-02 +2.77115E+00
 -6.03866E-01 +2.70109E+00 -1.19804E+00 +2.49119E+00 -1.72861E+00 +2.15268E+00 -2.16825E+00 +1.70343E+00
 -2.49439E+00 +1.16701E+00 -2.69042E+00 +5.71447E-01 -2.74648E+00 -5.22477E-02 -2.66004E+00 -6.71668E-01
 -2.43593E+00 -1.25472E+00 -2.08611E+00 -1.77126E+00 -1.62903E+00 -2.19469E+00 -1.08865E+00 -2.50330E+00
 -4.93204E-01 -2.68136E+00 +1.26319E-01 -2.71999E+00 +7.37738E-01 -2.61753E+00 +1.30938E+00 -2.37963E+00
 +1.81172E+00 -2.01899E+00 +2.21887E+00 -1.55459E+00 +2.50999E+00 -1.01077E+00 +2.67027E+00 -4.15920E-01
 +2.69173E+00 +1.98994E-01 +2.57360E+00 +8.02051E-01 +2.32237E+00 +1.36202E+00 +1.95138E+00 +1.84998E+00
 +1.48017E+00 +2.24081E+00 +9.33412E-01 +2.51451E+00 +3.39644E-01 +2.65718E+00 -2.70240E-01 +2.66175E+00
 -8.64584E-01 +2.52834E+00 -1.41262E+00 +2.26420E+00 -1.88605E+00 +1.88335E+00 -2.26053E+00 +1.40583E+00
 -2.51689E+00 +8.56638E-01 -2.64214E+00 +2.64419E-01 -2.63012E+00 -3.40021E-01 -2.48179E+00 -9.25317E-01
 -2.20518E+00 -1.46118E+00 -1.81496E+00 -1.91995E+00 -1.33164E+00 -2.27805E+00 -7.80501E-01 -2.51717E+00
 -1.90289E-01 -2.62520E+00 +4.08306E-01 -2.59688E+00 +9.84233E-01 -2.43401E+00 +1.50770E+00 -2.14539E+00
 +1.95169E+00 -1.74628E+00 +2.29340E+00 -1.25765E+00 +2.51537E+00 -7.05052E-01 +2.60640E+00 -1.17296E-01
 +2.56209E+00 +4.75066E-01 +2.38508E+00 +1.04131E+00 +2.08488E+00 +1.55216E+00 +1.67736E+00 +1.98127E+00
 +1.18392E+00 +2.30660E+00 +6.30340E-01 +2.51154E+00 +4.54791E-02 +2.58579E+00 -5.40271E-01 +2.52580E+00
 -1.09655E+00 +2.33504E+00 -1.59458E+00 +2.02371E+00 -2.00871E+00 +1.60827E+00 -2.31768E+00 +1.11050E+00
 -2.50572E+00 +5.56414E-01 -2.56341E+00 -2.51223E-02 -2.48808E+00 -6.03897E-01 -2.28396E+00 -1.14991E+00
 -1.96196E+00 -1.63495E+00 -1.53906E+00 -2.03403E+00 -1.03745E+00 -2.32666E+00 -4.83322E-01 -2.49795E+00
 +9.44718E-02 -2.53933E+00 +6.65918E-01 -2.44897E+00 +1.20141E+00 -2.23189E+00 +1.67328E+00 -1.89967E+00
 +2.05723E+00 -1.46980E+00 +2.33358E+00 -9.64828E-01 +2.48826E+00 -4.11107E-01 +2.51358E+00 +1.62535E-01
 +2.40854E+00 +7.26311E-01 +2.17891E+00 +1.25102E+00 +1.83691E+00 +1.70957E+00 +1.40054E+00 +2.07834E+00
 +8.92679E-01 +2.33846E+00 +3.39814E-01 +2.47671E+00 -2.29277E-01 +2.48622E+00 -7.85055E-01 +2.36683E+00
 -1.29874E+00 +2.12506E+00 -1.74382E+00 +1.77373E+00 -2.09739E+00 +1.33135E+00 -2.34134E+00 +8.21056E-01
 -2.46332E+00 +2.69487E-01 -2.45730E+00 -2.94668E-01 -2.32392E+00 -8.42131E-01 -2.07041E+00 -1.34457E+00
 -1.71021E+00 -1.77604E+00 -1.26226E+00 -2.11437E+00 -7.50009E-01 -2.34225E+00 -2.00164E-01 -2.44814E+00
 +3.58676E-01 -2.42687E+00 +8.97521E-01 -2.27984E+00 +1.38849E+00 -2.01501E+00 +1.80625E+00 -1.64639E+00
 +2.12933E+00 -1.19335E+00 +2.34123E+00 -6.79586E-01 +2.43123E+00 -1.31887E-01 +2.39498E+00 +4.21274E-01
 +2.23467E+00 +9.51209E-01 +1.95892E+00 +1.43051E+00 +1.58233E+00 +1.83445E+00 +1.12466E+00 +2.14228E+00
 +6.09833E-01 +2.33830E+00 +6.46916E-02 +2.41261E+00 -4.82435E-01 +2.36168E+00 -1.00318E+00 +2.18845E+00
 -1.47062E+00 +1.90221E+00 -1.86065E+00 +1.51809E+00 -2.15325E+00 +1.05624E+00 -2.33350E+00 +5.40797E-01
 -2.39234E+00 -1.38474E-03 -2.32702E+00 -5.42134E-01 -2.14124E+00 -1.05342E+00 -1.84493E+00 -1.50882E+00
 -1.45373E+00 -1.88487E+00 -9.88151E-01 -2.16226E+00 -4.72521E-01 -2.32688E+00 +6.63076E-02 -2.37046E+00
 +6.00347E-01 -2.29106E+00 +1.10193E+00 -2.09310E+00 +1.54513E+00 -1.78713E+00 +1.90712E+00 -1.38929E+00
 +2.16934E+00 -9.20439E-01 +2.31846E+00 -4.05049E-01 +2.34702E+00 +1.30044E-01 +2.25385E+00 +6.57052E-01
 +2.04408E+00 +1.14868E+00 +1.72887E+00 +1.57953E+00 +1.32484E+00 +1.92742E+00 +8.53153E-01 +2.17452E+00
 +3.38421E-01 +2.30829E+00 -1.92562E-01 +2.32206E+00 -7.12230E-01 +2.21544E+00 -1.19367E+00 +1.99424E+00
 -1.61203E+00 +1.67022E+00 -1.94578E+00 +1.26043E+00 -2.17783E+00 +7.86341E-01 -2.29640E+00 +2.72677E-01
 -2.29564E+00 -2.53832E-01 -2.17588E+00 -7.65862E-01 -1.94363E+00 -1.23691E+00 -1.61121E+00 -1.64265E+00
