 Created: 16-Jan-2021
 $NMID
 ID='D:\BASISSIMULATI'
 FMTDAT='(8E13.5)'
 VOLUME=   1.00000E+00
 TRAMP=   1.00000E+00
 $END
 +7.37276E+00 +8.30644E-03 +6.33643E+00 +1.60038E+00 +3.55079E+00 +2.92479E+00 -1.80035E-01 +3.73775E+00
 -3.79294E+00 +3.84259E+00 -6.28077E+00 +3.13738E+00 -6.98344E+00 +1.66888E+00 -5.76791E+00 -3.31119E-01
 -3.04606E+00 -2.45421E+00 +3.68163E-01 -4.18449E+00 +3.51201E+00 -5.02311E+00 +5.55561E+00 -4.63853E+00
 +6.02647E+00 -2.99507E+00 +4.91403E+00 -4.10687E-01 +2.63315E+00 +2.48875E+00 -1.29969E-01 +4.91939E+00
 -2.63241E+00 +6.15841E+00 -4.27988E+00 +5.76834E+00 -4.76433E+00 +3.75428E+00 -4.10312E+00 +5.96845E-01
 -2.58412E+00 -2.86012E+00 -6.48775E-01 -5.64168E+00 +1.24092E+00 -6.92767E+00 +2.70998E+00 -6.30487E+00
 +3.52860E+00 -3.90481E+00 +3.61941E+00 -3.79789E-01 +3.03051E+00 +3.28011E+00 +1.89787E+00 +6.03574E+00
 +4.15950E-01 +7.10570E+00 -1.17815E+00 +6.19674E+00 -2.61500E+00 +3.58713E+00 -3.61324E+00 +3.81771E-02
 -3.92201E+00 -3.43686E+00 -3.38507E+00 -5.87348E+00 -2.00959E+00 -6.63337E+00 -1.15030E-02 -5.57553E+00
 +2.19163E+00 -3.07383E+00 +4.05554E+00 +1.16814E-01 +5.04402E+00 +3.09738E+00 +4.78990E+00 +5.08756E+00
 +3.23193E+00 +5.63451E+00 +6.76306E-01 +4.71016E+00 -2.24957E+00 +2.67858E+00 -4.75060E+00 +1.55955E-01
 -6.08751E+00 -2.18354E+00 -5.80480E+00 -3.79269E+00 -3.89016E+00 -4.37463E+00 -8.08268E-01 -3.91868E+00
 +2.61075E+00 -2.65372E+00 +5.40187E+00 -9.48983E-01 +6.74834E+00 +7.97696E-01 +6.23084E+00 +2.24891E+00
 +3.96347E+00 +3.17573E+00 +5.70887E-01 +3.46605E+00 -2.98976E+00 +3.10916E+00 -5.70931E+00 +2.17618E+00
 -6.82392E+00 +8.09453E-01 -6.03791E+00 -7.79370E-01 -3.60448E+00 -2.31452E+00 -2.41474E-01 -3.48086E+00
 +3.08899E+00 -3.97819E+00 +5.46667E+00 -3.60040E+00 +6.27646E+00 -2.31778E+00 +5.37056E+00 -3.30545E-01
 +3.08569E+00 +1.93708E+00 +1.18196E-01 +3.91692E+00 -2.69647E+00 +5.04038E+00 -4.62777E+00 +4.90888E+00
 -5.24324E+00 +3.43764E+00 -4.49861E+00 +9.20525E-01 -2.70883E+00 -2.01648E+00 -4.21989E-01 -4.57151E+00
 +1.75494E+00 -5.99336E+00 +3.32111E+00 -5.81192E+00 +3.99141E+00 -3.99872E+00 +3.72898E+00 -1.00144E+00
 +2.70667E+00 +2.36639E+00 +1.22466E+00 +5.15346E+00 -3.80820E-01 +6.55002E+00 -1.80889E+00 +6.13301E+00
 -2.83244E+00 +3.99978E+00 -3.30746E+00 +7.46339E-01 -3.16843E+00 -2.70532E+00 -2.42571E+00 -5.37866E+00
 -1.17247E+00 -6.52975E+00 +4.04285E-01 -5.86199E+00 +2.02409E+00 -3.60406E+00 +3.34174E+00 -4.29948E-01
 +4.01244E+00 +2.75038E+00 +3.78456E+00 +5.06218E+00 +2.59423E+00 +5.91482E+00 +6.26151E-01 +5.15483E+00
 -1.69118E+00 +3.08267E+00 -3.76988E+00 +3.36901E-01 -5.01387E+00 -2.31019E+00 -4.99711E+00 -4.17780E+00
 -3.61335E+00 -4.85444E+00 -1.14369E+00 -4.28087E+00 +1.79014E+00 -2.72480E+00 +4.38362E+00 -6.68256E-01
 +5.87798E+00 +1.34722E+00 +5.79167E+00 +2.86626E+00 +4.08132E+00 +3.61598E+00 +1.17675E+00 +3.53526E+00
 -2.12779E+00 +2.74385E+00 -4.89817E+00 +1.47619E+00 -6.33490E+00 +9.56937E-03 -6.01346E+00 -1.39053E+00
 -4.01512E+00 -2.49967E+00 -9.06419E-01 -3.14471E+00 +2.42767E+00 -3.20935E+00 +5.04558E+00 -2.64726E+00
 +6.22537E+00 -1.50540E+00 +5.67097E+00 +5.30063E-02 +3.58711E+00 +1.74434E+00 +6.03751E-01 +3.19695E+00
 -2.42195E+00 +4.02606E+00 -4.66172E+00 +3.93882E+00 -5.55044E+00 +2.83983E+00 -4.93006E+00 +8.98561E-01
 -3.06582E+00 -1.45445E+00 -5.39406E-01 -3.61566E+00 +1.93931E+00 -4.96613E+00 +3.73906E+00 -5.05626E+00
 +4.46973E+00 -3.76032E+00 +4.05839E+00 -1.34622E+00 +2.72739E+00 +1.57109E+00 +8.94960E-01 +4.18838E+00
 -9.60830E-01 +5.74334E+00 -2.42909E+00 +5.74600E+00 -3.24956E+00 +4.13936E+00 -3.33868E+00 +1.33460E+00
 -2.76615E+00 -1.89564E+00 -1.70406E+00 -4.63761E+00 -3.73464E-01 -6.10512E+00 +9.94288E-01 -5.87422E+00
 +2.17823E+00 -4.01086E+00 +2.97884E+00 -1.05145E+00 +3.23296E+00 +2.15763E+00 +2.84170E+00 +4.71177E+00
 +1.80875E+00 +5.91289E+00 +2.74468E-01 +5.46676E+00 -1.47584E+00 +3.55483E+00 -3.04755E+00 +7.63092E-01
 -4.02038E+00 -2.10452E+00 -4.06448E+00 -4.26685E+00 -3.05555E+00 -5.18520E+00 -1.14811E+00 -4.69792E+00
 +1.22733E+00 -3.03616E+00 +3.45544E+00 -7.25882E-01 +4.89882E+00 +1.58452E+00 +5.08804E+00 +3.31281E+00
 +3.87983E+00 +4.09062E+00 +1.52861E+00 +3.83250E+00 -1.35983E+00 +2.71749E+00 -3.98717E+00 +1.10238E+00
 -5.59134E+00 -5.96120E-01 -5.67685E+00 -2.01044E+00 -4.17426E+00 -2.89321E+00 -1.47548E+00 -3.14033E+00
 +1.67056E+00 -2.77448E+00 +4.37334E+00 -1.90880E+00 +5.86273E+00 -7.10978E-01 +5.71728E+00 +6.20486E-01
 +3.98835E+00 +1.86883E+00 +1.18181E+00 +2.81080E+00 -1.89591E+00 +3.24033E+00 -4.37881E+00 +3.00997E+00
 -5.59430E+00 +2.08312E+00 -5.25122E+00 +5.78250E-01 -3.50843E+00 -1.21903E+00 -9.08230E-01 -2.89450E+00
 +1.79879E+00 -3.99673E+00 +3.87903E+00 -4.16290E+00 +4.82086E+00 -3.24242E+00 +4.45999E+00 -1.37521E+00
 +2.99470E+00 +1.01022E+00 +8.96562E-01 +3.29035E+00 -1.24635E+00 +4.81357E+00 -2.90018E+00 +5.09416E+00
 -3.71848E+00 +3.97320E+00 -3.60448E+00 +1.69140E+00 -2.69599E+00 -1.15679E+00 -1.29087E+00 -3.78131E+00
 +2.53301E-01 -5.42387E+00 +1.61098E+00 -5.58614E+00 +2.54791E+00 -4.18744E+00 +2.94125E+00 -1.59992E+00
 +2.76973E+00 +1.45309E+00 +2.09103E+00 +4.10682E+00 +1.02234E+00 +5.60970E+00 -2.69327E-01 +5.54458E+00
 -1.57207E+00 +3.94897E+00 -2.64150E+00 +1.29791E+00 -3.23249E+00 -1.64314E+00 -3.15305E+00 -4.04819E+00
 -2.32921E+00 -5.27150E+00 -8.58556E-01 -5.02611E+00 +9.74308E-01 -3.44909E+00 +2.73875E+00 -1.03947E+00
 +3.95642E+00 +1.50538E+00 +4.23547E+00 +3.49956E+00 +3.40155E+00 +4.45903E+00 +1.58035E+00 +4.21776E+00
 -8.03396E-01 +2.94244E+00 -3.12145E+00 +1.05173E+00 -4.71197E+00 -9.25229E-01 -5.07632E+00 -2.50215E+00
 -4.04178E+00 -3.35455E+00 -1.83518E+00 -3.37554E+00 +9.62315E-01 -2.66379E+00 +3.57204E+00 -1.46084E+00
 +5.24274E+00 -6.75265E-02 +5.47576E+00 +1.23125E+00 +4.18033E+00 +2.21449E+00 +1.70847E+00 +2.74241E+00
 -1.24369E+00 +2.75281E+00 -3.83942E+00 +2.25143E+00 -5.34792E+00 +1.30789E+00 -5.35799E+00 +5.91105E-02
 -3.89404E+00 -1.28845E+00 -1.40019E+00 -2.47180E+00 +1.39986E+00 -3.21052E+00 +3.72125E+00 -3.27198E+00
 +4.94626E+00 -2.54781E+00 +4.79314E+00 -1.11569E+00 +3.37799E+00 +7.41951E-01 +1.15716E+00 +2.58118E+00
 -1.22480E+00 +3.90075E+00 -3.12963E+00 +4.28360E+00 -4.10121E+00 +3.53408E+00 -3.97265E+00 +1.76410E+00
 -2.88037E+00 -6.07109E-01 -1.19174E+00 -2.94978E+00 +6.21491E-01 -4.59560E+00 +2.11957E+00 -5.03624E+00
 +2.99997E+00 -4.08696E+00 +3.14680E+00 -1.96061E+00 +2.62175E+00 +7.76714E-01 +1.61276E+00 +3.36055E+00
 +3.66370E-01 +5.04970E+00 -8.71671E-01 +5.34755E+00 -1.89367E+00 +4.15436E+00 -2.54468E+00 +1.80174E+00
 -2.72461E+00 -1.04276E+00 -2.39075E+00 -3.57243E+00 -1.56806E+00 -5.07919E+00 -3.64855E-01 -5.15933E+00
 +1.01838E+00 -3.82491E+00 +2.30249E+00 -1.48914E+00 +3.17545E+00 +1.16654E+00 +3.36785E+00 +3.39926E+00
 +2.73977E+00 +4.62025E+00 +1.35006E+00 +4.55392E+00 -5.22181E-01 +3.29625E+00 -2.42262E+00 +1.26169E+00
 -3.83100E+00 -9.57462E-01 -4.30872E+00 -2.77030E+00 -3.64122E+00 -3.74881E+00 -1.92707E+00 -3.72600E+00
 +4.21526E-01 -2.80943E+00 +2.77628E+00 -1.31696E+00 +4.46597E+00 +3.35357E-01 +4.97561E+00 +1.75316E+00
 +4.11012E+00 +2.65573E+00 +2.06836E+00 +2.91929E+00 -6.00215E-01 +2.57073E+00 -3.14795E+00 +1.74714E+00
 -4.84645E+00 +6.43339E-01 -5.20333E+00 -5.32528E-01 -4.11093E+00 -1.58609E+00 -1.88033E+00 -2.34891E+00
 +8.50645E-01 -2.68602E+00 +3.30703E+00 -2.50975E+00 +4.80523E+00 -1.80335E+00 +4.95033E+00 -6.48040E-01
 +3.74286E+00 +7.62177E-01 +1.56526E+00 +2.13431E+00 -9.43575E-01 +3.12833E+00 -3.08336E+00 +3.44177E+00
 -4.29504E+00 +2.90602E+00 -4.30999E+00 +1.56213E+00 -3.20499E+00 -3.15141E-01 -1.35347E+00 -2.26386E+00
 +7.03708E-01 -3.74844E+00 +2.42251E+00 -4.31229E+00 +3.40306E+00 -3.72420E+00 +3.47905E+00 -2.06993E+00
 +2.73057E+00 +2.46758E-01 +1.42782E+00 +2.60187E+00 -6.69538E-02 +4.32458E+00 -1.40352E+00 +4.89611E+00
 -2.32273E+00 +4.11266E+00 -2.69397E+00 +2.15916E+00 -2.51158E+00 -4.32997E-01 -1.86455E+00 -2.93528E+00
 -8.98636E-01 -4.63462E+00 +2.14002E-01 -5.04485E+00 +1.29226E+00 -4.05145E+00 +2.15585E+00 -1.94492E+00
 +2.63791E+00 +6.67615E-01 +2.60925E+00 +3.04434E+00 +2.01439E+00 +4.52766E+00 +9.08894E-01 +4.73268E+00
 -5.20067E-01 +3.64915E+00 -1.96796E+00 +1.62909E+00 -3.07017E+00 -7.31279E-01 -3.49488E+00 -2.77459E+00
 -3.04753E+00 -3.97206E+00 -1.75244E+00 -4.06280E+00 +1.20906E-01 -3.10528E+00 +2.10562E+00 -1.43295E+00
 +3.65431E+00 +4.63782E-01 +4.29572E+00 +2.08708E+00 +3.78429E+00 +3.06513E+00 +2.19340E+00 +3.23297E+00
 -8.28585E-02 +2.64468E+00 -2.42740E+00 +1.52478E+00 -4.17287E+00 +1.83681E-01 -4.79939E+00 -1.07111E+00
 -4.09597E+00 -2.00174E+00 -2.23376E+00 -2.47175E+00 +2.75183E-01 -2.44511E+00 +2.72351E+00 -1.96560E+00
 +4.41576E+00 -1.13255E+00 +4.87381E+00 -8.38352E-02 +3.97730E+00 +1.01259E+00 +1.99615E+00 +1.96620E+00
 -4.93885E-01 +2.58114E+00 -2.78537E+00 +2.69012E+00 -4.24799E+00 +2.20182E+00 -4.50797E+00 +1.14773E+00
 -3.54504E+00 -2.92203E-01 -1.68118E+00 -1.80405E+00 +5.29901E-01 -3.00197E+00 +2.47390E+00 -3.52835E+00
 +3.65267E+00 -3.16534E+00 +3.81372E+00 -1.92161E+00 +2.99815E+00 -6.05119E-02 +1.50061E+00 +1.94858E+00
 -2.37849E-01 +3.54982E+00 -1.76472E+00 +4.26048E+00 -2.73605E+00 +3.82276E+00 -2.98882E+00 +2.29825E+00
 -2.55264E+00 +7.01722E-02 -1.60834E+00 -2.25365E+00 -4.16594E-01 -4.01223E+00 +7.56314E-01 -4.68705E+00
 +1.69341E+00 -4.06146E+00 +2.25342E+00 -2.29292E+00 +2.37212E+00 +1.26848E-01 +2.05092E+00 +2.51354E+00
 +1.34545E+00 +4.19135E+00 +3.61014E-01 +4.69186E+00 -7.47417E-01 +3.88981E+00 -1.78060E+00 +2.03473E+00
 -2.51654E+00 -3.29611E-01 -2.75324E+00 -2.53107E+00 -2.36639E+00 -3.96766E+00 -1.36495E+00 -4.27772E+00
 +7.86563E-02 -3.43170E+00 +1.64317E+00 -1.72209E+00 +2.92473E+00 +3.39622E-01 +3.54333E+00 +2.18211E+00
 +3.26050E+00 +3.33809E+00 +2.07029E+00 +3.56403E+00 +2.29162E-01 +2.88463E+00 -1.79336E+00 +1.55693E+00
 -3.43613E+00 -2.60026E-02 -4.20797E+00 -1.45603E+00 -3.84091E+00 -2.41672E+00 -2.38527E+00 -2.74762E+00
 -2.12383E-01 -2.45528E+00 +2.08137E+00 -1.67902E+00 +3.84400E+00 -6.31909E-01 +4.56068E+00 +4.59384E-01
