 Created: 16-Jan-2021
 $NMID
 ID='D:\BASISSIMULATI'
 FMTDAT='(8E13.5)'
 VOLUME=   1.00000E+00
 TRAMP=   1.00000E+00
 $END
 +1.29723E+01 +1.46692E-02 +1.10017E+01 +6.16500E+00 +6.16377E+00 +1.00443E+01 +4.13077E-01 +1.05463E+01
 -4.13046E+00 +8.00674E+00 -6.11079E+00 +3.91913E+00 -5.42784E+00 +1.45806E-01 -3.09285E+00 -1.95153E+00
 -5.84419E-01 -2.02948E+00 +9.17613E-01 -7.16685E-01 +1.01990E+00 +8.97117E-01 +1.15971E-01 +1.90640E+00
 -1.02494E+00 +2.00773E+00 -1.78942E+00 +1.49783E+00 -2.04910E+00 +9.19385E-01 -2.11990E+00 +6.18136E-01
 -2.42268E+00 +5.00652E-01 -3.09450E+00 +1.33606E-01 -3.81536E+00 -8.98663E-01 -3.96816E+00 -2.62390E+00
 -3.03362E+00 -4.55023E+00 -9.70761E-01 -5.87390E+00 +1.66396E+00 -5.91518E+00 +3.95096E+00 -4.52523E+00
 +5.07509E+00 -2.21506E+00 +4.76155E+00 +8.41709E-02 +3.42576E+00 +1.50551E+00 +1.94215E+00 +1.70507E+00
 +1.15488E+00 +1.03354E+00 +1.40345E+00 +3.18273E-01 +2.33194E+00 +3.73514E-01 +3.09415E+00 +1.51200E+00
 +2.84527E+00 +3.33394E+00 +1.24889E+00 +4.91747E+00 -1.28353E+00 +5.31293E+00 -3.75911E+00 +4.07462E+00
 -5.09406E+00 +1.54106E+00 -4.67070E+00 -1.29114E+00 -2.66840E+00 -3.23808E+00 +3.99193E-03 -3.50133E+00
 +2.13673E+00 -2.05044E+00 +2.78757E+00 +3.72344E-01 +1.70537E+00 +2.61534E+00 -5.89740E-01 +3.65468E+00
 -3.08640E+00 +3.03707E+00 -4.76018E+00 +1.02586E+00 -5.00549E+00 -1.58853E+00 -3.82515E+00 -3.88476E+00
 -1.72420E+00 -5.19903E+00 +5.92658E-01 -5.32558E+00 +2.53806E+00 -4.47142E+00 +3.81689E+00 -3.04283E+00
 +4.40746E+00 -1.41507E+00 +4.41501E+00 +1.85538E-01 +3.92501E+00 +1.65050E+00 +2.95946E+00 +2.87453E+00
 +1.55272E+00 +3.67103E+00 -1.27329E-01 +3.80026E+00 -1.72295E+00 +3.10692E+00 -2.76646E+00 +1.67906E+00
 -2.87764E+00 -8.80737E-02 -1.97602E+00 -1.59260E+00 -3.80466E-01 -2.26519E+00 +1.28035E+00 -1.83336E+00
 +2.32191E+00 -4.70723E-01 +2.30481E+00 +1.25689E+00 +1.23292E+00 +2.63283E+00 -4.52259E-01 +3.10440E+00
 -2.07933E+00 +2.51745E+00 -3.05226E+00 +1.15874E+00 -3.10228E+00 -4.07003E-01 -2.36787E+00 -1.61480E+00
 -1.27676E+00 -2.14898E+00 -3.04791E-01 -2.04493E+00 +2.56577E-01 -1.60711E+00 +4.08047E-01 -1.20401E+00
 +3.83511E-01 -1.05887E+00 +4.73250E-01 -1.14644E+00 +8.35832E-01 -1.24031E+00 +1.40192E+00 -1.07135E+00
 +1.91535E+00 -5.01621E-01 +2.07966E+00 +3.82431E-01 +1.72428E+00 +1.30310E+00 +9.00846E-01 +1.92589E+00
 -1.35904E-01 +2.01924E+00 -1.04453E+00 +1.55696E+00 -1.54475E+00 +7.18612E-01 -1.52265E+00 -2.01019E-01
 -1.05045E+00 -9.18067E-01 -3.26884E-01 -1.25776E+00 +4.17743E-01 -1.18648E+00 +9.99774E-01 -7.80981E-01
 +1.31347E+00 -1.69464E-01 +1.31934E+00 +5.15614E-01 +1.01803E+00 +1.15275E+00 +4.39209E-01 +1.62339E+00
 -3.45140E-01 +1.80730E+00 -1.19937E+00 +1.60375E+00 -1.92396E+00 +9.78714E-01 -2.29663E+00 +1.29943E-02
 -2.14927E+00 -1.08377E+00 -1.44840E+00 -2.01603E+00 -3.36918E-01 -2.49586E+00 +8.91948E-01 -2.35117E+00
 +1.88608E+00 -1.60036E+00 +2.35675E+00 -4.56867E-01 +2.18084E+00 +7.41654E-01 +1.44038E+00 +1.65092E+00
 +3.85070E-01 +2.03569E+00 -6.62805E-01 +1.83804E+00 -1.41909E+00 +1.17645E+00 -1.72055E+00 +2.84672E-01
 -1.55351E+00 -5.77579E-01 -1.02844E+00 -1.20432E+00 -3.21929E-01 -1.48743E+00 +3.85126E-01 -1.41937E+00
 +9.50753E-01 -1.06677E+00 +1.28911E+00 -5.34564E-01 +1.36768E+00 +6.33614E-02 +1.19652E+00 +6.21051E-01
 +8.18803E-01 +1.04847E+00 +3.05108E-01 +1.27757E+00 -2.52476E-01 +1.27061E+00 -7.51345E-01 +1.02944E+00
 -1.09603E+00 +6.00169E-01 -1.21887E+00 +6.80938E-02 -1.09686E+00 -4.58399E-01 -7.58500E-01 -8.71289E-01
 -2.78008E-01 -1.08699E+00 +2.41211E-01 -1.06442E+00 +6.89001E-01 -8.12945E-01 +9.71321E-01 -3.89584E-01
 +1.02913E+00 +1.13083E-01 +8.50432E-01 +5.85511E-01 +4.73556E-01 +9.23339E-01 -1.93012E-02 +1.04957E+00
 -5.18308E-01 +9.32522E-01 -9.09689E-01 +5.94858E-01 -1.10205E+00 +1.10397E-01 -1.04866E+00 -4.11909E-01
 -7.59415E-01 -8.53363E-01 -2.98765E-01 -1.11376E+00 +2.29778E-01 -1.13502E+00 +7.08383E-01 -9.14117E-01
 +1.03229E+00 -5.02689E-01 +1.13325E+00 +5.92696E-03 +9.94025E-01 +4.98564E-01 +6.51224E-01 +8.67853E-01
 +1.86382E-01 +1.03620E+00 -2.92978E-01 +9.73127E-01 -6.78407E-01 +7.02084E-01 -8.86312E-01 +2.94539E-01
 -8.78091E-01 -1.47926E-01 -6.68926E-01 -5.19529E-01 -3.22268E-01 -7.37298E-01 +6.86738E-02 -7.61363E-01
 +4.06876E-01 -6.02580E-01 +6.16826E-01 -3.15689E-01 +6.61730E-01 +1.89349E-02 +5.48357E-01 +3.18423E-01
 +3.19727E-01 +5.18082E-01 +3.97133E-02 +5.84189E-01 -2.24726E-01 +5.17001E-01 -4.18655E-01 +3.45435E-01
 -5.08825E-01 +1.16711E-01 -4.87387E-01 -1.15696E-01 -3.70441E-01 -3.03434E-01 -1.92464E-01 -4.12592E-01
 +2.51152E-03 -4.29795E-01 +1.71676E-01 -3.63789E-01 +2.83982E-01 -2.41534E-01 +3.27351E-01 -9.91523E-02
 +3.09741E-01 +2.98185E-02 +2.53180E-01 +1.24715E-01 +1.82824E-01 +1.82302E-01 +1.15708E-01 +2.13440E-01
 +5.44920E-02 +2.33297E-01 -1.05372E-02 +2.49914E-01 -9.20049E-02 +2.57184E-01 -1.93297E-01 +2.36368E-01
 -3.00287E-01 +1.66079E-01 -3.81919E-01 +3.61587E-02 -4.00381E-01 -1.41414E-01 -3.26907E-01 -3.30314E-01
 -1.56487E-01 -4.78223E-01 +8.48228E-02 -5.32982E-01 +3.43165E-01 -4.60672E-01 +5.49835E-01 -2.59373E-01
 +6.39955E-01 +3.57778E-02 +5.71698E-01 +3.57679E-01 +3.41282E-01 +6.21544E-01 -1.00715E-02 +7.45765E-01
 -4.00059E-01 +6.75531E-01 -7.21626E-01 +4.03812E-01 -8.70624E-01 -1.71117E-02 -7.79378E-01 -4.80442E-01
 -4.46034E-01 -8.49489E-01 +5.28543E-02 -9.98773E-01 +5.76118E-01 -8.59734E-01 +9.58938E-01 -4.53515E-01
 +1.06970E+00 +1.05551E-01 +8.61739E-01 +6.42439E-01 +3.97392E-01 +9.81587E-01 -1.69181E-01 +1.01255E+00
 -6.46953E-01 +7.33815E-01 -8.79981E-01 +2.54690E-01 -8.06464E-01 -2.47403E-01 -4.79523E-01 -5.96858E-01
 -4.09719E-02 -6.87198E-01 +3.39492E-01 -5.17117E-01 +5.32064E-01 -1.81468E-01 +4.92202E-01 +1.75723E-01
 +2.66438E-01 +4.22527E-01 -3.89386E-02 +4.86879E-01 -3.07444E-01 +3.72691E-01 -4.55937E-01 +1.43401E-01
 -4.55333E-01 -1.12801E-01 -3.26284E-01 -3.16651E-01 -1.20290E-01 -4.17133E-01 +9.97296E-02 -3.95282E-01
 +2.71528E-01 -2.60688E-01 +3.40583E-01 -4.95702E-02 +2.70245E-01 +1.74444E-01 +5.95445E-02 +3.24982E-01
 -2.37619E-01 +3.13577E-01 -5.08063E-01 +8.82818E-02 -6.05523E-01 -3.23408E-01 -4.09264E-01 -7.93244E-01
 +1.04960E-01 -1.11658E+00 +8.18187E-01 -1.08716E+00 +1.48084E+00 -5.97998E-01 +1.79597E+00 +2.78840E-01
 +1.54771E+00 +1.28157E+00 +7.18777E-01 +2.03881E+00 -4.64795E-01 +2.21799E+00 -1.59678E+00 +1.68001E+00
 -2.24653E+00 +5.65164E-01 -2.14369E+00 -7.39467E-01 -1.30673E+00 -1.74768E+00 -5.02054E-02 -2.07606E+00
 +1.13935E+00 -1.60907E+00 +1.80608E+00 -5.49471E-01 +1.71399E+00 +6.70612E-01 +9.36101E-01 +1.57638E+00
 -1.94124E-01 +1.84681E+00 -1.23991E+00 +1.43094E+00 -1.84707E+00 +5.37052E-01 -1.87071E+00 -4.87533E-01
 -1.39187E+00 -1.31655E+00 -6.33558E-01 -1.76340E+00 +1.64176E-01 -1.80907E+00 +8.38270E-01 -1.54567E+00
 +1.32321E+00 -1.08792E+00 +1.60705E+00 -5.14634E-01 +1.67249E+00 +1.27507E-01 +1.47694E+00 +7.74732E-01
 +9.92559E-01 +1.30376E+00 +2.77075E-01 +1.54613E+00 -4.84636E-01 +1.36923E+00 -1.01916E+00 +7.81017E-01
 -1.08515E+00 -1.46086E-02 -6.18528E-01 -6.68287E-01 +1.86490E-01 -8.39513E-01 +9.27609E-01 -3.84286E-01
 +1.17439E+00 +5.29898E-01 +6.97063E-01 +1.46309E+00 -3.78945E-01 +1.89953E+00 -1.59131E+00 +1.51425E+00
 -2.34462E+00 +3.70529E-01 -2.20962E+00 -1.06890E+00 -1.16503E+00 -2.14264E+00 +3.54002E-01 -2.31515E+00
 +1.64256E+00 -1.46189E+00 +2.06602E+00 +3.86054E-02 +1.38431E+00 +1.46593E+00 -1.08778E-01 +2.10096E+00
 -1.71027E+00 +1.58113E+00 -2.63983E+00 +8.67512E-02 -2.41325E+00 -1.73836E+00 -1.07012E+00 -3.09168E+00
 +8.55738E-01 -3.38669E+00 +2.60000E+00 -2.50928E+00 +3.52362E+00 -8.35325E-01 +3.37889E+00 +9.82694E-01
 +2.36219E+00 +2.33348E+00 +9.51339E-01 +2.89885E+00 -3.60828E-01 +2.72105E+00 -1.28103E+00 +2.07970E+00
 -1.77100E+00 +1.27993E+00 -1.94274E+00 +4.91840E-01 -1.89133E+00 -2.66944E-01 -1.59407E+00 -1.01703E+00
 -9.50406E-01 -1.67376E+00 +6.64775E-02 -1.99812E+00 +1.26188E+00 -1.70206E+00 +2.20265E+00 -6.59060E-01
 +2.38265E+00 +9.15192E-01 +1.50293E+00 +2.45082E+00 -2.91085E-01 +3.23205E+00 -2.37365E+00 +2.74500E+00
 -3.86427E+00 +9.84925E-01 -4.02881E+00 -1.45867E+00 -2.65837E+00 -3.61639E+00 -2.19654E-01 -4.57021E+00
 +2.32213E+00 -3.89308E+00 +3.93751E+00 -1.86946E+00 +4.01311E+00 +6.26541E-01 +2.63519E+00 +2.54284E+00
 +5.30734E-01 +3.14607E+00 -1.30311E+00 +2.35238E+00 -2.08875E+00 +7.28169E-01 -1.62612E+00 -8.29673E-01
 -3.42384E-01 -1.55890E+00 +9.76413E-01 -1.19766E+00 +1.61525E+00 -6.88313E-02 +1.28822E+00 +1.14228E+00
 +2.43055E-01 +1.77821E+00 -9.22981E-01 +1.54882E+00 -1.61355E+00 +6.43750E-01 -1.54678E+00 -4.22300E-01
 -8.65049E-01 -1.12193E+00 -9.83354E-04 -1.19739E+00 +6.00003E-01 -7.58308E-01 +7.27194E-01 -1.58889E-01
 +4.80991E-01 +2.49717E-01 +1.50596E-01 +3.30160E-01 -1.16745E-02 +2.05539E-01 +3.43909E-02 +1.25363E-01
 +1.06575E-01 +2.50667E-01 -4.14584E-02 +5.08722E-01 -5.01815E-01 +6.21846E-01 -1.08626E+00 +3.01030E-01
 -1.39138E+00 -5.16151E-01 -1.03464E+00 -1.54288E+00 +7.26487E-02 -2.23498E+00 +1.58696E+00 -2.06996E+00
 +2.83452E+00 -8.66542E-01 +3.12542E+00 +1.04146E+00 +2.12390E+00 +2.89555E+00 +7.35476E-02 +3.84494E+00
 -2.25837E+00 +3.36176E+00 -3.90805E+00 +1.52514E+00 -4.15899E+00 -9.80062E-01 -2.88159E+00 -3.15944E+00
 -5.96951E-01 -4.15744E+00 +1.76597E+00 -3.63740E+00 +3.29641E+00 -1.90969E+00 +3.49887E+00 +2.44501E-01
 +2.47287E+00 +1.95298E+00 +8.05196E-01 +2.64016E+00 -7.48383E-01 +2.23702E+00 -1.61718E+00 +1.13200E+00
 -1.63073E+00 -8.11751E-02 -1.01017E+00 -9.07223E-01 -1.76001E-01 -1.14635E+00 +4.98246E-01 -9.03804E-01
 +8.47255E-01 -4.43002E-01 +9.19760E-01 +5.67919E-03 +8.58060E-01 +3.61032E-01 +7.51242E-01 +6.75314E-01
 +5.65075E-01 +1.02016E+00 +1.90347E-01 +1.36853E+00 -4.32210E-01 +1.56369E+00 -1.20512E+00 +1.40356E+00
 -1.86995E+00 +7.88184E-01 -2.12381E+00 -1.69026E-01 -1.79446E+00 -1.14956E+00 -9.67014E-01 -1.76988E+00
 +2.37042E-02 -1.78290E+00 +7.46405E-01 -1.22618E+00 +8.96532E-01 -4.24283E-01 +4.67260E-01 +1.68053E-01
 -2.31777E-01 +2.04958E-01 -7.27462E-01 -3.57313E-01 -6.32454E-01 -1.22123E+00 +1.40546E-01 -1.89057E+00
