 Created: 16-Jan-2021
 $NMID
 ID='D:\BASISSIMULATI'
 FMTDAT='(8E13.5)'
 VOLUME=   1.00000E+00
 TRAMP=   1.00000E+00
 $END
 +6.78472E+00 +7.67975E-03 +6.29477E+00 +2.38951E+00 +4.94967E+00 +4.38046E+00 +2.98954E+00 +5.67758E+00
 +7.55307E-01 +6.10997E+00 -1.37898E+00 +5.66752E+00 -3.07879E+00 +4.49692E+00 -4.11179E+00 +2.86634E+00
 -4.38787E+00 +1.10688E+00 -3.96870E+00 -4.56722E-01 -3.04579E+00 -1.57124E+00 -1.89241E+00 -2.10261E+00
 -8.00229E-01 -2.05640E+00 -1.46392E-02 -1.56757E+00 +3.17381E-01 -8.62524E-01 +1.75916E-01 -2.02271E-01
 -3.32443E-01 +1.80362E-01 -1.00365E+00 +1.35757E-01 -1.58691E+00 -3.67277E-01 -1.84561E+00 -1.23360E+00
 -1.61492E+00 -2.26265E+00 -8.43307E-01 -3.19343E+00 +3.90955E-01 -3.76361E+00 +1.89216E+00 -3.76980E+00
 +3.38566E+00 -3.11590E+00 +4.57424E+00 -1.83898E+00 +5.20052E+00 -1.07046E-01 +5.10186E+00 +1.81099E+00
 +4.24639E+00 +3.59680E+00 +2.74242E+00 +4.94497E+00 +8.19281E-01 +5.62294E+00 -1.21617E+00 +5.51651E+00
 -3.03850E+00 +4.65128E+00 -4.36570E+00 +3.18614E+00 -5.01162E+00 +1.38041E+00 -4.91827E+00 -4.58247E-01
 -4.16188E+00 -2.03402E+00 -2.93199E+00 -3.11890E+00 -1.48876E+00 -3.59294E+00 -1.07727E-01 -3.46110E+00
 +9.76035E-01 -2.84391E+00 +1.61282E+00 -1.94482E+00 +1.76321E+00 -1.00175E+00 +1.49843E+00 -2.33823E-01
 +9.76974E-01 +2.05457E-01 +4.03242E-01 +2.58601E-01 -2.22814E-02 -2.78569E-02 -1.50266E-01 -5.18866E-01
 +8.30948E-02 -1.02588E+00 +6.41824E-01 -1.35328E+00 +1.39877E+00 -1.34576E+00 +2.16487E+00 -9.26302E-01
 +2.73240E+00 -1.16364E-01 +2.92259E+00 +9.65803E-01 +2.62728E+00 +2.12839E+00 +1.83552E+00 +3.14558E+00
 +6.39507E-01 +3.80491E+00 -7.81353E-01 +3.95232E+00 -2.19483E+00 +3.52526E+00 -3.36138E+00 +2.56719E+00
 -4.08121E+00 +1.22028E+00 -4.23314E+00 -3.01724E-01 -3.79746E+00 -1.75472E+00 -2.85820E+00 -2.91100E+00
 -1.58495E+00 -3.60180E+00 -1.98175E-01 -3.74706E+00 +1.07433E+00 -3.36690E+00 +2.04080E+00 -2.57281E+00
 +2.57996E+00 -1.54115E+00 +2.65971E+00 -4.74991E-01 +2.33704E+00 +4.37464E-01 +1.73980E+00 +1.05916E+00
 +1.03502E+00 +1.32789E+00 +3.90876E-01 +1.26308E+00 -5.93522E-02 +9.54890E-01 -2.43794E-01 +5.38820E-01
 -1.63743E-01 +1.61837E-01 +1.11280E-01 -5.23665E-02 +4.63451E-01 -3.13865E-02 +7.56661E-01 +2.30446E-01
 +8.69758E-01 +6.72162E-01 +7.25636E-01 +1.18134E+00 +3.09897E-01 +1.62064E+00 -3.24766E-01 +1.85971E+00
 -1.06914E+00 +1.80532E+00 -1.78051E+00 +1.42328E+00 -2.31293E+00 +7.47549E-01 -2.54822E+00 -1.25299E-01
 -2.42108E+00 -1.05476E+00 -1.93312E+00 -1.88422E+00 -1.15312E+00 -2.47189E+00 -2.03612E-01 -2.71841E+00
 +7.63017E-01 -2.58556E+00 +1.59391E+00 -2.10241E+00 +2.16440E+00 -1.35812E+00 +2.40027E+00 -4.83184E-01
 +2.28923E+00 +3.76698E-01 +1.87990E+00 +1.08847E+00 +1.26893E+00 +1.55577E+00 +5.79411E-01 +1.73437E+00
 -6.44809E-02 +1.63648E+00 -5.61495E-01 +1.32357E+00 -8.50965E-01 +8.89781E-01 -9.20994E-01 +4.40044E-01
 -8.06020E-01 +6.75489E-02 -5.74932E-01 -1.64575E-01 -3.12831E-01 -2.33861E-01 -1.00670E-01 -1.59612E-01
 +2.75725E-03 +5.13477E-03 -2.72447E-02 +1.88525E-01 -1.77627E-01 +3.18076E-01 -4.02594E-01 +3.38015E-01
 -6.35715E-01 +2.22046E-01 -8.06174E-01 -2.10191E-02 -8.55443E-01 -3.49668E-01 -7.50752E-01 -6.99282E-01
 -4.92559E-01 -9.96563E-01 -1.14670E-01 -1.17552E+00 +3.22773E-01 -1.19154E+00 +7.45673E-01 -1.03069E+00
 +1.08095E+00 -7.12448E-01 +1.27092E+00 -2.85534E-01 +1.28411E+00 +1.81926E-01 +1.12055E+00 +6.15759E-01
 +8.10692E-01 +9.49703E-01 +4.08501E-01 +1.13717E+00 -1.95335E-02 +1.15863E+00 -4.07078E-01 +1.02339E+00
 -6.99735E-01 +7.65855E-01 -8.63675E-01 +4.37361E-01 -8.89712E-01 +9.55765E-02 -7.92403E-01 -2.06331E-01
 -6.04828E-01 -4.28590E-01 -3.70460E-01 -5.50261E-01 -1.34036E-01 -5.70516E-01 +6.66978E-02 -5.05973E-01
 +2.06835E-01 -3.85059E-01 +2.76902E-01 -2.40883E-01 +2.82085E-01 -1.04225E-01 +2.38708E-01 +1.97220E-03
 +1.69036E-01 +6.57072E-02 +9.57213E-02 +8.63231E-02 +3.70660E-02 +7.25362E-02 +3.97740E-03 +3.88536E-02
 -1.02499E-03 +1.38153E-03 +1.71354E-02 -2.59973E-02 +4.84560E-02 -3.43310E-02 +8.08992E-02 -2.08038E-02
 +1.03355E-01 +1.15524E-02 +1.07915E-01 +5.53135E-02 +9.11116E-02 +1.00762E-01 +5.40836E-02 +1.38072E-01
 +1.85185E-03 +1.59129E-01 -5.79353E-02 +1.58714E-01 -1.16426E-01 +1.35012E-01 -1.64864E-01 +8.95450E-02
 -1.95610E-01 +2.67520E-02 -2.02874E-01 -4.65981E-02 -1.83237E-01 -1.22031E-01 -1.36076E-01 -1.90019E-01
 -6.39317E-02 -2.40729E-01 +2.72150E-02 -2.64972E-01 +1.27926E-01 -2.55414E-01 +2.25741E-01 -2.07968E-01
 +3.06252E-01 -1.23170E-01 +3.54872E-01 -7.21215E-03 +3.59186E-01 +1.27769E-01 +3.11517E-01 +2.64440E-01
 +2.11233E-01 +3.82222E-01 +6.61782E-02 +4.60295E-01 -1.07255E-01 +4.81267E-01 -2.85715E-01 +4.34820E-01
 -4.42095E-01 +3.20578E-01 -5.49940E-01 +1.49445E-01 -5.88290E-01 -5.70733E-02 -5.46024E-01 -2.69689E-01
 -4.24734E-01 -4.55945E-01 -2.39390E-01 -5.85865E-01 -1.64705E-02 -6.37549E-01 +2.10284E-01 -6.01592E-01
 +4.05761E-01 -4.83308E-01 +5.39924E-01 -3.02180E-01 +5.93508E-01 -8.85012E-02 +5.61751E-01 +1.22236E-01
 +4.55309E-01 +2.96119E-01 +2.98071E-01 +4.07398E-01 +1.22231E-01 +4.43469E-01 -3.84081E-02 +4.07165E-01
 -1.55494E-01 +3.15806E-01 -2.12051E-01 +1.97134E-01 -2.05950E-01 +8.29639E-02 -1.50101E-01 +1.89545E-03
 -6.92744E-02 -2.73214E-02 +5.83348E-03 -2.63021E-04 +4.60168E-02 +7.19033E-02 +3.08288E-02 +1.64746E-01
 -4.59478E-02 +2.46071E-01 -1.73932E-01 +2.83462E-01 -3.27528E-01 +2.52225E-01 -4.70896E-01 +1.41963E-01
 -5.65548E-01 -3.97482E-02 -5.78981E-01 -2.67545E-01 -4.92484E-01 -5.02419E-01 -3.06368E-01 -6.99110E-01
 -4.13784E-02 -8.15246E-01 +2.64170E-01 -8.20353E-01 +5.61081E-01 -7.02796E-01 +7.98502E-01 -4.73109E-01
 +9.33821E-01 -1.62915E-01 +9.41191E-01 +1.80455E-01 +8.16899E-01 +5.02634E-01 +5.80394E-01 +7.52426E-01
 +2.70738E-01 +8.91497E-01 -6.08513E-02 +9.01538E-01 -3.60834E-01 +7.87444E-01 -5.83551E-01 +5.75852E-01
 -6.99699E-01 +3.09366E-01 -7.01347E-01 +3.76983E-02 -6.02496E-01 -1.92402E-01 -4.35146E-01 -3.46321E-01
 -2.41757E-01 -4.07948E-01 -6.57696E-02 -3.81950E-01 +5.77617E-02 -2.91545E-01 +1.09416E-01 -1.72337E-01
 +8.90083E-02 -6.36285E-02 +1.48222E-02 +8.69084E-04 -8.12973E-02 +8.67740E-04 -1.61857E-01 -6.58237E-02
 -1.92861E-01 -1.82798E-01 -1.52144E-01 -3.18811E-01 -3.50570E-02 -4.34954E-01 +1.43775E-01 -4.93667E-01
 +3.53012E-01 -4.67598E-01 +5.50948E-01 -3.46353E-01 +6.94284E-01 -1.39675E-01 +7.47455E-01 +1.23702E-01
 +6.90485E-01 +4.01278E-01 +5.23726E-01 +6.45019E-01 +2.68423E-01 +8.10873E-01 -3.69842E-02 +8.67570E-01
 -3.44073E-01 +8.02895E-01 -6.03652E-01 +6.26132E-01 -7.75075E-01 +3.66231E-01 -8.33755E-01 +6.61187E-02
 -7.75385E-01 -2.25630E-01 -6.16084E-01 -4.64014E-01 -3.88548E-01 -6.15830E-01 -1.35101E-01 -6.65277E-01
 +1.00831E-01 -6.15893E-01 +2.83040E-01 -4.88578E-01 +3.88961E-01 -3.16271E-01 +4.12972E-01 -1.36528E-01
 +3.66043E-01 +1.63678E-02 +2.72002E-01 +1.18101E-01 +1.61360E-01 +1.58493E-01 +6.41490E-02 +1.42389E-01
 +3.33105E-03 +8.72635E-02 -9.82203E-03 +1.82218E-02 +2.25053E-02 -3.83781E-02 +8.60093E-02 -6.12351E-02
 +1.58264E-01 -3.89638E-02 +2.14383E-01 +2.74957E-02 +2.33029E-01 +1.25343E-01 +2.01439E-01 +2.33042E-01
 +1.18404E-01 +3.25320E-01 -5.37923E-03 +3.78885E-01 -1.49565E-01 +3.77592E-01 -2.88449E-01 +3.15985E-01
 -3.96310E-01 +2.00485E-01 -4.52630E-01 +4.80974E-02 -4.46117E-01 -1.17020E-01 -3.76749E-01 -2.68317E-01
 -2.55513E-01 -3.81906E-01 -1.02019E-01 -4.40876E-01 +5.94210E-02 -4.38046E-01 +2.04353E-01 -3.76718E-01
 +3.12460E-01 -2.69424E-01 +3.70738E-01 -1.35074E-01 +3.75059E-01 +4.79455E-03 +3.29980E-01 +1.29871E-01
 +2.47036E-01 +2.24264E-01 +1.42016E-01 +2.78530E-01 +3.18731E-02 +2.90290E-01 -6.80801E-02 +2.63550E-01
 -1.46235E-01 +2.07046E-01 -1.95741E-01 +1.32119E-01 -2.14563E-01 +5.06027E-02 -2.04763E-01 -2.68725E-02
 -1.71344E-01 -9.19599E-02 -1.20997E-01 -1.39029E-01 -6.10361E-02 -1.65099E-01 +1.34514E-03 -1.69493E-01
 +5.95149E-02 -1.53445E-01 +1.07652E-01 -1.19789E-01 +1.40965E-01 -7.27741E-02 +1.56003E-01 -1.79166E-02
 +1.51092E-01 +3.82557E-02 +1.26798E-01 +8.87072E-02 +8.62584E-02 +1.26709E-01 +3.51433E-02 +1.46898E-01
 -1.88921E-02 +1.46388E-01 -6.73219E-02 +1.25637E-01 -1.02295E-01 +8.87781E-02 -1.18319E-01 +4.31706E-02
 -1.13684E-01 -1.85629E-03 -9.12071E-02 -3.69263E-02 -5.79888E-02 -5.48222E-02 -2.40865E-02 -5.24628E-02
 -2.67905E-04 -3.21146E-02 +4.71649E-03 -1.41445E-03 -1.32771E-02 +2.79731E-02 -5.20115E-02 +4.29175E-02
 -1.02468E-01 +3.21289E-02 -1.50115E-01 -1.05145E-02 -1.77750E-01 -8.34418E-02 -1.69444E-01 -1.76397E-01
 -1.14765E-01 -2.71427E-01 -1.23091E-02 -3.45869E-01 +1.28392E-01 -3.76886E-01 +2.87228E-01 -3.46687E-01
 +4.36325E-01 -2.47305E-01 +5.44960E-01 -8.37869E-02 +5.85698E-01 +1.25081E-01 +5.40513E-01 +3.48938E-01
 +4.05556E-01 +5.50706E-01 +1.93396E-01 +6.93340E-01 -6.79491E-02 +7.47154E-01 -3.39245E-01 +6.96232E-01
 -5.76870E-01 +5.42468E-01 -7.40966E-01 +3.06244E-01 -8.03274E-01 +2.33971E-02 -7.52992E-01 -2.61088E-01
 -5.99326E-01 -5.01486E-01 -3.70057E-01 -6.60169E-01 -1.06281E-01 -7.15021E-01 +1.45709E-01 -6.63811E-01
 +3.43739E-01 -5.24512E-01 +4.58334E-01 -3.31377E-01 +4.78665E-01 -1.27516E-01 +4.14534E-01 +4.45046E-02
 +2.93856E-01 +1.52020E-01 +1.56088E-01 +1.79526E-01 +4.29694E-02 +1.32171E-01 -1.14406E-02 +3.45799E-02
 +1.08182E-02 -7.48314E-02 +1.06669E-01 -1.52950E-01 +2.51797E-01 -1.62501E-01 +4.05421E-01 -8.16942E-02
 +5.19166E-01 +8.92445E-02 +5.48208E-01 +3.26283E-01 +4.62303E-01 +5.85166E-01 +2.54204E-01 +8.09844E-01
 -5.65336E-02 +9.44097E-01 -4.25433E-01 +9.43972E-01 -7.90541E-01 +7.88335E-01 -1.08408E+00 +4.85158E-01
 -1.24603E+00 +7.19825E-02 -1.23673E+00 -3.89775E-01 -1.04595E+00 -8.25745E-01 -6.96200E-01 -1.16262E+00
 -2.39541E-01 -1.34246E+00 +2.51678E-01 -1.33425E+00 +6.98403E-01 -1.14034E+00 +1.03001E+00 -7.96230E-01
 +1.19787E+00 -3.63645E-01 +1.18455E+00 +8.16544E-02 +1.00668E+00 +4.64959E-01 +7.10720E-01 +7.27377E-01
 +3.62753E-01 +8.37193E-01 +3.41738E-02 +7.95419E-01 -2.13508E-01 +6.34326E-01 -3.41544E-01 +4.09295E-01
 -3.41705E-01 +1.85716E-01 -2.37227E-01 +2.38088E-02 -7.66865E-02 -3.53224E-02 +7.78612E-02 +2.07002E-02
