 Created: 16-Jan-2021
 $NMID
 ID='D:\BASISSIMULATI'
 FMTDAT='(8E13.5)'
 VOLUME=   1.00000E+00
 TRAMP=   1.00000E+00
 $END
 +9.90366E+00 +1.12765E-02 +7.50801E+00 +6.24316E+00 +1.72526E+00 +9.26493E+00 -4.34441E+00 +7.76097E+00
 -7.65709E+00 +2.91212E+00 -6.92558E+00 -2.43481E+00 -3.18576E+00 -5.51516E+00 +1.04405E+00 -5.20572E+00
 +3.40140E+00 -2.46591E+00 +3.05234E+00 +5.16901E-01 +9.76207E-01 +1.83609E+00 -9.13372E-01 +1.02601E+00
 -1.14418E+00 -8.27307E-01 +3.71181E-01 -1.99702E+00 +2.39692E+00 -1.36398E+00 +3.31332E+00 +8.43024E-01
 +2.24427E+00 +3.25936E+00 -3.81721E-01 +4.33291E+00 -3.15655E+00 +3.32927E+00 -4.61493E+00 +7.38384E-01
 -4.10380E+00 -2.11861E+00 -2.05208E+00 -3.94036E+00 +4.48572E-01 -4.15330E+00 +2.37556E+00 -3.04995E+00
 +3.28954E+00 -1.37485E+00 +3.33459E+00 +2.48191E-01 +2.84469E+00 +1.60493E+00 +1.95499E+00 +2.73873E+00
 +5.59548E-01 +3.57775E+00 -1.37056E+00 +3.73571E+00 -3.42490E+00 +2.72088E+00 -4.73119E+00 +4.25854E-01
 -4.40066E+00 -2.50738E+00 -2.18042E+00 -4.81614E+00 +1.17025E+00 -5.26630E+00 +4.12989E+00 -3.44198E+00
 +5.22398E+00 -1.30341E-01 +3.91280E+00 +3.02304E+00 +9.69493E-01 +4.43662E+00 -1.94254E+00 +3.53230E+00
 -3.26423E+00 +1.08105E+00 -2.48626E+00 -1.29256E+00 -4.32239E-01 -2.14770E+00 +1.31421E+00 -1.14179E+00
 +1.47338E+00 +7.75186E-01 -6.93862E-02 +2.01967E+00 -2.17443E+00 +1.46025E+00 -3.19842E+00 -7.81865E-01
 -2.10264E+00 -3.34997E+00 +8.01738E-01 -4.49039E+00 +3.96343E+00 -3.18326E+00 +5.50109E+00 +1.55369E-01
 +4.34947E+00 +3.85068E+00 +9.30208E-01 +5.92190E+00 -3.06223E+00 +5.22661E+00 -5.61892E+00 +2.10605E+00
 -5.53235E+00 -1.83744E+00 -3.01245E+00 -4.66528E+00 +5.23855E-01 -5.15757E+00 +3.30990E+00 -3.38729E+00
 +4.19111E+00 -5.31289E-01 +3.13916E+00 +1.89562E+00 +1.08325E+00 +2.88389E+00 -7.53938E-01 +2.36514E+00
 -1.56666E+00 +1.05530E+00 -1.31108E+00 -1.09352E-01 -5.49940E-01 -5.48595E-01 +2.14629E-02 -2.89533E-01
 +2.85137E-02 +1.94213E-01 -4.17134E-01 +3.80022E-01 -8.83621E-01 +4.46169E-02 -9.51024E-01 -6.38539E-01
 -4.75470E-01 -1.26204E+00 +3.59084E-01 -1.45658E+00 +1.18520E+00 -1.08851E+00 +1.66218E+00 -2.88445E-01
 +1.61814E+00 +6.56607E-01 +1.07314E+00 +1.44444E+00 +1.83620E-01 +1.84784E+00 -8.20386E-01 +1.74178E+00
 -1.67116E+00 +1.11003E+00 -2.09551E+00 +6.77782E-02 -1.88483E+00 -1.11481E+00 -1.00436E+00 -2.04404E+00
 +3.19957E-01 -2.32877E+00 +1.62303E+00 -1.76981E+00 +2.36877E+00 -5.09314E-01 +2.20571E+00 +9.72305E-01
 +1.17192E+00 +2.04985E+00 -2.85038E-01 +2.25603E+00 -1.51095E+00 +1.52894E+00 -1.97416E+00 +2.54335E-01
 -1.53889E+00 -9.35121E-01 -5.23620E-01 -1.49691E+00 +4.91535E-01 -1.26051E+00 +9.96223E-01 -4.92571E-01
 +8.25593E-01 +2.87450E-01 +2.22135E-01 +6.25440E-01 -3.43678E-01 +3.92661E-01 -4.76709E-01 -1.63523E-01
 -9.76469E-02 -5.98562E-01 +5.20962E-01 -5.61361E-01 +9.36279E-01 -1.66664E-02 +8.16696E-01 +7.32344E-01
 +1.50942E-01 +1.22821E+00 -7.37480E-01 +1.13422E+00 -1.37333E+00 +4.35968E-01 -1.39822E+00 -5.44732E-01
 -7.69317E-01 -1.32532E+00 +2.19927E-01 -1.52180E+00 +1.09982E+00 -1.04636E+00 +1.46944E+00 -1.40677E-01
 +1.19201E+00 +7.61926E-01 +4.43085E-01 +1.26113E+00 -4.00301E-01 +1.17916E+00 -9.58841E-01 +6.23123E-01
 -1.03000E+00 -9.76623E-02 -6.60981E-01 -6.42122E-01 -9.26996E-02 -8.01833E-01 +3.81790E-01 -5.80008E-01
 +5.64386E-01 -1.57861E-01 +4.32403E-01 +2.20347E-01 +1.22035E-01 +3.76732E-01 -1.64328E-01 +2.78324E-01
 -2.71444E-01 +3.23794E-02 -1.66121E-01 -1.89146E-01 +5.98519E-02 -2.49824E-01 +2.52852E-01 -1.19872E-01
 +2.87903E-01 +1.15964E-01 +1.36993E-01 +3.12814E-01 -1.19240E-01 +3.49393E-01 -3.39354E-01 +1.94952E-01
 -4.00091E-01 -7.53006E-02 -2.63207E-01 -3.22354E-01 +4.94468E-03 -4.18642E-01 +2.69913E-01 -3.15387E-01
 +4.00682E-01 -6.66856E-02 +3.37444E-01 +2.01004E-01 +1.20123E-01 +3.56157E-01 -1.35901E-01 +3.29679E-01
 -3.02106E-01 +1.47342E-01 -3.03069E-01 -8.82493E-02 -1.51988E-01 -2.54401E-01 +6.14087E-02 -2.72360E-01
 +2.21746E-01 -1.45048E-01 +2.49170E-01 +4.96124E-02 +1.38518E-01 +2.03799E-01 -4.25751E-02 +2.37784E-01
 -1.93384E-01 +1.39943E-01 -2.34836E-01 -3.10816E-02 -1.49859E-01 -1.81184E-01 +1.11148E-02 -2.32325E-01
 +1.60565E-01 -1.62713E-01 +2.22175E-01 -1.49409E-02 +1.70309E-01 +1.30501E-01 +4.00757E-02 +2.00188E-01
 -9.56574E-02 +1.65966E-01 -1.67816E-01 +5.62396E-02 -1.47538E-01 -6.39855E-02 -5.79884E-02 -1.31310E-01
 +4.31805E-02 -1.18201E-01 +9.89743E-02 -4.46568E-02 +8.49898E-02 +3.76447E-02 +2.03645E-02 +7.79316E-02
 -4.71468E-02 +5.60212E-02 -7.18357E-02 -7.81128E-03 -3.77826E-02 -6.74427E-02 +3.24028E-02 -8.02812E-02
 +9.21972E-02 -3.35828E-02 +9.97729E-02 +4.76137E-02 +4.35331E-02 +1.15049E-01 -5.01101E-02 +1.25379E-01
 -1.30821E-01 +6.55826E-02 -1.52021E-01 -3.85941E-02 -9.66531E-02 -1.35554E-01 +1.29170E-02 -1.74764E-01
 +1.25835E-01 -1.33017E-01 +1.88243E-01 -2.62934E-02 +1.69670E-01 +9.83843E-02 +7.69000E-02 +1.86033E-01
 -5.07729E-02 +1.99264E-01 -1.61012E-01 +1.33627E-01 -2.11696E-01 +1.65377E-02 -1.86567E-01 -1.07388E-01
 -9.75662E-02 -1.95481E-01 +2.41259E-02 -2.21238E-01 +1.41285E-01 -1.79104E-01 +2.21268E-01 -8.15091E-02
 +2.41556E-01 +4.68371E-02 +1.92245E-01 +1.73677E-01 +7.86807E-02 +2.63234E-01 -7.53327E-02 +2.82704E-01
 -2.27534E-01 +2.13159E-01 -3.25531E-01 +6.19777E-02 -3.24827E-01 -1.30890E-01 -2.10617E-01 -3.00605E-01
 -1.16769E-02 -3.80501E-01 +2.04451E-01 -3.32061E-01 +3.56944E-01 -1.66450E-01 +3.87488E-01 +5.60905E-02
 +2.87955E-01 +2.51681E-01 +1.03969E-01 +3.51346E-01 -8.88759E-02 +3.32074E-01 -2.23397E-01 +2.22945E-01
 -2.71831E-01 +8.31420E-02 -2.51620E-01 -3.43448E-02 -2.03676E-01 -1.10518E-01 -1.58454E-01 -1.62326E-01
 -1.13256E-01 -2.18343E-01 -3.70840E-02 -2.85613E-01 +9.91646E-02 -3.31996E-01 +2.87319E-01 -2.99119E-01
 +4.67031E-01 -1.40908E-01 +5.45595E-01 +1.35415E-01 +4.45154E-01 +4.53112E-01 +1.51763E-01 +6.88633E-01
 -2.62375E-01 +7.24808E-01 -6.58271E-01 +5.08113E-01 -8.83491E-01 +8.07786E-02 -8.34522E-01 -4.28105E-01
 -5.00299E-01 -8.47756E-01 +2.98804E-02 -1.02681E+00 +5.94145E-01 -8.86524E-01 +1.00911E+00 -4.49384E-01
 +1.12773E+00 +1.63109E-01 +8.88967E-01 +7.62035E-01 +3.46489E-01 +1.14617E+00 -3.35550E-01 +1.16964E+00
 -9.27120E-01 +8.02698E-01 -1.21227E+00 +1.59470E-01 -1.07936E+00 -5.30283E-01 -5.80507E-01 -1.00735E+00
 +7.81710E-02 -1.09709E+00 +6.24763E-01 -7.95947E-01 +8.53069E-01 -2.77261E-01 +7.28245E-01 +1.98628E-01
 +4.00764E-01 +4.28738E-01 +1.10235E-01 +3.83621E-01 +2.90839E-02 +2.18878E-01 +1.42641E-01 +1.63939E-01
 +2.50874E-01 +3.50002E-01 +1.05798E-01 +6.89159E-01 -3.93047E-01 +8.97546E-01 -1.07461E+00 +6.69393E-01
 -1.54408E+00 -9.46274E-02 -1.40020E+00 -1.15400E+00 -5.04513E-01 -1.99795E+00 +8.67603E-01 -2.10642E+00
 +2.11046E+00 -1.26365E+00 +2.58611E+00 +2.66279E-01 +1.97867E+00 +1.82645E+00 +4.96669E-01 +2.68944E+00
 -1.20753E+00 +2.44141E+00 -2.36852E+00 +1.20687E+00 -2.50440E+00 -4.19906E-01 -1.65237E+00 -1.69831E+00
 -3.11925E-01 -2.13042E+00 +8.59853E-01 -1.69041E+00 +1.41043E+00 -7.72596E-01 +1.29632E+00 +8.90808E-02
 +8.24387E-01 +5.42026E-01 +3.94495E-01 +5.77932E-01 +2.26819E-01 +4.54949E-01 +2.50931E-01 +4.57686E-01
 +2.12050E-01 +6.72730E-01 -9.97667E-02 +9.31799E-01 -6.67855E-01 +9.48697E-01 -1.23994E+00 +5.40981E-01
 -1.48909E+00 -2.24024E-01 -1.22434E+00 -1.05587E+00 -5.05096E-01 -1.61079E+00 +4.07070E-01 -1.67917E+00
 +1.20632E+00 -1.26642E+00 +1.68730E+00 -5.34618E-01 +1.78295E+00 +3.21842E-01 +1.50089E+00 +1.15458E+00
 +8.50569E-01 +1.83980E+00 -1.45942E-01 +2.20681E+00 -1.35427E+00 +2.02637E+00 -2.43876E+00 +1.12760E+00
 -2.91262E+00 -4.07139E-01 -2.36795E+00 -2.12310E+00 -7.75859E-01 -3.29730E+00 +1.35337E+00 -3.27782E+00
 +3.11625E+00 -1.88835E+00 +3.65103E+00 +3.66222E-01 +2.63463E+00 +2.47589E+00 +5.28001E-01 +3.43712E+00
 -1.62354E+00 +2.82034E+00 -2.75917E+00 +1.03947E+00 -2.41396E+00 -8.73213E-01 -9.89111E-01 -1.87845E+00
 +5.08931E-01 -1.55950E+00 +1.11550E+00 -3.66658E-01 +5.35252E-01 +6.95400E-01 -6.62174E-01 +7.51473E-01
 -1.42371E+00 -3.29456E-01 -9.39924E-01 -1.80256E+00 +7.54686E-01 -2.50967E+00 +2.71803E+00 -1.65651E+00
 +3.64623E+00 +5.96606E-01 +2.70290E+00 +3.13219E+00 +1.06462E-01 +4.49476E+00 -2.91349E+00 +3.76450E+00
 -4.78751E+00 +1.14352E+00 -4.50505E+00 -2.11675E+00 -2.19376E+00 -4.40996E+00 +9.67879E-01 -4.66922E+00
 +3.43711E+00 -2.92390E+00 +4.16180E+00 -2.03873E-01 +3.09056E+00 +2.11248E+00 +1.06589E+00 +3.07872E+00
 -7.75481E-01 +2.61589E+00 -1.68021E+00 +1.38378E+00 -1.61340E+00 +2.40737E-01 -1.09358E+00 -3.13669E-01
 -7.09951E-01 -3.55315E-01 -6.90354E-01 -3.21974E-01 -8.08746E-01 -5.81123E-01 -6.51843E-01 -1.11746E+00
 -6.92057E-03 -1.55727E+00 +9.33352E-01 -1.48146E+00 +1.69411E+00 -7.69198E-01 +1.85955E+00 +2.92608E-01
 +1.36335E+00 +1.20755E+00 +5.10519E-01 +1.61232E+00 -2.72767E-01 +1.49608E+00 -7.53111E-01 +1.13402E+00
 -1.01432E+00 +8.02711E-01 -1.29425E+00 +5.21394E-01 -1.67371E+00 +4.68011E-02 -1.89084E+00 -8.53619E-01
 -1.47383E+00 -2.06284E+00 -1.37195E-01 -3.00816E+00 +1.84430E+00 -2.93932E+00 +3.60379E+00 -1.45490E+00
 +4.10045E+00 +1.08048E+00 +2.77207E+00 +3.56531E+00 -5.63357E-04 +4.70147E+00 -2.96806E+00 +3.75683E+00
 -4.64848E+00 +1.07158E+00 -4.17266E+00 -2.04826E+00 -1.81740E+00 -4.03387E+00 +1.12758E+00 -3.94781E+00
 +3.10397E+00 -2.02033E+00 +3.19357E+00 +5.13378E-01 +1.62972E+00 +2.18094E+00 -4.05450E-01 +2.16692E+00
 -1.56361E+00 +7.73142E-01 -1.19026E+00 -8.37568E-01 +2.85280E-01 -1.43794E+00 +1.67066E+00 -5.53346E-01
 +1.82390E+00 +1.22690E+00 +4.27629E-01 +2.63856E+00 -1.77508E+00 +2.57397E+00 -3.43119E+00 +8.18498E-01
 -3.42251E+00 -1.77668E+00 -1.56899E+00 -3.78911E+00 +1.24429E+00 -4.06968E+00 +3.58051E+00 -2.41247E+00
 +4.27360E+00 +3.47305E-01 +3.05702E+00 +2.83763E+00 +6.43857E-01 +3.92248E+00 -1.74289E+00 +3.27479E+00
 -3.06548E+00 +1.44212E+00 -2.96942E+00 -5.70424E-01 -1.83030E+00 -1.89427E+00 -3.97914E-01 -2.20152E+00
 +6.82353E-01 -1.72367E+00 +1.16606E+00 -9.55989E-01 +1.19027E+00 -2.98150E-01 +1.03098E+00 +1.29963E-01
 +8.56427E-01 +4.24462E-01 +6.49940E-01 +6.98609E-01 +3.16929E-01 +9.35356E-01 -1.52898E-01 +1.00276E+00
