 Created: 16-Jan-2021
 $NMID
 ID='D:\BASISSIMULATI'
 FMTDAT='(8E13.5)'
 VOLUME=   1.00000E+00
 TRAMP=   1.00000E+00
 $END
 +1.07905E+01 +1.22983E-02 +1.01599E+01 +2.83008E+00 +8.57317E+00 +5.23311E+00 +6.24865E+00 +6.93318E+00
 +3.49119E+00 +7.74287E+00 +6.47994E-01 +7.59812E+00 -1.93997E+00 +6.56240E+00 -3.98380E+00 +4.81266E+00
 -5.28304E+00 +2.60963E+00 -5.74773E+00 +2.57615E-01 -5.40347E+00 -1.93985E+00 -4.37970E+00 -3.72173E+00
 -2.88381E+00 -4.90251E+00 -1.16584E+00 -5.39227E+00 +5.20425E-01 -5.20145E+00 +1.95392E+00 -4.43080E+00
 +2.97496E+00 -3.24893E+00 +3.50248E+00 -1.86176E+00 +3.53798E+00 -4.79183E-01 +3.15678E+00 +7.15931E-01
 +2.48885E+00 +1.59181E+00 +1.69309E+00 +2.08186E+00 +9.29530E-01 +2.18744E+00 +3.33997E-01 +1.97001E+00
 -1.17804E-03 +1.53465E+00 -3.78218E-02 +1.00852E+00 +2.06840E-01 +5.17787E-01 +6.67757E-01 +1.67025E-01
 +1.24647E+00 +2.38216E-02 +1.82953E+00 +1.10657E-01 +2.30780E+00 +4.04565E-01 +2.59351E+00 +8.43969E-01
 +2.63282E+00 +1.34100E+00 +2.41239E+00 +1.79699E+00 +1.95943E+00 +2.11854E+00 +1.33589E+00 +2.23180E+00
 +6.28123E-01 +2.09312E+00 -6.62786E-02 +1.69475E+00 -6.52273E-01 +1.06540E+00 -1.05008E+00 +2.65877E-01
 -1.20519E+00 -6.19220E-01 -1.09465E+00 -1.49240E+00 -7.29245E-01 -2.25526E+00 -1.51511E-01 -2.82022E+00
 +5.69830E-01 -3.12047E+00 +1.34822E+00 -3.11747E+00 +2.08938E+00 -2.80513E+00 +2.70209E+00 -2.21049E+00
 +3.10853E+00 -1.39083E+00 +3.25311E+00 -4.27722E-01 +3.10908E+00 +5.81567E-01 +2.68199E+00 +1.53439E+00
 +2.00979E+00 +2.33374E+00 +1.15934E+00 +2.89896E+00 +2.19572E-01 +3.17479E+00 -7.08056E-01 +3.13798E+00
 -1.52096E+00 +2.80030E+00 -2.12731E+00 +2.20762E+00 -2.45717E+00 +1.43488E+00 -2.47128E+00 +5.77411E-01
 -2.16641E+00 -2.60480E-01 -1.57642E+00 -9.78388E-01 -7.68566E-01 -1.49240E+00 +1.64499E-01 -1.74581E+00
 +1.11618E+00 -1.71638E+00 +1.97939E+00 -1.41907E+00 +2.66022E+00 -9.03797E-01 +3.08988E+00 -2.48287E-01
 +3.23319E+00 +4.52877E-01 +3.09245E+00 +1.10159E+00 +2.70605E+00 +1.61000E+00 +2.14193E+00 +1.91269E+00
 +1.48708E+00 +1.97550E+00 +8.34346E-01 +1.79960E+00 +2.68819E-01 +1.42035E+00 -1.44294E-01 +9.01030E-01
 -3.68445E-01 +3.22478E-01 -3.99849E-01 -2.29669E-01 -2.66375E-01 -6.78202E-01 -2.14849E-02 -9.65938E-01
 +2.65748E-01 -1.06390E+00 +5.22876E-01 -9.74860E-01 +6.86577E-01 -7.31715E-01 +7.13408E-01 -3.91121E-01
 +5.87096E-01 -2.33852E-02 +3.21231E-01 +2.99649E-01 -4.30245E-02 +5.16782E-01 -4.43808E-01 +5.87733E-01
 -8.08859E-01 +4.99889E-01 -1.06759E+00 +2.70475E-01 -1.16302E+00 -5.61703E-02 -1.06157E+00 -4.15755E-01
 -7.59356E-01 -7.34469E-01 -2.83837E-01 -9.41063E-01 +3.09398E-01 -9.78671E-01 +9.44171E-01 -8.14554E-01
 +1.53451E+00 -4.46268E-01 +1.99706E+00 +9.66979E-02 +2.26325E+00 +7.56051E-01 +2.28951E+00 +1.45217E+00
 +2.06391E+00 +2.09481E+00 +1.60844E+00 +2.59556E+00 +9.76516E-01 +2.88016E+00 +2.46053E-01 +2.89909E+00
 -4.90806E-01 +2.63484E+00 -1.13997E+00 +2.10489E+00 -1.61794E+00 +1.35998E+00 -1.86290E+00 +4.78053E-01
 -1.84292E+00 -4.45514E-01 -1.56009E+00 -1.30988E+00 -1.05020E+00 -2.02139E+00 -3.77944E-01 -2.50521E+00
 +3.71648E-01 -2.71442E+00 +1.10432E+00 -2.63543E+00 +1.72882E+00 -2.28905E+00 +2.16855E+00 -1.72708E+00
 +2.37119E+00 -1.02502E+00 +2.31500E+00 -2.71898E-01 +2.01095E+00 +4.41492E-01 +1.50061E+00 +1.03419E+00
 +8.50045E-01 +1.44511E+00 +1.40539E-01 +1.64017E+00 -5.42387E-01 +1.61554E+00 -1.12030E+00 +1.39678E+00
 -1.53193E+00 +1.03396E+00 -1.74055E+00 +5.93546E-01 -1.73792E+00 +1.48349E-01 -1.54403E+00 -2.33179E-01
 -1.20303E+00 -4.96618E-01 -7.75827E-01 -6.08940E-01 -3.30603E-01 -5.62524E-01 +6.73951E-02 -3.75304E-01
 +3.65277E-01 -8.71244E-02 +5.29769E-01 +2.47095E-01 +5.51290E-01 +5.66301E-01 +4.44312E-01 +8.12977E-01
 +2.44031E-01 +9.42071E-01 -6.98954E-05 +9.27835E-01 -2.32715E-01 +7.67588E-01 -4.02046E-01 +4.81855E-01
 -4.68118E-01 +1.10934E-01 -4.09374E-01 -2.91538E-01 -2.26124E-01 -6.66995E-01 +5.94605E-02 -9.60995E-01
 +4.06794E-01 -1.13154E+00 +7.63194E-01 -1.15538E+00 +1.07206E+00 -1.03142E+00 +1.28161E+00 -7.80636E-01
 +1.35290E+00 -4.42764E-01 +1.26583E+00 -7.01060E-02 +1.02232E+00 +2.80404E-01 +6.46190E-01 +5.55735E-01
 +1.79807E-01 +7.14577E-01 -3.21906E-01 +7.33294E-01 -7.99246E-01 +6.09184E-01 -1.19607E+00 +3.60600E-01
 -1.46747E+00 +2.40170E-02 -1.58576E+00 -3.51492E-01 -1.54391E+00 -7.11480E-01 -1.35595E+00 -1.00399E+00
 -1.05456E+00 -1.18692E+00 -6.86039E-01 -1.23385E+00 -3.03563E-01 -1.13755E+00 +4.02806E-02 -9.10809E-01
 +3.00716E-01 -5.84378E-01 +4.46705E-01 -2.02576E-01 +4.64839E-01 +1.82928E-01 +3.60717E-01 +5.20222E-01
 +1.57694E-01 +7.64169E-01 -1.06777E-01 +8.82426E-01 -3.86666E-01 +8.59669E-01 -6.33982E-01 +6.99501E-01
 -8.05587E-01 +4.23827E-01 -8.69303E-01 +6.97981E-02 -8.08517E-01 -3.15247E-01 -6.24666E-01 -6.80178E-01
 -3.37279E-01 -9.76963E-01 +1.84414E-02 -1.16716E+00 +3.96196E-01 -1.22715E+00 +7.44754E-01 -1.15138E+00
 +1.01489E+00 -9.53236E-01 +1.16618E+00 -6.63308E-01 +1.17278E+00 -3.25283E-01 +1.02726E+00 +1.00089E-02
 +7.42079E-01 +2.91653E-01 +3.48299E-01 +4.75827E-01 -1.08256E-01 +5.32122E-01 -5.73004E-01 +4.48066E-01
 -9.89930E-01 +2.31186E-01 -1.30924E+00 -9.17657E-02 -1.49427E+00 -4.78382E-01 -1.52660E+00 -8.76502E-01
 -1.40864E+00 -1.23165E+00 -1.16317E+00 -1.49492E+00 -8.29979E-01 -1.63018E+00 -4.59889E-01 -1.61940E+00
 -1.07207E-01 -1.46545E+00 +1.78414E-01 -1.19164E+00 +3.59369E-01 -8.38251E-01 +4.15637E-01 -4.56471E-01
 +3.47570E-01 -1.00604E-01 +1.75477E-01 +1.80164E-01 -6.39355E-02 +3.49184E-01 -3.23713E-01 +3.87773E-01
 -5.54409E-01 +2.97785E-01 -7.12190E-01 +1.00899E-01 -7.65978E-01 -1.65222E-01 -7.02477E-01 -4.53295E-01
 -5.28252E-01 -7.14231E-01 -2.68559E-01 -9.05125E-01 +3.68714E-02 -9.96105E-01 +3.40372E-01 -9.74936E-01
 +5.94089E-01 -8.48650E-01 +7.57661E-01 -6.41988E-01 +8.04547E-01 -3.92972E-01 +7.26010E-01 -1.46411E-01
 +5.32138E-01 +5.35433E-02 +2.49817E-01 +1.70508E-01 -8.18987E-02 +1.81499E-01 -4.18179E-01 +8.01778E-02
 -7.15437E-01 -1.22720E-01 -9.37790E-01 -4.01724E-01 -1.06192E+00 -7.21211E-01 -1.07961E+00 -1.04134E+00
 -9.97730E-01 -1.32428E+00 -8.35754E-01 -1.53962E+00 -6.21546E-01 -1.66817E+00 -3.86186E-01 -1.70358E+00
 -1.58876E-01 -1.65172E+00 +3.72120E-02 -1.52812E+00 +1.87477E-01 -1.35419E+00 +2.86546E-01 -1.15292E+00
 +3.37147E-01 -9.45125E-01 +3.47635E-01 -7.46642E-01 +3.28847E-01 -5.67145E-01 +2.91048E-01 -4.10464E-01
 +2.41624E-01 -2.76189E-01 +1.83971E-01 -1.62010E-01 +1.17736E-01 -6.61464E-02 +4.02156E-02 +1.08010E-02
 -5.15152E-02 +6.50022E-02 -1.58354E-01 +8.97822E-02 -2.77408E-01 +7.71177E-02 -4.01207E-01 +1.98723E-02
 -5.18147E-01 -8.57942E-02 -6.14106E-01 -2.38454E-01 -6.74920E-01 -4.30399E-01 -6.89172E-01 -6.47905E-01
 -6.50665E-01 -8.72785E-01 -5.60000E-01 -1.08498E+00 -4.24887E-01 -1.26564E+00 -2.59046E-01 -1.40012E+00
 -7.99177E-02 -1.48013E+00 +9.43549E-02 -1.50476E+00 +2.48041E-01 -1.47997E+00 +3.70350E-01 -1.41673E+00
 +4.56816E-01 -1.32832E+00 +5.09237E-01 -1.22722E+00 +5.34166E-01 -1.12244E+00 +5.40324E-01 -1.01793E+00
 +5.35515E-01 -9.12350E-01 +5.23828E-01 -8.00519E-01 +5.03827E-01 -6.76003E-01 +4.68275E-01 -5.34448E-01
 +4.05598E-01 -3.76777E-01 +3.02910E-01 -2.11419E-01 +1.50023E-01 -5.48960E-02 -5.63845E-02 +6.96150E-02
 -3.09430E-01 +1.35702E-01 -5.90397E-01 +1.18631E-01 -8.69429E-01 +8.94359E-04 -1.10872E+00 -2.22714E-01
 -1.26792E+00 -5.41593E-01 -1.31087E+00 -9.28309E-01 -1.21266E+00 -1.34057E+00 -9.65507E-01 -1.72614E+00
 -5.82453E-01 -2.03013E+00 -9.77659E-02 -2.20349E+00 +4.36156E-01 -2.21147E+00 +9.55209E-01 -2.04030E+00
 +1.39246E+00 -1.70103E+00 +1.68813E+00 -1.22957E+00 +1.79899E+00 -6.82712E-01 +1.70572E+00 -1.30599E-01
 +1.41678E+00 +3.53266E-01 +9.68000E-01 +7.02913E-01 +4.17992E-01 +8.69947E-01 -1.60165E-01 +8.31077E-01
 -6.89578E-01 +5.91846E-01 -1.10088E+00 +1.85923E-01 -1.34243E+00 -3.29985E-01 -1.38767E+00 -8.84775E-01
 -1.23859E+00 -1.40374E+00 -9.24604E-01 -1.81976E+00 -4.97266E-01 -2.08305E+00 -2.15935E-02 -2.16799E+00
 +4.34379E-01 -2.07586E+00 +8.10141E-01 -1.83329E+00 +1.06158E+00 -1.48674E+00 +1.16681E+00 -1.09403E+00
 +1.12804E+00 -7.14556E-01 +9.69479E-01 -3.99711E-01 +7.31631E-01 -1.85275E-01 +4.63266E-01 -8.68493E-02
 +2.12483E-01 -9.90255E-02 +1.84664E-02 -1.98212E-01 -9.46512E-02 -3.48445E-01 -1.20866E-01 -5.09012E-01
 -7.19206E-02 -6.42422E-01 +2.62879E-02 -7.21307E-01 +1.39714E-01 -7.33050E-01 +2.33380E-01 -6.81405E-01
 +2.78439E-01 -5.84966E-01 +2.57808E-01 -4.72880E-01 +1.69396E-01 -3.78701E-01 +2.64283E-02 -3.33573E-01
 -1.45093E-01 -3.60001E-01 -3.11249E-01 -4.67320E-01 -4.36438E-01 -6.49615E-01 -4.89847E-01 -8.86410E-01
 -4.51014E-01 -1.14590E+00 -3.13552E-01 -1.39013E+00 -8.64498E-02 -1.58112E+00 +2.07176E-01 -1.68692E+00
 +5.33579E-01 -1.68664E+00 +8.53460E-01 -1.57349E+00 +1.12774E+00 -1.35571E+00 +1.32309E+00 -1.05513E+00
 +1.41629E+00 -7.03808E-01 +1.39702E+00 -3.39422E-01 +1.26851E+00 -1.55550E-04 +1.04637E+00 +2.80113E-01
 +7.55834E-01 +4.75627E-01 +4.27974E-01 +5.71139E-01 +9.55922E-02 +5.62693E-01 -2.10626E-01 +4.56903E-01
 -4.65180E-01 +2.69037E-01 -6.49758E-01 +2.03647E-02 -7.54090E-01 -2.64748E-01 -7.75750E-01 -5.61564E-01
 -7.19176E-01 -8.47202E-01 -5.94207E-01 -1.10220E+00 -4.14446E-01 -1.31143E+00 -1.95713E-01 -1.46436E+00
 +4.52835E-02 -1.55504E+00 +2.91996E-01 -1.58171E+00 +5.28850E-01 -1.54638E+00 +7.41883E-01 -1.45441E+00
 +9.19303E-01 -1.31406E+00 +1.05200E+00 -1.13590E+00 +1.13400E+00 -9.32253E-01 +1.16282E+00 -7.16389E-01
 +1.13963E+00 -5.01576E-01 +1.06904E+00 -3.00078E-01 +9.58648E-01 -1.22174E-01 +8.18177E-01 +2.46161E-02
 +6.58343E-01 +1.35975E-01 +4.89666E-01 +2.10768E-01 +3.21364E-01 +2.50569E-01 +1.60559E-01 +2.58774E-01
 +1.19553E-02 +2.39497E-01 -1.21941E-01 +1.96457E-01 -2.40104E-01 +1.32126E-01 -3.41929E-01 +4.73308E-02
 -4.26072E-01 -5.85436E-02 -4.89487E-01 -1.86761E-01 -5.26934E-01 -3.37976E-01 -5.31151E-01 -5.10766E-01
 -4.93769E-01 -7.00290E-01 -4.06867E-01 -8.97407E-01 -2.64950E-01 -1.08855E+00 -6.69800E-02 -1.25651E+00
 +1.81943E-01 -1.38217E+00 +4.69651E-01 -1.44693E+00 +7.77004E-01 -1.43554E+00 +1.07917E+00 -1.33892E+00
