 Created: 16-Jan-2021
 $NMID
 ID='D:\BASISSIMULATI'
 FMTDAT='(8E13.5)'
 VOLUME=   1.00000E+00
 TRAMP=   1.00000E+00
 $END
 +1.12690E+01 +1.27720E-02 +8.55866E+00 +1.78783E+00 +2.07550E+00 +3.01927E+00 -4.60574E+00 +3.34103E+00
 -7.99425E+00 +2.61435E+00 -6.65550E+00 +1.10064E+00 -1.87921E+00 -4.92542E-01 +3.27649E+00 -1.26785E+00
 +5.87834E+00 -6.55923E-01 +4.74619E+00 +1.11473E+00 +8.84652E-01 +2.98171E+00 -3.38971E+00 +3.59765E+00
 -5.92914E+00 +2.19586E+00 -5.87375E+00 -7.92515E-01 -3.81302E+00 -3.85286E+00 -1.09108E+00 -5.25714E+00
 +1.12439E+00 -4.17403E+00 +2.37001E+00 -1.27522E+00 +2.78889E+00 +1.62222E+00 +2.67752E+00 +2.70125E+00
 +2.14722E+00 +1.34214E+00 +1.16968E+00 -1.44135E+00 -1.16818E-01 -3.65213E+00 -1.21003E+00 -3.63598E+00
 -1.42804E+00 -1.19722E+00 -3.98939E-01 +2.25710E+00 +1.52491E+00 +4.65033E+00 +3.30916E+00 +4.61498E+00
 +3.79683E+00 +2.37911E+00 +2.44463E+00 -4.36824E-01 -2.71757E-01 -1.95654E+00 -3.08739E+00 -1.32250E+00
 -4.68074E+00 +7.68229E-01 -4.42923E+00 +2.61505E+00 -2.70016E+00 +2.73925E+00 -5.24018E-01 +9.13107E-01
 +1.07823E+00 -1.71711E+00 +1.63725E+00 -3.47141E+00 +1.32025E+00 -3.32047E+00 +6.01500E-01 -1.57270E+00
 -1.44020E-01 +4.01365E-01 -7.88068E-01 +1.18024E+00 -1.27745E+00 +2.99712E-01 -1.39004E+00 -1.45342E+00
 -7.38478E-01 -2.64506E+00 +8.89562E-01 -2.23774E+00 +3.11289E+00 -3.23124E-01 +4.87953E+00 +1.96105E+00
 +4.95374E+00 +3.24012E+00 +2.75057E+00 +2.84284E+00 -1.05046E+00 +1.21411E+00 -4.64062E+00 -4.55861E-01
 -6.03128E+00 -1.08178E+00 -4.29400E+00 -3.95223E-01 -2.79650E-01 +9.58274E-01 +3.73434E+00 +1.94790E+00
 +5.34378E+00 +1.88628E+00 +3.48990E+00 +8.34837E-01 -8.37155E-01 -5.52900E-01 -5.14669E+00 -1.56138E+00
 -6.93227E+00 -1.88267E+00 -5.16778E+00 -1.69571E+00 -8.80177E-01 -1.36767E+00 +3.53643E+00 -1.08603E+00
 +5.79332E+00 -7.49135E-01 +5.01720E+00 -1.86484E-01 +2.10403E+00 +5.26419E-01 -1.01772E+00 +9.89127E-01
 -2.64802E+00 +7.61838E-01 -2.25746E+00 -1.91434E-01 -5.67227E-01 -1.29481E+00 +1.15015E+00 -1.64158E+00
 +1.96665E+00 -6.38364E-01 +1.76533E+00 +1.44372E+00 +1.04731E+00 +3.47120E+00 +3.55867E-01 +4.10026E+00
 -1.66003E-01 +2.68979E+00 -7.48473E-01 -1.58759E-01 -1.58724E+00 -2.86547E+00 -2.46577E+00 -3.83160E+00
 -2.78362E+00 -2.48399E+00 -2.01413E+00 +3.06518E-01 -2.32458E-01 +2.74608E+00 +1.74514E+00 +3.25908E+00
 +2.79558E+00 +1.49965E+00 +2.23674E+00 -1.43870E+00 +3.55362E-01 -3.74838E+00 -1.69771E+00 -4.07297E+00
 -2.61810E+00 -2.33350E+00 -1.79563E+00 +3.10600E-01 +2.84268E-01 +2.29103E+00 +2.36544E+00 +2.65006E+00
 +3.24583E+00 +1.56035E+00 +2.53136E+00 +4.52407E-02 +8.12949E-01 -8.28204E-01 -8.18221E-01 -6.70150E-01
 -1.53620E+00 +9.28833E-02 -1.27179E+00 +6.91285E-01 -6.10360E-01 +6.75592E-01 -2.31869E-01 +2.39441E-01
 -3.59291E-01 -2.73106E-02 -6.44180E-01 +2.78813E-01 -5.52609E-01 +9.55925E-01 +8.96427E-02 +1.30543E+00
 +8.61964E-01 +7.04924E-01 +1.04461E+00 -8.03844E-01 +2.32766E-01 -2.40143E+00 -1.22259E+00 -2.99509E+00
 -2.33748E+00 -2.00766E+00 -2.15271E+00 +1.27556E-01 -4.72469E-01 +2.16217E+00 +1.87389E+00 +2.82581E+00
 +3.49031E+00 +1.68323E+00 +3.31932E+00 -5.46038E-01 +1.37781E+00 -2.44199E+00 -1.20267E+00 -2.81006E+00
 -2.88485E+00 -1.44767E+00 -2.71445E+00 +7.63268E-01 -9.20085E-01 +2.47762E+00 +1.27639E+00 +2.77188E+00
 +2.49256E+00 +1.68296E+00 +2.07876E+00 +6.54592E-02 +4.69304E-01 -1.07377E+00 -1.21087E+00 -1.25282E+00
 -1.96128E+00 -7.28998E-01 -1.54754E+00 -1.52995E-01 -5.38447E-01 +1.22213E-02 +2.29165E-01 -1.67229E-01
 +3.12137E-01 -2.46550E-01 -5.78047E-02 +1.13355E-01 -2.60102E-01 +7.57371E-01 +1.22946E-01 +1.09429E+00
 +9.02526E-01 +5.84563E-01 +1.40382E+00 -7.26464E-01 +1.02556E+00 -2.08559E+00 -2.04871E-01 -2.48137E+00
 -1.53984E+00 -1.38228E+00 -1.99762E+00 +7.77728E-01 -1.09189E+00 +2.76627E+00 +7.39558E-01 +3.31574E+00
 +2.35466E+00 +1.98258E+00 +2.65632E+00 -5.00017E-01 +1.35533E+00 -2.64844E+00 -7.97962E-01 -3.16993E+00
 -2.49150E+00 -1.79073E+00 -2.71556E+00 +5.85755E-01 -1.41600E+00 +2.48867E+00 +5.08655E-01 +2.83245E+00
 +1.84566E+00 +1.56802E+00 +1.87882E+00 -3.81320E-01 +8.06343E-01 -1.80615E+00 -4.96888E-01 -2.00918E+00
 -1.15761E+00 -1.16722E+00 -9.06701E-01 -5.77423E-02 -1.77892E-01 +5.83821E-01 +3.27180E-01 +5.70356E-01
 +2.35398E-01 +2.75594E-01 -2.16127E-01 +2.00460E-01 -4.25141E-01 +4.84149E-01 +1.50814E-02 +7.73210E-01
 +9.04588E-01 +5.55600E-01 +1.52770E+00 -3.22242E-01 +1.20386E+00 -1.40066E+00 -1.18164E-01 -1.86482E+00
 -1.70142E+00 -1.15860E+00 -2.46641E+00 +5.07658E-01 -1.75386E+00 +2.17524E+00 +1.44844E-01 +2.72783E+00
 +2.10036E+00 +1.66768E+00 +2.86154E+00 -4.77821E-01 +1.89612E+00 -2.43805E+00 -2.29507E-01 -3.00753E+00
 -2.20558E+00 -1.83793E+00 -2.83273E+00 +3.31507E-01 -1.79174E+00 +2.16491E+00 +1.88653E-01 +2.60319E+00
 +1.85866E+00 +1.52205E+00 +2.28217E+00 -2.59280E-01 +1.39963E+00 -1.58990E+00 -4.06099E-02 -1.76459E+00
 -1.08063E+00 -9.23158E-01 -1.21664E+00 +1.70889E-01 -6.55588E-01 +7.57608E-01 -2.62658E-02 +6.22568E-01
 +1.80064E-01 +1.61349E-01 -1.72856E-02 -4.01159E-02 -1.82315E-01 +2.56218E-01 +8.25057E-02 +7.26838E-01
 +7.16895E-01 +7.70957E-01 +1.18613E+00 +6.20181E-02 +9.06522E-01 -1.08807E+00 -2.16227E-01 -1.87343E+00
 -1.58261E+00 -1.57583E+00 -2.24045E+00 -1.57655E-01 -1.56383E+00 +1.59954E+00 +2.22328E-01 +2.56006E+00
 +2.08876E+00 +2.00522E+00 +2.83800E+00 +1.68098E-01 +1.91420E+00 -1.86513E+00 -1.80410E-01 -2.84424E+00
 -2.17387E+00 -2.17153E+00 -2.84143E+00 -2.86569E-01 -1.80096E+00 +1.64027E+00 +2.53273E-01 +2.48471E+00
 +2.03019E+00 +1.87654E+00 +2.49484E+00 +3.66583E-01 +1.50864E+00 -1.02457E+00 -1.61414E-01 -1.52123E+00
 -1.42984E+00 -1.05732E+00 -1.63272E+00 -1.93388E-01 -9.00966E-01 +3.94772E-01 +5.67069E-02 +4.33838E-01
 +5.47243E-01 +1.84442E-01 +3.93623E-01 +1.19193E-01 -2.13829E-02 +4.42249E-01 -1.60335E-01 +8.64065E-01
 +1.69733E-01 +8.31314E-01 +6.38349E-01 +3.53272E-02 +6.79984E-01 -1.22046E+00 +1.52547E-02 -2.12644E+00
 -1.02731E+00 -1.91871E+00 -1.67772E+00 -4.87604E-01 -1.28878E+00 +1.42719E+00 +1.18227E-01 +2.64926E+00
 +1.75977E+00 +2.33785E+00 +2.56459E+00 +5.89480E-01 +1.90960E+00 -1.56890E+00 +9.59115E-02 -2.81835E+00
 -1.79427E+00 -2.39736E+00 -2.58810E+00 -5.87179E-01 -1.79606E+00 +1.49267E+00 +6.25655E-02 +2.62809E+00
 +1.80677E+00 +2.27744E+00 +2.37181E+00 +8.48366E-01 +1.48407E+00 -6.68513E-01 -2.15301E-01 -1.41048E+00
 -1.65166E+00 -1.18024E+00 -2.04040E+00 -4.53459E-01 -1.34718E+00 +9.17581E-02 -1.98117E-01 +1.25793E-01
 +6.39573E-01 -1.29913E-01 +7.94475E-01 -1.81528E-01 +4.60565E-01 +2.31688E-01 +1.22383E-01 +8.38755E-01
 +1.00822E-01 +1.01242E+00 +3.00770E-01 +3.01986E-01 +3.53546E-01 -1.09681E+00 +1.25699E-02 -2.33823E+00
 -5.51457E-01 -2.45474E+00 -8.29826E-01 -1.07034E+00 -3.93686E-01 +1.22260E+00 +6.79657E-01 +3.13835E+00
 +1.74119E+00 +3.48730E+00 +1.97344E+00 +1.96508E+00 +1.00023E+00 -5.99684E-01 -7.52512E-01 -2.72699E+00
 -2.25304E+00 -3.19333E+00 -2.52857E+00 -1.77619E+00 -1.35077E+00 +6.40614E-01 +5.54166E-01 +2.64544E+00
 +1.95205E+00 +3.16102E+00 +1.92085E+00 +2.03245E+00 +4.83052E-01 +4.01178E-03 -1.39663E+00 -1.82790E+00
 -2.45812E+00 -2.67406E+00 -1.99539E+00 -2.39985E+00 -3.21869E-01 -1.41067E+00 +1.46604E+00 -2.60822E-01
 +2.25301E+00 +6.79263E-01 +1.65662E+00 +1.28474E+00 +2.46052E-01 +1.51937E+00 -9.06823E-01 +1.29254E+00
 -1.00540E+00 +5.15194E-01 -7.45999E-02 -6.83334E-01 +1.10265E+00 -1.81168E+00 +1.58984E+00 -2.16733E+00
 +9.87652E-01 -1.27154E+00 -2.90641E-01 +6.94345E-01 -1.34582E+00 +2.81348E+00 -1.46558E+00 +3.87289E+00
 -6.43281E-01 +3.10143E+00 +4.33105E-01 +7.29876E-01 +9.02052E-01 -2.04160E+00 +3.68361E-01 -3.71048E+00
 -8.07512E-01 -3.37927E+00 -1.77478E+00 -1.31787E+00 -1.80905E+00 +1.19879E+00 -8.27845E-01 +2.68387E+00
 +5.62723E-01 +2.34826E+00 +1.50862E+00 +5.38622E-01 +1.50425E+00 -1.56029E+00 +7.14291E-01 -2.72626E+00
 -1.92496E-01 -2.44829E+00 -5.50224E-01 -1.13720E+00 -1.59668E-01 +2.88069E-01 +6.19767E-01 +1.08913E+00
 +1.18633E+00 +1.15989E+00 +1.15527E+00 +9.44778E-01 +6.09618E-01 +9.45408E-01 -2.64747E-02 +1.24219E+00
 -3.60862E-01 +1.42418E+00 -3.39631E-01 +9.81884E-01 -2.44514E-01 -1.62272E-01 -4.00385E-01 -1.43824E+00
 -8.50358E-01 -1.95030E+00 -1.28163E+00 -1.14095E+00 -1.27730E+00 +6.91446E-01 -6.94132E-01 +2.44471E+00
 +1.53449E-01 +2.86755E+00 +6.82897E-01 +1.40656E+00 +4.88831E-01 -1.33636E+00 -2.96846E-01 -3.88296E+00
 -1.03479E+00 -4.75118E+00 -1.01878E+00 -3.37067E+00 -2.35867E-02 -4.49754E-01 +1.45578E+00 +2.44329E+00
 +2.48799E+00 +3.81237E+00 +2.34534E+00 +3.08757E+00 +1.05013E+00 +8.84704E-01 -5.85006E-01 -1.44330E+00
 -1.48746E+00 -2.63097E+00 -1.07425E+00 -2.17287E+00 +3.10596E-01 -4.74712E-01 +1.60241E+00 +1.51627E+00
 +1.74712E+00 +2.88767E+00 +4.56173E-01 +3.17312E+00 -1.55158E+00 +2.41906E+00 -3.00969E+00 +9.93097E-01
 -2.96194E+00 -6.45249E-01 -1.42659E+00 -2.05892E+00 +5.99888E-01 -2.85294E+00 +1.81108E+00 -2.72631E+00
 +1.47445E+00 -1.62636E+00 -7.68492E-02 +8.43828E-02 -1.67998E+00 +1.64211E+00 -2.13911E+00 +2.19310E+00
 -1.03281E+00 +1.29295E+00 +1.01468E+00 -7.18635E-01 +2.76737E+00 -2.77549E+00 +3.20153E+00 -3.63179E+00
 +2.15335E+00 -2.61066E+00 +3.68383E-01 -7.95298E-02 -1.04366E+00 +2.69273E+00 -1.34556E+00 +4.25481E+00
 -5.97780E-01 +3.83587E+00 +4.80749E-01 +1.80194E+00 +1.06520E+00 -5.93148E-01 +7.74423E-01 -2.00064E+00
 -1.51863E-01 -1.79490E+00 -1.11743E+00 -3.90347E-01 -1.62745E+00 +1.12171E+00 -1.58711E+00 +1.73576E+00
 -1.25215E+00 +1.16143E+00 -9.29082E-01 -8.97749E-02 -7.03733E-01 -1.16868E+00 -4.21923E-01 -1.52655E+00
 +8.60192E-02 -1.25381E+00 +7.57504E-01 -8.96792E-01 +1.26712E+00 -9.32471E-01 +1.26627E+00 -1.33361E+00
 +7.05746E-01 -1.57482E+00 -3.92229E-02 -1.07992E+00 -3.83764E-01 +2.40201E-01 +3.92765E-02 +1.79522E+00
 +1.05634E+00 +2.65480E+00 +2.00287E+00 +2.20341E+00 +2.14941E+00 +6.38261E-01 +1.21946E+00 -1.07515E+00
 -3.76580E-01 -1.79910E+00 -1.77990E+00 -9.82756E-01 -2.24584E+00 +9.36968E-01 -1.64023E+00 +2.77996E+00
 -5.16060E-01 +3.36192E+00 +2.87105E-01 +2.24032E+00 +2.35659E-01 -2.10419E-02 -5.38031E-01 -2.22651E+00
