 Created: 16-Jan-2021
 $NMID
 ID='D:\BASISSIMULATI'
 FMTDAT='(8E13.5)'
 VOLUME=   1.00000E+00
 TRAMP=   1.00000E+00
 $END
 +7.10480E+00 +8.06114E-03 +5.50940E+00 +4.09904E+00 +1.78412E+00 +6.09896E+00 -2.09977E+00 +5.21233E+00
 -4.21325E+00 +2.18823E+00 -3.69574E+00 -1.16064E+00 -1.15363E+00 -2.98986E+00 +1.75496E+00 -2.41736E+00
 +3.28045E+00 +5.86045E-02 +2.53490E+00 +2.91172E+00 -7.77553E-02 +4.47291E+00 -3.15335E+00 +3.83616E+00
 -5.09481E+00 +1.29558E+00 -4.96462E+00 -1.88662E+00 -2.92352E+00 -4.20558E+00 -5.65021E-02 -4.70547E+00
 +2.26670E+00 -3.41234E+00 +3.11434E+00 -1.21422E+00 +2.40988E+00 +6.91005E-01 +8.58867E-01 +1.44250E+00
 -5.18328E-01 +9.08292E-01 -9.54170E-01 -3.50514E-01 -2.92801E-01 -1.46759E+00 +1.01709E+00 -1.76000E+00
 +2.23697E+00 -1.04939E+00 +2.74961E+00 +3.23010E-01 +2.33962E+00 +1.74315E+00 +1.22507E+00 +2.65874E+00
 -1.25504E-01 +2.81553E+00 -1.25129E+00 +2.29915E+00 -1.88600E+00 +1.41060E+00 -2.00176E+00 +4.83666E-01
 -1.73500E+00 -2.47585E-01 -1.27569E+00 -6.85036E-01 -7.92078E-01 -8.32589E-01 -4.10319E-01 -7.50427E-01
 -2.18832E-01 -5.36336E-01 -2.57261E-01 -3.26829E-01 -4.81345E-01 -2.80599E-01 -7.37165E-01 -5.18169E-01
 -7.92084E-01 -1.03581E+00 -4.38546E-01 -1.65258E+00 +3.70578E-01 -2.04975E+00 +1.43822E+00 -1.91267E+00
 +2.36395E+00 -1.11422E+00 +2.71729E+00 +1.66288E-01 +2.26664E+00 +1.47699E+00 +1.13659E+00 +2.28947E+00
 -2.10861E-01 +2.26798E+00 -1.18544E+00 +1.46581E+00 -1.37089E+00 +3.27396E-01 -7.58409E-01 -5.25429E-01
 +2.27314E-01 -6.21820E-01 +9.40488E-01 +9.09142E-02 +8.62993E-01 +1.19571E+00 -9.70672E-02 +2.01254E+00
 -1.52667E+00 +1.96334E+00 -2.70465E+00 +9.00504E-01 -2.97844E+00 -7.84762E-01 -2.12095E+00 -2.34384E+00
 -4.70879E-01 -3.05344E+00 +1.22729E+00 -2.59739E+00 +2.20502E+00 -1.23972E+00 +2.07088E+00 +3.09367E-01
 +1.01465E+00 +1.26728E+00 -2.98550E-01 +1.19340E+00 -1.08898E+00 +2.20500E-01 -8.84462E-01 -1.02252E+00
 +2.24306E-01 -1.75554E+00 +1.63302E+00 -1.47324E+00 +2.55050E+00 -2.21886E-01 +2.42554E+00 +1.42166E+00
 +1.24339E+00 +2.65576E+00 -4.66089E-01 +2.87799E+00 -1.90977E+00 +1.99876E+00 -2.44735E+00 +4.78910E-01
 -1.91804E+00 -9.23640E-01 -7.06164E-01 -1.55678E+00 +4.82355E-01 -1.20865E+00 +1.00529E+00 -1.97984E-01
 +6.21144E-01 +8.19693E-01 -3.99531E-01 +1.21708E+00 -1.43940E+00 +7.30966E-01 -1.87783E+00 -4.08451E-01
 -1.42313E+00 -1.61535E+00 -2.57793E-01 -2.26906E+00 +1.07190E+00 -2.04034E+00 +1.95204E+00 -1.05087E+00
 +2.01848E+00 +2.09679E-01 +1.32792E+00 +1.15301E+00 +3.01596E-01 +1.39684E+00 -5.15618E-01 +9.43895E-01
 -7.43677E-01 +1.50001E-01 -3.50169E-01 -4.88322E-01 +3.60399E-01 -6.03898E-01 +9.31680E-01 -1.42201E-01
 +1.00633E+00 +6.31094E-01 +5.07763E-01 +1.28943E+00 -3.36020E-01 +1.47685E+00 -1.12703E+00 +1.08698E+00
 -1.50897E+00 +3.01714E-01 -1.34195E+00 -5.19058E-01 -7.54448E-01 -1.02834E+00 -5.68214E-02 -1.06028E+00
 +4.27834E-01 -6.93043E-01 +5.22990E-01 -1.84534E-01 +2.69444E-01 +1.74735E-01 -1.19169E-01 +2.10207E-01
 -3.82544E-01 -6.09700E-02 -3.50683E-01 -4.57373E-01 -2.26715E-02 -7.40077E-01 +4.45922E-01 -7.38136E-01
 +8.31856E-01 -4.29211E-01 +9.58328E-01 +5.97029E-02 +7.76479E-01 +5.23962E-01 +3.78225E-01 +7.83660E-01
 -5.88537E-02 +7.64628E-01 -3.61439E-01 +5.21756E-01 -4.39133E-01 +1.99589E-01 -3.16053E-01 -4.46507E-02
 -1.05578E-01 -1.15574E-01 +5.39215E-02 -1.70952E-02 +6.82604E-02 +1.60733E-01 -7.12414E-02 +2.94168E-01
 -2.90754E-01 +2.89170E-01 -4.75612E-01 +1.25239E-01 -5.27818E-01 -1.38809E-01 -4.11504E-01 -3.96434E-01
 -1.66541E-01 -5.44725E-01 +1.13281E-01 -5.30534E-01 +3.24820E-01 -3.70990E-01 +4.01129E-01 -1.41187E-01
 +3.37564E-01 +6.29041E-02 +1.88339E-01 +1.67915E-01 +3.72836E-02 +1.53166E-01 -4.23367E-02 +5.49642E-02
 -2.02568E-02 -5.49783E-02 +8.00431E-02 -1.05657E-01 +1.95791E-01 -6.03473E-02 +2.56682E-01 +6.73443E-02
 +2.18751E-01 +2.21347E-01 +8.49343E-02 +3.30354E-01 -9.65548E-02 +3.41359E-01 -2.54617E-01 +2.44052E-01
 -3.27685E-01 +7.52365E-02 -2.91172E-01 -9.82767E-02 -1.67576E-01 -2.09998E-01 -1.50326E-02 -2.23191E-01
 +9.99313E-02 -1.45999E-01 +1.32578E-01 -2.57042E-02 +7.91362E-02 +7.46606E-02 -2.35371E-02 +1.06066E-01
 -1.17042E-01 +5.56514E-02 -1.49827E-01 -4.87240E-02 -1.01374E-01 -1.53081E-01 +8.90855E-03 -2.03617E-01
 +1.31681E-01 -1.72090E-01 +2.11244E-01 -6.85733E-02 +2.11329E-01 +6.38131E-02 +1.31230E-01 +1.69075E-01
 +5.37974E-03 +2.03669E-01 -1.12729E-01 +1.55398E-01 -1.74407E-01 +4.77991E-02 -1.56612E-01 -7.11963E-02
 -7.08898E-02 -1.50656E-01 +4.28188E-02 -1.58440E-01 +1.34152E-01 -9.41769E-02 +1.64045E-01 +1.16277E-02
 +1.21010E-01 +1.11422E-01 +2.54403E-02 +1.61242E-01 -7.95461E-02 +1.39487E-01 -1.46767E-01 +5.61241E-02
 -1.45385E-01 -5.14449E-02 -7.46130E-02 -1.34248E-01 +3.51615E-02 -1.52918E-01 +1.34681E-01 -9.53890E-02
 +1.76824E-01 +1.65914E-02 +1.37646E-01 +1.35469E-01 +2.82565E-02 +2.07687E-01 -1.08206E-01 +1.97208E-01
 -2.14034E-01 +1.02516E-01 -2.41859E-01 -4.08731E-02 -1.76249E-01 -1.74348E-01 -4.20964E-02 -2.41200E-01
 +1.04691E-01 -2.12010E-01 +2.00902E-01 -9.89748E-02 +2.04157E-01 +4.78493E-02 +1.12969E-01 +1.61610E-01
 -3.07598E-02 +1.88368E-01 -1.58845E-01 +1.12460E-01 -2.06847E-01 -3.42138E-02 -1.44145E-01 -1.84094E-01
 +9.57432E-03 -2.62956E-01 +1.89784E-01 -2.23950E-01 +3.13611E-01 -7.15628E-02 +3.16886E-01 +1.36198E-01
 +1.85636E-01 +3.10215E-01 -3.29990E-02 +3.69092E-01 -2.47425E-01 +2.77904E-01 -3.60722E-01 +6.86976E-02
 -3.16003E-01 -1.68805E-01 -1.27019E-01 -3.24947E-01 +1.22315E-01 -3.21142E-01 +3.12530E-01 -1.50745E-01
 +3.44022E-01 +1.11338E-01 +1.88075E-01 +3.38385E-01 -9.23994E-02 +4.10290E-01 -3.66007E-01 +2.74358E-01
 -4.92730E-01 -2.19931E-02 -3.93815E-01 -3.46067E-01 -9.70626E-02 -5.39380E-01 +2.68021E-01 -4.95632E-01
 +5.27327E-01 -2.18885E-01 +5.46798E-01 +1.69705E-01 +3.03432E-01 +4.84420E-01 -9.50149E-02 +5.64556E-01
 -4.55744E-01 +3.57773E-01 -5.93330E-01 -4.61255E-02 -4.24548E-01 -4.51866E-01 -1.69984E-02 -6.51659E-01
 +4.36389E-01 -5.30228E-01 +7.08364E-01 -1.28725E-01 +6.50964E-01 +3.67610E-01 +2.74781E-01 +7.15895E-01
 -2.48423E-01 +7.35831E-01 -6.64927E-01 +4.04003E-01 -7.63606E-01 -1.27013E-01 -4.84580E-01 -5.97917E-01
 +4.39354E-02 -7.69076E-01 +5.62332E-01 -5.42430E-01 +8.05115E-01 -1.70248E-02 +6.34613E-01 +5.52618E-01
 +1.15756E-01 +8.78228E-01 -5.08136E-01 +7.81458E-01 -9.30284E-01 +2.88021E-01 -9.31823E-01 -3.77040E-01
 -4.94882E-01 -8.94422E-01 +1.81015E-01 -1.00700E+00 +7.71203E-01 -6.50879E-01 +9.84501E-01 +5.94933E-03
 +7.10761E-01 +6.40352E-01 +8.23874E-02 +9.31913E-01 -5.84584E-01 +7.25128E-01 -9.44616E-01 +1.13897E-01
 -7.97358E-01 -5.97556E-01 -1.94797E-01 -1.04212E+00 +5.76237E-01 -9.74475E-01 +1.13177E+00 -4.00113E-01
 +1.18239E+00 +4.19149E-01 +6.82742E-01 +1.09003E+00 -1.39077E-01 +1.28312E+00 -8.90592E-01 +9.00606E-01
 -1.21012E+00 +1.29748E-01 -9.49879E-01 -6.47890E-01 -2.52860E-01 -1.04765E+00 +5.17724E-01 -8.76899E-01
 +9.62060E-01 -2.33964E-01 +8.47275E-01 +5.40831E-01 +2.26668E-01 +1.03777E+00 -5.86613E-01 +9.85986E-01
 -1.17781E+00 +3.90910E-01 -1.23944E+00 -4.68611E-01 -7.24486E-01 -1.18073E+00 +1.32693E-01 -1.40570E+00
 +9.35530E-01 -1.04144E+00 +1.32165E+00 -2.68057E-01 +1.13684E+00 +5.47183E-01 +5.01845E-01 +1.03260E+00
 -2.56296E-01 +9.89880E-01 -7.68804E-01 +4.81038E-01 -8.02082E-01 -2.12467E-01 -3.62384E-01 -7.32252E-01
 +3.16618E-01 -8.14614E-01 +8.90770E-01 -4.10305E-01 +1.06754E+00 +2.98918E-01 +7.38163E-01 +9.88351E-01
 +2.34740E-02 +1.33855E+00 -7.82007E-01 +1.17668E+00 -1.33968E+00 +5.51406E-01 -1.41356E+00 -2.88075E-01
 -9.72845E-01 -9.98240E-01 -2.07933E-01 -1.28872E+00 +5.48229E-01 -1.05023E+00 +9.63761E-01 -4.08176E-01
 +8.58024E-01 +3.25223E-01 +2.92444E-01 +7.86515E-01 -4.44412E-01 +7.30215E-01 -9.60836E-01 +1.55896E-01
 -9.47102E-01 -6.72121E-01 -3.37741E-01 -1.33390E+00 +6.32648E-01 -1.45175E+00 +1.52020E+00 -8.86227E-01
 +1.87851E+00 +1.70645E-01 +1.48606E+00 +1.26412E+00 +4.77301E-01 +1.88768E+00 -7.00642E-01 +1.73816E+00
 -1.49800E+00 +8.83888E-01 -1.54054E+00 -2.50904E-01 -8.32227E-01 -1.09037E+00 +2.31419E-01 -1.20315E+00
 +1.05804E+00 -5.36408E-01 +1.16759E+00 +5.41729E-01 +4.54531E-01 +1.42406E+00 -7.40790E-01 +1.58201E+00
 -1.79794E+00 +8.52816E-01 -2.13800E+00 -4.60115E-01 -1.53207E+00 -1.73338E+00 -2.30407E-01 -2.34350E+00
 +1.16039E+00 -1.99221E+00 +1.98957E+00 -8.63012E-01 +1.89829E+00 +4.75360E-01 +1.00095E+00 +1.36722E+00
 -1.83510E-01 +1.41049E+00 -1.01095E+00 +6.58848E-01 -1.05103E+00 -4.18765E-01 -3.06254E-01 -1.19469E+00
 +8.00617E-01 -1.21491E+00 +1.65706E+00 -4.31490E-01 +1.78195E+00 +7.82143E-01 +1.06813E+00 +1.83230E+00
 -1.74165E-01 +2.21009E+00 -1.38545E+00 +1.74054E+00 -2.04037E+00 +6.53587E-01 -1.89866E+00 -5.47611E-01
 -1.10195E+00 -1.34293E+00 -8.04232E-02 -1.44239E+00 +6.71567E-01 -9.05762E-01 +8.33540E-01 -8.76417E-02
 +3.97422E-01 +5.51910E-01 -3.49763E-01 +6.72186E-01 -9.78601E-01 +2.06019E-01 -1.12581E+00 -6.21019E-01
 -6.61532E-01 -1.40531E+00 +2.55624E-01 -1.75473E+00 +1.25366E+00 -1.46657E+00 +1.91455E+00 -6.17664E-01
 +1.95939E+00 +4.69431E-01 +1.37179E+00 +1.36783E+00 +4.06067E-01 +1.73437E+00 -5.25001E-01 +1.46264E+00
 -1.03618E+00 +7.32167E-01 -9.47999E-01 -7.29034E-02 -3.74013E-01 -5.43801E-01 +3.29376E-01 -4.45906E-01
 +7.34382E-01 +1.59175E-01 +5.57409E-01 +9.33513E-01 -1.86942E-01 +1.42398E+00 -1.17608E+00 +1.29156E+00
 -1.92817E+00 +4.94933E-01 -2.04179E+00 -6.70064E-01 -1.40624E+00 -1.70392E+00 -2.70647E-01 -2.14887E+00
 +8.71228E-01 -1.82191E+00 +1.52668E+00 -9.11946E-01 +1.45427E+00 +1.14801E-01 +7.85897E-01 +7.55677E-01
 -4.68311E-02 +7.33097E-01 -5.44812E-01 +1.37284E-01 -4.09205E-01 -6.27050E-01 +2.98942E-01 -1.06201E+00
 +1.19272E+00 -8.46674E-01 +1.76771E+00 -1.07733E-02 +1.67120E+00 +1.08018E+00 +8.87675E-01 +1.91760E+00
 -2.56589E-01 +2.11425E+00 -1.26721E+00 +1.59837E+00 -1.73625E+00 +6.37672E-01 -1.54074E+00 -3.12318E-01
 -8.84227E-01 -8.47781E-01 -1.68748E-01 -8.14312E-01 +2.25667E-01 -3.62919E-01 +1.33207E-01 +1.54675E-01
 -3.30667E-01 +3.85132E-01 -8.51525E-01 +1.57077E-01 -1.09264E+00 -4.43208E-01 -8.67910E-01 -1.13228E+00
