 Created: 16-Jan-2021
 $NMID
 ID='D:\BASISSIMULATI'
 FMTDAT='(8E13.5)'
 VOLUME=   1.00000E+00
 TRAMP=   1.00000E+00
 $END
 +3.68642E+00 +4.17503E-03 +3.46792E+00 +1.23656E+00 +2.85023E+00 +2.32331E+00 +1.90553E+00 +3.13952E+00
 +7.43547E-01 +3.59178E+00 -5.01228E-01 +3.62888E+00 -1.68510E+00 +3.24757E+00 -2.67176E+00 +2.49287E+00
 -3.34796E+00 +1.45271E+00 -3.63654E+00 +2.47699E-01 -3.50520E+00 -9.82839E-01 -2.97014E+00 -2.09699E+00
 -2.09406E+00 -2.96663E+00 -9.78781E-01 -3.49211E+00 +2.46520E-01 -3.61373E+00 +1.44033E+00 -3.31849E+00
 +2.46511E+00 -2.64146E+00 +3.20316E+00 -1.66164E+00 +3.57013E+00 -4.92738E-01 +3.52464E+00 +7.30026E-01
 +3.07297E+00 +1.86557E+00 +2.26821E+00 +2.78321E+00 +1.20401E+00 +3.37773E+00 +3.68684E-03 +3.58140E+00
 -1.19404E+00 +3.37172E+00 -2.25113E+00 +2.77390E+00 -3.04607E+00 +1.85783E+00 -3.48789E+00 +7.29906E-01
 -3.52654E+00 -4.79325E-01 -3.15859E+00 -1.63027E+00 -2.42746E+00 -2.59040E+00 -1.41835E+00 -3.24952E+00
 -2.48280E-01 -3.53241E+00 +9.47474E-01 -3.40740E+00 +2.03101E+00 -2.88992E+00 +2.87771E+00 -2.04062E+00
 +3.39056E+00 -9.58229E-01 +3.51129E+00 +2.31906E-01 +3.22697E+00 +1.39232E+00 +2.57137E+00 +2.38933E+00
 +1.62102E+00 +3.10841E+00 +4.86198E-01 +3.46738E+00 -7.01823E-01 +3.42575E+00 -1.80596E+00 +2.98933E+00
 -2.69915E+00 +2.20943E+00 -3.27896E+00 +1.17680E+00 -3.47935E+00 +1.11041E-02 -3.27816E+00 -1.15294E+00
 -2.69960E+00 -2.18116E+00 -1.81130E+00 -2.95538E+00 -7.16436E-01 -3.38698E+00 +4.58261E-01 -3.42707E+00
 +1.57719E+00 -3.07202E+00 +2.51150E+00 -2.36374E+00 +3.15396E+00 -1.38477E+00 +3.43124E+00 -2.48626E-01
 +3.31231E+00 +9.13323E-01 +2.81185E+00 +1.96707E+00 +1.98853E+00 +2.79143E+00 +9.38049E-01 +3.29195E+00
 -2.17924E-01 +3.41174E+00 -1.34587E+00 +3.13795E+00 -2.31585E+00 +2.50313E+00 -3.01644E+00 +1.58137E+00
 -3.36756E+00 +4.79628E-01 -3.32962E+00 -6.74632E-01 -2.90796E+00 -1.74823E+00 -2.15215E+00 -2.61761E+00
 -1.15015E+00 -3.18307E+00 -1.80957E-02 -3.38020E+00 +1.11321E+00 -3.18718E+00 +2.11335E+00 -2.62726E+00
 +2.86737E+00 -1.76590E+00 +3.28897E+00 -7.03138E-01 +3.33039E+00 +4.38007E-01 +2.98781E+00 +1.52580E+00
 +2.30167E+00 +2.43498E+00 +1.35194E+00 +3.06119E+00 +2.48749E-01 +3.33296E+00 -8.80344E-01 +3.21985E+00
 -1.90512E+00 +2.73587E+00 -2.70772E+00 +1.93774E+00 -3.19619E+00 +9.18237E-01 -3.31499E+00 -2.04549E-01
 -3.05137E+00 -1.30094E+00 -2.43668E+00 -2.24461E+00 -1.54265E+00 -2.92718E+00 -4.73036E-01 -3.27061E+00
 +6.48417E-01 -3.23617E+00 +1.69231E+00 -2.82878E+00 +2.53851E+00 -2.09633E+00 +3.08997E+00 -1.12407E+00
 +3.28385E+00 -2.46799E-02 +3.09871E+00 +1.07480E+00 +2.55685E+00 +2.04762E+00 +1.72161E+00 +2.78197E+00
 +6.90013E-01 +3.19379E+00 -4.18532E-01 +3.23643E+00 -1.47605E+00 +2.90588E+00 -2.36077E+00 +2.24121E+00
 -2.97113E+00 +1.31985E+00 -3.23748E+00 +2.48662E-01 -3.12996E+00 -8.48499E-01 -2.66192E+00 -1.84510E+00
 -1.88821E+00 -2.62651E+00 -8.98789E-01 -3.10319E+00 +1.91758E-01 -3.22097E+00 +1.25746E+00 -2.96717E+00
 +2.17554E+00 -2.37197E+00 +2.84054E+00 -1.50484E+00 +3.17643E+00 -4.66429E-01 +3.14533E+00 +6.23146E-01
 +2.75174E+00 +1.63815E+00 +2.04193E+00 +2.46178E+00 +1.09854E+00 +2.99957E+00 +3.08741E-02 +3.19024E+00
 -1.03767E+00 +3.01269E+00 -1.98391E+00 +2.48830E+00 -2.69909E+00 +1.67840E+00 -3.10135E+00 +6.77062E-01
 -3.14509E+00 -3.99810E-01 -2.82619E+00 -1.42789E+00 -2.18231E+00 -2.28880E+00 -1.28848E+00 -2.88371E+00
 -2.48377E-01 -3.14472E+00 +8.17750E-01 -3.04257E+00 +1.78694E+00 -2.58996E+00 +2.54771E+00 -1.83993E+00
 +3.01289E+00 -8.79699E-01 +3.12961E+00 +1.79530E-01 +2.88527E+00 +1.21540E+00 +2.30896E+00 +2.10858E+00
 +1.46794E+00 +2.75645E+00 +4.59811E-01 +3.08495E+00 -5.98785E-01 +3.05703E+00 -1.58570E+00 +2.67678E+00
 -2.38735E+00 +1.98893E+00 -2.91180E+00 +1.07354E+00 -3.09928E+00 +3.66952E-02 -2.92903E+00 -1.00177E+00
 -2.42157E+00 -1.92216E+00 -1.63625E+00 -2.61866E+00 -6.64285E-01 -3.01156E+00 +3.81813E-01 -3.05633E+00
 +1.38127E+00 -2.74867E+00 +2.21900E+00 -2.12494E+00 +2.79884E+00 -1.25783E+00 +3.05460E+00 -2.47906E-01
 +2.95760E+00 +7.88061E-01 +2.51992E+00 +1.73059E+00 +1.79286E+00 +2.47126E+00 +8.60964E-01 +2.92520E+00
 -1.67841E-01 +3.04082E+00 -1.17472E+00 +2.80562E+00 -2.04365E+00 +2.24760E+00 -2.67483E+00 +1.43190E+00
 -2.99609E+00 +4.53190E-01 -2.97118E+00 -5.75304E-01 -2.60384E+00 -1.53490E+00 -1.93728E+00 -2.31516E+00
 -1.04907E+00 -2.82658E+00 -4.21594E-02 -3.01090E+00 +9.67080E-01 -2.84768E+00 +1.86231E+00 -2.35662E+00
 +2.54062E+00 -1.59513E+00 +2.92436E+00 -6.51685E-01 +2.97005E+00 +3.64515E-01 +2.67326E+00 +1.33615E+00
 +2.06906E+00 +2.15132E+00 +1.22787E+00 +2.71646E+00 +2.47259E-01 +2.96705E+00 -7.59396E-01 +2.87499E+00
 -1.67599E+00 +2.45176E+00 -2.39708E+00 +1.74697E+00 -2.84005E+00 +8.42578E-01 -2.95453E+00 -1.56672E-01
 -2.72815E+00 -1.13535E+00 -2.18786E+00 -1.98071E+00 -1.39672E+00 -2.59561E+00 -4.46571E-01 -2.90978E+00
 +5.52673E-01 -2.88774E+00 +1.48570E+00 -2.53288E+00 +2.24513E+00 -1.88694E+00 +2.74385E+00 -1.02511E+00
 +2.92503E+00 -4.72823E-02 +2.76858E+00 +9.33545E-01 +2.29339E+00 +1.80430E+00 +1.55502E+00 +2.46488E+00
 +6.39260E-01 +2.83968E+00 -3.47892E-01 +2.88620E+00 -1.29246E+00 +2.59990E+00 -2.08568E+00 +2.01463E+00
 -2.63648E+00 +1.19859E+00 -2.88199E+00 +2.46446E-01 -2.79467E+00 -7.31721E-01 -2.38543E+00 -1.62309E+00
 -1.70223E+00 -2.32512E+00 -8.24537E-01 -2.75737E+00 +1.46003E-01 -2.87068E+00 +1.09728E+00 -2.65281E+00
 +1.91968E+00 -2.12968E+00 +2.51873E+00 -1.36238E+00 +2.82594E+00 -4.39960E-01 +2.80663E+00 +5.30861E-01
 +2.46384E+00 +1.43805E+00 +1.83790E+00 +2.17720E+00 +1.00167E+00 +2.66352E+00 +5.20789E-02 +2.84159E+00
 -9.01132E-01 +2.69166E+00 -1.74808E+00 +2.23183E+00 -2.39139E+00 +1.51589E+00 -2.75743E+00 +6.27011E-01
 -2.80469E+00 -3.31918E-01 -2.52854E+00 -1.25018E+00 -1.96161E+00 -2.02202E+00 -1.16998E+00 -2.55885E+00
 -2.45478E-01 -2.79936E+00 +7.05004E-01 -2.71659E+00 +1.57183E+00 -2.32087E+00 +2.25530E+00 -1.65862E+00
 +2.67707E+00 -8.06837E-01 +2.78920E+00 +1.35813E-01 +2.57953E+00 +1.06044E+00 +2.07304E+00 +1.86051E+00
 +1.32885E+00 +2.44411E+00 +4.33360E-01 +2.74450E+00 -5.09841E-01 +2.72778E+00 -1.39190E+00 +2.39666E+00
 -2.11131E+00 +1.79011E+00 -2.58553E+00 +9.78726E-01 -2.76052E+00 +5.65635E-02 -2.61686E+00 -8.69805E-01
 -2.17192E+00 -1.69358E+00 -1.47773E+00 -2.32007E+00 -6.14938E-01 -2.67755E+00 +3.16570E-01 -2.72548E+00
 +1.20925E+00 -2.45912E+00 +1.96029E+00 -1.90997E+00 +2.48349E+00 -1.14202E+00 +2.71909E+00 -2.44363E-01
 +2.64067E+00 +6.79211E-01 +2.25805E+00 +1.52217E+00 +1.61610E+00 +2.18756E+00 +7.89472E-01 +2.59911E+00
 -1.26086E-01 +2.71002E+00 -1.02481E+00 +2.50826E+00 -1.80315E+00 +2.01788E+00 -2.37168E+00 +1.29613E+00
 -2.66540E+00 +4.26778E-01 -2.65113E+00 -4.89586E-01 -2.33130E+00 -1.34721E+00 -1.74354E+00 -2.04739E+00
 -9.56272E-01 -2.50981E+00 -6.07501E-02 -2.68175E+00 +8.39526E-01 -2.54413E+00 +1.64077E+00 -2.11359E+00
 +2.25087E+00 -1.44050E+00 +2.59997E+00 -6.03042E-01 +2.64850E+00 +3.01826E-01 +2.39160E+00 +1.16963E+00
 +1.85967E+00 +1.90043E+00 +1.11470E+00 +2.41033E+00 +2.43112E-01 +2.64111E+00 -6.54313E-01 +2.56686E+00
 -1.47406E+00 +2.19691E+00 -2.12184E+00 +1.57465E+00 -2.52340E+00 +7.72438E-01 -2.63307E+00 -1.16801E-01
 -2.43895E+00 -9.90344E-01 -1.96418E+00 -1.74754E+00 -1.26418E+00 -2.30138E+00 -4.20217E-01 -2.58856E+00
 +4.70068E-01 -2.57662E+00 +1.30393E+00 -2.26771E+00 +1.98540E+00 -1.69816E+00 +2.43629E+00 -9.34298E-01
 +2.60522E+00 -6.46520E-02 +2.47341E+00 +8.10263E-01 +2.05682E+00 +1.58958E+00 +1.40418E+00 +2.18371E+00
 +5.91321E-01 +2.52463E+00 -2.87664E-01 +2.57367E+00 -1.13128E+00 +2.32592E+00 -1.84238E+00 +1.81067E+00
 -2.33932E+00 +1.08801E+00 -2.56535E+00 +2.41733E-01 -2.49510E+00 -6.30280E-01 -2.13741E+00 -1.42745E+00
 -1.53424E+00 -2.05807E+00 -7.55730E-01 -2.44988E+00 +1.07943E-01 -2.55830E+00 +9.57005E-01 -2.37154E+00
 +1.69362E+00 -1.91189E+00 +2.23316E+00 -1.23300E+00 +2.51392E+00 -4.13681E-01 +2.50420E+00 +4.51263E-01
 +2.20584E+00 +1.26202E+00 +1.65395E+00 +1.92526E+00 +9.12796E-01 +2.36492E+00 +6.82820E-02 +2.53086E+00
 -7.81983E-01 +2.40464E+00 -1.53997E+00 +2.00156E+00 -2.11854E+00 +1.36876E+00 -2.45146E+00 +5.79776E-01
 -2.50095E+00 -2.74062E-01 -2.26203E+00 -1.09417E+00 -1.76296E+00 -1.78608E+00 -1.06192E+00 -2.27038E+00
 -2.40234E-01 -2.49175E+00 +6.07081E-01 -2.42534E+00 +1.38229E+00 -2.07952E+00 +1.99622E+00 -1.49485E+00
 +2.37849E+00 -7.39344E-01 +2.48563E+00 +9.94940E-02 +2.30599E+00 +9.24758E-01 +1.86097E+00 +1.64135E+00
 +1.20256E+00 +2.16694E+00 +4.07175E-01 +2.44143E+00 -4.33147E-01 +2.43380E+00 -1.22143E+00 +2.14564E+00
 -1.86694E+00 +1.61087E+00 -2.29562E+00 +8.91756E-01 -2.45861E+00 +7.16523E-02 -2.33777E+00 -7.54653E-01
 -1.94777E+00 -1.49189E+00 -1.33422E+00 -2.05531E+00 -5.68407E-01 -2.38039E+00 +2.61001E-01 -2.43027E+00
 +1.05824E+00 -2.19988E+00 +1.73149E+00 -1.71648E+00 +2.20346E+00 -1.03643E+00 +2.42025E+00 -2.38623E-01
 +2.35751E+00 +5.84691E-01 +2.02317E+00 +1.33854E+00 +1.45646E+00 +1.93620E+00 +7.23275E-01 +2.30917E+00
 -9.14385E-02 +2.41502E+00 -8.93567E-01 +2.24223E+00 -1.59068E+00 +1.81140E+00 -2.10268E+00 +1.17285E+00
 -2.37102E+00 +4.00702E-01 -2.36537E+00 -4.15694E-01 -2.08707E+00 -1.18212E+00 -1.56890E+00 -1.81036E+00
 -8.71171E-01 -2.22834E+00 -7.47749E-02 -2.38841E+00 +7.28241E-01 -2.27275E+00 +1.44530E+00 -1.89541E+00
 +1.99395E+00 -1.30052E+00 +2.31138E+00 -5.57212E-01 +2.36157E+00 +2.48460E-01 +2.13942E+00 +1.02347E+00
 +1.67121E+00 +1.67856E+00 +1.01153E+00 +2.13851E+00 +2.36908E-01 +2.35080E+00 -5.63081E-01 +2.29157E+00
 -1.29615E+00 +1.96834E+00 -1.87798E+00 +1.41903E+00 -2.24186E+00 +7.07518E-01 -2.34641E+00 -8.37608E-02
 -2.18022E+00 -8.63398E-01 -1.76313E+00 -1.54155E+00 -1.14385E+00 -2.04031E+00 -3.94266E-01 -2.30262E+00
 +3.98882E-01 -2.29885E+00 +1.14406E+00 -2.03009E+00 +1.75549E+00 -1.52800E+00 +2.16302E+00 -8.51030E-01
 +2.32020E+00 -7.76611E-02 +2.20953E+00 +7.02719E-01 +1.84444E+00 +1.40014E+00 +1.26765E+00 +1.93441E+00
 +5.46191E-01 +2.24435E+00 -2.36421E-01 +2.29481E+00 -9.89815E-01 +2.08062E+00 -1.62722E+00 +1.62712E+00
