 Created: 16-Jan-2021
 $NMID
 ID='D:\BASISSIMULATI'
 FMTDAT='(8E13.5)'
 VOLUME=   1.00000E+00
 TRAMP=   1.00000E+00
 $END
 +3.22702E+01 +3.65228E-02 +3.00839E+01 +1.08445E+01 +2.40579E+01 +1.99467E+01 +1.52104E+01 +2.59882E+01
 +5.01288E+00 +2.81559E+01 -4.87821E+00 +2.63132E+01 -1.29198E+01 +2.10096E+01 -1.79546E+01 +1.33637E+01
 -1.94075E+01 +4.84377E+00 -1.73686E+01 -3.01084E+00 -1.25509E+01 -8.87521E+00 -6.13216E+00 -1.18758E+01
 +4.86874E-01 -1.17354E+01 +5.95965E+00 -8.79978E+00 +9.25216E+00 -3.94376E+00 +9.83306E+00 +1.62300E+00
 +7.75980E+00 +6.61043E+00 +3.64585E+00 +9.91165E+00 -1.48229E+00 +1.08237E+01 -6.40815E+00 +9.18223E+00
 -9.98286E+00 +5.38498E+00 -1.13652E+01 +2.99982E-01 -1.01965E+01 -4.92102E+00 -6.67453E+00 -9.08620E+00
 -1.51433E+00 -1.12147E+01 +4.19846E+00 -1.07444E+01 +9.22998E+00 -7.65463E+00 +1.24524E+01 -2.47897E+00
 +1.30790E+01 +3.79504E+00 +1.08316E+01 +9.91916E+00 +6.00854E+00 +1.46328E+01 -5.63688E-01 +1.69170E+01
 -7.68452E+00 +1.62036E+01 -1.40102E+01 +1.24972E+01 -1.83160E+01 +6.38590E+00 -1.97391E+01 -1.06398E+00
 -1.79524E+01 -8.50747E+00 -1.32370E+01 -1.45781E+01 -6.43558E+00 -1.81519E+01 +1.20312E+00 -1.85676E+01
 +8.25998E+00 -1.57583E+01 +1.34166E+01 -1.02704E+01 +1.57088E+01 -3.16417E+00 +1.47141E+01 +4.18565E+00
 +1.06359E+01 +1.03504E+01 +4.26851E+00 +1.41199E+01 -3.15087E+00 +1.47343E+01 -1.01757E+01 +1.20308E+01
 -1.54236E+01 +6.47677E+00 -1.78385E+01 -9.16850E-01 -1.68902E+01 -8.78520E+00 -1.26747E+01 -1.56663E+01
 -5.89562E+00 -2.02754E+01 +2.26964E+00 -2.17448E+01 +1.03919E+01 -1.97839E+01 +1.70582E+01 -1.47282E+01
 +2.11349E+01 -7.47092E+00 +2.19742E+01 +7.10613E-01 +1.95274E+01 +8.39911E+00 +1.43419E+01 +1.43041E+01
 +7.44604E+00 +1.75007E+01 +1.44034E-01 +1.75942E+01 -6.23830E+00 +1.47808E+01 -1.06066E+01 +9.79314E+00
 -1.23013E+01 +3.74360E+00 -1.12126E+01 -2.10313E+00 -7.78530E+00 -6.58248E+00 -2.91457E+00 -8.85793E+00
 +2.24535E+00 -8.57971E+00 +6.52113E+00 -5.94394E+00 +8.96049E+00 -1.64143E+00 +9.02492E+00 +3.29252E+00
 +6.69690E+00 +7.69665E+00 +2.48058E+00 +1.05265E+01 -2.70364E+00 +1.10724E+01 -7.70934E+00 +9.10987E+00
 -1.14010E+01 +4.95088E+00 -1.28900E+01 -6.13063E-01 -1.17230E+01 -6.46589E+00 -7.98334E+00 -1.13892E+01
 -2.28722E+00 -1.43077E+01 +4.32837E+00 -1.45098E+01 +1.06022E+01 -1.17984E+01 +1.52929E+01 -6.54260E+00
 +1.74231E+01 +3.81648E-01 +1.64747E+01 +7.75042E+00 +1.24982E+01 +1.42209E+01 +6.11256E+00 +1.85861E+01
 -1.60350E+00 +2.00058E+01 -9.31010E+00 +1.81699E+01 -1.56554E+01 +1.33609E+01 -1.95287E+01 +6.40452E+00
 -2.02682E+01 -1.48332E+00 -1.77837E+01 -8.92329E+00 -1.25718E+01 -1.46303E+01 -5.61870E+00 -1.76524E+01
 +1.78817E+00 -1.75454E+01 +8.30491E+00 -1.44500E+01 +1.27843E+01 -9.05746E+00 +1.44894E+01 -2.47047E+00
 +1.32263E+01 +4.01260E+00 +9.37157E+00 +9.14864E+00 +3.79031E+00 +1.19871E+01 -2.33962E+00 +1.20478E+01
 -7.76099E+00 +9.40636E+00 -1.13834E+01 +4.66970E+00 -1.24942E+01 -1.15031E+00 -1.08932E+01 -6.84154E+00
 -6.92553E+00 -1.12330E+01 -1.40806E+00 -1.34261E+01 +4.53724E+00 -1.29698E+01 +9.70808E+00 -9.94717E+00
 +1.30611E+01 -4.95541E+00 +1.39185E+01 +1.01524E+00 +1.21011E+01 +6.77954E+00 +7.96310E+00 +1.11930E+01
 +2.32073E+00 +1.33791E+01 -3.70987E+00 +1.29025E+01 -8.93368E+00 +9.85562E+00 -1.23132E+01 +4.84040E+00
 -1.31739E+01 -1.15019E+00 -1.13373E+01 -6.92761E+00 -7.15777E+00 -1.13419E+01 -1.45321E+00 -1.35081E+01
 +4.65464E+00 -1.29813E+01 +9.95996E+00 -9.84502E+00 +1.34094E+01 -4.69595E+00 +1.43088E+01 +1.47135E+00
 +1.24605E+01 +7.45826E+00 +8.20272E+00 +1.20959E+01 +2.34543E+00 +1.44734E+01 -3.98671E+00 +1.41161E+01
 -9.57260E+00 +1.10792E+01 -1.33319E+01 +5.93772E+00 -1.45353E+01 -3.24256E-01 -1.29461E+01 -6.50392E+00
 -8.86651E+00 -1.14127E+01 -3.07956E+00 -1.41063E+01 +3.30286E+00 -1.40675E+01 +9.05494E+00 -1.13052E+01
 +1.30740E+01 -6.35254E+00 +1.45930E+01 -1.62585E-01 +1.33276E+01 +6.07670E+00 +9.52993E+00 +1.11724E+01
 +3.93710E+00 +1.41570E+01 -2.37262E+00 +1.44738E+01 -8.19006E+00 +1.20830E+01 -1.24095E+01 +7.46585E+00
 -1.42418E+01 +1.52889E+00 -1.33654E+01 -4.57446E+00 -9.98556E+00 -9.66911E+00 -4.79060E+00 -1.27867E+01
 +1.18492E+00 -1.33523E+01 +6.76428E+00 -1.12939E+01 +1.08591E+01 -7.05317E+00 +1.26816E+01 -1.49556E+00
 +1.18968E+01 +4.26136E+00 +8.68613E+00 +9.06849E+00 +3.70899E+00 +1.19708E+01 -2.02849E+00 +1.23945E+01
 -7.37252E+00 +1.02584E+01 -1.12491E+01 +5.98855E+00 -1.28750E+01 +4.34113E-01 -1.19120E+01 -5.30063E+00
 -8.53293E+00 -1.00732E+01 -3.38788E+00 -1.29275E+01 +2.52271E+00 -1.32813E+01 +8.04387E+00 -1.10413E+01
 +1.20919E+01 -6.62143E+00 +1.38660E+01 -8.63103E-01 +1.30049E+01 +5.12838E+00 +9.65793E+00 +1.01987E+01
 +4.45581E+00 +1.33690E+01 -1.61112E+00 +1.40256E+01 -7.38510E+00 +1.20390E+01 -1.17652E+01 +7.78866E+00
 -1.39202E+01 +2.08842E+00 -1.34485E+01 -3.97143E+00 -1.04546E+01 -9.23580E+00 -5.52671E+00 -1.27082E+01
 +3.78587E-01 -1.37426E+01 +6.12360E+00 -1.21665E+01 +1.06104E+01 -8.31165E+00 +1.29935E+01 -2.94693E+00
 +1.28417E+01 +2.87391E+00 +1.02197E+01 +8.01859E+00 +5.67168E+00 +1.14972E+01 +1.12057E-01 +1.26540E+01
 -5.35535E+00 +1.12934E+01 -9.65450E+00 +7.71493E+00 -1.19477E+01 +2.65200E+00 -1.17986E+01 -2.87475E+00
 -9.25598E+00 -7.75918E+00 -4.84225E+00 -1.10276E+01 +5.51232E-01 -1.20302E+01 +5.84062E+00 -1.05680E+01
 +9.96358E+00 -6.93144E+00 +1.20887E+01 -1.84261E+00 +1.17793E+01 +3.68709E+00 +9.07953E+00 +8.55603E+00
 +4.50652E+00 +1.17890E+01 -1.05073E+00 +1.27293E+01 -6.50495E+00 +1.11678E+01 -1.07833E+01 +7.38577E+00
 -1.30370E+01 +2.10033E+00 -1.28084E+01 -3.67399E+00 -1.01201E+01 -8.82254E+00 -5.47258E+00 -1.23472E+01
 +2.52721E-01 -1.35604E+01 +5.96369E+00 -1.22192E+01 +1.05689E+01 -8.57219E+00 +1.31885E+01 -3.31208E+00
 +1.33247E+01 +2.55874E+00 +1.09566E+01 +7.92194E+00 +6.54395E+00 +1.17592E+01 +9.37104E-01 +1.33484E+01
 -4.78844E+00 +1.24018E+01 -9.54018E+00 +9.11995E+00 -1.24195E+01 +4.15056E+00 -1.28941E+01 -1.53867E+00
 -1.08988E+01 -6.84886E+00 -6.84516E+00 -1.07632E+01 -1.53900E+00 -1.25433E+01 +3.97862E+00 -1.18702E+01
 +8.63490E+00 -8.90369E+00 +1.15340E+01 -4.24776E+00 +1.21299E+01 +1.17000E+00 +1.03309E+01 +6.28122E+00
 +6.51378E+00 +1.00862E+01 +1.44772E+00 +1.18485E+01 -3.85871E+00 +1.12378E+01 -8.35641E+00 +8.39185E+00
 -1.11616E+01 +3.88694E+00 -1.17281E+01 -1.37705E+00 -9.95367E+00 -6.35497E+00 -6.19757E+00 -1.00622E+01
 -1.20884E+00 -1.17682E+01 +4.02234E+00 -1.11390E+01 +8.46005E+00 -8.30239E+00 +1.12265E+01 -3.82154E+00
 +1.17745E+01 +1.41632E+00 +9.99482E+00 +6.37481E+00 +6.23756E+00 +1.00723E+01 +1.24311E+00 +1.17750E+01
 -4.00306E+00 +1.11413E+01 -8.46388E+00 +8.28919E+00 -1.12541E+01 +3.77350E+00 -1.18141E+01 -1.52200E+00
 -1.00204E+01 -6.55727E+00 -6.21003E+00 -1.03392E+01 -1.11643E+00 -1.21158E+01 +4.27342E+00 -1.15233E+01
 +8.91056E+00 -8.65804E+00 +1.18880E+01 -4.05851E+00 +1.26173E+01 +1.39861E+00 +1.09427E+01 +6.66793E+00
 +7.17217E+00 +1.07378E+01 +2.01760E+00 +1.28257E+01 -3.54279E+00 +1.25298E+01 -8.45345E+00 +9.90550E+00
 -1.17852E+01 +5.45439E+00 -1.29138E+01 +2.61853E-02 -1.16395E+01 -5.34605E+00 -8.22330E+00 -9.64565E+00
 -3.33481E+00 -1.20682E+01 +2.07940E+00 -1.21754E+01 +6.98007E+00 -9.97730E+00 +1.04366E+01 -5.92735E+00
 +1.18064E+01 -8.31490E-01 +1.08568E+01 +4.31068E+00 +7.80742E+00 +8.50132E+00 +3.28375E+00 +1.09384E+01
 -1.80795E+00 +1.11701E+01 -6.45949E+00 +9.18065E+00 -9.75863E+00 +5.38994E+00 -1.10671E+01 +5.68379E-01
 -1.01439E+01 -4.31648E+00 -7.19056E+00 -8.29112E+00 -2.80926E+00 -1.05676E+01 +2.11758E+00 -1.06979E+01
 +6.60206E+00 -8.66101E+00 +9.74581E+00 -4.86614E+00 +1.09170E+01 -7.09689E-02 +9.87474E+00 +4.76791E+00
 +6.81619E+00 +8.68363E+00 +2.33808E+00 +1.08895E+01 -2.68045E+00 +1.09338E+01 -7.25026E+00 +8.78926E+00
 -1.04662E+01 +4.85879E+00 -1.16846E+01 -1.02536E-01 -1.06497E+01 -5.13462E+00 -7.54445E+00 -9.25956E+00
 -2.95549E+00 -1.16724E+01 +2.24064E+00 -1.18982E+01 +7.04760E+00 -9.88475E+00 +1.05428E+01 -6.01300E+00
 +1.20565E+01 -1.02326E+00 +1.13015E+01 +4.12849E+00 +8.42894E+00 +8.45605E+00 +3.99781E+00 +1.11341E+01
 -1.13349E+00 +1.16577E+01 -5.97422E+00 +9.93931E+00 -9.59350E+00 +6.32490E+00 -1.13004E+01 +1.52537E+00
 -1.07770E+01 -3.52223E+00 -8.13867E+00 -7.83713E+00 -3.91009E+00 -1.05851E+01 +1.07817E+00 -1.12398E+01
 +5.85205E+00 -9.68338E+00 +9.48365E+00 -6.22791E+00 +1.12713E+01 -1.55273E+00 +1.08747E+01 +3.42910E+00
 +8.37978E+00 +7.74931E+00 +4.27951E+00 +1.05729E+01 -6.23443E-01 +1.13601E+01 -5.37457E+00 +9.96966E+00
 -9.05406E+00 +6.68483E+00 -1.09558E+01 +2.15590E+00 -1.07240E+01 -2.72823E+00 -8.42073E+00 -7.01462E+00
 -4.51222E+00 -9.87254E+00 +2.24530E-01 -1.07552E+01 +4.85480E+00 -9.50526E+00 +8.46969E+00 -6.38410E+00
 +1.03640E+01 -2.01879E+00 +1.01735E+01 +2.72207E+00 +7.94541E+00 +6.89939E+00 +4.12751E+00 +9.68804E+00
 -5.20370E-01 +1.05384E+01 -5.07638E+00 +9.28363E+00 -8.63775E+00 +6.17182E+00 -1.04980E+01 +1.81671E+00
 -1.02855E+01 -2.92303E+00 -8.03581E+00 -7.11233E+00 -4.18534E+00 -9.92306E+00 +5.14692E-01 -1.07962E+01
 +5.14483E+00 -9.55168E+00 +8.79721E+00 -6.42333E+00 +1.07529E+01 -2.01393E+00 +1.06224E+01 +2.82239E+00
 +8.42164E+00 +7.14643E+00 +4.56922E+00 +1.01168E+01 -1.94975E-01 +1.11535E+01 -4.95352E+00 +1.00507E+01
 -8.78960E+00 +7.01659E+00 -1.09648E+01 +2.63252E+00 -1.10621E+01 -2.25997E+00 -9.06578E+00 -6.72267E+00
 -5.36404E+00 -9.90254E+00 -6.72384E-01 -1.11966E+01 +4.10576E+00 -1.03677E+01 +8.05466E+00 -7.58949E+00
 +1.04236E+01 -3.41050E+00 +1.07717E+01 +1.35332E+00 +9.05190E+00 +5.77833E+00 +5.61786E+00 +9.01288E+00
 +1.15351E+00 +1.04424E+01 -3.46189E+00 +9.80766E+00 -7.32581E+00 +7.25314E+00 -9.68850E+00 +3.29701E+00
 -1.00984E+01 -1.27197E+00 -8.48867E+00 -5.54970E+00 -5.18891E+00 -8.69391E+00 -8.58621E-01 -1.00886E+01
 +3.64289E+00 -9.46358E+00 +7.42540E+00 -6.94635E+00 +9.74220E+00 -3.03571E+00 +1.01359E+01 +1.49683E+00
 +8.52714E+00 +5.75877E+00 +5.22961E+00 +8.91158E+00 +8.87644E-01 +1.03347E+01 -3.65021E+00 +9.74651E+00
 -7.49748E+00 +7.25896E+00 -9.90303E+00 +3.35502E+00 -1.03976E+01 -1.20617E+00 -8.88490E+00 -5.53788E+00
