 Created: 16-Jan-2021
 $NMID
 ID='D:\BASISSIMULATI'
 FMTDAT='(8E13.5)'
 VOLUME=   1.00000E+00
 TRAMP=   1.00000E+00
 $END
 +2.05338E+01 +2.32154E-02 +1.65896E+01 +4.26507E+00 +7.43421E+00 +8.66219E+00 -1.39914E+00 +1.19688E+01
 -5.57615E+00 +1.19831E+01 -4.69438E+00 +7.80507E+00 -1.56061E+00 +1.43699E+00 +7.70805E-01 -3.24170E+00
 +1.24793E+00 -3.47207E+00 +6.46549E-01 +1.50618E-01 -1.13074E-01 +4.30225E+00 -1.00514E+00 +5.78081E+00
 -2.34524E+00 +3.90959E+00 -3.72383E+00 +4.65476E-01 -4.01837E+00 -2.37068E+00 -2.61430E+00 -3.79613E+00
 -3.45593E-01 -4.34464E+00 +1.15624E+00 -4.60254E+00 +1.18720E+00 -4.43851E+00 +8.69285E-01 -3.55794E+00
 +2.05745E+00 -2.40783E+00 +5.25442E+00 -1.99331E+00 +8.75708E+00 -2.57827E+00 +1.00931E+01 -2.83926E+00
 +8.39118E+00 -8.29024E-01 +5.24353E+00 +3.88026E+00 +3.10836E+00 +9.10155E+00 +2.86296E+00 +1.14790E+01
 +3.04316E+00 +9.42563E+00 +1.56666E+00 +4.75854E+00 -1.87131E+00 +1.26050E+00 -5.26797E+00 +1.34657E+00
 -6.24110E+00 +3.94798E+00 -4.42353E+00 +5.63247E+00 -1.83010E+00 +3.87983E+00 -8.15927E-01 -6.06818E-01
 -1.75064E+00 -4.65195E+00 -2.80631E+00 -5.52854E+00 -2.03018E+00 -3.20272E+00 +4.99877E-01 +3.02717E-02
 +2.68591E+00 +1.79462E+00 +2.55428E+00 +1.41345E+00 +3.09920E-01 -2.46946E-01 -1.76878E+00 -2.14438E+00
 -1.41733E+00 -3.85881E+00 +1.66117E+00 -5.09993E+00 +5.76708E+00 -4.95865E+00 +8.81675E+00 -2.27885E+00
 +9.78347E+00 +2.93607E+00 +8.70676E+00 +8.68681E+00 +5.81619E+00 +1.20181E+01 +1.22899E+00 +1.12907E+01
 -4.30543E+00 +7.55043E+00 -8.76979E+00 +3.56506E+00 -9.72584E+00 +1.40227E+00 -6.37610E+00 +9.08236E-01
 -8.54321E-01 +5.07461E-01 +2.94718E+00 -6.83682E-01 +2.39913E+00 -1.78377E+00 -1.63708E+00 -1.28480E+00
 -5.54251E+00 +8.87008E-01 -6.08656E+00 +2.76566E+00 -3.12000E+00 +2.07104E+00 +6.23966E-01 -1.39486E+00
 +2.27439E+00 -5.20596E+00 +1.38784E+00 -6.35486E+00 -3.56017E-02 -3.97459E+00 +1.70996E-01 -8.89300E-02
 +2.21149E+00 +2.32273E+00 +4.38680E+00 +2.02418E+00 +5.00291E+00 +4.00954E-01 +3.97727E+00 -1.54261E-01
 +2.56007E+00 +1.42681E+00 +1.73443E+00 +4.12224E+00 +1.19782E+00 +6.10730E+00 -7.86599E-03 +6.50258E+00
 -2.09516E+00 +5.78178E+00 -4.07444E+00 +4.72523E+00 -4.79598E+00 +3.39834E+00 -4.26009E+00 +1.39314E+00
 -3.61694E+00 -1.09767E+00 -3.78293E+00 -2.89263E+00 -4.25460E+00 -2.84687E+00 -3.58454E+00 -1.24593E+00
 -1.13797E+00 +1.39308E-01 +1.80408E+00 -3.00798E-01 +2.98930E+00 -2.26438E+00 +1.40844E+00 -3.63893E+00
 -1.49268E+00 -2.58963E+00 -2.99660E+00 +3.95315E-01 -1.64531E+00 +2.69443E+00 +1.39092E+00 +1.99632E+00
 +3.50753E+00 -1.33130E+00 +3.22905E+00 -4.34025E+00 +1.54856E+00 -4.08710E+00 +7.12842E-01 -2.73546E-01
 +1.75047E+00 +4.54072E+00 +3.31378E+00 +7.25246E+00 +3.02485E+00 +6.76360E+00 -6.24181E-02 +4.43273E+00
 -4.38098E+00 +2.31880E+00 -7.19547E+00 +1.22348E+00 -6.97659E+00 +4.46443E-01 -4.49561E+00 -8.38540E-01
 -1.77479E+00 -2.35371E+00 -1.97655E-01 -3.01695E+00 +2.94637E-01 -2.29702E+00 +4.09266E-01 -9.57878E-01
 +3.55963E-01 -2.89285E-01 -2.32176E-01 -7.06875E-01 -1.36250E+00 -1.35271E+00 -2.10163E+00 -1.18226E+00
 -1.32341E+00 -2.86969E-01 +9.04964E-01 +1.30491E-01 +2.96412E+00 -7.96709E-01 +3.05639E+00 -2.34449E+00
 +1.07004E+00 -2.68088E+00 -1.07319E+00 -7.68529E-01 -1.17659E+00 +2.30044E+00 +1.00031E+00 +4.10503E+00
 +3.32788E+00 +3.20528E+00 +3.26851E+00 +6.51202E-01 +3.53084E-01 -9.41514E-01 -3.28892E+00 +6.05884E-02
 -4.90389E+00 +2.65345E+00 -3.65454E+00 +4.11661E+00 -1.24402E+00 +2.63018E+00 -9.38522E-02 -9.80719E-01
 -9.77804E-01 -4.04339E+00 -2.45604E+00 -4.50952E+00 -2.53224E+00 -2.65531E+00 -7.19357E-01 -4.82401E-01
 +1.57045E+00 +3.49038E-01 +2.54525E+00 -1.11945E-01 +1.75522E+00 -6.47095E-01 +2.80691E-01 -4.46948E-01
 -5.88946E-01 +9.28430E-02 -6.01280E-01 +9.99824E-02 -4.11880E-01 -5.53296E-01 -4.55293E-01 -1.04357E+00
 -3.06217E-01 -6.29686E-01 +6.60849E-01 +3.54952E-01 +2.14553E+00 +8.12321E-01 +2.82454E+00 +2.14866E-01
 +1.64041E+00 -5.98364E-01 -8.55961E-01 -2.32355E-01 -2.71956E+00 +1.59381E+00 -2.40932E+00 +3.38389E+00
 -4.01225E-01 +3.14883E+00 +1.15010E+00 +4.84312E-01 +5.22940E-01 -2.72891E+00 -1.76987E+00 -3.90500E+00
 -3.38054E+00 -2.18016E+00 -2.42530E+00 +7.19853E-01 +5.87518E-01 +2.09774E+00 +3.15531E+00 +8.35696E-01
 +3.13996E+00 -1.61797E+00 +7.60139E-01 -2.75595E+00 -1.71607E+00 -1.46293E+00 -2.19107E+00 +1.01129E+00
 -6.26201E-01 +2.40830E+00 +1.18595E+00 +1.66153E+00 +1.54622E+00 -2.62039E-01 +4.23320E-01 -1.55008E+00
 -8.13567E-01 -1.35821E+00 -9.86166E-01 -3.77874E-01 -2.24841E-01 +2.18656E-01 +4.67398E-01 +1.05017E-01
 +4.98386E-01 -6.88072E-02 +2.66340E-01 +2.81253E-01 +4.39765E-01 +8.24986E-01 +9.21185E-01 +7.21798E-01
 +8.45212E-01 -2.15089E-01 -2.99580E-01 -1.05708E+00 -1.75829E+00 -6.98735E-01 -2.03718E+00 +7.72896E-01
 -4.95716E-01 +1.89814E+00 +1.70938E+00 +1.26747E+00 +2.52963E+00 -8.58060E-01 +1.04072E+00 -2.53655E+00
 -1.48343E+00 -1.96507E+00 -2.67316E+00 +6.27142E-01 -1.36534E+00 +3.00249E+00 +1.18782E+00 +2.97476E+00
 +2.47948E+00 +5.23571E-01 +1.18004E+00 -2.15184E+00 -1.56437E+00 -2.72569E+00 -3.24784E+00 -9.29014E-01
 -2.40379E+00 +1.30355E+00 +8.61906E-02 +1.79210E+00 +1.98578E+00 +1.75383E-01 +1.89095E+00 -1.91585E+00
 +4.06308E-01 -2.58786E+00 -7.23884E-01 -1.46209E+00 -4.51117E-01 +2.23428E-01 +7.01458E-01 +1.06796E+00
 +1.46081E+00 +8.50850E-01 +1.23425E+00 +4.22987E-01 +5.59294E-01 +5.00455E-01 +2.33007E-01 +8.53734E-01
 +2.87045E-01 +7.76883E-01 +5.19045E-02 +1.55308E-01 -8.14868E-01 -2.47834E-01 -1.65625E+00 +2.91295E-01
 -1.43618E+00 +1.40712E+00 -4.22019E-02 +1.80485E+00 +1.27175E+00 +6.39366E-01 +1.01245E+00 -1.35682E+00
 -9.11405E-01 -2.37067E+00 -2.83058E+00 -1.30972E+00 -2.81754E+00 +9.21769E-01 -6.45053E-01 +2.11961E+00
 +1.82778E+00 +9.02719E-01 +2.36684E+00 -1.83842E+00 +5.46255E-01 -3.69454E+00 -1.78089E+00 -3.02299E+00
 -2.23801E+00 -5.17802E-01 -1.94697E-01 +1.49710E+00 +2.67003E+00 +1.33768E+00 +4.00986E+00 -4.65674E-01
 +2.97870E+00 -1.80197E+00 +8.15280E-01 -1.10124E+00 -5.78225E-01 +1.20080E+00 -4.87365E-01 +3.21802E+00
 +1.86371E-01 +3.46977E+00 +1.61797E-01 +2.11553E+00 -7.92797E-01 +4.73935E-01 -1.74627E+00 -4.25508E-01
 -1.76935E+00 -6.42732E-01 -9.70764E-01 -7.87830E-01 -2.66780E-01 -1.01072E+00 -2.53676E-01 -8.19346E-01
 -5.55877E-01 +8.38320E-02 -4.08664E-01 +1.06152E+00 +2.57159E-01 +9.65447E-01 +5.93636E-01 -5.86138E-01
 -1.45399E-01 -2.51747E+00 -1.47734E+00 -3.14583E+00 -1.87000E+00 -1.85670E+00 -2.67162E-01 +1.48843E-01
 +2.57973E+00 +9.53913E-01 +4.51269E+00 -1.33481E-01 +3.91508E+00 -1.78791E+00 +1.33065E+00 -1.92698E+00
 -9.39613E-01 +1.73678E-01 -9.79784E-01 +3.04790E+00 +9.25010E-01 +4.37639E+00 +2.59364E+00 +3.19016E+00
 +2.07829E+00 +7.54264E-01 -4.78257E-01 -7.17863E-01 -3.04265E+00 -1.93518E-01 -3.66085E+00 +1.32168E+00
 -2.20538E+00 +1.95371E+00 -2.58380E-01 +8.62825E-01 +5.65026E-01 -1.04884E+00 +6.23314E-02 -2.20390E+00
 -6.99242E-01 -1.93949E+00 -7.19266E-01 -9.67519E-01 -4.64241E-02 -3.90182E-01 +5.51591E-01 -4.96682E-01
 +6.45608E-01 -6.62837E-01 +6.05883E-01 -3.25089E-01 +9.69063E-01 +2.19958E-01 +1.57733E+00 +1.71013E-01
 +1.64763E+00 -6.92072E-01 +7.97220E-01 -1.52427E+00 -1.92144E-01 -1.21196E+00 +4.98395E-02 +3.67889E-01
 +1.96501E+00 +2.07364E+00 +4.21532E+00 +2.63704E+00 +4.61158E+00 +2.04087E+00 +2.12607E+00 +1.57771E+00
 -1.95722E+00 +2.38876E+00 -4.98972E+00 +3.98602E+00 -5.19521E+00 +4.44051E+00 -3.08595E+00 +2.25824E+00
 -7.47693E-01 -1.86305E+00 +2.09269E-01 -5.25525E+00 -2.94360E-02 -5.45591E+00 -1.04900E-01 -2.36191E+00
 +7.72302E-01 +1.65701E+00 +1.87983E+00 +3.77024E+00 +1.81920E+00 +2.93254E+00 +1.75173E-01 +3.84394E-01
 -1.82123E+00 -1.79021E+00 -2.36775E+00 -2.45639E+00 -8.08354E-01 -1.92443E+00 +1.75236E+00 -1.04003E+00
 +3.50748E+00 -1.52272E-01 +3.54326E+00 +9.19634E-01 +2.39458E+00 +2.14710E+00 +1.18475E+00 +2.91899E+00
 +4.46605E-01 +2.63658E+00 -1.09805E-01 +1.58759E+00 -8.29607E-01 +9.28750E-01 -1.44542E+00 +1.56390E+00
 -1.39887E+00 +3.04822E+00 -7.52822E-01 +3.80845E+00 -4.67034E-01 +2.64086E+00 -1.46804E+00 +1.59391E-02
 -3.40652E+00 -2.21915E+00 -4.57899E+00 -2.54810E+00 -3.39885E+00 -1.21533E+00 -9.51892E-02 +8.85246E-02
 +3.14542E+00 -1.81220E-02 +3.95772E+00 -1.21070E+00 +1.91519E+00 -1.85878E+00 -1.05312E+00 -8.00954E-01
 -2.40032E+00 +1.35770E+00 -1.22335E+00 +2.78088E+00 +1.07728E+00 +2.22188E+00 +2.27939E+00 +2.61925E-01
 +1.44150E+00 -1.27828E+00 -3.86465E-01 -1.10973E+00 -1.37186E+00 +3.89170E-01 -6.80364E-01 +1.75940E+00
 +9.07754E-01 +2.04557E+00 +1.93962E+00 +1.67948E+00 +1.62661E+00 +1.80234E+00 +2.39902E-01 +2.85290E+00
 -1.55435E+00 +3.97593E+00 -3.39555E+00 +3.85545E+00 -5.11910E+00 +2.04092E+00 -6.16493E+00 -6.25920E-01
 -5.54175E+00 -2.83338E+00 -2.74152E+00 -3.88763E+00 +1.28032E+00 -3.92527E+00 +4.32363E+00 -3.22992E+00
 +4.51990E+00 -1.69000E+00 +1.92734E+00 +8.07626E-01 -1.42850E+00 +3.51876E+00 -3.22691E+00 +4.77108E+00
 -2.71506E+00 +3.20958E+00 -1.03988E+00 -6.66499E-01 +1.46591E-01 -4.35111E+00 +3.06686E-01 -5.09361E+00
 +2.36336E-01 -2.18938E+00 +8.07975E-01 +2.30763E+00 +1.72840E+00 +5.21843E+00 +1.73440E+00 +4.81508E+00
 +4.13279E-02 +2.05536E+00 -2.55143E+00 -5.24986E-01 -4.18603E+00 -1.09124E+00 -3.67509E+00 +1.57199E-01
 -1.69773E+00 +1.61195E+00 -2.15233E-01 +1.92774E+00 -6.47245E-01 +1.02643E+00 -2.58458E+00 -3.15406E-01
 -4.24385E+00 -1.50115E+00 -4.12696E+00 -2.51658E+00 -2.24178E+00 -3.41129E+00 +1.63835E-01 -3.73667E+00
 +1.84551E+00 -2.82793E+00 +2.42666E+00 -7.06949E-01 +2.18175E+00 +1.50828E+00 +1.32415E+00 +2.37620E+00
 -1.76017E-01 +1.44736E+00 -2.05443E+00 -2.49009E-01 -3.35341E+00 -1.15854E+00 -2.97426E+00 -6.94027E-01
 -8.38231E-01 +2.64657E-01 +1.62422E+00 +4.00673E-01 +2.46217E+00 -5.55022E-01 +9.44714E-01 -1.47159E+00
 -1.64148E+00 -1.01158E+00 -3.07722E+00 +8.65459E-01 -2.27250E+00 +2.69338E+00 -3.31198E-01 +2.85812E+00
 +4.75309E-01 +1.15357E+00 -1.10453E+00 -1.06048E+00 -4.04060E+00 -2.24677E+00 -5.88767E+00 -2.17204E+00
 -4.93859E+00 -1.95302E+00 -1.64515E+00 -2.66266E+00 +1.90781E+00 -4.00722E+00 +3.79684E+00 -4.50246E+00
