 Created: 16-Jan-2021
 $NMID
 ID='D:\BASISSIMULATI'
 FMTDAT='(8E13.5)'
 VOLUME=   1.00000E+00
 TRAMP=   1.00000E+00
 $END
 +1.87495E+01 +2.11801E-02 +1.45530E+01 +4.87480E+00 +4.80997E+00 +8.61717E+00 -4.72861E+00 +1.00253E+01
 -9.29408E+00 +8.16294E+00 -8.01341E+00 +3.47242E+00 -3.59056E+00 -1.86191E+00 +4.63493E-01 -5.12466E+00
 +2.42279E+00 -5.07875E+00 +2.78685E+00 -2.92891E+00 +2.84100E+00 -1.16281E+00 +3.17069E+00 -1.20657E+00
 +3.50703E+00 -2.09846E+00 +3.58596E+00 -1.52427E+00 +3.68017E+00 +1.71094E+00 +4.09831E+00 +6.17294E+00
 +4.36329E+00 +8.80890E+00 +3.29648E+00 +7.62648E+00 +2.27699E-01 +3.53515E+00 -3.86181E+00 -4.12209E-01
 -6.64686E+00 -1.68849E+00 -6.22273E+00 -3.86877E-01 -2.76751E+00 +1.16163E+00 +1.52742E+00 +7.81514E-01
 +4.27507E+00 -1.46038E+00 +4.75959E+00 -3.38591E+00 +4.09830E+00 -2.79316E+00 +3.65718E+00 +5.45571E-01
 +3.44170E+00 +4.75731E+00 +2.18650E+00 +7.50280E+00 -9.29984E-01 +7.69026E+00 -4.79249E+00 +5.80493E+00
 -6.82067E+00 +2.96319E+00 -5.19627E+00 -1.49497E-02 -7.67490E-01 -2.59129E+00 +3.31696E+00 -3.96998E+00
 +4.10243E+00 -3.15249E+00 +1.26593E+00 +6.43599E-02 -2.69125E+00 +4.16736E+00 -4.62792E+00 +6.43290E+00
 -3.31677E+00 +4.92403E+00 -1.52517E-01 +3.57750E-01 +2.37432E+00 -4.03859E+00 +2.80646E+00 -4.90020E+00
 +1.51655E+00 -1.43914E+00 -2.32212E-01 +3.87108E+00 -1.66991E+00 +7.28594E+00 -2.88024E+00 +6.72629E+00
 -4.01925E+00 +3.13973E+00 -4.58308E+00 -7.15821E-01 -3.76693E+00 -2.72374E+00 -1.57723E+00 -2.80746E+00
 +6.67518E-01 -2.24110E+00 +1.28074E+00 -1.92913E+00 -1.58635E-01 -1.55311E+00 -2.16945E+00 -3.45721E-01
 -2.58486E+00 +1.56804E+00 -6.20808E-01 +2.90146E+00 +2.19868E+00 +2.42345E+00 +3.27842E+00 +3.89914E-01
 +1.29537E+00 -1.42204E+00 -2.53873E+00 -1.28911E+00 -5.50531E+00 +7.59504E-01 -5.73742E+00 +2.82850E+00
 -3.70003E+00 +2.81644E+00 -1.47469E+00 +2.95739E-01 -6.63856E-01 -3.14894E+00 -1.00006E+00 -5.36294E+00
 -9.37006E-01 -5.38070E+00 +5.16383E-01 -3.85558E+00 +2.64579E+00 -1.96939E+00 +3.70392E+00 -1.71116E-01
 +2.65079E+00 +1.87142E+00 +1.57893E-01 +4.17661E+00 -2.10182E+00 +5.63027E+00 -3.06580E+00 +4.62844E+00
 -3.09856E+00 +7.51809E-01 -3.22488E+00 -4.25004E+00 -3.70298E+00 -7.41795E+00 -3.56189E+00 -6.87028E+00
 -1.67947E+00 -3.38484E+00 +1.71676E+00 +2.39909E-01 +4.78843E+00 +1.53161E+00 +5.51158E+00 +2.95478E-01
 +3.48423E+00 -1.53547E+00 +3.36794E-01 -1.86808E+00 -1.70519E+00 -3.10574E-01 -1.74336E+00 +1.73591E+00
 -7.82058E-01 +2.60975E+00 -4.77038E-01 +1.88766E+00 -1.38174E+00 +4.32243E-01 -2.45622E+00 -8.08707E-01
 -2.26277E+00 -1.78819E+00 -5.42919E-01 -3.04970E+00 +1.47877E+00 -4.57698E+00 +2.35650E+00 -5.25949E+00
 +1.89839E+00 -3.79070E+00 +1.28521E+00 -1.99768E-01 +1.69508E+00 +3.63767E+00 +2.88917E+00 +5.27676E+00
 +3.30033E+00 +3.73821E+00 +1.63091E+00 +3.96340E-01 -1.62757E+00 -2.18320E+00 -4.34390E+00 -2.42104E+00
 -4.52971E+00 -9.15126E-01 -2.08806E+00 +3.89651E-01 +1.13253E+00 +1.47023E-01 +2.99812E+00 -1.23465E+00
 +2.84996E+00 -2.24034E+00 +1.74069E+00 -1.88666E+00 +1.09175E+00 -6.27003E-01 +1.25109E+00 +3.23971E-01
 +1.39586E+00 +4.02648E-01 +7.29198E-01 +2.67741E-01 -4.41055E-01 +9.14305E-01 -9.68523E-01 +2.32668E+00
 -2.02067E-01 +3.21080E+00 +1.10056E+00 +2.22600E+00 +1.38029E+00 -4.90775E-01 -1.02567E-01 -3.13376E+00
 -2.29450E+00 -3.71564E+00 -3.13416E+00 -1.87027E+00 -1.46008E+00 +7.82117E-01 +1.78274E+00 +2.09780E+00
 +4.25183E+00 +1.31647E+00 +4.21115E+00 -3.90056E-01 +1.96126E+00 -1.18149E+00 -5.97847E-01 -3.22109E-01
 -1.75431E+00 +1.26069E+00 -1.36327E+00 +2.06731E+00 -5.83875E-01 +1.54926E+00 -4.38157E-01 +5.02927E-01
 -7.76825E-01 +3.01092E-02 -6.80064E-01 +2.72385E-01 +2.66059E-01 +3.16449E-01 +1.30677E+00 -6.34612E-01
 +1.26383E+00 -2.13091E+00 -8.30944E-02 -2.69951E+00 -1.51446E+00 -1.31410E+00 -1.44225E+00 +1.37125E+00
 +4.51844E-01 +3.37371E+00 +2.68822E+00 +3.10876E+00 +3.22004E+00 +8.63605E-01 +1.32164E+00 -1.43212E+00
 -1.67344E+00 -1.95091E+00 -3.51753E+00 -5.69234E-01 -3.00066E+00 +1.17192E+00 -8.81108E-01 +1.62763E+00
 +1.00020E+00 +5.57576E-01 +1.45412E+00 -8.47458E-01 +8.22524E-01 -1.30983E+00 +2.71907E-01 -7.21936E-01
 +4.02141E-01 -5.30556E-02 +6.85769E-01 -1.18582E-01 +2.68675E-01 -6.14110E-01 -8.37656E-01 -4.88359E-01
 -1.56528E+00 +7.48479E-01 -8.96685E-01 +2.23695E+00 +8.84864E-01 +2.45492E+00 +2.20780E+00 +7.74593E-01
 +1.63401E+00 -1.70454E+00 -6.59014E-01 -2.99697E+00 -2.85414E+00 -2.02810E+00 -3.06055E+00 +3.38169E-01
 -1.02408E+00 +2.06494E+00 +1.64312E+00 +1.78855E+00 +2.92114E+00 -1.10523E-02 +2.12495E+00 -1.59036E+00
 +3.09823E-01 -1.63300E+00 -9.22804E-01 -3.79025E-01 -9.35425E-01 +8.31526E-01 -4.00277E-01 +1.00427E+00
 -2.85240E-01 +3.94477E-01 -6.84368E-01 +3.67285E-03 -7.75206E-01 +3.21448E-01 +9.33549E-02 +7.36890E-01
 +1.43541E+00 +2.78914E-01 +1.93307E+00 -1.12757E+00 +7.94686E-01 -2.31199E+00 -1.24125E+00 -1.91562E+00
 -2.39895E+00 +1.52730E-01 -1.49810E+00 +2.38585E+00 +8.43432E-01 +2.93051E+00 +2.66546E+00 +1.28572E+00
 +2.41104E+00 -1.19494E+00 +3.21245E-01 -2.51038E+00 -1.83163E+00 -1.78726E+00 -2.37735E+00 +5.25807E-02
 -1.16557E+00 +1.30125E+00 +5.25775E-01 +1.09025E+00 +1.35771E+00 +4.30370E-02 +1.13012E+00 -5.77961E-01
 +6.67414E-01 -2.36891E-01 +6.70942E-01 +4.31392E-01 +8.70627E-01 +4.84913E-01 +4.10453E-01 -1.71097E-01
 -9.84817E-01 -6.40968E-01 -2.40250E+00 -9.00658E-02 -2.47008E+00 +1.15524E+00 -7.56981E-01 +1.72570E+00
 +1.60563E+00 +5.60136E-01 +2.82396E+00 -1.83846E+00 +2.06297E+00 -3.58854E+00 +2.12726E-01 -3.02230E+00
 -9.77065E-01 -2.31133E-01 -5.66170E-01 +2.90978E+00 +7.29546E-01 +4.28641E+00 +1.32278E+00 +3.23526E+00
 +3.64273E-01 +8.69204E-01 -1.42349E+00 -1.11655E+00 -2.47972E+00 -1.89748E+00 -1.92317E+00 -1.87148E+00
 -3.25123E-01 -1.78069E+00 +9.81704E-01 -1.71915E+00 +1.27196E+00 -1.13156E+00 +1.03544E+00 +2.75141E-01
 +1.23253E+00 +1.83723E+00 +2.04906E+00 +2.36793E+00 +2.53293E+00 +1.37029E+00 +1.56168E+00 -2.65191E-01
 -8.35989E-01 -9.48673E-01 -3.21361E+00 +8.03858E-02 -3.87156E+00 +1.88273E+00 -2.37313E+00 +2.56247E+00
 +6.11634E-02 +1.01769E+00 +1.67151E+00 -1.94217E+00 +1.70424E+00 -4.19983E+00 +9.11431E-01 -4.11615E+00
 +6.00054E-01 -1.84939E+00 +1.25586E+00 +9.55909E-01 +2.12240E+00 +2.69597E+00 +2.07955E+00 +3.03455E+00
 +8.37927E-01 +2.74152E+00 -7.94619E-01 +2.51517E+00 -1.78572E+00 +2.14382E+00 -1.89428E+00 +8.97600E-01
 -1.72506E+00 -1.33516E+00 -1.80515E+00 -3.48262E+00 -1.77258E+00 -4.02804E+00 -6.85649E-01 -2.40111E+00
 +1.76182E+00 +3.70132E-01 +4.41932E+00 +2.45403E+00 +5.30299E+00 +2.74000E+00 +3.29348E+00 +1.65796E+00
 -6.46683E-01 +5.67344E-01 -3.99373E+00 +3.96858E-01 -4.60370E+00 +8.94211E-01 -2.40131E+00 +1.14078E+00
 +6.65858E-01 +6.65665E-01 +2.31939E+00 -6.87154E-02 +1.74347E+00 -2.88559E-01 -4.65021E-02 +1.14740E-01
 -1.38443E+00 +3.97631E-01 -1.42352E+00 -1.63025E-01 -5.65253E-01 -1.27679E+00 +3.04560E-01 -1.69410E+00
 +7.68552E-01 -4.20448E-01 +1.02077E+00 +2.07645E+00 +1.23541E+00 +3.97661E+00 +1.07591E+00 +3.61562E+00
 +3.54935E-02 +1.05031E+00 -1.73921E+00 -1.83036E+00 -3.16251E+00 -2.84738E+00 -2.99591E+00 -1.36564E+00
 -1.06633E+00 +1.23295E+00 +1.32594E+00 +2.82482E+00 +2.36701E+00 +2.35349E+00 +1.26956E+00 +5.42480E-01
 -1.03774E+00 -1.00140E+00 -2.74244E+00 -1.29841E+00 -2.72304E+00 -6.75709E-01 -1.38501E+00 -1.26267E-01
 -3.09642E-02 -1.74069E-01 +5.05906E-01 -4.36464E-01 +5.43968E-01 -2.17702E-01 +8.95161E-01 +6.32443E-01
 +1.64268E+00 +1.55296E+00 +1.75125E+00 +1.91229E+00 +5.84484E-02 +1.66232E+00 -3.27822E+00 +1.24096E+00
 -6.39653E+00 +8.67112E-01 -6.98825E+00 +1.26688E-01 -4.19718E+00 -1.53185E+00 +5.33339E-01 -3.83513E+00
 +4.45535E+00 -5.38160E+00 +5.51191E+00 -4.59685E+00 +3.66021E+00 -1.24343E+00 +5.47828E-01 +2.96982E+00
 -1.94816E+00 +5.46211E+00 -2.95887E+00 +4.76523E+00 -2.75289E+00 +1.69617E+00 -2.03383E+00 -1.36287E+00
 -1.31896E+00 -2.46664E+00 -8.99134E-01 -1.62126E+00 -1.04665E+00 -5.13074E-01 -1.88841E+00 -8.03813E-01
 -2.95247E+00 -2.60705E+00 -3.06424E+00 -4.48193E+00 -1.11629E+00 -4.80261E+00 +2.71928E+00 -3.14068E+00
 +6.51656E+00 -4.48563E-01 +7.63998E+00 +1.91525E+00 +4.72889E+00 +3.22857E+00 -1.00194E+00 +3.56340E+00
 -6.38882E+00 +3.15933E+00 -8.51157E+00 +1.91028E+00 -6.69894E+00 -3.98031E-01 -2.72869E+00 -3.41883E+00
 +8.23283E-01 -6.02348E+00 +2.56093E+00 -6.95280E+00 +2.90837E+00 -5.78883E+00 +3.09461E+00 -3.27809E+00
 +3.67174E+00 -6.60820E-01 +4.02074E+00 +1.31802E+00 +3.18108E+00 +2.71692E+00 +1.02105E+00 +3.77448E+00
 -1.47029E+00 +4.14465E+00 -3.00871E+00 +2.98136E+00 -3.07032E+00 -5.30439E-02 -2.14468E+00 -3.88967E+00
 -1.05269E+00 -6.39285E+00 -1.41215E-01 -5.92544E+00 +8.14760E-01 -2.82645E+00 +2.02295E+00 +6.37928E-01
 +3.17479E+00 +1.99713E+00 +3.65858E+00 +5.70605E-01 +3.24443E+00 -1.99748E+00 +2.41307E+00 -3.14577E+00
 +1.86757E+00 -1.53192E+00 +1.71124E+00 +1.91042E+00 +1.24640E+00 +4.79369E+00 -2.39505E-01 +5.14915E+00
 -2.42836E+00 +2.75771E+00 -3.82868E+00 -9.76212E-01 -2.91402E+00 -4.19074E+00 +3.83800E-01 -5.64761E+00
 +4.26438E+00 -5.03072E+00 +6.28450E+00 -2.67714E+00 +5.26223E+00 +6.54560E-01 +2.20622E+00 +3.79675E+00
 -5.56186E-01 +5.35997E+00 -1.27618E+00 +4.42654E+00 -4.80339E-02 +1.38733E+00 +1.57389E+00 -1.94276E+00
 +2.09999E+00 -3.38017E+00 +1.31515E+00 -1.96589E+00 +1.70637E-01 +1.22207E+00 -3.23691E-01 +3.84282E+00
 -2.04923E-02 +4.09970E+00 +4.57739E-01 +2.07373E+00 +5.45900E-01 -5.28932E-01 +3.32801E-01 -1.91168E+00
 +3.37230E-01 -1.58530E+00 +8.18531E-01 -4.36216E-01 +1.44970E+00 +4.13317E-01 +1.70988E+00 +7.22173E-01
 +1.50427E+00 +1.14133E+00 +1.25333E+00 +2.23072E+00 +1.31059E+00 +3.60476E+00 +1.38355E+00 +4.15292E+00
 +7.12639E-01 +3.13674E+00 -1.04252E+00 +1.03659E+00 -3.11740E+00 -7.46785E-01 -4.01187E+00 -1.08879E+00
 -2.75731E+00 -9.58798E-02 +6.06909E-02 +1.07637E+00 +2.58085E+00 +1.32485E+00 +3.13389E+00 +5.47284E-01
 +1.62976E+00 -4.09732E-01 -4.03593E-01 -6.28481E-01 -1.18786E+00 +1.06843E-01 -2.38098E-01 +1.33484E+00
 +1.29127E+00 +2.52983E+00 +1.70802E+00 +3.51843E+00 +2.72633E-01 +4.25771E+00 -2.24809E+00 +4.36527E+00
