 Created: 16-Jan-2021
 $NMID
 ID='D:\BASISSIMULATI'
 FMTDAT='(8E13.5)'
 VOLUME=   1.00000E+00
 TRAMP=   1.00000E+00
 $END
 +7.29736E+00 +8.09229E-03 +4.59962E+00 +5.03488E+00 -8.96064E-01 +5.46160E+00 -3.90990E+00 +1.16762E+00
 -1.64422E+00 -3.38710E+00 +3.50292E+00 -3.53078E+00 +6.29783E+00 +1.06065E+00 +3.78707E+00 +6.05792E+00
 -1.82663E+00 +6.70915E+00 -5.34263E+00 +2.46704E+00 -3.63153E+00 -2.49722E+00 +1.33446E+00 -3.37667E+00
 +4.43317E+00 +5.88610E-01 +2.40292E+00 +5.39267E+00 -2.98277E+00 +6.19104E+00 -6.66005E+00 +2.02708E+00
 -5.21585E+00 -3.25010E+00 -1.97402E-01 -4.75042E+00 +3.42329E+00 -1.30052E+00 +2.10917E+00 +3.44271E+00
 -2.80739E+00 +4.58673E+00 -6.45078E+00 +7.80068E-01 -5.17074E+00 -4.48602E+00 -9.05219E-02 -6.29744E+00
 +4.01091E+00 -3.10108E+00 +3.36557E+00 +1.81110E+00 -1.13167E+00 +3.54031E+00 -4.83235E+00 +3.59580E-01
 -3.88934E+00 -4.62702E+00 +9.99412E-01 -6.53760E+00 +5.29515E+00 -3.47427E+00 +5.05313E+00 +1.65093E+00
 +7.46975E-01 +3.98010E+00 -3.23159E+00 +1.44245E+00 -2.87769E+00 -3.26018E+00 +1.53313E+00 -5.32454E+00
 +5.74555E+00 -2.53894E+00 +5.69267E+00 +2.58191E+00 +1.44673E+00 +5.27423E+00 -2.88597E+00 +3.16695E+00
 -3.18827E+00 -1.44233E+00 +6.71347E-01 -3.86775E+00 +4.75220E+00 -1.61458E+00 +4.91308E+00 +3.21379E+00
 +8.42502E-01 +5.99992E+00 -3.67014E+00 +4.11948E+00 -4.44892E+00 -5.31126E-01 -9.83726E-01 -3.42178E+00
 +3.11836E+00 -1.81284E+00 +3.68394E+00 +2.60613E+00 +3.59927E-02 +5.40706E+00 -4.38240E+00 +3.75558E+00
 -5.39188E+00 -8.50949E-01 -2.13826E+00 -4.08004E+00 +2.11834E+00 -2.99502E+00 +3.21511E+00 +1.11749E+00
 +1.35621E-01 +4.05126E+00 -4.04306E+00 +2.80135E+00 -5.18733E+00 -1.53060E+00 -2.13234E+00 -4.85140E+00
 +2.22217E+00 -4.07972E+00 +3.77149E+00 -1.17904E-01 +1.19680E+00 +3.07692E+00 -2.79785E+00 +2.37084E+00
 -4.16561E+00 -1.51936E+00 -1.46262E+00 -4.77378E+00 +2.78409E+00 -4.21579E+00 +4.57705E+00 -3.83274E-01
 +2.33885E+00 +3.04301E+00 -1.59794E+00 +2.84768E+00 -3.31026E+00 -6.14969E-01 -1.11009E+00 -3.82131E+00
 +2.85354E+00 -3.54325E+00 +4.73447E+00 +2.61205E-02 +2.74046E+00 +3.50897E+00 -1.16322E+00 +3.65964E+00
 -3.21493E+00 +5.00729E-01 -1.52451E+00 -2.75522E+00 +2.13129E+00 -2.87013E+00 +4.09284E+00 +2.83855E-01
 +2.39396E+00 +3.65252E+00 -1.36209E+00 +4.00870E+00 -3.61289E+00 +1.07659E+00 -2.31373E+00 -2.25387E+00
 +1.11590E+00 -2.77785E+00 +3.23127E+00 -7.83073E-02 +1.93259E+00 +3.12484E+00 -1.52893E+00 +3.66554E+00
 -3.82347E+00 +1.00239E+00 -2.79966E+00 -2.30701E+00 +4.60993E-01 -3.13571E+00 +2.75390E+00 -8.16447E-01
 +1.88916E+00 +2.26680E+00 -1.21587E+00 +3.04658E+00 -3.48907E+00 +7.49991E-01 -2.71685E+00 -2.40268E+00
 +3.36420E-01 -3.40449E+00 +2.72980E+00 -1.37957E+00 +2.22967E+00 +1.62040E+00 -5.54093E-01 +2.66207E+00
 -2.82410E+00 +7.79468E-01 -2.34604E+00 -2.14132E+00 +4.09184E-01 -3.24929E+00 +2.78344E+00 -1.50080E+00
 +2.54539E+00 +1.37821E+00 +2.82667E-02 +2.62279E+00 -2.25698E+00 +1.11692E+00 -2.09626E+00 -1.57610E+00
 +3.03861E-01 -2.79068E+00 +2.57993E+00 -1.35552E+00 +2.54496E+00 +1.31860E+00 +2.88055E-01 +2.66620E+00
 -1.97448E+00 +1.46575E+00 -2.08983E+00 -1.02511E+00 -3.50451E-02 -2.35114E+00 +2.12504E+00 -1.25470E+00
 +2.28550E+00 +1.15201E+00 +3.25177E-01 +2.52778E+00 -1.83794E+00 +1.58880E+00 -2.15142E+00 -6.92441E-01
 -4.01112E-01 -2.09268E+00 +1.64468E+00 -1.31078E+00 +1.99767E+00 +8.16407E-01 +3.63162E-01 +2.19006E+00
 -1.63655E+00 +1.50509E+00 -2.08407E+00 -5.27450E-01 -6.13266E-01 -1.93352E+00 +1.29754E+00 -1.41114E+00
 +1.80886E+00 +4.50171E-01 +4.92227E-01 +1.80637E+00 -1.31631E+00 +1.37081E+00 -1.86375E+00 -3.78937E-01
 -6.71369E-01 -1.72932E+00 +1.06153E+00 -1.41770E+00 +1.67283E+00 +1.82870E-01 +6.41631E-01 +1.49081E+00
 -9.67171E-01 +1.27653E+00 -1.58975E+00 -1.83493E-01 -6.74744E-01 -1.44095E+00 +8.41330E-01 -1.30936E+00
 +1.49722E+00 +2.15300E-02 +7.20542E-01 +1.23538E+00 -6.75606E-01 +1.19607E+00 -1.33712E+00 +1.44199E-02
 -6.80505E-01 -1.12543E+00 +5.98931E-01 -1.14686E+00 +1.25859E+00 -9.19058E-02 +7.14355E-01 +9.85361E-01
 -4.49220E-01 +1.07497E+00 -1.10357E+00 +1.59223E-01 -6.72944E-01 -8.35871E-01 +3.62606E-01 -9.74148E-01
 +9.91613E-01 -1.87673E-01 +6.56700E-01 +7.22955E-01 -2.58882E-01 +9.02284E-01 -8.62341E-01 +2.42101E-01
 -6.23642E-01 -5.78695E-01 +1.63194E-01 -7.91099E-01 +7.25257E-01 -2.56047E-01 +5.68739E-01 +4.65438E-01
 -9.35340E-02 +6.96482E-01 -6.09104E-01 +2.77047E-01 -5.29002E-01 -3.45014E-01 +6.72302E-03 -5.89778E-01
 +4.65845E-01 -2.85862E-01 +4.52376E-01 +2.26893E-01 +4.22484E-02 +4.69803E-01 -3.51653E-01 +2.69750E-01
 -3.93983E-01 -1.35696E-01 -1.05340E-01 -3.72641E-01 +2.19306E-01 -2.75557E-01 +3.12606E-01 +1.42307E-02
 +1.48919E-01 +2.30826E-01 -9.25728E-02 +2.25809E-01 -2.19370E-01 +5.11455E-02 -1.68893E-01 -1.37339E-01
 -7.50460E-03 -2.17110E-01 +1.53144E-01 -1.57616E-01 +2.22505E-01 -2.73814E-03 +1.57105E-01 +1.59817E-01
 -1.84744E-02 +2.24458E-01 -1.95499E-01 +1.21999E-01 -2.25074E-01 -1.03310E-01 -4.00145E-02 -2.78892E-01
 +2.41687E-01 -2.22539E-01 +3.69942E-01 +7.26503E-02 +1.80917E-01 +3.74665E-01 -2.07577E-01 +3.87870E-01
 -4.49251E-01 +4.57340E-02 -2.79455E-01 -3.69296E-01 +1.93668E-01 -4.49765E-01 +5.33700E-01 -6.27854E-02
 +3.72403E-01 +4.66877E-01 -2.00159E-01 +6.21106E-01 -6.62648E-01 +1.93410E-01 -5.39506E-01 -4.57921E-01
 +1.07069E-01 -7.06125E-01 +6.78177E-01 -2.64366E-01 +5.89698E-01 +4.84953E-01 -1.32025E-01 +8.09979E-01
 -8.16900E-01 +3.38383E-01 -7.70251E-01 -5.31351E-01 +2.61130E-02 -9.64474E-01 +8.38054E-01 -4.96544E-01
 +8.59195E-01 +4.67986E-01 +1.81646E-02 +9.96567E-01 -8.95315E-01 +5.28760E-01 -9.63945E-01 -5.33318E-01
 -5.64225E-02 -1.16318E+00 +9.88484E-01 -6.99579E-01 +1.14144E+00 +4.66735E-01 +2.02380E-01 +1.22007E+00
 -9.50446E-01 +7.94140E-01 -1.17809E+00 -4.41458E-01 -2.05681E-01 -1.28856E+00 +1.05658E+00 -8.73964E-01
 +1.36107E+00 +4.61157E-01 +3.51177E-01 +1.44028E+00 -1.03931E+00 +1.07892E+00 -1.45586E+00 -3.20533E-01
 -4.53102E-01 -1.41140E+00 +1.02164E+00 -1.09750E+00 +1.51139E+00 +3.64822E-01 +4.78047E-01 +1.56455E+00
 -1.12412E+00 +1.29177E+00 -1.73675E+00 -2.51444E-01 -7.21563E-01 -1.59650E+00 +9.71339E-01 -1.41827E+00
 +1.68837E+00 +1.44746E-01 +6.88197E-01 +1.57577E+00 -1.09067E+00 +1.43648E+00 -1.90273E+00 -2.03324E-01
 -8.98819E-01 -1.78349E+00 +1.00275E+00 -1.75004E+00 +1.96900E+00 -9.39391E-02 +1.03817E+00 +1.59239E+00
 -9.02415E-01 +1.64312E+00 -1.94020E+00 -3.42805E-02 -1.00066E+00 -1.82141E+00 +1.06501E+00 -1.94090E+00
 +2.26681E+00 -2.09718E-01 +1.41123E+00 +1.73606E+00 -6.99021E-01 +2.00904E+00 -2.00683E+00 +3.27925E-01
 -1.20123E+00 -1.66464E+00 +9.68817E-01 -1.97720E+00 +2.38316E+00 -2.28405E-01 +1.61042E+00 +1.93663E+00
 -6.63027E-01 +2.42107E+00 -2.26117E+00 +7.33533E-01 -1.63062E+00 -1.49234E+00 +6.14728E-01 -2.06326E+00
 +2.25341E+00 -3.77692E-01 +1.61374E+00 +1.94670E+00 -7.65450E-01 +2.62115E+00 -2.61938E+00 +9.27613E-01
 -2.15280E+00 -1.54239E+00 +1.84059E-01 -2.41011E+00 +2.09769E+00 -8.36489E-01 +1.67665E+00 +1.62392E+00
 -7.18201E-01 +2.51101E+00 -2.76712E+00 +8.66328E-01 -2.43964E+00 -1.79525E+00 +2.59531E-03 -2.93171E+00
 +2.22454E+00 -1.45561E+00 +2.08005E+00 +1.17415E+00 -2.74929E-01 +2.34800E+00 -2.50034E+00 +8.55624E-01
 -2.34056E+00 -1.90035E+00 +1.54587E-01 -3.24222E+00 +2.64225E+00 -1.82948E+00 +2.75342E+00 +1.00465E+00
 +4.18187E-01 +2.52531E+00 -2.03579E+00 +1.26327E+00 -2.13960E+00 -1.52487E+00 +2.91036E-01 -3.05553E+00
 +2.94242E+00 -1.73386E+00 +3.24110E+00 +1.26246E+00 +8.76283E-01 +3.10228E+00 -1.86816E+00 +2.05758E+00
 -2.32482E+00 -7.89648E-01 -5.65769E-02 -2.57906E+00 +2.68893E+00 -1.46173E+00 +3.15570E+00 +1.57083E+00
 +7.79828E-01 +3.62539E+00 -2.23132E+00 +2.72272E+00 -3.03269E+00 -2.53122E-01 -9.22707E-01 -2.39380E+00
 +1.95007E+00 -1.59970E+00 +2.66912E+00 +1.35245E+00 +4.06041E-01 +3.54348E+00 -2.74390E+00 +2.75462E+00
 -3.78575E+00 -3.49241E-01 -1.74966E+00 -2.84343E+00 +1.34345E+00 -2.38773E+00 +2.43901E+00 +4.78093E-01
 +4.35252E-01 +2.84252E+00 -2.72013E+00 +2.25962E+00 -3.91373E+00 -8.46671E-01 -1.90808E+00 -3.57177E+00
 +1.43100E+00 -3.35322E+00 +2.93746E+00 -4.79411E-01 +1.23414E+00 +2.17594E+00 -1.90918E+00 +1.95292E+00
 -3.29099E+00 -9.86013E-01 -1.40743E+00 -3.79487E+00 +2.06027E+00 -3.71250E+00 +3.86778E+00 -7.65942E-01
 +2.36961E+00 +2.23895E+00 -8.65425E-01 +2.44634E+00 -2.57555E+00 -2.57008E-01 -9.92442E-01 -3.11882E+00
 +2.41738E+00 -3.20285E+00 +4.36867E+00 -2.64956E-01 +2.96102E+00 +2.99062E+00 -4.56610E-01 +3.53827E+00
 -2.59093E+00 +9.84232E-01 -1.41617E+00 -2.04167E+00 +1.84092E+00 -2.44996E+00 +3.89013E+00 +2.84634E-01
 +2.59039E+00 +3.59587E+00 -9.48721E-01 +4.32071E+00 -3.43630E+00 +1.78711E+00 -2.60527E+00 -1.52267E+00
 +5.73392E-01 -2.38947E+00 +2.83523E+00 -1.58358E-03 +1.81150E+00 +3.24599E+00 -1.64851E+00 +4.08548E+00
 -4.29498E+00 +1.57018E+00 -3.64352E+00 -1.99182E+00 -4.00701E-01 -3.28171E+00 +2.22262E+00 -1.20560E+00
 +1.64505E+00 +2.03791E+00 -1.56182E+00 +3.10512E+00 -4.22702E+00 +7.76934E-01 -3.67480E+00 -2.84230E+00
 -3.40274E-01 -4.37091E+00 +2.64959E+00 -2.44614E+00 +2.52319E+00 +9.47765E-01 -4.33742E-01 +2.41787E+00
 -3.16024E+00 +4.76860E-01 -2.81241E+00 -3.00244E+00 +4.54912E-01 -4.61363E+00 +3.63351E+00 -2.74167E+00
 +3.79254E+00 +8.59927E-01 +9.33399E-01 +2.77909E+00 -2.01752E+00 +1.27231E+00 -2.06993E+00 -2.03878E+00
 +9.09192E-01 -3.75629E+00 +4.06562E+00 -2.02769E+00 +4.34361E+00 +1.64312E+00 +1.46611E+00 +3.86118E+00
 -1.79843E+00 +2.64858E+00 -2.33930E+00 -6.34117E-01 +2.64502E-01 -2.62524E+00 +3.34143E+00 -1.24848E+00
 +3.74219E+00 +2.26079E+00 +9.15916E-01 +4.56346E+00 -2.55355E+00 +3.47431E+00 -3.46859E+00 +8.78278E-02
 -1.13069E+00 -2.29759E+00 +1.99101E+00 -1.40012E+00 +2.68055E+00 +1.82566E+00 +1.16778E-01 +4.13087E+00
 -3.32923E+00 +3.14873E+00 -4.41112E+00 -2.98264E-01 -2.16998E+00 -3.00622E+00 +1.14206E+00 -2.51482E+00
 +2.26936E+00 +5.04014E-01 +1.28543E-01 +2.91821E+00 -3.14527E+00 +2.20175E+00 -4.29289E+00 -1.10218E+00
 -2.11237E+00 -3.91860E+00 +1.37675E+00 -3.64217E+00 +2.91117E+00 -6.68007E-01 +1.16270E+00 +2.01055E+00
