 Created: 16-Jan-2021
 $NMID
 ID='D:\BASISSIMULATI'
 FMTDAT='(8E13.5)'
 VOLUME=   1.00000E+00
 TRAMP=   1.00000E+00
 $END
 +9.59389E+00 +1.08402E-02 +9.01202E+00 +3.00477E+00 +7.48853E+00 +5.60446E+00 +5.22643E+00 +7.51911E+00
 +2.51438E+00 +8.55124E+00 -3.13432E-01 +8.61968E+00 -2.92249E+00 +7.76597E+00 -5.02143E+00 +6.14397E+00
 -6.39799E+00 +3.99455E+00 -6.94247E+00 +1.60984E+00 -6.65619E+00 -7.07792E-01 -5.64439E+00 -2.68572E+00
 -4.09558E+00 -4.11452E+00 -2.25096E+00 -4.87078E+00 -3.69029E-01 -4.92652E+00 +1.30949E+00 -4.34514E+00
 +2.59139E+00 -3.26539E+00 +3.35174E+00 -1.87668E+00 +3.54365E+00 -3.89884E-01 +3.19668E+00 +9.91775E-01
 +2.40530E+00 +2.09778E+00 +1.31021E+00 +2.80834E+00 +7.58269E-02 +3.06368E+00 -1.13245E+00 +2.86456E+00
 -2.16805E+00 +2.26500E+00 -2.91793E+00 +1.35961E+00 -3.31103E+00 +2.67802E-01 -3.32047E+00 -8.82263E-01
 -2.96040E+00 -1.96798E+00 -2.27904E+00 -2.88336E+00 -1.34977E+00 -3.54632E+00 -2.61645E-01 -3.90219E+00
 +8.89156E-01 -3.92438E+00 +2.00657E+00 -3.61292E+00 +3.00036E+00 -2.99207E+00 +3.79060E+00 -2.10744E+00
 +4.31158E+00 -1.02311E+00 +4.51539E+00 +1.81534E-01 +4.37554E+00 +1.41558E+00 +3.89037E+00 +2.58149E+00
 +3.08563E+00 +3.58147E+00 +2.01547E+00 +4.32535E+00 +7.60977E-01 +4.73943E+00 -5.74486E-01 +4.77543E+00
 -1.87332E+00 +4.41811E+00 -3.01472E+00 +3.69029E+00 -3.88772E+00 +2.65382E+00 -4.40465E+00 +1.40574E+00
 -4.51302E+00 +6.95197E-02 -4.20406E+00 -1.21806E+00 -3.51609E+00 -2.32286E+00 -2.53187E+00 -3.13015E+00
 -1.36974E+00 -3.55976E+00 -1.69550E-01 -3.57734E+00 +9.25058E-01 -3.19984E+00 +1.78551E+00 -2.49407E+00
 +2.31560E+00 -1.56831E+00 +2.46468E+00 -5.57954E-01 +2.23469E+00 +3.92939E-01 +1.67982E+00 +1.15155E+00
 +8.98859E-01 +1.61476E+00 +2.10645E-02 +1.72355E+00 -8.12280E-01 +1.47104E+00 -1.46801E+00 +9.03182E-01
 -1.84002E+00 +1.11860E-01 -1.86416E+00 -7.78535E-01 -1.52712E+00 -1.62902E+00 -8.67903E-01 -2.30580E+00
 +2.80266E-02 -2.69912E+00 +1.04113E+00 -2.73836E+00 +2.03465E+00 -2.40143E+00 +2.87357E+00 -1.71720E+00
 +3.44282E+00 -7.60909E-01 +3.66229E+00 +3.56729E-01 +3.49666E+00 +1.50481E+00 +2.95883E+00 +2.54971E+00
 +2.10688E+00 +3.37230E+00 +1.03520E+00 +3.88239E+00 -1.38684E-01 +4.02881E+00 -1.28954E+00 +3.80392E+00
 -2.29993E+00 +3.24229E+00 -3.07375E+00 +2.41418E+00 -3.54617E+00 +1.41502E+00 -3.68900E+00 +3.52641E-01
 -3.51112E+00 -6.66071E-01 -3.05451E+00 -1.54714E+00 -2.38660E+00 -2.21888E+00 -1.59053E+00 -2.63775E+00
 -7.54516E-01 -2.79031E+00 +3.81337E-02 -2.69161E+00 +7.17353E-01 -2.38053E+00 +1.23218E+00 -1.91312E+00
 +1.55388E+00 -1.35491E+00 +1.67636E+00 -7.73184E-01 +1.61422E+00 -2.30131E-01 +1.39913E+00 +2.22704E-01
 +1.07498E+00 +5.48231E-01 +6.92566E-01 +7.25904E-01 +3.04335E-01 +7.52157E-01 -4.05336E-02 +6.39444E-01
 -3.00337E-01 +4.14129E-01 -4.44238E-01 +1.13489E-01 -4.54729E-01 -2.17945E-01 -3.29082E-01 -5.32507E-01
 -7.97119E-02 -7.83780E-01 +2.66624E-01 -9.31029E-01 +6.70854E-01 -9.43390E-01 +1.08484E+00 -8.03491E-01
 +1.45574E+00 -5.10115E-01 +1.73121E+00 -7.95212E-02 +1.86506E+00 +4.54899E-01 +1.82287E+00 +1.04482E+00
 +1.58673E+00 +1.63104E+00 +1.15877E+00 +2.14916E+00 +5.62557E-01 +2.53635E+00 -1.57732E-01 +2.73862E+00
 -9.40701E-01 +2.71757E+00 -1.71337E+00 +2.45597E+00 -2.39864E+00 +1.96116E+00 -2.92370E+00 +1.26578E+00
 -3.22851E+00 +4.25653E-01 -3.27322E+00 -4.85339E-01 -3.04363E+00 -1.38267E+00 -2.55375E+00 -2.18022E+00
 -1.84529E+00 -2.79988E+00 -9.83739E-01 -3.18052E+00 -5.15899E-02 -3.28523E+00 +8.60599E-01 -3.10588E+00
 +1.66428E+00 -2.66440E+00 +2.28293E+00 -2.01054E+00 +2.66069E+00 -1.21632E+00 +2.76876E+00 -3.67846E-01
 +2.60848E+00 +4.44625E-01 +2.21104E+00 +1.13707E+00 +1.63347E+00 +1.64136E+00 +9.51735E-01 +1.91304E+00
 +2.51481E-01 +1.93625E+00 -3.82249E-01 +1.72516E+00 -8.75217E-01 +1.32189E+00 -1.17283E+00 +7.90975E-01
 -1.24657E+00 +2.11249E-01 -1.09721E+00 -3.34042E-01 -7.54505E-01 -7.67608E-01 -2.73313E-01 -1.02774E+00
 +2.73348E-01 -1.07604E+00 +8.03478E-01 -9.02286E-01 +1.23642E+00 -5.25909E-01 +1.50308E+00 +6.24146E-03
 +1.55481E+00 +6.25470E-01 +1.36983E+00 +1.24957E+00 +9.56498E-01 +1.79290E+00 +3.52818E-01 +2.17705E+00
 -3.77611E-01 +2.34073E+00 -1.15288E+00 +2.24769E+00 -1.88237E+00 +1.89181E+00 -2.47761E+00 +1.29848E+00
 -2.86296E+00 +5.22224E-01 -2.98496E+00 -3.59175E-01 -2.81913E+00 -1.25352E+00 -2.37334E+00 -2.06484E+00
 -1.68735E+00 -2.70459E+00 -8.28580E-01 -3.10208E+00 +1.15469E-01 -3.21287E+00 +1.04723E+00 -3.02406E+00
 +1.87027E+00 -2.55593E+00 +2.50041E+00 -1.85956E+00 +2.87537E+00 -1.01094E+00 +2.96176E+00 -1.02085E-01
 +2.75877E+00 +7.69627E-01 +2.29789E+00 +1.51271E+00 +1.63893E+00 +2.05203E+00 +8.62740E-01 +2.33725E+00
 +6.15860E-02 +2.34829E+00 -6.71742E-01 +2.09724E+00 -1.25473E+00 +1.62645E+00 -1.62462E+00 +1.00318E+00
 -1.74555E+00 +3.11403E-01 -1.61245E+00 -3.58287E-01 -1.25141E+00 -9.19415E-01 -7.16407E-01 -1.29986E+00
 -8.28431E-02 -1.45040E+00 +5.61388E-01 -1.35067E+00 +1.12632E+00 -1.01174E+00 +1.53067E+00 -4.75217E-01
 +1.71169E+00 +1.91290E-01 +1.63314E+00 +9.01676E-01 +1.29029E+00 +1.56120E+00 +7.11479E-01 +2.07756E+00
 -4.41052E-02 +2.37206E+00 -8.92304E-01 +2.38957E+00 -1.73300E+00 +2.10614E+00 -2.46136E+00 +1.53327E+00
 -2.98017E+00 +7.18252E-01 -3.21183E+00 -2.59681E-01 -3.10863E+00 -1.29725E+00 -2.66001E+00 -2.27824E+00
 -1.89576E+00 -3.08676E+00 -8.84414E-01 -3.62118E+00 +2.72980E-01 -3.80704E+00 +1.45354E+00 -3.60733E+00
 +2.52634E+00 -3.02868E+00 +3.36798E+00 -2.12244E+00 +3.87780E+00 -9.80295E-01 +3.99110E+00 +2.75398E-01
 +3.68828E+00 +1.50554E+00 +2.99866E+00 +2.57084E+00 +1.99827E+00 +3.34905E+00 +8.01510E-01 +3.75053E+00
 -4.52243E-01 +3.73012E+00 -1.61571E+00 +3.29362E+00 -2.55211E+00 +2.49774E+00 -3.15265E+00 +1.44351E+00
 -3.35053E+00 +2.63774E-01 -3.12967E+00 -8.93686E-01 -2.52688E+00 -1.88506E+00 -1.62702E+00 -2.58907E+00
 -5.51797E-01 -2.92252E+00 +5.56256E-01 -2.85083E+00 +1.55251E+00 -2.39204E+00 +2.30907E+00 -1.61380E+00
 +2.73115E+00 -6.23843E-01 +2.76883E+00 +4.44769E-01 +2.42255E+00 +1.45138E+00 +1.74191E+00 +2.26612E+00
 +8.17996E-01 +2.78630E+00 -2.29519E-01 +2.94876E+00 -1.26848E+00 +2.73657E+00 -2.17133E+00 +2.17947E+00
 -2.83081E+00 +1.34828E+00 -3.17225E+00 +3.44349E-01 -3.16100E+00 -7.14219E-01 -2.80445E+00 -1.70760E+00
 -2.14863E+00 -2.52839E+00 -1.27048E+00 -3.09319E+00 -2.67024E-01 -3.35029E+00 +7.56796E-01 -3.28298E+00
 +1.69993E+00 -2.90851E+00 +2.47534E+00 -2.27339E+00 +3.01738E+00 -1.44614E+00 +3.28607E+00 -5.08660E-01
 +3.26822E+00 +4.52515E-01 +2.97604E+00 +1.35411E+00 +2.44367E+00 +2.12255E+00 +1.72267E+00 +2.69875E+00
 +8.76994E-01 +3.04111E+00 -2.21371E-02 +3.12724E+00 -9.01087E-01 +2.95451E+00 -1.68848E+00 +2.53981E+00
 -2.31974E+00 +1.91855E+00 -2.74152E+00 +1.14288E+00 -2.91611E+00 +2.78868E-01 -2.82537E+00 -5.97580E-01
 -2.47388E+00 -1.40616E+00 -1.89060E+00 -2.06898E+00 -1.12846E+00 -2.51819E+00 -2.61284E-01 -2.70390E+00
 +6.22080E-01 -2.60118E+00 +1.42632E+00 -2.21511E+00 +2.06005E+00 -1.58280E+00 +2.44703E+00 -7.71626E-01
 +2.53661E+00 +1.26717E-01 +2.31180E+00 +1.00590E+00 +1.79367E+00 +1.75749E+00 +1.04088E+00 +2.28481E+00
 +1.44028E-01 +2.51614E+00 -7.84684E-01 +2.41544E+00 -1.62545E+00 +1.98868E+00 -2.26661E+00 +1.28469E+00
 -2.61999E+00 +3.90030E-01 -2.63350E+00 -5.81599E-01 -2.29915E+00 -1.50414E+00 -1.65501E+00 -2.25612E+00
 -7.80708E-01 -2.73724E+00 +2.12973E-01 -2.88239E+00 +1.19906E+00 -2.67065E+00 +2.05173E+00 -2.12826E+00
 +2.66345E+00 -1.32482E+00 +2.95953E+00 -3.63360E-01 +2.90775E+00 +6.34180E-01 +2.52194E+00 +1.54395E+00
 +1.85882E+00 +2.25709E+00 +1.00896E+00 +2.69405E+00 +8.30927E-02 +2.81429E+00 -8.03781E-01 +2.61999E+00
 -1.54831E+00 +2.15359E+00 -2.07215E+00 +1.48960E+00 -2.33104E+00 +7.22337E-01 -2.31833E+00 -4.84311E-02
 -2.06283E+00 -7.31660E-01 -1.62169E+00 -1.25681E+00 -1.06964E+00 -1.58162E+00 -4.86677E-01 -1.69503E+00
 +5.38970E-02 -1.61508E+00 +4.95075E-01 -1.38264E+00 +8.02194E-01 -1.05236E+00 +9.64713E-01 -6.82546E-01
 +9.93908E-01 -3.25785E-01 +9.17306E-01 -2.18133E-02 +7.71206E-01 +2.06374E-01 +5.92837E-01 +3.52882E-01
 +4.13654E-01 +4.26105E-01 +2.54884E-01 +4.43658E-01 +1.25946E-01 +4.26347E-01 +2.56978E-02 +3.92526E-01
 -5.40567E-02 +3.54005E-01 -1.23839E-01 +3.14267E-01 -1.91752E-01 +2.69205E-01 -2.59869E-01 +2.10033E-01
 -3.22610E-01 +1.27542E-01 -3.67485E-01 +1.66029E-02 -3.78042E-01 -1.20222E-01 -3.38341E-01 -2.70924E-01
 -2.37958E-01 -4.14673E-01 -7.63080E-02 -5.24868E-01 +1.34756E-01 -5.74082E-01 +3.70840E-01 -5.39966E-01
 +5.97639E-01 -4.10897E-01 +7.76015E-01 -1.90149E-01 +8.68693E-01 +1.02412E-01 +8.47376E-01 +4.31656E-01
 +6.98936E-01 +7.51554E-01 +4.29424E-01 +1.01197E+00 +6.49921E-02 +1.16678E+00 -3.50647E-01 +1.18201E+00
 -7.61986E-01 +1.04240E+00 -1.10987E+00 +7.55240E-01 -1.34077E+00 +3.50657E-01 -1.41552E+00 -1.21864E-01
 -1.31622E+00 -6.00321E-01 -1.04986E+00 -1.01931E+00 -6.48048E-01 -1.32001E+00 -1.62897E-01 -1.45935E+00
 +3.40551E-01 -1.41692E+00 +7.93983E-01 -1.19836E+00 +1.13613E+00 -8.34749E-01 +1.32200E+00 -3.77944E-01
 +1.32961E+00 +1.07255E-01 +1.16313E+00 +5.52971E-01 +8.51837E-01 +8.98483E-01 +4.45338E-01 +1.09922E+00
 +5.62312E-03 +1.13311E+00 -4.02569E-01 +1.00327E+00 -7.21587E-01 +7.36828E-01 -9.09304E-01 +3.79971E-01
 -9.44894E-01 -9.70744E-03 -8.31098E-01 -3.72364E-01 -5.92778E-01 -6.55036E-01 -2.72123E-01 -8.19298E-01
 +7.85733E-02 -8.46325E-01 +4.05324E-01 -7.38675E-01 +6.60641E-01 -5.18690E-01 +8.10245E-01 -2.23964E-01
 +8.37326E-01 +9.92376E-02 +7.43842E-01 +4.03423E-01 +5.48861E-01 +6.46965E-01 +2.84432E-01 +7.99740E-01
 -1.01601E-02 +8.46538E-01 -2.94719E-01 +7.87908E-01 -5.33969E-01 +6.38541E-01 -7.02032E-01 +4.23686E-01
 -7.84978E-01 +1.74388E-01 -7.81246E-01 -7.75525E-02 -7.00157E-01 -3.04055E-01 -5.58987E-01 -4.84009E-01
 -3.79317E-01 -6.04937E-01 -1.83362E-01 -6.63035E-01 +9.06199E-03 -6.61856E-01 +1.82522E-01 -6.10120E-01
 +3.26740E-01 -5.19212E-01 +4.36254E-01 -4.00947E-01 +5.09288E-01 -2.65981E-01 +5.46295E-01 -1.23103E-01
 +5.48601E-01 +2.06526E-02 +5.17552E-01 +1.59273E-01 +4.54336E-01 +2.86808E-01 +3.60492E-01 +3.96577E-01
