 Created: 16-Jan-2021
 $NMID
 ID='D:\BASISSIMULATI'
 FMTDAT='(8E13.5)'
 VOLUME=   1.00000E+00
 TRAMP=   1.00000E+00
 $END
 +1.13112E+01 +1.28336E-02 +8.21730E+00 +3.96756E+00 +1.16474E+00 +6.13909E+00 -5.19895E+00 +5.49418E+00
 -6.90894E+00 +2.20565E+00 -3.31396E+00 -2.15148E+00 +2.73281E+00 -5.14946E+00 +7.09711E+00 -4.82116E+00
 +7.24343E+00 -1.04908E+00 +3.69981E+00 +4.03355E+00 -7.37949E-01 +7.20835E+00 -3.20155E+00 +6.33052E+00
 -2.61981E+00 +1.97387E+00 -4.75561E-02 -2.78438E+00 +2.45916E+00 -4.48092E+00 +3.34284E+00 -1.82071E+00
 +2.34117E+00 +3.27297E+00 +2.80821E-01 +7.00930E+00 -1.65843E+00 +6.54722E+00 -2.57016E+00 +2.16095E+00
 -2.08270E+00 -2.92312E+00 -4.04504E-01 -4.92584E+00 +1.68143E+00 -2.33611E+00 +2.97806E+00 +2.98108E+00
 +2.40035E+00 +7.19570E+00 -2.34567E-01 +7.32814E+00 -3.71827E+00 +3.34233E+00 -5.88561E+00 -1.97287E+00
 -4.98571E+00 -5.10619E+00 -1.12866E+00 -4.25651E+00 +3.39065E+00 -3.58310E-01 +5.42505E+00 +3.84356E+00
 +3.21014E+00 +5.77316E+00 -2.13507E+00 +4.57089E+00 -7.12578E+00 +1.28866E+00 -8.27207E+00 -2.08824E+00
 -4.63104E+00 -3.89426E+00 +1.38355E+00 -3.51222E+00 +5.63775E+00 -1.39106E+00 +5.21897E+00 +1.34211E+00
 +5.16835E-01 +3.34767E+00 -5.09848E+00 +3.54271E+00 -7.73832E+00 +1.60365E+00 -5.74764E+00 -1.66904E+00
 -7.40342E-01 -4.51117E+00 +3.73677E+00 -5.09179E+00 +4.79689E+00 -2.76860E+00 +2.11991E+00 +1.19249E+00
 -2.10358E+00 +4.18181E+00 -4.93265E+00 +3.95619E+00 -4.70700E+00 +3.59928E-01 -1.92591E+00 -4.30835E+00
 +1.42067E+00 -6.76453E+00 +3.33441E+00 -5.11091E+00 +2.97963E+00 -3.54269E-01 +9.00217E-01 +4.17266E+00
 -1.56720E+00 +5.17795E+00 -3.09600E+00 +1.84845E+00 -2.92730E+00 -3.48811E+00 -1.09365E+00 -7.01900E+00
 +1.59281E+00 -6.20972E+00 +3.78176E+00 -1.62331E+00 +4.14544E+00 +3.53169E+00 +2.17098E+00 +5.73853E+00
 -1.26512E+00 +3.63586E+00 -4.11517E+00 -1.15911E+00 -4.32279E+00 -5.34139E+00 -1.30827E+00 -6.25243E+00
 +3.32232E+00 -3.55315E+00 +6.58391E+00 +8.18050E-01 +6.09283E+00 +4.14205E+00 +1.87169E+00 +4.67169E+00
 -3.43058E+00 +2.48843E+00 -6.24087E+00 -8.70865E-01 -4.56621E+00 -3.50330E+00 +5.21147E-01 -4.15180E+00
 +5.56906E+00 -2.65941E+00 +7.16084E+00 +1.37023E-01 +4.31490E+00 +2.84387E+00 -8.79140E-01 +4.09602E+00
 -4.82119E+00 +3.18052E+00 -4.97007E+00 +4.99153E-01 -1.53873E+00 -2.45843E+00 +2.84375E+00 -3.83730E+00
 +5.12644E+00 -2.58128E+00 +3.95296E+00 +6.98224E-01 +4.13016E-01 +3.89631E+00 -2.94594E+00 +4.73238E+00
 -3.96631E+00 +2.40629E+00 -2.23114E+00 -1.63870E+00 +8.98478E-01 -4.56184E+00 +3.36530E+00 -4.11758E+00
 +3.73568E+00 -3.78921E-01 +1.92031E+00 +4.14955E+00 -9.72451E-01 +6.22979E+00 -3.35682E+00 +4.22396E+00
 -3.97891E+00 -6.52975E-01 -2.47378E+00 -5.12356E+00 +4.64777E-01 -6.13848E+00 +3.34096E+00 -3.01132E+00
 +4.52237E+00 +2.13449E+00 +3.12610E+00 +5.88530E+00 -3.15707E-01 +5.88351E+00 -3.92636E+00 +2.33054E+00
 -5.46901E+00 -2.32540E+00 -3.77882E+00 -5.15537E+00 +3.02264E-01 -4.64988E+00 +4.26851E+00 -1.49309E+00
 +5.51924E+00 +2.13719E+00 +3.15681E+00 +4.08095E+00 -1.28467E+00 +3.45324E+00 -4.80534E+00 +9.45128E-01
 -5.00342E+00 -1.81005E+00 -1.78058E+00 -3.25621E+00 +2.56877E+00 -2.71095E+00 +4.98429E+00 -6.12278E-01
 +3.81740E+00 +1.78463E+00 -1.79674E-02 +3.06895E+00 -3.74096E+00 +2.42047E+00 -4.71073E+00 +1.18036E-01
 -2.27627E+00 -2.49692E+00 +1.83377E+00 -3.71187E+00 +4.78800E+00 -2.50975E+00 +4.62019E+00 +6.28844E-01
 +1.49956E+00 +3.81902E+00 -2.49825E+00 +4.87840E+00 -4.84016E+00 +2.82345E+00 -4.15139E+00 -1.28196E+00
 -9.63529E-01 -4.84238E+00 +2.75754E+00 -5.40030E+00 +4.86505E+00 -2.36268E+00 +4.24522E+00 +2.46091E+00
 +1.33760E+00 +5.97703E+00 -2.20929E+00 +5.87275E+00 -4.46571E+00 +2.19967E+00 -4.23248E+00 -2.64388E+00
 -1.66047E+00 -5.53003E+00 +1.81169E+00 -4.68918E+00 +4.20293E+00 -8.29457E-01 +4.08808E+00 +3.43784E+00
 +1.47166E+00 +5.40004E+00 -2.11728E+00 +3.99824E+00 -4.47612E+00 +3.80976E-01 -4.09490E+00 -3.00734E+00
 -1.18607E+00 -4.08048E+00 +2.36079E+00 -2.37905E+00 +4.16924E+00 +8.00590E-01 +2.97384E+00 +3.36566E+00
 -4.69045E-01 +3.76435E+00 -3.83919E+00 +1.86386E+00 -4.81915E+00 -1.08332E+00 -2.70230E+00 -3.26267E+00
 +1.09174E+00 -3.37702E+00 +3.97645E+00 -1.37732E+00 +3.97327E+00 +1.52687E+00 +1.06517E+00 +3.56465E+00
 -2.80482E+00 +3.43437E+00 -5.06732E+00 +1.10323E+00 -4.25254E+00 -2.10326E+00 -9.32755E-01 -4.23683E+00
 +2.71553E+00 -3.91146E+00 +4.37640E+00 -1.22863E+00 +3.07881E+00 +2.18658E+00 -2.52431E-01 +4.14859E+00
 -3.46643E+00 +3.31705E+00 -4.57575E+00 +1.29798E-01 -2.96315E+00 -3.40575E+00 +3.09854E-01 -4.98990E+00
 +3.21498E+00 -3.55798E+00 +4.00749E+00 -2.36106E-02 +2.25898E+00 +3.29422E+00 -9.14357E-01 +4.20011E+00
 -3.53631E+00 +2.08414E+00 -3.95966E+00 -1.66994E+00 -1.86762E+00 -4.60237E+00 +1.50681E+00 -4.79817E+00
 +4.09889E+00 -2.12973E+00 +4.26900E+00 +1.68500E+00 +1.84655E+00 +4.21519E+00 -1.70524E+00 +3.87665E+00
 -4.15577E+00 +9.12731E-01 -3.90214E+00 -2.79854E+00 -1.01657E+00 -4.94544E+00 +2.75046E+00 -4.21365E+00
 +5.05224E+00 -1.06658E+00 +4.43886E+00 +2.57348E+00 +1.29492E+00 +4.51675E+00 -2.39808E+00 +3.63340E+00
 -4.32758E+00 +5.20833E-01 -3.32142E+00 -2.87929E+00 -7.25718E-02 -4.47526E+00 +3.33716E+00 -3.30609E+00
 +4.78302E+00 -1.26777E-01 +3.43273E+00 +3.06836E+00 +2.27053E-01 +4.29865E+00 -2.76718E+00 +2.84674E+00
 -3.68586E+00 -2.89876E-01 -2.02640E+00 -3.04549E+00 +1.07586E+00 -3.62453E+00 +3.59698E+00 -1.66633E+00
 +3.91097E+00 +1.52700E+00 +1.80995E+00 +3.85179E+00 -1.36847E+00 +3.78597E+00 -3.58337E+00 +1.38216E+00
 -3.38388E+00 -1.77778E+00 -8.50230E-01 -3.62420E+00 +2.41953E+00 -2.94345E+00 +4.29716E+00 -1.49986E-01
 +3.48679E+00 +2.99403E+00 +3.96020E-01 +4.50565E+00 -3.07069E+00 +3.42311E+00 -4.70383E+00 +3.89911E-01
 -3.41902E+00 -2.75588E+00 +9.51317E-03 -4.10876E+00 +3.41697E+00 -2.84564E+00 +4.63438E+00 +2.83660E-01
 +2.89065E+00 +3.40407E+00 -6.95475E-01 +4.63168E+00 -3.85570E+00 +3.20432E+00 -4.64517E+00 -4.24981E-02
 -2.67027E+00 -3.15418E+00 +7.20061E-01 -4.23252E+00 +3.36229E+00 -2.61463E+00 +3.67558E+00 +6.80071E-01
 +1.61170E+00 +3.55529E+00 -1.41217E+00 +4.15959E+00 -3.48208E+00 +2.09697E+00 -3.38920E+00 -1.28112E+00
 -1.31492E+00 -3.74021E+00 +1.36736E+00 -3.64650E+00 +2.98309E+00 -1.08022E+00 +2.56897E+00 +2.19824E+00
 +4.20168E-01 +3.93578E+00 -2.11109E+00 +2.92837E+00 -3.42691E+00 -1.47734E-01 -2.64297E+00 -3.19742E+00
 -1.52941E-01 -4.14268E+00 +2.54731E+00 -2.33623E+00 +3.72377E+00 +1.01708E+00 +2.49072E+00 +3.69638E+00
 -5.40994E-01 +3.95600E+00 -3.52371E+00 +1.65039E+00 -4.47780E+00 -1.72954E+00 -2.59971E+00 -4.06699E+00
 +1.09390E+00 -3.96045E+00 +4.29944E+00 -1.53377E+00 +4.88350E+00 +1.72827E+00 +2.33301E+00 +3.92440E+00
 -1.81021E+00 +3.83842E+00 -4.89715E+00 +1.57322E+00 -4.91314E+00 -1.56982E+00 -1.83630E+00 -3.83290E+00
 +2.33489E+00 -3.95102E+00 +4.91826E+00 -1.83404E+00 +4.32906E+00 +1.35751E+00 +1.08342E+00 +3.80974E+00
 -2.63286E+00 +4.06199E+00 -4.47657E+00 +1.89614E+00 -3.46460E+00 -1.44024E+00 -4.87697E-01 -3.90713E+00
 +2.43161E+00 -3.92302E+00 +3.52606E+00 -1.42931E+00 +2.34680E+00 +1.98058E+00 -1.30762E-01 +4.05222E+00
 -2.28521E+00 +3.38400E+00 -2.89453E+00 +4.27687E-01 -1.78206E+00 -2.77436E+00 +2.31004E-01 -3.99339E+00
 +1.90424E+00 -2.39219E+00 +2.28604E+00 +8.64192E-01 +1.19000E+00 +3.43261E+00 -7.37397E-01 +3.47208E+00
 -2.35494E+00 +9.61895E-01 -2.63220E+00 -2.30024E+00 -1.26355E+00 -4.00554E+00 +1.04433E+00 -2.97945E+00
 +2.86813E+00 +2.37350E-02 +2.90041E+00 +2.90994E+00 +8.70805E-01 +3.73654E+00 -2.08964E+00 +2.01437E+00
 -4.02961E+00 -1.05838E+00 -3.45515E+00 -3.49493E+00 -4.67971E-01 -3.84111E+00 +3.11071E+00 -2.01650E+00
 +4.86171E+00 +7.84074E-01 +3.44479E+00 +2.91995E+00 -3.58898E-01 +3.25597E+00 -4.06215E+00 +1.69635E+00
 -5.13922E+00 -8.76314E-01 -2.79409E+00 -3.10128E+00 +1.44806E+00 -3.79792E+00 +4.77728E+00 -2.53011E+00
 +5.03361E+00 +1.25845E-01 +2.16080E+00 +2.76991E+00 -1.83190E+00 +3.85020E+00 -4.31528E+00 +2.56990E+00
 -3.81681E+00 -4.88823E-01 -8.88650E-01 -3.52974E+00 +2.44150E+00 -4.56973E+00 +4.12006E+00 -2.76575E+00
 +3.34946E+00 +8.74794E-01 +8.94513E-01 +4.01763E+00 -1.61934E+00 +4.53204E+00 -2.78866E+00 +2.00598E+00
 -2.16408E+00 -1.87506E+00 -3.00270E-01 -4.44456E+00 +1.71134E+00 -3.92378E+00 +2.83941E+00 -6.95654E-01
 +2.55152E+00 +2.96699E+00 +1.00618E+00 +4.53631E+00 -1.00278E+00 +3.02827E+00 -2.36650E+00 -3.50286E-01
 -2.21641E+00 -3.14761E+00 -4.98205E-01 -3.45995E+00 +1.82507E+00 -1.23403E+00 +3.23181E+00 +1.82795E+00
 +2.62086E+00 +3.59103E+00 +1.86570E-01 +2.99340E+00 -2.52279E+00 +6.57109E-01 -3.57193E+00 -1.71990E+00
 -2.04550E+00 -2.61320E+00 +1.14484E+00 -1.62250E+00 +3.76282E+00 +4.53931E-01 +3.81361E+00 +2.29636E+00
 +1.06106E+00 +2.90217E+00 -2.67754E+00 +2.05216E+00 -4.76622E+00 +2.67949E-01 -3.65687E+00 -1.53718E+00
 -5.52678E-02 -2.46283E+00 +3.54597E+00 -1.97378E+00 +4.64211E+00 -1.74251E-01 +2.49206E+00 +2.10041E+00
 -1.39935E+00 +3.55879E+00 -4.40268E+00 +3.13638E+00 -4.61644E+00 +7.71094E-01 -2.09743E+00 -2.30430E+00
 +1.34208E+00 -4.15180E+00 +3.49286E+00 -3.38362E+00 +3.20546E+00 -2.54035E-01 +9.56819E-01 +3.29573E+00
 -1.70133E+00 +4.84601E+00 -3.24666E+00 +3.20232E+00 -3.03182E+00 -6.50031E-01 -1.43021E+00 -4.13072E+00
 +5.88751E-01 -4.85431E+00 +2.02877E+00 -2.34569E+00 +2.26270E+00 +1.60093E+00 +1.20882E+00 +4.21200E+00
 -6.38372E-01 +3.72716E+00 -2.33619E+00 +6.20856E-01 -2.87314E+00 -2.82527E+00 -1.75536E+00 -4.22817E+00
 +5.28542E-01 -2.78540E+00 +2.60478E+00 +2.81840E-01 +3.01233E+00 +2.75094E+00 +1.26750E+00 +3.02585E+00
 -1.60314E+00 +1.15405E+00 -3.60771E+00 -1.40910E+00 -3.17107E+00 -2.95444E+00 -3.80659E-01 -2.65747E+00
 +2.90916E+00 -9.38491E-01 +4.32442E+00 +1.03051E+00 +2.72221E+00 +2.15150E+00 -8.75565E-01 +1.96005E+00
 -3.93692E+00 +6.89469E-01 -4.23885E+00 -9.89282E-01 -1.50879E+00 -2.27928E+00 +2.35329E+00 -2.51971E+00
 +4.64974E+00 -1.44814E+00 +3.82751E+00 +5.59679E-01 +5.47303E-01 +2.48290E+00 -2.87186E+00 +3.09715E+00
 -4.15299E+00 +1.76342E+00 -2.61631E+00 -9.47369E-01 +5.02074E-01 -3.38092E+00 +3.07190E+00 -3.79982E+00
