 Created: 16-Jan-2021
 $NMID
 ID='D:\BASISSIMULATI'
 FMTDAT='(8E13.5)'
 VOLUME=   1.00000E+00
 TRAMP=   1.00000E+00
 $END
 +1.62692E+01 +1.88705E-02 +1.24960E+01 +9.03776E+00 +3.78725E+00 +1.28769E+01 -4.80014E+00 +9.70587E+00
 -8.48627E+00 +1.76427E+00 -5.51968E+00 -6.08867E+00 +1.94184E+00 -9.29633E+00 +9.26626E+00 -6.22669E+00
 +1.21583E+01 +1.03208E+00 +9.13440E+00 +8.08586E+00 +2.22545E+00 +1.09220E+01 -4.41619E+00 +8.22619E+00
 -7.07529E+00 +1.98559E+00 -4.62783E+00 -3.88506E+00 +9.59410E-01 -5.97505E+00 +5.98863E+00 -3.37017E+00
 +7.34250E+00 +1.95203E+00 +4.32197E+00 +6.47370E+00 -1.05992E+00 +7.33862E+00 -5.42625E+00 +4.04717E+00
 -6.14119E+00 -1.34501E+00 -2.87656E+00 -5.57536E+00 +2.27547E+00 -6.19474E+00 +6.15218E+00 -3.02125E+00
 +6.46738E+00 +1.82263E+00 +3.16727E+00 +5.26104E+00 -1.59719E+00 +5.14789E+00 -4.82096E+00 +1.53821E+00
 -4.47142E+00 -3.39401E+00 -6.86411E-01 -6.70362E+00 +4.35330E+00 -6.44909E+00 +7.76572E+00 -2.82564E+00
 +7.69302E+00 +2.00052E+00 +4.37496E+00 +5.22432E+00 -5.03367E-02 +5.07815E+00 -2.86614E+00 +1.84764E+00
 -2.40326E+00 -2.35881E+00 +1.00216E+00 -4.91549E+00 +5.27011E+00 -4.25343E+00 +7.86680E+00 -7.58212E-01
 +7.32399E+00 +3.52378E+00 +4.07352E+00 +6.15928E+00 +1.18857E-01 +5.78958E+00 -2.22219E+00 +2.89728E+00
 -1.71745E+00 -5.60198E-01 +1.08602E+00 -2.39134E+00 +4.27037E+00 -1.50536E+00 +5.77166E+00 +1.47268E+00
 +4.64630E+00 +4.65652E+00 +1.60261E+00 +6.10814E+00 -1.50396E+00 +5.03284E+00 -2.86562E+00 +2.22278E+00
 -1.84349E+00 -5.01362E-01 +6.80740E-01 -1.47123E+00 +2.91985E+00 -2.16377E-01 +3.34903E+00 +2.27906E+00
 +1.67492E+00 +4.25069E+00 -1.00440E+00 +4.31026E+00 -2.93448E+00 +2.33872E+00 -2.85101E+00 -4.50138E-01
 -7.98687E-01 -2.30572E+00 +1.89922E+00 -2.07830E+00 +3.49628E+00 +3.33566E-02 +2.95222E+00 +2.60264E+00
 +6.12735E-01 +3.88651E+00 -1.99586E+00 +2.94616E+00 -3.12907E+00 +2.62835E-01 -1.93498E+00 -2.54537E+00
 +9.90217E-01 -3.73035E+00 +3.95536E+00 -2.51202E+00 +5.21734E+00 +4.23245E-01 +4.06185E+00 +3.33754E+00
 +1.24667E+00 +4.51135E+00 -1.46787E+00 +3.30100E+00 -2.40605E+00 +5.26642E-01 -1.00377E+00 -2.04588E+00
 +1.86054E+00 -2.80073E+00 +4.42857E+00 -1.26088E+00 +5.15879E+00 +1.64117E+00 +3.66963E+00 +4.16853E+00
 +9.45624E-01 +4.87158E+00 -1.31003E+00 +3.47872E+00 -1.75846E+00 +1.03299E+00 -2.57869E-01 -7.99660E-01
 +2.07467E+00 -8.03142E-01 +3.60242E+00 +1.01762E+00 +3.23242E+00 +3.45423E+00 +1.12360E+00 +4.88535E+00
 -1.41300E+00 +4.33342E+00 -2.75976E+00 +2.11035E+00 -2.04579E+00 -3.65457E-01 +2.67388E-01 -1.47238E+00
 +2.65146E+00 -4.38791E-01 +3.47344E+00 +2.12790E+00 +2.05169E+00 +4.58736E+00 -8.68089E-01 +5.28685E+00
 -3.53591E+00 +3.62181E+00 -4.27433E+00 +4.62251E-01 -2.54375E+00 -2.34284E+00 +6.77953E-01 -3.09513E+00
 +3.45937E+00 -1.31535E+00 +4.09314E+00 +1.92271E+00 +2.16436E+00 +4.62049E+00 -1.16139E+00 +5.07531E+00
 -3.82805E+00 +2.94448E+00 -4.14801E+00 -5.14211E-01 -1.85752E+00 -3.19261E+00 +1.69273E+00 -3.42567E+00
 +4.34721E+00 -1.03389E+00 +4.47052E+00 +2.53849E+00 +1.97355E+00 +5.09239E+00 -1.60291E+00 +5.02838E+00
 -4.01631E+00 +2.35389E+00 -3.70470E+00 -1.28876E+00 -7.73739E-01 -3.60917E+00 +3.03060E+00 -3.07761E+00
 +5.36561E+00 +1.08425E-01 +4.72506E+00 +4.10509E+00 +1.38528E+00 +6.51880E+00 -2.72610E+00 +5.86061E+00
 -5.17423E+00 +2.47122E+00 -4.48710E+00 -1.65671E+00 -1.05782E+00 -4.06273E+00 +3.07583E+00 -3.29699E+00
 +5.44732E+00 +2.03966E-01 +4.63871E+00 +4.37766E+00 +1.12399E+00 +6.77501E+00 -3.03065E+00 +6.02555E+00
 -5.42166E+00 +2.64008E+00 -4.74968E+00 -1.33004E+00 -1.57100E+00 -3.55721E+00 +2.08873E+00 -2.84410E+00
 +4.00494E+00 +1.88047E-01 +3.11571E+00 +3.53863E+00 +1.34776E-01 +5.10434E+00 -2.95041E+00 +3.98875E+00
 -4.16523E+00 +1.02867E+00 -2.80184E+00 -1.78160E+00 +1.50151E-01 -2.59338E+00 +2.66414E+00 -9.02331E-01
 +3.00536E+00 +2.12219E+00 +8.78657E-01 +4.39199E+00 -2.34503E+00 +4.26477E+00 -4.48487E+00 +1.64890E+00
 -3.96106E+00 -1.87020E+00 -8.66868E-01 -3.99084E+00 +2.99791E+00 -3.16066E+00 +5.19083E+00 +3.72363E-01
 +4.15276E+00 +4.60851E+00 +2.49074E-01 +6.95704E+00 -4.34733E+00 +5.82400E+00 -6.90296E+00 +1.65317E+00
 -5.77021E+00 -3.24462E+00 -1.43452E+00 -6.01036E+00 +3.69567E+00 -4.93409E+00 +6.66304E+00 -5.10953E-01
 +5.69740E+00 +4.79576E+00 +1.27875E+00 +7.96628E+00 -4.11688E+00 +7.18384E+00 -7.44945E+00 +2.89865E+00
 -6.88061E+00 -2.43762E+00 -2.82862E+00 -5.80894E+00 +2.30677E+00 -5.38896E+00 +5.57447E+00 -1.57421E+00
 +5.19747E+00 +3.30314E+00 +1.57013E+00 +6.39009E+00 -3.04706E+00 +5.99523E+00 -5.92292E+00 +2.53564E+00
 -5.48365E+00 -1.79460E+00 -2.19631E+00 -4.40040E+00 +1.79859E+00 -3.85197E+00 +4.04704E+00 -6.94145E-01
 +3.28268E+00 +2.96706E+00 +1.54138E-01 +4.81404E+00 -3.24346E+00 +3.75418E+00 -4.71521E+00 +5.60974E-01
 -3.34225E+00 -2.65684E+00 -3.59291E-02 -3.80708E+00 +3.06016E+00 -2.13541E+00 +3.93453E+00 +1.30480E+00
 +1.98224E+00 +4.31967E+00 -1.60445E+00 +4.95768E+00 -4.57163E+00 +2.74540E+00 -5.00959E+00 -9.94042E-01
 -2.55726E+00 -3.94193E+00 +1.34345E+00 -4.21472E+00 +4.30906E+00 -1.54388E+00 +4.47024E+00 +2.52598E+00
 +1.63171E+00 +5.55251E+00 -2.57818E+00 +5.67412E+00 -5.66969E+00 +2.75286E+00 -5.78915E+00 -1.51821E+00
 -2.84548E+00 -4.61692E+00 +1.41998E+00 -4.70304E+00 +4.46806E+00 -1.72704E+00 +4.48033E+00 +2.53447E+00
 +1.44696E+00 +5.54017E+00 -2.83114E+00 +5.50335E+00 -5.82543E+00 +2.45432E+00 -5.79302E+00 -1.79123E+00
 -2.80792E+00 -4.73312E+00 +1.30639E+00 -4.68715E+00 +4.09289E+00 -1.77867E+00 +3.94234E+00 +2.16392E+00
 +1.04221E+00 +4.73856E+00 -2.77315E+00 +4.42601E+00 -5.16474E+00 +1.48719E+00 -4.71577E+00 -2.23461E+00
 -1.77091E+00 -4.46923E+00 +1.81434E+00 -3.91292E+00 +3.84324E+00 -1.00374E+00 +3.13474E+00 +2.38642E+00
 +2.30175E-01 +4.13702E+00 -2.97602E+00 +3.19732E+00 -4.43853E+00 +2.21102E-01 -3.24035E+00 -2.86698E+00
 -1.53596E-01 -4.09201E+00 +2.86016E+00 -2.66891E+00 +3.88981E+00 +5.10964E-01 +2.27651E+00 +3.44547E+00
 -9.72548E-01 +4.28107E+00 -3.81403E+00 +2.47765E+00 -4.44652E+00 -8.47942E-01 -2.43956E+00 -3.61250E+00
 +9.88930E-01 -4.06118E+00 +3.71927E+00 -1.86202E+00 +4.03801E+00 +1.67824E+00 +1.69867E+00 +4.41040E+00
 -1.91895E+00 +4.65977E+00 -4.64776E+00 +2.25306E+00 -4.85367E+00 -1.37411E+00 -2.42762E+00 -4.05150E+00
 +1.15457E+00 -4.19162E+00 +3.73471E+00 -1.74487E+00 +3.78017E+00 +1.78532E+00 +1.29916E+00 +4.26690E+00
 -2.18711E+00 +4.23139E+00 -4.58585E+00 +1.74574E+00 -4.50345E+00 -1.65840E+00 -2.06973E+00 -3.93968E+00
 +1.17670E+00 -3.79158E+00 +3.25551E+00 -1.41507E+00 +2.95966E+00 +1.64254E+00 +5.72417E-01 +3.46689E+00
 -2.34356E+00 +2.96028E+00 -3.93971E+00 +4.99803E-01 -3.23383E+00 -2.32731E+00 -7.06719E-01 -3.73464E+00
 +2.02011E+00 -2.85842E+00 +3.21681E+00 -2.91375E-01 +2.13903E+00 +2.30094E+00 -5.01647E-01 +3.23829E+00
 -2.98579E+00 +1.89448E+00 -3.67407E+00 -8.95152E-01 -2.05421E+00 -3.34835E+00 +9.13332E-01 -3.85716E+00
 +3.37753E+00 -2.01624E+00 +3.75360E+00 +1.09156E+00 +1.73510E+00 +3.54477E+00 -1.47857E+00 +3.77647E+00
 -3.89758E+00 +1.57158E+00 -3.97032E+00 -1.76145E+00 -1.56634E+00 -4.16924E+00 +1.90596E+00 -4.11512E+00
 +4.33727E+00 -1.54645E+00 +4.20751E+00 +2.03981E+00 +1.53507E+00 +4.48946E+00 -2.10818E+00 +4.30364E+00
 -4.53784E+00 +1.56598E+00 -4.28414E+00 -2.09165E+00 -1.49189E+00 -4.47186E+00 +2.16223E+00 -4.14441E+00
 +4.48655E+00 -1.31242E+00 +4.10228E+00 +2.31801E+00 +1.26864E+00 +4.58102E+00 -2.29495E+00 +4.16257E+00
 -4.46999E+00 +1.37655E+00 -4.02238E+00 -2.06051E+00 -1.32095E+00 -4.09991E+00 +1.93546E+00 -3.60436E+00
 +3.78991E+00 -1.00009E+00 +3.21919E+00 +2.04418E+00 +7.11172E-01 +3.68310E+00 -2.10527E+00 +3.02411E+00
 -3.51356E+00 +6.22114E-01 -2.76702E+00 -1.94072E+00 -4.94176E-01 -3.09046E+00 +1.77272E+00 -2.23985E+00
 +2.61177E+00 -9.88954E-02 +1.60557E+00 +1.84884E+00 -4.46155E-01 +2.33689E+00 -2.10311E+00 +1.12324E+00
 -2.25114E+00 -8.95781E-01 -8.23339E-01 -2.31491E+00 +1.18320E+00 -2.16359E+00 +2.38855E+00 -5.44073E-01
 +1.95247E+00 +1.44468E+00 +1.35222E-01 +2.43749E+00 -1.86445E+00 +1.70712E+00 -2.68533E+00 -3.44609E-01
 -1.69244E+00 -2.42528E+00 +5.92263E-01 -3.16842E+00 +2.79393E+00 -2.00922E+00 +3.53514E+00 +4.35158E-01
 +2.30079E+00 +2.72312E+00 -2.22266E-01 +3.46516E+00 -2.54384E+00 +2.17890E+00 -3.26480E+00 -4.02823E-01
 -1.92244E+00 -2.75977E+00 +7.25421E-01 -3.48836E+00 +3.14683E+00 -2.13623E+00 +3.94152E+00 +5.31565E-01
 +2.66307E+00 +2.98902E+00 +7.07347E-02 +3.85001E+00 -2.33081E+00 +2.67560E+00 -3.18221E+00 +2.13123E-01
 -2.05917E+00 -2.06471E+00 +3.01898E-01 -2.83707E+00 +2.46474E+00 -1.70453E+00 +3.15602E+00 +6.00936E-01
 +2.01241E+00 +2.67914E+00 -2.29027E-01 +3.31083E+00 -2.20064E+00 +2.18055E+00 -2.74267E+00 +4.26712E-02
 -1.60071E+00 -1.76152E+00 +4.38368E-01 -2.13588E+00 +2.04998E+00 -9.00796E-01 +2.20290E+00 +1.10697E+00
 +8.04352E-01 +2.56691E+00 -1.24224E+00 +2.51077E+00 -2.60747E+00 +9.41538E-01 -2.38305E+00 -1.15692E+00
 -6.74493E-01 -2.43583E+00 +1.44277E+00 -2.04512E+00 +2.59270E+00 -1.99766E-01 +1.98343E+00 +1.92308E+00
 -5.35048E-02 +2.91307E+00 -2.22961E+00 +2.03620E+00 -3.09346E+00 -2.54037E-01 -1.96728E+00 -2.55090E+00
 +5.71395E-01 -3.35720E+00 +2.99515E+00 -2.05000E+00 +3.76048E+00 +6.69260E-01 +2.29998E+00 +3.15367E+00
 -5.61131E-01 +3.81614E+00 -3.05894E+00 +2.14722E+00 -3.56628E+00 -9.04563E-01 -1.63293E+00 -3.46164E+00
 +1.67252E+00 -3.86016E+00 +4.36570E+00 -1.70798E+00 +4.75146E+00 +1.81418E+00 +2.49416E+00 +4.62741E+00
 -1.12433E+00 +5.01522E+00 -3.94704E+00 +2.69915E+00 -4.24991E+00 -9.48542E-01 -1.81481E+00 -3.71032E+00
 +1.90536E+00 -3.86926E+00 +4.64973E+00 -1.27070E+00 +4.72266E+00 +2.56250E+00 +2.03493E+00 +5.34454E+00
 -1.83313E+00 +5.41641E+00 -4.59164E+00 +2.75722E+00 -4.63650E+00 -1.00716E+00 -2.02151E+00 -3.60364E+00
 +1.58972E+00 -3.50237E+00 +3.95751E+00 -8.41097E-01 +3.64251E+00 +2.68194E+00 +8.74745E-01 +4.87131E+00
 -2.61424E+00 +4.38892E+00 -4.68036E+00 +1.56200E+00 -4.09369E+00 -1.84663E+00 -1.28121E+00 -3.74996E+00
 +1.96476E+00 -3.03130E+00 +3.61767E+00 -2.19840E-01 +2.67658E+00 +2.86185E+00 -2.25679E-01 +4.24623E+00
