 Created: 16-Jan-2021
 $NMID
 ID='D:\BASISSIMULATI'
 FMTDAT='(8E13.5)'
 VOLUME=   1.00000E+00
 TRAMP=   1.00000E+00
 $END
 +1.29271E+01 +1.43361E-02 +9.63774E+00 -5.11425E+00 +1.99882E+00 -6.11085E+00 -5.24732E+00 -1.75551E+00
 -7.82879E+00 +5.38828E+00 -4.69309E+00 +1.06784E+01 +1.42290E+00 +1.05167E+01 +5.94263E+00 +4.78605E+00
 +5.57685E+00 -3.03195E+00 +5.19719E-01 -8.12975E+00 -5.74192E+00 -7.51283E+00 -8.84376E+00 -1.91571E+00
 -6.53274E+00 +4.75933E+00 -2.12400E-01 +8.07389E+00 +5.98295E+00 +5.97923E+00 +7.94684E+00 +9.22723E-02
 +4.33379E+00 -5.49293E+00 -2.55611E+00 -7.01829E+00 -8.31208E+00 -3.59077E+00 -9.32085E+00 +2.25942E+00
 -5.10376E+00 +6.33421E+00 +1.45325E+00 +5.62729E+00 +6.08902E+00 +3.57960E-01 +6.01356E+00 -6.17220E+00
 +1.70600E+00 -9.77905E+00 -3.50720E+00 -8.16234E+00 -5.76559E+00 -2.39357E+00 -3.29809E+00 +3.84122E+00
 +2.40139E+00 +6.70408E+00 +7.60598E+00 +4.71200E+00 +8.87026E+00 -3.70024E-01 +5.32635E+00 -4.80398E+00
 -7.63338E-01 -5.42679E+00 -5.53553E+00 -1.75066E+00 -6.08667E+00 +3.76948E+00 -2.34980E+00 +7.43864E+00
 +2.93954E+00 +6.81886E+00 +6.12346E+00 +2.34191E+00 +5.06166E+00 -3.01803E+00 +5.03480E-01 -5.75589E+00
 -4.48995E+00 -4.16243E+00 -6.64204E+00 +5.83308E-01 -4.64761E+00 +5.25282E+00 +3.80170E-03 +6.74039E+00
 +4.08262E+00 +4.10150E+00 +4.80805E+00 -8.86389E-01 +1.69214E+00 -4.97352E+00 -3.17671E+00 -5.62435E+00
 -6.56326E+00 -2.66937E+00 -6.24208E+00 +1.65716E+00 -2.43783E+00 +4.27593E+00 +2.38425E+00 +3.34226E+00
 +5.19654E+00 -5.46316E-01 +4.40832E+00 -4.79452E+00 +8.57427E-01 -6.57096E+00 -2.83213E+00 -4.68825E+00
 -4.05432E+00 -3.54412E-01 -1.95919E+00 +3.67268E+00 +2.02565E+00 +4.92836E+00 +5.20304E+00 +2.83929E+00
 +5.43477E+00 -9.69719E-01 +2.55666E+00 -3.82434E+00 -1.54780E+00 -3.80254E+00 -4.23033E+00 -9.79610E-01
 -3.83510E+00 +2.69020E+00 -7.57666E-01 +4.73575E+00 +2.87348E+00 +3.83503E+00 +4.64377E+00 +6.70581E-01
 +3.44129E+00 -2.57186E+00 +1.36558E-01 -3.69317E+00 -3.06585E+00 -1.94563E+00 -4.13259E+00 +1.49745E+00
 -2.54078E+00 +4.35285E+00 +4.30847E-01 +4.75057E+00 +2.61972E+00 +2.44527E+00 +2.46057E+00 -1.07272E+00
 +2.86537E-02 -3.60676E+00 -3.03772E+00 -3.70996E+00 -4.65605E+00 -1.59471E+00 -3.69185E+00 +1.08584E+00
 -6.94938E-01 +2.40153E+00 +2.49078E+00 +1.45105E+00 +3.95724E+00 -1.06294E+00 +2.96820E+00 -3.35082E+00
 +3.87833E-01 -3.77031E+00 -1.95435E+00 -1.93598E+00 -2.50813E+00 +1.03268E+00 -1.01385E+00 +3.27032E+00
 +1.38149E+00 +3.40481E+00 +2.95072E+00 +1.44424E+00 +2.57536E+00 -1.26540E+00 +4.92277E-01 -2.95890E+00
 -1.88932E+00 -2.61572E+00 -2.95531E+00 -5.93778E-01 -1.97414E+00 +1.66819E+00 +4.24218E-01 +2.65199E+00
 +2.68327E+00 +1.77736E+00 +3.35987E+00 -2.42504E-01 +2.06517E+00 -1.92469E+00 -3.13671E-01 -2.04467E+00
 -2.23798E+00 -4.66844E-01 -2.55061E+00 +1.77476E+00 -1.22077E+00 +3.18339E+00 +6.85237E-01 +2.80514E+00
 +1.76427E+00 +8.55492E-01 +1.23861E+00 -1.44238E+00 -5.29540E-01 -2.68264E+00 -2.30532E+00 -2.20108E+00
 -2.83269E+00 -4.82320E-01 -1.68614E+00 +1.20700E+00 +4.48857E-01 +1.69345E+00 +2.24332E+00 +6.82677E-01
 +2.61299E+00 -1.06765E+00 +1.42553E+00 -2.28856E+00 -4.40930E-01 -2.07465E+00 -1.71207E+00 -4.97785E-01
 -1.57827E+00 +1.44756E+00 -2.20573E-01 +2.51856E+00 +1.34267E+00 +2.05428E+00 +1.97003E+00 +4.03029E-01
 +1.17987E+00 -1.33099E+00 -5.26712E-01 -2.03835E+00 -2.01236E+00 -1.33948E+00 -2.27528E+00 +1.87663E-01
 -1.12088E+00 +1.42859E+00 +7.15725E-01 +1.50483E+00 +2.06953E+00 +3.70239E-01 +2.12207E+00 -1.16835E+00
 +9.30304E-01 -2.01098E+00 -6.40716E-01 -1.51843E+00 -1.52304E+00 +5.11952E-02 -1.17082E+00 +1.71382E+00
 +8.54843E-02 +2.41639E+00 +1.28755E+00 +1.73299E+00 +1.52157E+00 +1.34139E-01 +5.52345E-01 -1.34348E+00
 -1.01062E+00 -1.79482E+00 -2.12347E+00 -1.03802E+00 -2.01268E+00 +2.93847E-01 -6.96763E-01 +1.21141E+00
 +1.02390E+00 +1.05715E+00 +2.09725E+00 -4.69277E-02 +1.90922E+00 -1.29198E+00 +6.71158E-01 -1.74580E+00
 -7.47436E-01 -9.99629E-01 -1.41778E+00 +5.41502E-01 -9.72452E-01 +1.91984E+00 +1.68961E-01 +2.25887E+00
 +1.11270E+00 +1.34247E+00 +1.12055E+00 -2.47549E-01 +1.24172E-01 -1.52255E+00 -1.22416E+00 -1.73908E+00
 -1.99504E+00 -8.74228E-01 -1.61575E+00 +3.88382E-01 -2.64717E-01 +1.14201E+00 +1.23872E+00 +8.75837E-01
 +1.97276E+00 -1.88795E-01 +1.51711E+00 -1.26624E+00 +2.19575E-01 -1.55651E+00 -1.04769E+00 -7.99687E-01
 -1.47254E+00 +5.41169E-01 -8.33650E-01 +1.58969E+00 +3.73786E-01 +1.64625E+00 +1.29279E+00 +6.59427E-01
 +1.29241E+00 -7.37298E-01 +3.90051E-01 -1.64509E+00 -7.72519E-01 -1.49226E+00 -1.37584E+00 -4.03750E-01
 -9.84952E-01 +8.94336E-01 +1.53660E-01 +1.56471E+00 +1.27803E+00 +1.21136E+00 +1.62404E+00 +1.26953E-01
 +9.38715E-01 -9.22713E-01 -3.50304E-01 -1.22392E+00 -1.41945E+00 -5.92863E-01 -1.59418E+00 +5.12322E-01
 -7.89418E-01 +1.31368E+00 +4.44708E-01 +1.24610E+00 +1.29593E+00 +3.39611E-01 +1.22748E+00 -8.03533E-01
 +3.21896E-01 -1.41700E+00 -7.92223E-01 -1.08622E+00 -1.37233E+00 -2.59429E-02 -1.05798E+00 +1.06342E+00
 -9.95024E-02 +1.46069E+00 +8.27068E-01 +8.98181E-01 +1.08651E+00 -2.68250E-01 +5.14685E-01 -1.30066E+00
 -4.75121E-01 -1.56539E+00 -1.17647E+00 -9.39470E-01 -1.06934E+00 +1.28252E-01 -1.72322E-01 +9.32421E-01
 +9.66170E-01 +9.84745E-01 +1.62797E+00 +3.28093E-01 +1.39438E+00 -5.13105E-01 +4.13871E-01 -9.03929E-01
 -7.03979E-01 -5.36204E-01 -1.29107E+00 +3.62309E-01 -1.04949E+00 +1.18332E+00 -2.25139E-01 +1.34911E+00
 +5.79829E-01 +7.01817E-01 +8.21076E-01 -3.87898E-01 +3.72079E-01 -1.26165E+00 -4.07060E-01 -1.40014E+00
 -9.29769E-01 -7.52867E-01 -7.90185E-01 +2.42835E-01 -4.16211E-02 +9.58473E-01 +8.37995E-01 +9.84310E-01
 +1.26605E+00 +3.81360E-01 +9.43549E-01 -3.84302E-01 +5.31362E-02 -7.70844E-01 -8.61274E-01 -5.27133E-01
 -1.24882E+00 +1.48036E-01 -9.03182E-01 +7.54063E-01 -8.17440E-02 +8.37112E-01 +6.78824E-01 +3.01423E-01
 +9.20578E-01 -5.24267E-01 +5.55793E-01 -1.10542E+00 -9.70383E-02 -1.05552E+00 -5.47265E-01 -3.88310E-01
 -4.71716E-01 +4.95873E-01 +6.95488E-02 +1.07506E+00 +6.81877E-01 +1.04183E+00 +9.09755E-01 +4.88647E-01
 +5.47367E-01 -1.74025E-01 -2.22181E-01 -5.03652E-01 -9.48221E-01 -3.19853E-01 -1.20845E+00 +1.88110E-01
 -8.79747E-01 +6.05483E-01 -2.06102E-01 +5.83454E-01 +3.75047E-01 +7.85845E-02 +5.25609E-01 -6.18663E-01
 +2.21374E-01 -1.08009E+00 -2.50904E-01 -1.02423E+00 -5.03915E-01 -4.97682E-01 -3.19802E-01 +1.64150E-01
 +2.03303E-01 +5.64095E-01 +7.23062E-01 +5.01476E-01 +8.88865E-01 +8.94366E-02 +5.79252E-01 -3.40945E-01
 -1.82567E-02 -4.76952E-01 -5.34094E-01 -2.36583E-01 -6.59935E-01 +1.85654E-01 -3.43237E-01 +4.64986E-01
 +1.93822E-01 +3.79285E-01 +6.15811E-01 -3.25971E-02 +6.99774E-01 -4.93651E-01 +4.70699E-01 -6.73948E-01
 +1.59667E-01 -4.10311E-01 +2.18748E-02 +1.87422E-01 +1.46425E-01 +8.10934E-01 +3.91259E-01 +1.15282E+00
 +4.86452E-01 +1.09355E+00 +2.31409E-01 +7.52939E-01 -3.52316E-01 +3.80511E-01 -1.01831E+00 +1.69690E-01
 -1.44403E+00 +1.29162E-01 -1.42930E+00 +9.89439E-02 -1.01177E+00 -1.06445E-01 -4.26480E-01 -5.35194E-01
 +5.52436E-02 -1.03564E+00 +2.92965E-01 -1.34144E+00 +3.37410E-01 -1.24688E+00 +3.51142E-01 -7.51137E-01
 +4.56640E-01 -7.14199E-02 +6.27840E-01 +4.84183E-01 +7.06110E-01 +6.97792E-01 +5.28832E-01 +5.55937E-01
 +7.52691E-02 +2.25753E-01 -4.80235E-01 -8.06666E-02 -8.53084E-01 -2.51853E-01 -8.18797E-01 -3.29001E-01
 -3.54700E-01 -4.33207E-01 +3.43099E-01 -6.29616E-01 +9.78222E-01 -8.36932E-01 +1.32652E+00 -8.57438E-01
 +1.34658E+00 -5.13413E-01 +1.15920E+00 +2.05259E-01 +9.21263E-01 +1.09129E+00 +6.93409E-01 +1.81235E+00
 +4.02292E-01 +2.09138E+00 -7.45345E-02 +1.85789E+00 -7.66571E-01 +1.27140E+00 -1.52334E+00 +6.04883E-01
 -2.05899E+00 +7.17064E-02 -2.11149E+00 -2.84331E-01 -1.61305E+00 -5.64225E-01 -7.53568E-01 -8.81324E-01
 +1.13547E-01 -1.22686E+00 +6.66880E-01 -1.44089E+00 +7.87834E-01 -1.31851E+00 +5.96543E-01 -7.79258E-01
 +3.35036E-01 +2.55662E-02 +1.84652E-01 +7.56536E-01 +1.48483E-01 +1.06667E+00 +8.09005E-02 +8.06482E-01
 -1.61329E-01 +1.17472E-01 -5.62115E-01 -6.51765E-01 -9.06955E-01 -1.15430E+00 -9.03059E-01 -1.24162E+00
 -3.84044E-01 -1.01980E+00 +5.42931E-01 -7.33594E-01 +1.51868E+00 -5.66097E-01 +2.12163E+00 -4.99681E-01
 +2.10886E+00 -3.39556E-01 +1.55183E+00 +1.15875E-01 +7.76885E-01 +8.81703E-01 +1.50413E-01 +1.71606E+00
 -1.47121E-01 +2.23619E+00 -2.07276E-01 +2.15366E+00 -2.86058E-01 +1.47231E+00 -5.83490E-01 +5.09753E-01
 -1.07016E+00 -2.81585E-01 -1.48813E+00 -5.82522E-01 -1.53071E+00 -3.89662E-01 -1.07685E+00 +7.38610E-03
 -3.12073E-01 +2.36752E-01 +3.58787E-01 +9.89576E-02 +5.58993E-01 -3.07684E-01 +1.85457E-01 -6.74586E-01
 -5.14823E-01 -7.19458E-01 -1.09474E+00 -4.03921E-01 -1.18874E+00 +2.38918E-02 -7.40890E-01 +1.96687E-01
 -2.82994E-02 -1.07434E-01 +5.34259E-01 -7.87797E-01 +6.74827E-01 -1.46056E+00 +4.39021E-01 -1.69717E+00
 +1.41125E-01 -1.30604E+00 +1.27550E-01 -4.67241E-01 +5.18460E-01 +3.74397E-01 +1.10934E+00 +7.90868E-01
 +1.50452E+00 +6.41314E-01 +1.39357E+00 +1.51471E-01 +7.80062E-01 -2.49633E-01 +8.59038E-04 -2.23982E-01
 -4.84564E-01 +2.49929E-01 -3.97276E-01 +8.72436E-01 +1.69522E-01 +1.23947E+00 +8.02635E-01 +1.12942E+00
 +1.03396E+00 +6.60526E-01 +6.43869E-01 +2.08133E-01 -1.98706E-01 +1.37095E-01 -1.05170E+00 +5.33704E-01
 -1.49150E+00 +1.12500E+00 -1.38327E+00 +1.44721E+00 -9.48905E-01 +1.15476E+00 -5.90528E-01 +2.62746E-01
 -5.94785E-01 -8.42758E-01 -9.24422E-01 -1.63754E+00 -1.24301E+00 -1.78321E+00 -1.15751E+00 -1.32843E+00
 -5.11860E-01 -6.56400E-01 +4.73368E-01 -2.17791E-01 +1.31731E+00 -2.32068E-01 +1.57948E+00 -5.58628E-01
 +1.14579E+00 -8.21307E-01 +3.07838E-01 -6.95584E-01 -4.19517E-01 -1.56444E-01 -6.22520E-01 +4.87649E-01
 -2.40388E-01 +8.01497E-01 +4.19772E-01 +5.30545E-01 +9.09157E-01 -2.03074E-01 +9.46752E-01 -9.54826E-01
 +6.00544E-01 -1.23248E+00 +2.19218E-01 -8.11119E-01 +1.65612E-01 +1.20986E-01 +5.39738E-01 +1.08276E+00
 +1.08662E+00 +1.60638E+00 +1.35723E+00 +1.52499E+00 +1.01611E+00 +1.05239E+00 +8.64723E-02 +6.07552E-01
 -1.03724E+00 +5.09362E-01 -1.82320E+00 +7.53426E-01 -1.93006E+00 +1.02405E+00 -1.41211E+00 +9.31322E-01
