 Created: 16-Jan-2021
 $NMID
 ID='D:\BASISSIMULATI'
 FMTDAT='(8E13.5)'
 VOLUME=   1.00000E+00
 TRAMP=   1.00000E+00
 $END
 +2.34066E+01 +2.64894E-02 +2.15390E+01 +8.61465E+00 +1.63933E+01 +1.56618E+01 +8.92504E+00 +1.99536E+01
 +5.08694E-01 +2.07971E+01 -7.32539E+00 +1.81477E+01 -1.31818E+01 +1.26108E+01 -1.60630E+01 +5.31939E+00
 -1.55530E+01 -2.28850E+00 -1.18885E+01 -8.74847E+00 -5.90270E+00 -1.28504E+01 +1.14449E+00 -1.38666E+01
 +7.81698E+00 -1.16841E+01 +1.27838E+01 -6.81571E+00 +1.50763E+01 -2.89614E-01 +1.42711E+01 +6.56038E+00
 +1.05644E+01 +1.23615E+01 +4.72337E+00 +1.59729E+01 -2.07407E+00 +1.67077E+01 -8.47886E+00 +1.44627E+01
 -1.32415E+01 +9.73114E+00 -1.54604E+01 +3.49699E+00 -1.47585E+01 -2.96764E+00 -1.13547E+01 -8.36084E+00
 -6.01412E+00 -1.16135E+01 +1.08845E-01 -1.21042E+01 +5.70650E+00 -9.78290E+00 +9.58315E+00 -5.18048E+00
 +1.08980E+01 +6.99036E-01 +9.33707E+00 +6.58101E+00 +5.17918E+00 +1.11775E+01 -7.55962E-01 +1.34481E+01
 -7.26869E+00 +1.28125E+01 -1.30170E+01 +9.27212E+00 -1.67840E+01 +3.41661E+00 -1.77225E+01 -3.68633E+00
 -1.55280E+01 -1.06970E+01 -1.05060E+01 -1.62651E+01 -3.51895E+00 -1.92949E+01 +4.17531E+00 -1.91626E+01
 +1.11649E+01 -1.58428E+01 +1.61563E+01 -9.91897E+00 +1.82248E+01 -2.47526E+00 +1.69955E+01 +5.10914E+00
 +1.27174E+01 +1.14238E+01 +6.21789E+00 +1.52974E+01 -1.25491E+00 +1.60227E+01 -8.27117E+00 +1.34915E+01
 -1.34929E+01 +8.21494E+00 -1.59294E+01 +1.22415E+00 -1.51259E+01 -6.12913E+00 -1.12471E+01 -1.24325E+01
 -5.04260E+00 -1.64834E+01 +2.30112E+00 -1.75181E+01 +9.39156E+00 -1.53541E+01 +1.48990E+01 -1.04200E+01
 +1.78115E+01 -3.66682E+00 +1.76253E+01 +3.62062E+00 +1.44368E+01 +1.00753E+01 +8.91525E+00 +1.45130E+01
 +2.16619E+00 +1.61595E+01 -4.48973E+00 +1.47951E+01 -9.77712E+00 +1.07894E+01 -1.27148E+01 +5.02123E+00
 -1.28046E+01 -1.30127E+00 -1.01230E+01 -6.88330E+00 -5.29933E+00 -1.06007E+01 +6.15894E-01 -1.17216E+01
 +6.36411E+00 -1.00480E+01 +1.07322E+01 -5.95180E+00 +1.27950E+01 -2.95736E-01 +1.20999E+01 +5.74145E+00
 +8.75597E+00 +1.09029E+01 +3.41134E+00 +1.41060E+01 -2.87665E+00 +1.46598E+01 -8.85296E+00 +1.24041E+01
 -1.33156E+01 +7.74315E+00 -1.53559E+01 +1.56638E+00 -1.45412E+01 -4.92636E+00 -1.10032E+01 -1.04623E+01
 -5.41447E+00 -1.39482E+01 +1.14140E+00 -1.46873E+01 +7.38213E+00 -1.25201E+01 +1.20783E+01 -7.85776E+00
 +1.42957E+01 -1.60483E+00 +1.35802E+01 +5.01616E+00 +1.00489E+01 +1.07027E+01 +4.37018E+00 +1.43267E+01
 -2.36516E+00 +1.51556E+01 -8.85453E+00 +1.29961E+01 -1.38365E+01 +8.23387E+00 -1.63359E+01 +1.75946E+00
 -1.58531E+01 -5.20330E+00 -1.24612E+01 -1.13341E+01 -6.79200E+00 -1.54714E+01 +8.71592E-02 -1.68369E+01
 +6.88003E+00 -1.51846E+01 +1.23125E+01 -1.08469E+01 +1.53782E+01 -4.66821E+00 +1.55319E+01 +2.16101E+00
 +1.27917E+01 +8.33600E+00 +7.73212E+00 +1.26909E+01 +1.36892E+00 +1.44235E+01 -5.04162E+00 +1.32482E+01
 -1.02485E+01 +9.44744E+00 -1.32498E+01 +3.81189E+00 -1.34857E+01 -2.51777E+00 -1.09448E+01 -8.27669E+00
 -6.16192E+00 -1.23245E+01 -1.09062E-01 -1.38681E+01 +5.99854E+00 -1.26149E+01 +1.09430E+01 -8.82746E+00
 +1.37438E+01 -3.26821E+00 +1.38497E+01 +2.95343E+00 +1.12453E+01 +8.60154E+00 +6.45205E+00 +1.25582E+01
 +4.23176E-01 +1.40437E+01 -5.64598E+00 +1.27694E+01 -1.05546E+01 +8.99344E+00 -1.33335E+01 +3.46842E+00
 -1.34361E+01 -2.70821E+00 -1.08453E+01 -8.31119E+00 -6.07660E+00 -1.22294E+01 -7.54955E-02 -1.36848E+01
 +5.96902E+00 -1.23856E+01 +1.08589E+01 -8.58337E+00 +1.36227E+01 -3.02316E+00 +1.37069E+01 +3.20297E+00
 +1.10843E+01 +8.87090E+00 +6.25931E+00 +1.28648E+01 +1.68891E-01 +1.43963E+01 -6.00160E+00 +1.31585E+01
 -1.10507E+01 +9.38620E+00 -1.39961E+01 +3.80930E+00 -1.42666E+01 -2.49063E+00 -1.18135E+01 -8.29231E+00
 -7.11886E+00 -1.24739E+01 -1.10036E+00 -1.42319E+01 +5.06907E+00 -1.32376E+01 +1.01913E+01 -9.70029E+00
 +1.32773E+01 -4.32423E+00 +1.37399E+01 +1.83012E+00 +1.15076E+01 +7.55506E+00 +7.03659E+00 +1.17325E+01
 +1.21964E+00 +1.35528E+01 -4.79024E+00 +1.26723E+01 -9.80693E+00 +9.27962E+00 -1.28441E+01 +4.05643E+00
 -1.33085E+01 -1.95736E+00 -1.11151E+01 -7.56908E+00 -6.70295E+00 -1.16680E+01 -9.47832E-01 -1.34435E+01
 +5.01094E+00 -1.25440E+01 +9.99469E+00 -9.14538E+00 +1.30172E+01 -3.91560E+00 +1.34781E+01 +2.11671E+00
 +1.12808E+01 +7.76472E+00 +6.85080E+00 +1.19164E+01 +1.05238E+00 +1.37525E+01 -4.98136E+00 +1.29074E+01
 -1.00703E+01 +9.53987E+00 -1.32184E+01 +4.30245E+00 -1.38083E+01 -1.78688E+00 -1.17216E+01 -7.54371E+00
 -7.36163E+00 -1.18486E+01 -1.57408E+00 -1.38653E+01 +4.51863E+00 -1.32036E+01 +9.73646E+00 -9.99404E+00
 +1.30717E+01 -4.86169E+00 +1.38844E+01 +1.19703E+00 +1.20261E+01 +7.00938E+00 +7.86648E+00 +1.14550E+01
 +2.21967E+00 +1.36837E+01 -3.81639E+00 +1.32794E+01 -9.07492E+00 +1.03391E+01 -1.25478E+01 +5.45114E+00
 -1.35809E+01 -4.22478E-01 -1.19995E+01 -6.13575E+00 -8.13913E+00 -1.05836E+01 -2.77651E+00 -1.29172E+01
 +3.02541E+00 -1.27085E+01 +8.12765E+00 -1.00309E+01 +1.15391E+01 -5.44096E+00 +1.26100E+01 +1.33752E-01
 +1.11578E+01 +5.58011E+00 +7.49965E+00 +9.81980E+00 +2.38683E+00 +1.20219E+01 -3.14599E+00 +1.17657E+01
 -7.98714E+00 +9.12201E+00 -1.11685E+01 +4.63674E+00 -1.20571E+01 -7.78899E-01 -1.04798E+01 -6.03048E+00
 -6.75678E+00 -1.00581E+01 -1.63725E+00 -1.20471E+01 +3.84940E+00 -1.15896E+01 +8.59811E+00 -8.76632E+00
 +1.16475E+01 -4.13071E+00 +1.23711E+01 +1.39962E+00 +1.06022E+01 +6.72389E+00 +6.66876E+00 +1.07755E+01
 +1.33010E+00 +1.27330E+01 -4.37090E+00 +1.21831E+01 -9.31209E+00 +9.20417E+00 -1.25123E+01 +4.35266E+00
 -1.33243E+01 -1.44373E+00 -1.15630E+01 -7.06615E+00 -7.54351E+00 -1.14223E+01 -2.02108E+00 -1.36595E+01
 +3.95406E+00 -1.33311E+01 +9.24017E+00 -1.04844E+01 +1.28250E+01 -5.65181E+00 +1.40218E+01 +2.51384E-01
 +1.26020E+01 +6.10413E+00 +8.83861E+00 +1.07961E+01 +3.45296E+00 +1.34419E+01 -2.52597E+00 +1.35508E+01
 -7.96082E+00 +1.11200E+01 -1.18255E+01 +6.63235E+00 -1.34024E+01 +9.60969E-01 -1.24182E+01 -4.80213E+00
 -9.09354E+00 -9.55816E+00 -4.09624E+00 -1.24139E+01 +1.59220E+00 -1.28524E+01 +6.86961E+00 -1.08296E+01
 +1.07283E+01 -6.77779E+00 +1.24500E+01 -1.51644E+00 +1.17427E+01 +3.91174E+00 +8.79277E+00 +8.44711E+00
 +4.22315E+00 +1.12208E+01 -1.03378E+00 +1.17235E+01 -5.92325E+00 +9.90167E+00 -9.47773E+00 +6.16362E+00
 -1.10077E+01 +1.29438E+00 -1.02365E+01 -3.70360E+00 -7.35168E+00 -7.81157E+00 -2.96548E+00 -1.01979E+01
 +2.01031E+00 -1.03833E+01 +6.54769E+00 -8.33544E+00 +9.70870E+00 -4.47458E+00 +1.08333E+01 +4.11284E-01
 +9.67197E+00 +5.32402E+00 +6.43617E+00 +9.25496E+00 +1.75770E+00 +1.13868E+01 -3.43597E+00 +1.12576E+01
 -8.10523E+00 +8.85491E+00 -1.13047E+01 +4.62093E+00 -1.23716E+01 -6.32644E-01 -1.10589E+01 -5.88272E+00
 -7.58753E+00 -1.00956E+01 -2.60560E+00 -1.24304E+01 +2.93554E+00 -1.24061E+01 +7.96578E+00 -9.99790E+00
 +1.15046E+01 -5.64499E+00 +1.28528E+01 -1.67955E-01 +1.17298E+01 +5.38894E+00 +8.32988E+00 +9.95915E+00
 +3.28648E+00 +1.26602E+01 -2.44898E+00 +1.29644E+01 -7.78993E+00 +1.08013E+01 -1.17236E+01 +6.57136E+00
 -1.35054E+01 +1.06875E+00 -1.28014E+01 -4.67181E+00 -9.75117E+00 -9.57413E+00 -4.93864E+00 -1.27270E+01
 +7.22143E-01 -1.35580E+01 +6.16459E+00 -1.19406E+01 +1.03755E+01 -8.21498E+00 +1.25891E+01 -3.11843E+00
 +1.24319E+01 +2.36082E+00 +9.99027E+00 +7.17684E+00 +5.78832E+00 +1.04288E+01 +6.80748E-01 +1.15336E+01
 -4.31740E+00 +1.03355E+01 -8.23073E+00 +7.13030E+00 -1.03138E+01 +2.60217E+00 -1.01944E+01 -2.31580E+00
 -7.94226E+00 -6.62825E+00 -4.05039E+00 -9.47491E+00 +6.67392E-01 -1.02995E+01 +5.24111E+00 -8.95743E+00
 +8.73913E+00 -5.74082E+00 +1.04538E+01 -1.31720E+00 +1.00416E+01 +3.40633E+00 +7.59029E+00 +7.46582E+00
 +3.59960E+00 +1.00339E+01 -1.11948E+00 +1.05853E+01 -5.60775E+00 +9.00232E+00 -8.95005E+00 +5.59848E+00
 -1.04589E+01 +1.05663E+00 -9.81275E+00 -3.70668E+00 -7.12211E+00 -7.72357E+00 -2.90955E+00 -1.01679E+01
 +1.99188E+00 -1.05206E+01 +6.60225E+00 -8.67551E+00 +9.98808E+00 -4.96286E+00 +1.14473E+01 -8.76426E-02
 +1.06498E+01 +5.00662E+00 +7.70462E+00 +9.32151E+00 +3.14265E+00 +1.19990E+01 -2.18467E+00 +1.24902E+01
 -7.26890E+00 +1.06640E+01 -1.11396E+01 +6.83501E+00 -1.30523E+01 +1.70491E+00 -1.26335E+01 -3.77200E+00
 -9.95297E+00 -8.57197E+00 -5.51147E+00 -1.17987E+01 -1.44080E-01 -1.28557E+01 +5.14045E+00 -1.15601E+01
 +9.35370E+00 -8.17686E+00 +1.17171E+01 -3.36598E+00 +1.18101E+01 +1.94602E+00 +9.64887E+00 +6.74574E+00
 +5.67982E+00 +1.01282E+01 +6.90194E-01 +1.14700E+01 -4.34665E+00 +1.05469E+01 -8.46088E+00 +7.57320E+00
 -1.08737E+01 +3.15571E+00 -1.11462E+01 -1.82806E+00 -9.26053E+00 -6.40328E+00 -5.61899E+00 -9.68868E+00
 -9.60341E-01 -1.10674E+01 +3.78839E+00 -1.03046E+01 +7.69587E+00 -7.58936E+00 +1.00097E+01 -3.49258E+00
 +1.03028E+01 +1.14935E+00 +8.55485E+00 +5.40262E+00 +5.15219E+00 +8.42194E+00 +8.08202E-01 +9.61773E+00
 -3.58131E+00 +8.77169E+00 -7.11781E+00 +6.07812E+00 -9.07956E+00 +2.10314E+00 -9.06534E+00 -2.32975E+00
 -7.07411E+00 -6.30505E+00 -3.50493E+00 -8.99854E+00 +9.22634E-01 -9.84232E+00 +5.31189E+00 -8.63886E+00
 +8.76758E+00 -5.60151E+00 +1.05745E+01 -1.31354E+00 +1.03406E+01 +3.38626E+00 +8.07684E+00 +7.56888E+00
 +4.19685E+00 +1.03987E+01 -5.62095E-01 +1.12992E+01 -5.28274E+00 +1.00681E+01 -9.04716E+00 +6.91964E+00
 -1.11168E+01 +2.44426E+00 -1.10781E+01 -2.50453E+00 -8.92452E+00 -6.97584E+00 -5.05945E+00 -1.01062E+01
 -2.19336E-01 -1.12880E+01 +4.66864E+00 -1.02876E+01 +8.66589E+00 -7.29200E+00 +1.10041E+01 -2.87245E+00
 +1.12338E+01 +2.12568E+00 +9.31114E+00 +6.74648E+00 +5.60533E+00 +1.01082E+01 +8.26732E-01 +1.15734E+01
 -4.11154E+00 +1.08707E+01 -8.27060E+00 +8.14590E+00 -1.08671E+01 +3.93175E+00 -1.14234E+01 -9.57484E-01
 -9.85811E+00 -5.58500E+00 -6.49857E+00 -9.07362E+00 -2.01440E+00 -1.07751E+01 +2.71539E+00 -1.03941E+01
 +6.77495E+00 -8.04194E+00 +9.39023E+00 -4.21182E+00 +1.00786E+01 +3.21444E-01 +8.74049E+00 +4.65529E+00
 +5.67523E+00 +7.93740E+00 +1.51888E+00 +9.53254E+00 -2.88385E+00 +9.14571E+00 -6.64776E+00 +6.87749E+00
 -9.02223E+00 +3.20133E+00 -9.53878E+00 -1.13261E+00 -8.10219E+00 -5.24762E+00 -5.00752E+00 -8.31494E+00
