 Created: 16-Jan-2021
 $NMID
 ID='D:\BASISSIMULATI'
 FMTDAT='(8E13.5)'
 VOLUME=   1.00000E+00
 TRAMP=   1.00000E+00
 $END
 +1.29019E+01 +1.45283E-02 +1.12072E+01 +1.10349E+00 +6.82037E+00 +2.70379E+00 +1.39657E+00 +4.82935E+00
 -3.19818E+00 +6.83744E+00 -5.70060E+00 +7.74647E+00 -5.88280E+00 +6.83943E+00 -4.42722E+00 +4.17636E+00
 -2.39074E+00 +6.83827E-01 -6.17442E-01 -2.25726E+00 +5.60735E-01 -3.49936E+00 +1.21971E+00 -2.69837E+00
 +1.49447E+00 -4.45904E-01 +1.29141E+00 +2.09213E+00 +2.96861E-01 +3.79694E+00 -1.71569E+00 +4.10830E+00
 -4.51062E+00 +3.15131E+00 -7.25283E+00 +1.46230E+00 -8.77348E+00 -4.51583E-01 -8.13764E+00 -2.39997E+00
 -5.19374E+00 -4.45742E+00 -7.60515E-01 -6.63998E+00 +3.69603E+00 -8.58246E+00 +6.74284E+00 -9.50349E+00
 +7.64548E+00 -8.55527E+00 +6.64930E+00 -5.38151E+00 +4.73123E+00 -5.32076E-01 +2.98836E+00 +4.57268E+00
 +2.03716E+00 +8.18413E+00 +1.77336E+00 +9.02384E+00 +1.60701E+00 +6.91398E+00 +9.87642E-01 +2.88737E+00
 -1.40587E-01 -1.29406E+00 -1.25710E+00 -3.95742E+00 -1.61090E+00 -4.24108E+00 -7.66895E-01 -2.36028E+00
 +1.00953E+00 +6.71289E-01 +2.79489E+00 +3.64678E+00 +3.47470E+00 +5.72530E+00 +2.36516E+00 +6.64980E+00
 -3.81812E-01 +6.57592E+00 -3.83129E+00 +5.71484E+00 -6.74068E+00 +4.08890E+00 -8.17188E+00 +1.58433E+00
 -7.88566E+00 -1.75210E+00 -6.31425E+00 -5.42244E+00 -4.17767E+00 -8.46208E+00 -2.02366E+00 -9.79263E+00
 +3.81525E-03 -8.77954E+00 +2.03817E+00 -5.66260E+00 +4.13256E+00 -1.56739E+00 +5.96308E+00 +1.96157E+00
 +6.84839E+00 +3.67859E+00 +6.12395E+00 +3.21648E+00 +3.65212E+00 +1.20745E+00 +1.23818E-01 -1.11396E+00
 -3.09561E+00 -2.58778E+00 -4.55654E+00 -2.69412E+00 -3.45520E+00 -1.69866E+00 -9.75540E-02 -3.34217E-01
 +4.17942E+00 +7.45179E-01 +7.60689E+00 +1.37706E+00 +8.79117E+00 +1.91464E+00 +7.30590E+00 +2.86913E+00
 +3.77938E+00 +4.42769E+00 -5.20593E-01 +6.18401E+00 -4.32980E+00 +7.27891E+00 -6.88890E+00 +6.88050E+00
 -8.06370E+00 +4.70942E+00 -8.10398E+00 +1.27751E+00 -7.28031E+00 -2.31862E+00 -5.68133E+00 -4.93459E+00
 -3.30371E+00 -5.92989E+00 -3.33191E-01 -5.41587E+00 +2.64068E+00 -4.07553E+00 +4.70262E+00 -2.69636E+00
 +5.00898E+00 -1.72539E+00 +3.29412E+00 -1.12168E+00 +1.61886E-01 -5.70986E-01 -3.06609E+00 +1.18603E-01
 -4.91975E+00 +7.42925E-01 -4.48329E+00 +7.67541E-01 -1.84738E+00 -2.85014E-01 +1.94441E+00 -2.37799E+00
 +5.42699E+00 -4.75946E+00 +7.42491E+00 -6.20430E+00 +7.55204E+00 -5.61270E+00 +6.24601E+00 -2.64235E+00
 +4.36530E+00 +1.99736E+00 +2.62936E+00 +6.78461E+00 +1.25265E+00 +1.00530E+01 -2.41025E-02 +1.07388E+01
 -1.56831E+00 +8.81644E+00 -3.43271E+00 +5.21222E+00 -5.17973E+00 +1.28401E+00 -6.08539E+00 -1.81819E+00
 -5.59762E+00 -3.56233E+00 -3.74859E+00 -4.04039E+00 -1.24057E+00 -3.65629E+00 +8.72192E-01 -2.76094E+00
 +1.72761E+00 -1.49234E+00 +1.10258E+00 +1.00240E-01 -5.02776E-01 +1.79108E+00 -2.18487E+00 +3.02712E+00
 -3.15424E+00 +3.07182E+00 -3.13068E+00 +1.41093E+00 -2.38520E+00 -1.82086E+00 -1.43265E+00 -5.69246E+00
 -6.04750E-01 -8.76726E+00 +1.93854E-01 -9.73027E+00 +1.37283E+00 -8.03026E+00 +3.25872E+00 -4.17903E+00
 +5.68803E+00 +4.71503E-01 +7.89167E+00 +4.36335E+00 +8.79705E+00 +6.43588E+00 +7.60672E+00 +6.52604E+00
 +4.31972E+00 +5.27719E+00 -1.29290E-01 +3.65567E+00 -4.22850E+00 +2.38912E+00 -6.57226E+00 +1.65718E+00
 -6.50552E+00 +1.18213E+00 -4.38658E+00 +6.05104E-01 -1.34471E+00 -1.39378E-01 +1.30719E+00 -7.17825E-01
 +2.66647E+00 -6.33043E-01 +2.53123E+00 +3.65674E-01 +1.28469E+00 +1.98875E+00 -4.80873E-01 +3.45100E+00
 -2.31997E+00 +3.85814E+00 -4.04524E+00 +2.71189E+00 -5.56926E+00 +2.23279E-01 -6.65408E+00 -2.76572E+00
 -6.81377E+00 -5.21311E+00 -5.50313E+00 -6.40433E+00 -2.50852E+00 -6.26380E+00 +1.71664E+00 -5.27712E+00
 +6.03671E+00 -4.09689E+00 +9.02801E+00 -3.10140E+00 +9.61694E+00 -2.19647E+00 +7.62377E+00 -9.84291E-01
 +3.89756E+00 +8.24169E-01 -5.59290E-02 +3.04412E+00 -2.76851E+00 +4.96875E+00 -3.45981E+00 +5.70667E+00
 -2.30703E+00 +4.72014E+00 -2.20046E-01 +2.23394E+00 +1.71273E+00 -7.56783E-01 +2.77170E+00 -2.91983E+00
 +2.84727E+00 -3.23698E+00 +2.28609E+00 -1.51471E+00 +1.50244E+00 +1.52640E+00 +6.44180E-01 +4.62278E+00
 -4.60442E-01 +6.57972E+00 -2.05783E+00 +6.78334E+00 -4.12018E+00 +5.35516E+00 -6.16335E+00 +2.92060E+00
 -7.39306E+00 +1.88929E-01 -7.11851E+00 -2.37303E+00 -5.18379E+00 -4.59139E+00 -2.13690E+00 -6.38861E+00
 +9.91908E-01 -7.54432E+00 +3.19051E+00 -7.64229E+00 +3.95653E+00 -6.28877E+00 +3.49387E+00 -3.47566E+00
 +2.50772E+00 +1.73471E-01 +1.73704E+00 +3.49703E+00 +1.52096E+00 +5.25152E+00 +1.66530E+00 +4.71628E+00
 +1.67742E+00 +2.11049E+00 +1.19839E+00 -1.43547E+00 +3.33668E-01 -4.37176E+00 -3.51162E-01 -5.43921E+00
 -1.84226E-01 -4.22679E+00 +1.12682E+00 -1.29178E+00 +3.19293E+00 +2.19401E+00 +5.04018E+00 +5.04839E+00
 +5.57867E+00 +6.58945E+00 +4.18670E+00 +6.79515E+00 +1.07520E+00 +6.08379E+00 -2.77928E+00 +4.91459E+00
 -6.09462E+00 +3.49203E+00 -7.87484E+00 +1.75639E+00 -7.80932E+00 -3.70844E-01 -6.28599E+00 -2.69892E+00
 -4.06186E+00 -4.67893E+00 -1.82786E+00 -5.61678E+00 +6.17472E-02 -5.07554E+00 +1.56380E+00 -3.20870E+00
 +2.70543E+00 -7.87314E-01 +3.35278E+00 +1.13432E+00 +3.19438E+00 +1.74232E+00 +1.97795E+00 +8.76479E-01
 -1.60897E-01 -9.10502E-01 -2.53460E+00 -2.68234E+00 -4.08020E+00 -3.63898E+00 -3.84005E+00 -3.51742E+00
 -1.49944E+00 -2.64373E+00 +2.33661E+00 -1.62718E+00 +6.32093E+00 -9.10080E-01 +8.93860E+00 -4.71523E-01
 +9.19006E+00 +1.21932E-01 +7.02639E+00 +1.35442E+00 +3.31589E+00 +3.32901E+00 -6.18628E-01 +5.55926E+00
 -3.62179E+00 +7.14159E+00 -5.15095E+00 +7.22666E+00 -5.33860E+00 +5.51554E+00 -4.70474E+00 +2.48170E+00
 -3.75008E+00 -8.21409E-01 -2.70000E+00 -3.26244E+00 -1.53556E+00 -4.16001E+00 -2.37141E-01 -3.54608E+00
 +9.80264E-01 -2.04185E+00 +1.64833E+00 -4.55310E-01 +1.29120E+00 +6.37552E-01 -2.14734E-01 +1.08382E+00
 -2.41952E+00 +1.04194E+00 -4.40154E+00 +6.97120E-01 -5.17922E+00 +3.99248E-02 -4.21550E+00 -1.11596E+00
 -1.72188E+00 -2.88409E+00 +1.42641E+00 -5.01253E+00 +4.12620E+00 -6.79152E+00 +5.58756E+00 -7.28959E+00
 +5.67319E+00 -5.83055E+00 +4.85410E+00 -2.44546E+00 +3.83287E+00 +1.98706E+00 +3.08361E+00 +6.03884E+00
 +2.59752E+00 +8.34545E+00 +1.98204E+00 +8.22196E+00 +8.31139E-01 +5.95618E+00 -8.89926E-01 +2.62960E+00
 -2.71050E+00 -4.24001E-01 -3.87382E+00 -2.22134E+00 -3.78362E+00 -2.48068E+00 -2.40111E+00 -1.57476E+00
 -3.38337E-01 -1.76717E-01 +1.42313E+00 +1.14721E+00 +2.03176E+00 +2.15052E+00 +1.19573E+00 +2.83600E+00
 -6.99460E-01 +3.21416E+00 -2.83658E+00 +3.11256E+00 -4.41054E+00 +2.20757E+00 -4.99991E+00 +2.77797E-01
 -4.66103E+00 -2.49742E+00 -3.72968E+00 -5.42806E+00 -2.50282E+00 -7.52108E+00 -1.03852E+00 -7.93142E+00
 +7.85794E-01 -6.41089E+00 +3.00879E+00 -3.48523E+00 +5.32394E+00 -2.34334E-01 +7.04560E+00 +2.21912E+00
 +7.38348E+00 +3.23360E+00 +5.89565E+00 +2.89693E+00 +2.84822E+00 +1.87342E+00 -7.64996E-01 +9.60637E-01
 -3.60444E+00 +6.31636E-01 -4.59280E+00 +8.32236E-01 -3.42965E+00 +1.13312E+00 -7.33366E-01 +1.11120E+00
 +2.26603E+00 +6.95441E-01 +4.31247E+00 +2.44520E-01 +4.67241E+00 +3.04181E-01 +3.37090E+00 +1.20393E+00
 +1.03287E+00 +2.76088E+00 -1.52587E+00 +4.29453E+00 -3.69228E+00 +4.96130E+00 -5.21699E+00 +4.21554E+00
 -6.10248E+00 +2.12192E+00 -6.36262E+00 -6.66098E-01 -5.87013E+00 -3.24384E+00 -4.42495E+00 -4.90269E+00
 -2.00035E+00 -5.42413E+00 +1.02475E+00 -5.06545E+00 +3.85359E+00 -4.28191E+00 +5.55306E+00 -3.39263E+00
 +5.50468E+00 -2.41878E+00 +3.76800E+00 -1.19293E+00 +1.12379E+00 +3.55820E-01 -1.26121E+00 +1.96467E+00
 -2.38421E+00 +3.04791E+00 -1.87523E+00 +2.99141E+00 -1.30045E-01 +1.56747E+00 +1.95506E+00 -7.97033E-01
 +3.48132E+00 -3.10098E+00 +3.98669E+00 -4.19928E+00 +3.58571E+00 -3.36939E+00 +2.76109E+00 -7.04395E-01
 +1.97143E+00 +2.89150E+00 +1.34068E+00 +6.11028E+00 +6.26284E-01 +7.83237E+00 -5.28264E-01 +7.59106E+00
 -2.23988E+00 +5.68271E+00 -4.18117E+00 +2.90653E+00 -5.67710E+00 +1.22334E-01 -6.05839E+00 -2.10746E+00
 -5.05716E+00 -3.61331E+00 -2.99662E+00 -4.46017E+00 -6.50693E-01 -4.70585E+00 +1.14748E+00 -4.28048E+00
 +1.91615E+00 -3.08147E+00 +1.71535E+00 -1.20404E+00 +1.01955E+00 +8.89467E-01 +3.74049E-01 +2.43514E+00
 +6.56863E-02 +2.68957E+00 +1.65077E-02 +1.34632E+00 -4.75437E-02 -1.20622E+00 -2.88485E-01 -3.97164E+00
 -5.40096E-01 -5.76947E+00 -3.54988E-01 -5.78673E+00 +6.92273E-01 -3.96083E+00 +2.63485E+00 -9.85557E-01
 +4.92997E+00 +2.05743E+00 +6.61673E+00 +4.22915E+00 +6.76408E+00 +5.13155E+00 +4.97156E+00 +4.97082E+00
 +1.63593E+00 +4.29020E+00 -2.18000E+00 +3.56922E+00 -5.21749E+00 +2.94893E+00 -6.58153E+00 +2.24179E+00
 -6.09602E+00 +1.18949E+00 -4.28622E+00 -2.30045E-01 -2.03504E+00 -1.67215E+00 -1.35052E-01 -2.57455E+00
 +1.01047E+00 -2.49847E+00 +1.40467E+00 -1.44043E+00 +1.24903E+00 +9.64324E-02 +7.00090E-01 +1.33446E+00
 -2.22393E-01 +1.62821E+00 -1.52076E+00 +8.04563E-01 -3.00854E+00 -7.65931E-01 -4.19796E+00 -2.40292E+00
 -4.42372E+00 -3.50411E+00 -3.17809E+00 -3.84591E+00 -4.69943E-01 -3.61917E+00 +3.02907E+00 -3.19779E+00
 +6.18465E+00 -2.81167E+00 +7.87923E+00 -2.35552E+00 +7.52911E+00 -1.47182E+00 +5.35934E+00 +1.39837E-01
 +2.28282E+00 +2.39459E+00 -5.50435E-01 +4.70960E+00 -2.28610E+00 +6.21527E+00 -2.69644E+00 +6.19507E+00
 -2.15362E+00 +4.50585E+00 -1.30215E+00 +1.72486E+00 -6.54066E-01 -1.07946E+00 -3.52601E-01 -2.84008E+00
 -2.22326E-01 -2.98286E+00 -3.11056E-02 -1.65595E+00 +2.43095E-01 +4.08789E-01 +3.38181E-01 +2.29887E+00
 -1.16249E-01 +3.34714E+00 -1.29304E+00 +3.35216E+00 -2.94755E+00 +2.51129E+00 -4.45153E+00 +1.16719E+00
 -5.08652E+00 -4.30293E-01 -4.43138E+00 -2.18441E+00 -2.60920E+00 -4.01804E+00 -2.38461E-01 -5.68173E+00
 +1.88758E+00 -6.68935E+00 +3.20281E+00 -6.48273E+00 +3.61355E+00 -4.75973E+00 +3.44999E+00 -1.76482E+00
 +3.17280E+00 +1.66913E+00 +3.03583E+00 +4.40729E+00 +2.92846E+00 +5.51006E+00 +2.49897E+00 +4.68283E+00
 +1.47246E+00 +2.42839E+00 -5.60565E-02 -1.91415E-01 -1.56405E+00 -2.06132E+00 -2.34330E+00 -2.51604E+00
 -1.91130E+00 -1.58081E+00 -3.44183E-01 +1.53253E-01 +1.68224E+00 +1.91219E+00 +3.18912E+00 +3.13931E+00
