 Created: 16-Jan-2021
 $NMID
 ID='D:\BASISSIMULATI'
 FMTDAT='(8E13.5)'
 VOLUME=   1.00000E+00
 TRAMP=   1.00000E+00
 $END
 +6.92462E+00 +7.84169E-03 +6.50770E+00 +2.21128E+00 +5.33924E+00 +4.09267E+00 +3.61259E+00 +5.39169E+00
 +1.60760E+00 +5.95206E+00 -3.61488E-01 +5.74706E+00 -2.00358E+00 +4.88046E+00 -3.10282E+00 +3.56304E+00
 -3.55525E+00 +2.06946E+00 -3.38338E+00 +6.84106E-01 -2.72615E+00 -3.53462E-01 -1.80666E+00 -8.93036E-01
 -8.84405E-01 -8.99678E-01 -2.01415E-01 -4.56384E-01 +6.69539E-02 +2.56722E-01 -1.52955E-01 +1.00220E+00
 -8.18977E-01 +1.53605E+00 -1.78247E+00 +1.65936E+00 -2.81907E+00 +1.26048E+00 -3.67460E+00 +3.39639E-01
 -4.11706E+00 -9.88797E-01 -3.98443E+00 -2.51683E+00 -3.21887E+00 -3.98195E+00 -1.88079E+00 -5.11715E+00
 -1.40061E-01 -5.70216E+00 +1.75392E+00 -5.60598E+00 +3.51735E+00 -4.81242E+00 +4.88367E+00 -3.42407E+00
 +5.65183E+00 -1.64387E+00 +5.72196E+00 +2.61934E-01 +5.11188E+00 +2.01215E+00 +3.95145E+00 +3.36114E+00
 +2.45626E+00 +4.14174E+00 +8.85962E-01 +4.29265E+00 -5.04662E-01 +3.86537E+00 -1.51225E+00 +3.00970E+00
 -2.02038E+00 +1.94117E+00 -2.01736E+00 +8.96882E-01 -1.59338E+00 +8.86236E-02 -9.17944E-01 -3.37687E-01
 -2.02481E-01 -3.28473E-01 +3.44351E-01 +6.99507E-02 +5.59714E-01 +7.23846E-01 +3.59636E-01 +1.44172E+00
 -2.44285E-01 +2.01505E+00 -1.14753E+00 +2.26194E+00 -2.17387E+00 +2.06506E+00 -3.11080E+00 +1.39644E+00
 -3.75194E+00 +3.24514E-01 -3.93831E+00 -9.97852E-01 -3.59015E+00 -2.36181E+00 -2.72343E+00 -3.54179E+00
 -1.44798E+00 -4.33790E+00 +5.23672E-02 -4.61320E+00 +1.55334E+00 -4.31890E+00 +2.83115E+00 -3.50271E+00
 +3.70280E+00 -2.29910E+00 +4.05802E+00 -9.03575E-01 +3.87720E+00 +4.63908E-01 +3.23192E+00 +1.59912E+00
 +2.26863E+00 +2.34974E+00 +1.17877E+00 +2.64081E+00 +1.61534E-01 +2.48476E+00 -6.13613E-01 +1.97468E+00
 -1.03736E+00 +1.26255E+00 -1.07836E+00 +5.26951E-01 -7.85406E-01 -6.31242E-02 -2.73935E-01 -3.81335E-01
 +3.00056E-01 -3.67585E-01 +7.73223E-01 -3.78445E-02 +1.00862E+00 +5.21349E-01 +9.23337E-01 +1.17225E+00
 +5.04803E-01 +1.75499E+00 -1.87176E-01 +2.12053E+00 -1.03275E+00 +2.16086E+00 -1.87598E+00 +1.83081E+00
 -2.55560E+00 +1.15709E+00 -2.93644E+00 +2.33432E-01 -2.93537E+00 -7.97310E-01 -2.53700E+00 -1.77016E+00
 -1.79626E+00 -2.52887E+00 -8.27619E-01 -2.95463E+00 +2.16653E-01 -2.98713E+00 +1.17482E+00 -2.63437E+00
 +1.90506E+00 -1.96931E+00 +2.31029E+00 -1.11474E+00 +2.35397E+00 -2.19255E-01 +2.06403E+00 +5.70650E-01
 +1.52472E+00 +1.13709E+00 +8.58264E-01 +1.41088E+00 +2.00163E-01 +1.38160E+00 -3.26889E-01 +1.09623E+00
 -6.35510E-01 +6.46924E-01 -6.88368E-01 +1.50714E-01 -5.02652E-01 -2.74590E-01 -1.43832E-01 -5.33613E-01
 +2.89687E-01 -5.71260E-01 +6.87679E-01 -3.81974E-01 +9.50687E-01 -8.95195E-03 +1.00966E+00 +4.66155E-01
 +8.38966E-01 +9.40701E-01 +4.60427E-01 +1.31202E+00 -6.19500E-02 +1.49777E+00 -6.35327E-01 +1.45164E+00
 -1.15654E+00 +1.17170E+00 -1.53202E+00 +6.99948E-01 -1.69531E+00 +1.13441E-01 -1.61883E+00 -4.90881E-01
 -1.31799E+00 -1.01466E+00 -8.46992E-01 -1.37616E+00 -2.87668E-01 -1.52459E+00 +2.66453E-01 -1.44799E+00
 +7.27505E-01 -1.17369E+00 +1.02879E+00 -7.61380E-01 +1.13562E+00 -2.90674E-01 +1.04965E+00 +1.54456E-01
 +8.06297E-01 +5.01108E-01 +4.66035E-01 +6.99947E-01 +1.01602E-01 +7.32570E-01 -2.16267E-01 +6.12652E-01
 -4.31797E-01 +3.81040E-01 -5.13468E-01 +9.60907E-02 -4.58110E-01 -1.78621E-01 -2.89389E-01 -3.86723E-01
 -5.13117E-02 -4.89240E-01 +2.01656E-01 -4.70774E-01 +4.15759E-01 -3.40772E-01 +5.48201E-01 -1.29989E-01
 +5.74572E-01 +1.16849E-01 +4.92272E-01 +3.50501E-01 +3.19540E-01 +5.26846E-01 +9.06385E-02 +6.14845E-01
 -1.51626E-01 +6.01452E-01 -3.64412E-01 +4.92786E-01 -5.12688E-01 +3.11650E-01 -5.75005E-01 +9.21612E-02
 -5.46287E-01 -1.27245E-01 -4.37390E-01 -3.10981E-01 -2.71821E-01 -4.32296E-01 -8.04992E-02 -4.77103E-01
 +1.04257E-01 -4.45150E-01 +2.54341E-01 -3.48626E-01 +3.50080E-01 -2.08754E-01 +3.82477E-01 -5.12387E-02
 +3.53327E-01 +9.84504E-02 +2.73497E-01 +2.19085E-01 +1.59958E-01 +2.96375E-01 +3.23039E-02 +3.24078E-01
 -9.05268E-02 +3.03637E-01 -1.92797E-01 +2.42684E-01 -2.63500E-01 +1.52930E-01 -2.96857E-01 +4.79614E-02
 -2.91996E-01 -5.86560E-02 -2.52129E-01 -1.54748E-01 -1.83558E-01 -2.30351E-01 -9.47667E-02 -2.78110E-01
 +4.31975E-03 -2.93459E-01 +1.02929E-01 -2.74779E-01 +1.90049E-01 -2.23604E-01 +2.55201E-01 -1.44847E-01
 +2.89481E-01 -4.68735E-02 +2.86838E-01 +5.88035E-02 +2.45401E-01 +1.58402E-01 +1.68539E-01 +2.37422E-01
 +6.52959E-02 +2.82760E-01 -5.01150E-02 +2.85104E-01 -1.59913E-01 +2.41136E-01 -2.45358E-01 +1.55026E-01
 -2.90013E-01 +3.87212E-02 -2.83085E-01 -8.92370E-02 -2.22158E-01 -2.06387E-01 -1.14615E-01 -2.90169E-01
 +2.26934E-02 -3.22253E-01 +1.65740E-01 -2.92544E-01 +2.87295E-01 -2.01970E-01 +3.61974E-01 -6.33569E-02
 +3.71413E-01 +1.00008E-01 +3.08531E-01 +2.58064E-01 +1.79894E-01 +3.79355E-01 +5.54695E-03 +4.37165E-01
 -1.83891E-01 +4.15206E-01 -3.52483E-01 +3.11662E-01 -4.65707E-01 +1.40646E-01 -4.97400E-01 -6.94317E-02
 -4.35527E-01 -2.80473E-01 -2.85523E-01 -4.51540E-01 -7.03878E-02 -5.46734E-01 +1.72711E-01 -5.42554E-01
 +3.98837E-01 -4.33270E-01 +5.63595E-01 -2.33079E-01 +6.31791E-01 +2.55250E-02 +5.84751E-01 +2.97072E-01
 +4.24766E-01 +5.31240E-01 +1.75655E-01 +6.82320E-01 -1.20846E-01 +7.18201E-01 -4.12338E-01 +6.27101E-01
 -6.45372E-01 +4.20598E-01 -7.75633E-01 +1.32255E-01 -7.76693E-01 -1.88092E-01 -6.45592E-01 -4.83369E-01
 -4.04015E-01 -6.99995E-01 -9.47248E-02 -7.98230E-01 +2.26212E-01 -7.60096E-01 +4.99978E-01 -5.93259E-01
 +6.76337E-01 -3.29986E-01 +7.23547E-01 -2.12625E-02 +6.34840E-01 +2.72893E-01 +4.30128E-01 +4.95086E-01
 +1.52478E-01 +6.01933E-01 -1.40075E-01 +5.72906E-01 -3.85839E-01 +4.14826E-01 -5.31754E-01 +1.61035E-01
 -5.44232E-01 -1.34736E-01 -4.16376E-01 -4.08678E-01 -1.70054E-01 -5.99475E-01 +1.47676E-01 -6.60666E-01
 +4.73224E-01 -5.70382E-01 +7.38612E-01 -3.36455E-01 +8.84775E-01 +4.19279E-03 +8.73446E-01 +3.91882E-01
 +6.95251E-01 +7.55113E-01 +3.72370E-01 +1.02405E+00 -4.48713E-02 +1.14398E+00 -4.86905E-01 +1.08608E+00
 -8.77693E-01 +8.53464E-01 -1.14893E+00 +4.81100E-01 -1.25297E+00 +2.97145E-02 -1.17192E+00 -4.25349E-01
 -9.21147E-01 -8.08131E-01 -5.46425E-01 -1.05627E+00 -1.15288E-01 -1.13268E+00 +2.95841E-01 -1.03235E+00
 +6.16217E-01 -7.83068E-01 +7.94230E-01 -4.39716E-01 +8.07131E-01 -7.33926E-02 +6.65118E-01 +2.42638E-01
 +4.08958E-01 +4.47378E-01 +1.01608E-01 +5.04106E-01 -1.84546E-01 +4.07582E-01 -3.82339E-01 +1.85029E-01
 -4.43483E-01 -1.09333E-01 -3.48535E-01 -4.05159E-01 -1.11196E-01 -6.30133E-01 +2.23950E-01 -7.24653E-01
 +5.89844E-01 -6.54134E-01 +9.09914E-01 -4.16526E-01 +1.11307E+00 -4.35050E-02 +1.14784E+00 +4.04914E-01
 +9.92816E-01 +8.51368E-01 +6.61488E-01 +1.21562E+00 +2.00319E-01 +1.42973E+00 -3.19451E-01 +1.45104E+00
 -8.14793E-01 +1.27039E+00 -1.20616E+00 +9.14009E-01 -1.43211E+00 +4.38740E-01 -1.46049E+00 -7.85059E-02
 -1.29404E+00 -5.55045E-01 -9.69342E-01 -9.17677E-01 -5.49431E-01 -1.11599E+00 -1.11441E-01 -1.13116E+00
 +2.68226E-01 -9.78646E-01 +5.28360E-01 -7.04194E-01 +6.34223E-01 -3.74162E-01 +5.83505E-01 -6.19589E-02
 +4.05853E-01 +1.66648E-01 +1.56123E-01 +2.66504E-01 -9.72521E-02 +2.21786E-01 -2.86467E-01 +4.88048E-02
 -3.58299E-01 -2.07619E-01 -2.85075E-01 -4.83451E-01 -7.05159E-02 -7.08545E-01 +2.50677E-01 -8.20972E-01
 +6.19391E-01 -7.79736E-01 +9.63519E-01 -5.73423E-01 +1.21199E+00 -2.23064E-01 +1.30865E+00 +2.21299E-01
 +1.22338E+00 +6.89689E-01 +9.58161E-01 +1.10513E+00 +5.47137E-01 +1.39794E+00 +5.04858E-02 +1.51864E+00
 -4.56526E-01 +1.44699E+00 -8.97265E-01 +1.19551E+00 -1.20756E+00 +8.06823E-01 -1.34703E+00 +3.45455E-01
 -1.30573E+00 -1.14363E-01 -1.10506E+00 -5.02394E-01 -7.92684E-01 -7.65048E-01 -4.32730E-01 -8.74557E-01
 -9.30933E-02 -8.33010E-01 +1.67569E-01 -6.70568E-01 +3.10678E-01 -4.38357E-01 +3.24360E-01 -1.97503E-01
 +2.24668E-01 -6.54986E-03 +5.12805E-02 +9.02799E-02 -1.41371E-01 +7.16917E-02 -2.95712E-01 -5.68194E-02
 -3.63050E-01 -2.64526E-01 -3.13647E-01 -5.02042E-01 -1.42890E-01 -7.11548E-01 +1.27589E-01 -8.38608E-01
 +4.54001E-01 -8.43245E-01 +7.78823E-01 -7.08120E-01 +1.04188E+00 -4.42270E-01 +1.19189E+00 -7.97214E-02
 +1.19628E+00 +3.26682E-01 +1.04733E+00 +7.14989E-01 +7.63620E-01 +1.02548E+00 +3.86532E-01 +1.21146E+00
 -2.74494E-02 +1.24746E+00 -4.17074E-01 +1.13333E+00 -7.27299E-01 +8.93613E-01 -9.18820E-01 +5.72327E-01
 -9.74396E-01 +2.24367E-01 -9.00873E-01 -9.48224E-02 -7.26663E-01 -3.39268E-01 -4.95306E-01 -4.80306E-01
 -2.56469E-01 -5.10828E-01 -5.61904E-02 -4.45244E-01 +7.17304E-02 -3.15350E-01 +1.11595E-01 -1.63011E-01
 +6.78877E-02 -3.12294E-02 -3.66944E-02 +4.46473E-02 -1.66724E-01 +4.38551E-02 -2.81864E-01 -3.60021E-02
 -3.45404E-01 -1.78947E-01 -3.31842E-01 -3.54284E-01 -2.32036E-01 -5.23093E-01 -5.50139E-02 -6.46209E-01
 +1.73842E-01 -6.92092E-01 +4.17762E-01 -6.43071E-01 +6.35677E-01 -4.98787E-01 +7.90001E-01 -2.76261E-01
 +8.53605E-01 -6.66465E-03 +8.14669E-01 +2.70501E-01 +6.78570E-01 +5.14623E-01 +4.66543E-01 +6.91205E-01
 +2.11477E-01 +7.77722E-01 -4.82475E-02 +7.67092E-01 -2.75667E-01 +6.68183E-01 -4.41554E-01 +5.03421E-01
 -5.29009E-01 +3.04053E-01 -5.35557E-01 +1.04088E-01 -4.72489E-01 -6.59026E-02 -3.61723E-01 -1.83952E-01
 -2.30924E-01 -2.39927E-01 -1.07893E-01 -2.36328E-01 -1.53447E-02 -1.86666E-01 +3.29733E-02 -1.11866E-01
 +3.41623E-02 -3.55243E-02 -4.17876E-03 +2.10134E-02 -6.63192E-02 +4.27809E-02 -1.32194E-01 +2.37949E-02
 -1.81807E-01 -3.22821E-02 -1.99341E-01 -1.13418E-01 -1.76211E-01 -2.02064E-01 -1.12516E-01 -2.78922E-01
 -1.67305E-02 -3.26857E-01 +9.62179E-02 -3.34181E-01 +2.07995E-01 -2.96720E-01 +3.00396E-01 -2.18358E-01
 +3.58654E-01 -1.10042E-01 +3.73931E-01 +1.24503E-02 +3.44574E-01 +1.31480E-01 +2.76004E-01 +2.30649E-01
 +1.79363E-01 +2.97456E-01 +6.92784E-02 +3.25055E-01 -3.87803E-02 +3.12895E-01 -1.31027E-01 +2.66216E-01
 -1.97338E-01 +1.94632E-01 -2.32388E-01 +1.10149E-01 -2.35851E-01 +2.50318E-02 -2.11757E-01 -5.00693E-02
 -1.67235E-01 -1.07457E-01 -1.10961E-01 -1.43025E-01 -5.16352E-02 -1.56212E-01 +3.24979E-03 -1.49404E-01
