 Created: 16-Jan-2021
 $NMID
 ID='D:\BASISSIMULATI'
 FMTDAT='(8E13.5)'
 VOLUME=   1.00000E+00
 TRAMP=   1.00000E+00
 $END
 +1.10597E+01 +1.25180E-02 +1.01438E+01 +4.37207E+00 +7.58438E+00 +8.01137E+00 +3.80094E+00 +1.03418E+01
 -5.89667E-01 +1.09885E+01 -4.87359E+00 +9.85083E+00 -8.35607E+00 +7.11784E+00 -1.04741E+01 +3.23692E+00
 -1.08876E+01 -1.15941E+00 -9.53358E+00 -5.35661E+00 -6.63628E+00 -8.67422E+00 -2.66959E+00 -1.05762E+01
 +1.72025E+00 -1.07576E+01 +5.81999E+00 -9.19315E+00 +8.96520E+00 -6.14119E+00 +1.06480E+01 -2.10056E+00
 +1.05991E+01 +2.27073E+00 +8.83071E+00 +6.26264E+00 +5.63408E+00 +9.22849E+00 +1.53141E+00 +1.06897E+01
 -2.80942E+00 +1.04129E+01 -6.68355E+00 +8.44748E+00 -9.46363E+00 +5.11646E+00 -1.07014E+01 +9.63718E-01
 -1.01998E+01 -3.33495E+00 -8.04472E+00 -7.08178E+00 -4.58987E+00 -9.67026E+00 -3.99042E-01 -1.06833E+01
 +3.84601E+00 -9.96065E+00 +7.45644E+00 -7.62376E+00 +9.84808E+00 -4.05586E+00 +1.06360E+01 +1.61090E-01
 +9.69633E+00 +4.34132E+00 +7.18592E+00 +7.80674E+00 +3.51598E+00 +9.99689E+00 -7.15173E-01 +1.05597E+01
 -4.81968E+00 +9.40785E+00 -8.13195E+00 +6.73260E+00 -1.01166E+01 +2.97178E+00 -1.04549E+01 -1.26174E+00
 -9.09625E+00 -5.27993E+00 -6.26520E+00 -8.43142E+00 -2.42481E+00 -1.02071E+01 +1.79934E+00 -1.03223E+01
 +5.72097E+00 -8.76261E+00 +8.70459E+00 -5.78516E+00 +1.02685E+01 -1.87660E+00 +1.01625E+01 +2.32660E+00
 +8.40808E+00 +6.14179E+00 +5.29392E+00 +8.95096E+00 +1.32869E+00 +1.03009E+01 -2.84215E+00 +9.97623E+00
 -6.54141E+00 +8.03386E+00 -9.17012E+00 +4.79295E+00 -1.03045E+01 +7.82585E-01 -9.76421E+00 -3.34468E+00
 -7.64116E+00 -6.91895E+00 -4.28375E+00 -9.36173E+00 -2.39779E-01 -1.02795E+01 +3.83294E+00 -9.52731E+00
 +7.27359E+00 -7.23127E+00 +9.52555E+00 -3.76780E+00 +1.02264E+01 +2.98260E-01 +9.26644E+00 +4.30572E+00
 +6.80548E+00 +7.60457E+00 +3.24659E+00 +9.66139E+00 -8.30092E-01 +1.01456E+01 -4.76187E+00 +8.98256E+00
 -7.91122E+00 +6.36514E+00 -9.76916E+00 +2.72162E+00 -1.00375E+01 -1.35431E+00 -8.67669E+00 -5.20029E+00
 -5.91161E+00 -8.19292E+00 -2.19438E+00 -9.84884E+00 +1.86954E+00 -9.90273E+00 +5.61994E+00 -8.34989E+00
 +8.44916E+00 -5.44627E+00 +9.90049E+00 -1.66634E+00 +9.74194E+00 +2.37445E+00 +8.00327E+00 +6.01986E+00
 +4.97052E+00 +8.67947E+00 +1.13898E+00 +9.92426E+00 -2.86774E+00 +9.55583E+00 -6.39914E+00 +7.63799E+00
 -8.88349E+00 +4.48579E+00 -9.92035E+00 +6.13739E-01 -9.34515E+00 -3.34817E+00 -7.25525E+00 -6.75693E+00
 -3.99351E+00 -9.06090E+00 -9.20592E-02 -9.88906E+00 +3.81454E+00 -9.11075E+00 +7.09246E+00 -6.85628E+00
 +9.21148E+00 -3.49511E+00 +9.83073E+00 +4.24657E-01 +8.85350E+00 +4.26569E+00 +6.44234E+00 +7.40503E+00
 +2.99204E+00 +9.33510E+00 -9.35030E-01 +9.74581E+00 -4.70054E+00 +8.57435E+00 -7.69399E+00 +6.01473E+00
 -9.43166E+00 +2.48572E+00 -9.63480E+00 -1.43771E+00 -8.27428E+00 -5.11805E+00 -5.57477E+00 -7.95879E+00
 -1.97760E+00 -9.50119E+00 +1.93139E+00 -9.49825E+00 +5.51722E+00 -7.95434E+00 +8.19895E+00 -5.12380E+00
 +9.54375E+00 -1.46909E+00 +9.33682E+00 +2.41479E+00 +7.61561E+00 +5.89715E+00 +4.66317E+00 +8.41403E+00
 +9.61603E-01 +9.55950E+00 -2.88668E+00 +9.15118E+00 -6.25698E+00 +7.25921E+00 -8.60369E+00 +4.19426E+00
 -9.54866E+00 +4.56536E-01 -8.94210E+00 -3.34587E+00 -6.88630E+00 -6.59591E+00 -3.71844E+00 -8.76768E+00
 +4.47406E-02 -9.51153E+00 +3.79122E+00 -8.71039E+00 +6.91321E+00 -6.49809E+00 +8.90578E+00 -3.23710E+00
 +9.44848E+00 +5.40880E-01 +8.45691E+00 +4.22163E+00 +6.09579E+00 +7.20823E+00 +2.75163E+00 +9.01788E+00
 -1.03056E+00 +9.35993E+00 -4.63606E+00 +8.18259E+00 -7.48036E+00 +5.68067E+00 -9.10392E+00 +2.26340E+00
 -9.24640E+00 -1.51249E+00 -7.88839E+00 -5.03353E+00 -5.25399E+00 -7.72909E+00 -1.77381E+00 -9.16393E+00
 +1.98543E+00 -9.10843E+00 +5.41311E+00 -7.57532E+00 +7.95397E+00 -4.81706E+00 +9.19801E+00 -1.28420E+00
 +8.94666E+00 +2.44814E+00 +7.24444E+00 +5.77392E+00 +4.37117E+00 +8.15460E+00 +7.95940E-01 +9.20632E+00
 -2.89945E+00 +8.76177E+00 -6.11516E+00 +6.89685E+00 -8.33069E+00 +3.91766E+00 -9.18909E+00 +3.10364E-01
 -8.55451E+00 -3.33823E+00 -6.53366E+00 -6.43608E+00 -3.45786E+00 -8.48198E+00 +1.71213E-01 -9.14663E+00
 +3.76340E+00 -8.32568E+00 +6.73600E+00 -6.15604E+00 +8.60830E+00 -2.99310E+00 +9.07930E+00 +6.47499E-01
 +8.07611E+00 +4.17391E+00 +5.76517E+00 +7.01430E+00 +2.52471E+00 +8.70956E+00 -1.11723E+00 +8.98755E+00
 -4.56877E+00 +7.80671E+00 -7.27041E+00 +5.36228E+00 -8.78573E+00 +2.05402E+00 -8.87186E+00 -1.57918E+00
 -7.51842E+00 -4.94705E+00 -4.94859E+00 -7.50387E+00 -1.58237E+00 -8.83685E+00 +2.03213E+00 -8.73281E+00
 +5.30787E+00 -7.21223E+00 +7.71424E+00 -4.52536E+00 +8.86303E+00 -1.11105E+00 +8.57100E+00 +2.47494E+00
 +6.88916E+00 +5.65041E+00 +4.09385E+00 +7.90118E+00 +6.41382E-01 +8.86443E+00 -2.90648E+00 +8.38711E+00
 -5.97389E+00 +6.55028E+00 -8.06441E+00 +3.65534E+00 -8.84132E+00 +1.74636E-01 -8.18188E+00 -3.32566E+00
 -6.19667E+00 -6.27763E+00 -3.21111E+00 -8.20371E+00 +2.87923E-01 -8.79399E+00 +3.73146E+00 -7.95607E+00
 +6.56097E+00 -5.82947E+00 +8.31893E+00 -2.76244E+00 +8.72283E+00 +7.45060E-01 +7.71053E+00 +4.12288E+00
 +5.44983E+00 +6.82334E+00 +2.31063E+00 +8.41000E+00 -1.19556E+00 +8.62826E+00 -4.49899E+00 +7.44613E+00
 -7.06422E+00 +5.05892E+00 -8.47691E+00 +1.85695E+00 -8.51078E+00 -1.63826E+00 -7.16378E+00 -4.85890E+00
 -4.65793E+00 -7.28315E+00 -1.40267E+00 -8.51971E+00 +2.07199E+00 -8.37095E+00 +5.20177E+00 -6.86446E+00
 +7.47977E+00 -4.24807E+00 +8.53853E+00 -9.49052E-01 +8.20937E+00 +2.49566E+00 +6.54915E+00 +5.52683E+00
 +3.83057E+00 +7.65373E+00 +4.97351E-01 +8.53356E+00 -2.90819E+00 +8.02671E+00 -5.83336E+00 +6.21888E+00
 -7.80480E+00 +3.40665E+00 -8.50504E+00 +4.87939E-02 -7.82368E+00 -3.30855E+00 -5.87473E+00 -6.12070E+00
 -2.97756E+00 -7.93277E+00 +3.95411E-01 -8.45329E+00 +3.69577E+00 -7.60106E+00 +6.38824E+00 -5.51778E+00
 +8.03754E+00 -2.54453E+00 +8.37869E+00 +8.34080E-01 +7.35965E+00 +4.06889E+00 +5.14914E+00 +6.63544E+00
 +2.10879E+00 +8.11903E+00 -1.26606E+00 +8.28167E+00 -4.42703E+00 +7.10030E+00 -6.86183E+00 +4.76995E+00
 -8.17726E+00 +1.67158E+00 -8.16273E+00 -1.69021E+00 -6.82392E+00 -4.76934E+00 -4.38137E+00 -7.06697E+00
 -1.23412E+00 -8.21230E+00 +2.10545E+00 -8.02240E+00 +5.09505E+00 -6.53144E+00 +7.25053E+00 -3.98456E+00
 +8.22429E+00 -7.97629E-01 +7.86130E+00 +2.51071E+00 +6.22382E+00 +5.40341E+00 +3.58071E+00 +7.41221E+00
 +3.63296E-01 +8.21342E+00 -2.90498E+00 +7.68008E+00 -5.69375E+00 +5.90208E+00 -7.55178E+00 +3.17099E+00
 -8.17995E+00 -6.76965E-02 -7.47944E+00 -3.28727E+00 -5.56723E+00 -5.96544E+00 -2.75661E+00 -7.66907E+00
 +4.94191E-01 -8.12419E+00 +3.65665E+00 -7.26012E+00 +6.21793E+00 -5.22035E+00 +7.76398E+00 -2.33875E+00
 +8.04654E+00 +9.15053E-01 +7.02293E+00 +4.01223E+00 +4.86249E+00 +6.45069E+00 +1.91860E+00 +7.83648E+00
 -1.32918E+00 +7.94741E+00 -4.35316E+00 +6.76869E+00 -6.66329E+00 +4.49478E+00 -7.88659E+00 +1.49735E+00
 -7.82731E+00 -1.73548E+00 -6.49828E+00 -4.67864E+00 -4.11832E+00 -6.85535E+00 -1.07618E+00 -7.91439E+00
 +2.13292E+00 -7.68676E+00 +4.98793E+00 -6.21261E+00 +7.02653E+00 -3.73423E+00 +7.92004E+00 -6.56241E-01
 +7.52637E+00 +2.52049E+00 +5.91262E+00 +5.28033E+00 +3.34367E+00 +7.17657E+00 +2.38690E-01 +7.90373E+00
 -2.89722E+00 +7.34677E+00 -5.55521E+00 +5.59929E+00 -7.30527E+00 +2.94776E+00 -7.86573E+00 -1.75344E-01
 -7.14866E+00 -3.26217E+00 -5.27361E+00 -5.81199E+00 -2.54767E+00 -7.41248E+00 +5.84752E-01 -7.80637E+00
 +3.61444E+00 -6.93277E+00 +6.05013E+00 -4.93660E+00 +7.49813E+00 -2.14454E+00 +7.72602E+00 +9.88448E-01
 +6.69987E+00 +3.95320E+00 +4.58932E+00 +6.26915E+00 +1.73950E+00 +7.56219E+00 -1.38537E+00 +7.62511E+00
 -4.27765E+00 +6.45077E+00 -6.46866E+00 +4.23282E+00 -7.60471E+00 +1.33372E+00 -7.50412E+00 -1.77450E+00
 -6.18634E+00 -4.58702E+00 -3.86819E+00 -6.64828E+00 -9.28297E-01 -7.62577E+00 +2.15482E+00 -7.36360E+00
 +4.88061E+00 -5.90744E+00 +6.80773E+00 -3.49651E+00 +7.62554E+00 -5.24369E-01 +7.20413E+00 +2.52539E+00
 +5.61500E+00 +5.15777E+00 +3.11888E+00 +6.94676E+00 +1.23030E-01 +7.60422E+00 -2.88526E+00 +7.02634E+00
 -5.41790E+00 +5.30996E+00 -7.06519E+00 +2.73641E+00 -7.56210E+00 -2.74634E-01 -6.83090E+00 -3.23356E+00
 -4.99329E+00 -5.66045E+00 -2.35019E+00 -7.16291E+00 +6.67561E-01 -7.49949E+00 +3.56944E+00 -6.61853E+00
 +5.88493E+00 -4.66599E+00 +7.23985E+00 -1.96135E+00 +7.41678E+00 +1.05471E+00 +6.38998E+00 +3.89208E+00
 +4.32906E+00 +6.09089E+00 +1.57096E+00 +7.29599E+00 -1.43507E+00 +7.31438E+00 -4.20074E+00 +6.14605E+00
 -6.27795E+00 +3.98353E+00 -7.33141E+00 +1.18014E+00 -7.19279E+00 -1.80766E+00 -5.88757E+00 -4.49470E+00
 -3.63044E+00 -6.44578E+00 -7.89971E-01 -7.34620E+00 +2.17153E+00 -7.05253E+00 +4.77329E+00 -5.61540E+00
 +6.59411E+00 -3.27084E+00 +7.34054E+00 -4.01516E-01 +6.89417E+00 +2.52575E+00 +5.33043E+00 +5.03590E+00
 +2.90581E+00 +6.72272E+00 +1.58367E-02 +7.31463E+00 -2.86945E+00 +6.71834E+00 -5.28195E+00 +5.03357E+00
 -6.83147E+00 +2.53638E+00 -7.26876E+00 -3.66029E-01 -6.52569E+00 -3.20177E+00 -4.72576E+00 -5.51095E+00
 -2.16365E+00 -6.92024E+00 +7.43062E-01 -7.20326E+00 +3.52192E+00 -6.31692E+00 +5.72241E+00 -4.40796E+00
 +6.98898E+00 -1.78865E+00 +7.11849E+00 +1.11427E+00 +6.09278E+00 +3.82913E+00 +4.08116E+00 +5.91594E+00
 +1.41247E+00 +7.03772E+00 -1.47868E+00 +7.01489E+00 -4.12268E+00 +5.85404E+00 -6.09118E+00 +3.74634E+00
 -7.06651E+00 +1.03614E+00 -6.89294E+00 -1.83537E+00 -5.60150E+00 -4.40189E+00 -3.40452E+00 -6.24782E+00
 -6.60710E-01 -7.07548E+00 +2.18340E+00 -6.75314E+00 +4.66615E+00 -5.33600E+00 +6.38563E+00 -3.05670E+00
 +7.06480E+00 -2.87210E-01 +6.59608E+00 +2.52192E+00 +5.05840E+00 +4.91485E+00 +2.70391E+00 +6.50440E+00
 -8.33484E-02 +7.03469E+00 -2.85009E+00 +6.42235E+00 -5.14749E+00 +4.76959E+00 -6.60400E+00 +2.34717E+00
 -6.98543E+00 -4.49970E-01 -6.23260E+00 -3.16709E+00 -4.47049E+00 -5.36356E+00 -1.98751E+00 -6.68434E+00
 +8.11680E-01 -6.91735E+00 +3.47216E+00 -6.02751E+00 +5.56264E+00 -4.16201E+00 +6.74540E+00 -1.62596E+00
 +6.83083E+00 +1.16753E+00 +5.80782E+00 +3.76458E+00 +3.84512E+00 +5.74436E+00 +1.26352E+00 +6.78720E+00
