 Created: 16-Jan-2021
 $NMID
 ID='D:\BASISSIMULATI'
 FMTDAT='(8E13.5)'
 VOLUME=   1.00000E+00
 TRAMP=   1.00000E+00
 $END
 +6.26635E+00 +7.08220E-03 +5.69306E+00 +2.46789E+00 +4.20159E+00 +4.47546E+00 +2.05738E+00 +5.70814E+00
 -3.71108E-01 +5.98038E+00 -2.67671E+00 +5.27097E+00 -4.48299E+00 +3.72265E+00 -5.50671E+00 +1.61388E+00
 -5.60296E+00 -6.91633E-01 -4.78543E+00 -2.80856E+00 -3.21927E+00 -4.39538E+00 -1.18838E+00 -5.21031E+00
 +9.56374E-01 -5.14851E+00 +2.85850E+00 -4.25474E+00 +4.21599E+00 -2.71012E+00 +4.82992E+00 -7.96316E-01
 +4.63355E+00 +1.15608E+00 +3.69775E+00 +2.82519E+00 +2.21281E+00 +3.95164E+00 +4.50695E-01 +4.37920E+00
 -1.28478E+00 +4.07592E+00 -2.71083E+00 +3.13310E+00 -3.61221E+00 +1.74321E+00 -3.87377E+00 +1.61671E-01
 -3.49402E+00 -1.33995E+00 -2.57846E+00 -2.52090E+00 -1.31493E+00 -3.21009E+00 +6.37405E-02 -3.33055E+00
 +1.32239E+00 -2.90603E+00 +2.26380E+00 -2.04985E+00 +2.75960E+00 -9.38846E-01 +2.76697E+00 +2.21784E-01
 +2.32920E+00 +1.23607E+00 +1.56108E+00 +1.95035E+00 +6.22814E-01 +2.27623E+00 -3.11931E-01 +2.20024E+00
 -1.08775E+00 +1.77918E+00 -1.59316E+00 +1.12333E+00 -1.77600E+00 +3.71541E-01 -1.64667E+00 -3.36687E-01
 -1.26948E+00 -8.86505E-01 -7.44874E-01 -1.20602E+00 -1.86612E-01 -1.27466E+00 +3.01262E-01 -1.12097E+00
 +6.43167E-01 -8.11045E-01 +8.03179E-01 -4.30899E-01 +7.87102E-01 -6.66625E-02 +6.35812E-01 +2.13127E-01
 +4.11988E-01 +3.69709E-01 +1.83569E-01 +3.98695E-01 +7.68779E-03 +3.26703E-01 -8.14832E-02 +2.01379E-01
 -7.85927E-02 +7.74533E-02 -5.78284E-03 +2.17556E-03 +9.51280E-02 +3.46388E-03 +1.74866E-01 +8.33229E-02
 +1.90348E-01 +2.17860E-01 +1.16563E-01 +3.63717E-01 -4.60501E-02 +4.69317E-01 -2.70404E-01 +4.88289E-01
 -5.08048E-01 +3.91967E-01 -6.99789E-01 +1.78095E-01 -7.89348E-01 -1.26341E-01 -7.37037E-01 -4.68919E-01
 -5.30428E-01 -7.81593E-01 -1.89560E-01 -9.94561E-01 +2.34632E-01 -1.05134E+00 +6.68607E-01 -9.21864E-01
 +1.02974E+00 -6.10828E-01 +1.24249E+00 -1.59257E-01 +1.25397E+00 +3.61169E-01 +1.04583E+00 +8.60253E-01
 +6.39880E-01 +1.24565E+00 +9.61162E-02 +1.44041E+00 -4.96650E-01 +1.39831E+00 -1.03605E+00 +1.11393E+00
 -1.42454E+00 +6.25412E-01 -1.58747E+00 +9.17712E-03 -1.48752E+00 -6.32651E-01 -1.13262E+00 -1.18987E+00
 -5.75855E-01 -1.56374E+00 +9.28776E-02 -1.68494E+00 +7.61966E-01 -1.52649E+00 +1.31737E+00 -1.10940E+00
 +1.66261E+00 -4.99763E-01 +1.73592E+00 +2.02123E-01 +1.52141E+00 +8.78846E-01 +1.05227E+00 +1.41608E+00
 +4.05372E-01 +1.72237E+00 -3.11708E-01 +1.74504E+00 -9.79129E-01 +1.47935E+00 -1.48528E+00 +9.69319E-01
 -1.74582E+00 +3.00227E-01 -1.71802E+00 -4.16074E-01 -1.40777E+00 -1.06027E+00 -8.68322E-01 -1.52586E+00
 -1.90893E-01 -1.73705E+00 +5.11081E-01 -1.66127E+00 +1.12128E+00 -1.31416E+00 +1.54010E+00 -7.56372E-01
 +1.70106E+00 -8.27489E-02 +1.58152E+00 +5.94031E-01 +1.20564E+00 +1.16258E+00 +6.39631E-01 +1.53133E+00
 -2.01204E-02 +1.64340E+00 -6.63610E-01 +1.48539E+00 -1.18575E+00 +1.08865E+00 -1.50365E+00 +5.23145E-01
 -1.56980E+00 -1.14947E-01 -1.37911E+00 -7.19743E-01 -9.68694E-01 -1.19331E+00 -4.10744E-01 -1.46155E+00
 +2.00215E-01 -1.48579E+00 +7.63387E-01 -1.26817E+00 +1.18836E+00 -8.50223E-01 +1.40960E+00 -3.05036E-01
 +1.39645E+00 +2.75523E-01 +1.15717E+00 +7.96279E-01 +7.36516E-01 +1.17432E+00 +2.07473E-01 +1.35210E+00
 -3.41383E-01 +1.30610E+00 -8.20640E-01 +1.04963E+00 -1.15454E+00 +6.29699E-01 -1.29282E+00 +1.18493E-01
 -1.21814E+00 -3.98973E-01 -9.47964E-01 -8.38884E-01 -5.30825E-01 -1.13208E+00 -3.77226E-02 -1.23478E+00
 +4.49867E-01 -1.13497E+00 +8.53324E-01 -8.53513E-01 +1.10942E+00 -4.40025E-01 +1.18008E+00 +3.57899E-02
 +1.05789E+00 +4.95752E-01 +7.66616E-01 +8.65913E-01 +3.56711E-01 +1.08830E+00 -1.03305E-01 +1.12985E+00
 -5.38167E-01 +9.87235E-01 -8.78038E-01 +6.86796E-01 -1.06959E+00 +2.79815E-01 -1.08427E+00 -1.66133E-01
 -9.22454E-01 -5.78271E-01 -6.12974E-01 -8.90372E-01 -2.08053E-01 -1.05329E+00 +2.25386E-01 -1.04262E+00
 +6.16671E-01 -8.62316E-01 +9.02807E-01 -5.43716E-01 +1.03854E+00 -1.40172E-01 +1.00348E+00 +2.81780E-01
 +8.05148E-01 +6.53314E-01 +4.77498E-01 +9.14468E-01 +7.51846E-02 +1.02380E+00 -3.35492E-01 +9.64943E-01
 -6.87458E-01 +7.49094E-01 -9.23805E-01 +4.12951E-01 -1.00699E+00 +1.25415E-02 -9.24855E-01 -3.86080E-01
 -6.92381E-01 -7.17725E-01 -3.49073E-01 -9.28754E-01 +4.77451E-02 -9.85801E-01 +4.32493E-01 -8.81100E-01
 +7.42218E-01 -6.33557E-01 +9.26957E-01 -2.85391E-01 +9.57880E-01 +1.05058E-01 +8.31853E-01 +4.73145E-01
 +5.71686E-01 +7.58710E-01 +2.22054E-01 +9.16012E-01 -1.58203E-01 +9.21159E-01 -5.06058E-01 +7.75801E-01
 -7.64869E-01 +5.06485E-01 -8.93734E-01 +1.59850E-01 -8.74068E-01 -2.05509E-01 -7.12315E-01 -5.29057E-01
 -4.38385E-01 -7.58504E-01 -1.00152E-01 -8.58401E-01 +2.44988E-01 -8.15728E-01 +5.40002E-01 -6.41545E-01
 +7.37812E-01 -3.68512E-01 +8.08965E-01 -4.47922E-02 +7.46087E-01 +2.74538E-01 +5.64447E-01 +5.37017E-01
 +2.98608E-01 +7.01597E-01 -4.11136E-03 +7.45202E-01 -2.92166E-01 +6.65970E-01 -5.18720E-01 +4.82722E-01
 -6.49441E-01 +2.30874E-01 -6.67800E-01 -4.43684E-02 -5.77057E-01 -2.96215E-01 -3.98700E-01 -4.84410E-01
 -1.67772E-01 -5.81817E-01 +7.39441E-02 -5.78368E-01 +2.85575E-01 -4.81791E-01 +4.34212E-01 -3.15152E-01
 +5.00138E-01 -1.11806E-01 +4.79371E-01 +9.11813E-02 +3.83218E-01 +2.59852E-01 +2.35079E-01 +3.69158E-01
 +6.52798E-02 +4.06724E-01 -9.49998E-02 +3.74003E-01 -2.19486E-01 +2.84778E-01 -2.91199E-01 +1.61464E-01
 -3.04712E-01 +3.00788E-02 -2.65997E-01 -8.50543E-02 -1.90069E-01 -1.65814E-01 -9.70332E-02 -2.03157E-01
 -7.47335E-03 -1.97900E-01 +6.18427E-02 -1.59408E-01 +1.01067E-01 -1.02601E-01 +1.08610E-01 -4.40355E-02
 +9.05508E-02 +2.03286E-03 +5.83578E-02 +2.67544E-02 +2.55432E-02 +2.83035E-02 +4.04630E-03 +1.17297E-02
 +1.19703E-03 -1.28462E-02 +1.79409E-02 -3.32124E-02 +4.87083E-02 -3.84892E-02 +8.29289E-02 -2.21773E-02
 +1.07821E-01 +1.58910E-02 +1.11788E-01 +6.91653E-02 +8.76291E-02 +1.25663E-01 +3.47912E-02 +1.70659E-01
 -3.98863E-02 +1.90175E-01 -1.23158E-01 +1.74498E-01 -1.97928E-01 +1.20896E-01 -2.46853E-01 +3.49004E-02
 -2.56227E-01 -7.02054E-02 -2.19302E-01 -1.75651E-01 -1.38287E-01 -2.60778E-01 -2.45361E-02 -3.07256E-01
 +1.03187E-01 -3.03021E-01 +2.22078E-01 -2.45123E-01 +3.09647E-01 -1.40806E-01 +3.48202E-01 -6.57387E-03
 +3.28516E-01 +1.34665E-01 +2.51935E-01 +2.57817E-01 +1.30439E-01 +3.40382E-01 -1.54014E-02 +3.66834E-01
 -1.60184E-01 +3.31714E-01 -2.78445E-01 +2.40793E-01 -3.49483E-01 +1.10062E-01 -3.61283E-01 -3.72792E-02
 -3.12747E-01 -1.75242E-01 -2.13795E-01 -2.79990E-01 -8.33081E-02 -3.34323E-01 +5.46460E-02 -3.30800E-01
 +1.75555E-01 -2.72901E-01 +2.59182E-01 -1.73995E-01 +2.93322E-01 -5.43705E-02 +2.75836E-01 +6.30342E-02
 +2.14573E-01 +1.57309E-01 +1.25252E-01 +2.13662E-01 +2.77769E-02 +2.26086E-01 -5.81866E-02 +1.98059E-01
 -1.17411E-01 +1.41173E-01 -1.42164E-01 +7.20313E-02 -1.33469E-01 +8.13145E-03 -1.00306E-01 -3.63192E-02
 -5.69659E-02 -5.37025E-02 -1.91663E-02 -4.46376E-02 +1.55230E-04 -1.75831E-02 -5.63316E-03 +1.35355E-02
 -3.48711E-02 +3.31456E-02 -7.76944E-02 +2.84107E-02 -1.18263E-01 -6.86622E-03 -1.38698E-01 -6.98026E-02
 -1.23870E-01 -1.48143E-01 -6.59462E-02 -2.22341E-01 +3.24349E-02 -2.69700E-01 +1.57222E-01 -2.69765E-01
 +2.84677E-01 -2.09810E-01 +3.85623E-01 -8.91415E-02 +4.31487E-01 +7.88660E-02 +4.00943E-01 +2.67716E-01
 +2.85750E-01 +4.41786E-01 +9.44066E-02 +5.62821E-01 -1.47385E-01 +5.97758E-01 -3.99859E-01 +5.26348E-01
 -6.15625E-01 +3.46945E-01 -7.48378E-01 +7.90767E-02 -7.62303E-01 -2.38023E-01 -6.40313E-01 -5.51004E-01
 -3.89374E-01 -8.01346E-01 -4.15787E-02 -9.36158E-01 +3.49576E-01 -9.18867E-01 +7.17377E-01 -7.37672E-01
 +9.93310E-01 -4.09965E-01 +1.11973E+00 +1.84631E-02 +1.06146E+00 +4.79634E-01 +8.14022E-01 +8.94232E-01
 +4.06755E-01 +1.18534E+00 -1.00187E-01 +1.29266E+00 -6.24676E-01 +1.18463E+00 -1.07606E+00 +8.65942E-01
 -1.37100E+00 +3.79002E-01 -1.44883E+00 -2.01523E-01 -1.28373E+00 -7.80223E-01 -8.91155E-01 -1.25685E+00
 -3.27220E-01 -1.54390E+00 +3.19278E-01 -1.58270E+00 +9.41037E-01 -1.35514E+00 +1.43034E+00 -8.88632E-01
 +1.69797E+00 -2.53156E-01 +1.68955E+00 +4.49290E-01 +1.39641E+00 +1.10136E+00 +8.58628E-01 +1.59030E+00
 +1.59703E-01 +1.82772E+00 -5.86616E-01 +1.76571E+00 -1.25519E+00 +1.40635E+00 -1.73084E+00 +8.02661E-01
 -1.92852E+00 +5.07546E-02 -1.80868E+00 -7.25765E-01 -1.38508E+00 -1.39651E+00 -7.23421E-01 -1.84662E+00
 +6.89777E-02 -1.99674E+00 +8.60950E-01 -1.81725E+00 +1.51962E+00 -1.33401E+00 +1.93311E+00 -6.24638E-01
 +2.02993E+00 +1.94191E-01 +1.79150E+00 +9.86349E-01 +1.25573E+00 +1.61932E+00 +5.10901E-01 +1.98680E+00
 -3.19234E-01 +2.02691E+00 -1.09638E+00 +1.73283E+00 -1.69120E+00 +1.15394E+00 -2.00530E+00 +3.87436E-01
 -1.98782E+00 -4.38372E-01 -1.64385E+00 -1.18592E+00 -1.03320E+00 -1.73179E+00 -2.59868E-01 -1.98748E+00
 +5.46041E-01 -1.91408E+00 +1.25059E+00 -1.52827E+00 +1.73874E+00 -8.98773E-01 +1.93350E+00 -1.33966E-01
 +1.80835E+00 +6.37101E-01 +1.39072E+00 +1.28689E+00 +7.56354E-01 +1.71091E+00 +1.53822E-02 +1.84481E+00
 -7.07067E-01 +1.67437E+00 -1.29240E+00 +1.23655E+00 -1.64841E+00 +6.11840E-01 -1.72407E+00 -9.05966E-02
 -1.51687E+00 -7.52302E-01 -1.07159E+00 -1.26585E+00 -4.71064E-01 -1.55263E+00 +1.79278E-01 -1.57504E+00
 +7.70173E-01 -1.34126E+00 +1.20719E+00 -9.01896E-01 +1.42612E+00 -3.39539E-01 +1.40241E+00 +2.46764E-01
 +1.15348E+00 +7.59158E-01 +7.33500E-01 +1.11759E+00 +2.22234E-01 +1.27251E+00 -2.90099E-01 +1.21160E+00
 -7.18891E-01 +9.59686E-01 -9.99341E-01 +5.72145E-01 -1.09634E+00 +1.23374E-01 -1.00850E+00 -3.07382E-01
 -7.66029E-01 -6.50149E-01 -4.23056E-01 -8.55745E-01 -4.62870E-02 -9.02791E-01 +2.97804E-01 -7.99218E-01
 +5.54784E-01 -5.78366E-01 +6.90951E-01 -2.90744E-01 +6.97518E-01 +6.70296E-03 +5.89820E-01 +2.61643E-01
 +4.02048E-01 +4.35595E-01 +1.78855E-01 +5.09725E-01 -3.43168E-02 +4.86338E-01 -2.00189E-01 +3.86078E-01
 -2.96157E-01 +2.41721E-01 -3.17223E-01 +9.00618E-02 -2.74994E-01 -3.63101E-02 -1.93243E-01 -1.15622E-01
 -1.01178E-01 -1.40620E-01 -2.60291E-02 -1.18743E-01 +1.34056E-02 -6.89192E-02 +1.08555E-02 -1.58669E-02
