 Created: 16-Jan-2021
 $NMID
 ID='D:\BASISSIMULATI'
 FMTDAT='(8E13.5)'
 VOLUME=   1.00000E+00
 TRAMP=   1.00000E+00
 $END
 +8.86102E+00 +9.91673E-03 +6.03248E+00 +5.38967E+00 +3.87254E-01 +6.12373E+00 -2.84310E+00 +2.15688E+00
 -9.58035E-01 -2.09777E+00 +3.63528E+00 -2.11852E+00 +5.84387E+00 +2.29558E+00 +2.92003E+00 +6.84441E+00
 -2.81895E+00 +6.95045E+00 -6.22645E+00 +2.24795E+00 -4.31901E+00 -3.04060E+00 +8.48734E-01 -4.19083E+00
 +4.21414E+00 -5.26619E-01 +2.63733E+00 +3.99467E+00 -2.08421E+00 +4.70374E+00 -5.03795E+00 +7.98033E-01
 -3.04746E+00 -3.88825E+00 +2.19561E+00 -4.65069E+00 +5.76361E+00 -5.21638E-01 +4.27508E+00 +4.77626E+00
 -8.45414E-01 +6.43885E+00 -4.79078E+00 +3.21335E+00 -4.06062E+00 -1.45577E+00 +1.69450E-01 -2.85391E+00
 +3.26574E+00 +3.75758E-01 +1.71941E+00 +4.92035E+00 -3.39584E+00 +6.05610E+00 -7.45380E+00 +2.27263E+00
 -6.76257E+00 -3.24940E+00 -2.12039E+00 -5.72450E+00 +2.00925E+00 -3.37872E+00 +1.86451E+00 +9.02028E-01
 -1.98249E+00 +2.46608E+00 -5.25360E+00 -5.25532E-01 -4.20252E+00 -5.30830E+00 +6.95366E-01 -7.23205E+00
 +5.19057E+00 -4.30562E+00 +5.37848E+00 +8.68400E-01 +1.45596E+00 +3.63006E+00 -2.53088E+00 +1.76634E+00
 -2.66326E+00 -2.40997E+00 +1.05152E+00 -4.40006E+00 +4.74941E+00 -1.95523E+00 +4.53922E+00 +2.72819E+00
 +3.28579E-01 +5.17010E+00 -4.07806E+00 +2.98144E+00 -4.67214E+00 -1.82229E+00 -1.10113E+00 -4.79838E+00
 +3.05334E+00 -3.38143E+00 +3.80894E+00 +6.88405E-01 +6.51718E-01 +3.14782E+00 -3.02161E+00 +1.42071E+00
 -3.27820E+00 -2.86608E+00 +4.84655E-01 -5.49054E+00 +4.94799E+00 -3.76018E+00 +6.09606E+00 +8.81945E-01
 +3.08519E+00 +4.28437E+00 -1.00454E+00 +3.61609E+00 -2.22423E+00 +5.64816E-02 +3.97397E-01 -2.44513E+00
 +3.96168E+00 -1.08230E+00 +4.58974E+00 +3.06147E+00 +1.23725E+00 +6.08796E+00 -3.28560E+00 +5.09109E+00
 -5.04723E+00 +9.65108E-01 -2.78258E+00 -2.49898E+00 +9.50855E-01 -2.30372E+00 +2.33172E+00 +8.94920E-01
 +1.08634E-02 +3.51823E+00 -3.61869E+00 +2.62190E+00 -4.81443E+00 -1.21732E+00 -2.16317E+00 -4.48100E+00
 +2.04573E+00 -4.14496E+00 +4.05516E+00 -5.97854E-01 +2.26543E+00 +2.78100E+00 -1.28372E+00 +2.92516E+00
 -2.97494E+00 +1.94252E-02 -1.16095E+00 -2.76771E+00 +2.26775E+00 -2.44321E+00 +3.78369E+00 +8.74217E-01
 +1.69109E+00 +4.08862E+00 -2.22974E+00 +4.15476E+00 -4.46965E+00 +1.01766E+00 -3.18252E+00 -2.38349E+00
 +9.03524E-02 -3.00082E+00 +2.00191E+00 -6.07420E-01 +6.92944E-01 +2.06654E+00 -2.42712E+00 +2.06962E+00
 -4.11132E+00 -8.70423E-01 -2.47196E+00 -4.09940E+00 +1.18944E+00 -4.63650E+00 +3.66914E+00 -2.05151E+00
 +2.96280E+00 +1.17164E+00 +1.46137E-01 +2.08846E+00 -1.75938E+00 +1.33873E-01 -7.73965E-01 -2.40765E+00
 +2.13291E+00 -2.70612E+00 +4.04120E+00 -1.72661E-01 +2.95797E+00 +2.98338E+00 -2.52863E-01 +3.92320E+00
 -2.73925E+00 +1.91858E+00 -2.43021E+00 -9.99716E-01 +1.28625E-02 -2.06608E+00 +1.92956E+00 -4.58947E-01
 +1.30492E+00 +1.97150E+00 -1.28029E+00 +2.58365E+00 -3.26609E+00 +5.49980E-01 -2.64035E+00 -2.35386E+00
 +1.14419E-01 -3.50003E+00 +2.52576E+00 -1.94750E+00 +2.54176E+00 +7.03792E-01 +4.71969E-01 +1.92658E+00
 -1.40297E+00 +7.24697E-01 -1.11236E+00 -1.46141E+00 +1.09008E+00 -2.23537E+00 +3.02164E+00 -6.14443E-01
 +2.73196E+00 +2.02972E+00 +3.90276E-01 +3.33301E+00 -1.91927E+00 +2.22645E+00 -2.23984E+00 -8.46566E-02
 -5.98656E-01 -1.35745E+00 +1.10719E+00 -5.04364E-01 +1.02449E+00 +1.40417E+00 -8.48156E-01 +2.25883E+00
 -2.70365E+00 +1.00452E+00 -2.72315E+00 -1.34708E+00 -8.36258E-01 -2.73257E+00 +1.25476E+00 -2.03752E+00
 +1.75536E+00 -1.21446E-01 +4.87381E-01 +1.08861E+00 -1.02189E+00 +4.94854E-01 -1.09789E+00 -1.14903E+00
 +4.39896E-01 -2.04558E+00 +2.14297E+00 -1.14500E+00 +2.38255E+00 +8.46448E-01 +9.26545E-01 +2.18831E+00
 -8.82150E-01 +1.79943E+00 -1.46593E+00 +2.54484E-01 -5.20940E-01 -8.49033E-01 +7.65974E-01 -4.76809E-01
 +9.46364E-01 +8.72286E-01 -2.62487E-01 +1.72219E+00 -1.73960E+00 +1.09993E+00 -2.09200E+00 -5.29403E-01
 -1.00542E+00 -1.75346E+00 +4.98806E-01 -1.59462E+00 +1.09925E+00 -4.11484E-01 +4.44430E-01 +5.25384E-01
 -5.77182E-01 +3.09764E-01 -7.76919E-01 -7.45657E-01 +1.54033E-01 -1.48007E+00 +1.37764E+00 -1.05964E+00
 +1.76706E+00 +2.20845E-01 +1.00235E+00 +1.26585E+00 -1.66848E-01 +1.26045E+00 -6.99284E-01 +4.20437E-01
 -2.70262E-01 -2.92813E-01 +4.76766E-01 -1.54911E-01 +6.31189E-01 +6.34837E-01 -7.04614E-02 +1.20927E+00
 -1.01790E+00 +9.23888E-01 -1.36496E+00 -2.32884E-02 -8.56876E-01 -8.27577E-01 -3.11281E-02 -8.83520E-01
 +3.59520E-01 -3.39237E-01 +8.48467E-02 +1.20787E-01 -3.94584E-01 -5.62259E-03 -4.48679E-01 -5.59344E-01
 +7.69444E-02 -9.31730E-01 +7.36888E-01 -7.04478E-01 +9.64829E-01 -5.21661E-02 +6.33751E-01 +4.72013E-01
 +1.35704E-01 +5.04664E-01 -5.74093E-02 +1.99861E-01 +1.32138E-01 +1.00290E-02 +3.59023E-01 +1.89303E-01
 +2.61104E-01 +5.48223E-01 -1.53005E-01 +6.90001E-01 -5.34925E-01 +4.44958E-01 -5.82165E-01 +3.44413E-02
 -3.47309E-01 -1.89131E-01 -1.47609E-01 -1.21771E-01 -1.96639E-01 +7.59024E-03 -3.73296E-01 -7.63049E-02
 -3.77326E-01 -3.68712E-01 -8.79197E-02 -5.84744E-01 +2.81226E-01 -4.83489E-01 +4.08931E-01 -1.51303E-01
 +2.26552E-01 +7.96828E-02 +5.42571E-03 -1.62163E-03 +5.93794E-02 -2.37852E-01 +3.79597E-01 -2.63777E-01
 +6.13066E-01 +8.10362E-02 +4.34932E-01 +5.37154E-01 -7.34347E-02 +6.67259E-01 -4.64494E-01 +3.23716E-01
 -3.75595E-01 -1.58570E-01 +7.03035E-02 -2.81418E-01 +3.57921E-01 +9.02993E-02 +1.07819E-01 +5.50956E-01
 -4.96241E-01 +5.47455E-01 -8.50569E-01 -3.27327E-02 -5.39504E-01 -6.94120E-01 +2.03090E-01 -8.00268E-01
 +6.81285E-01 -2.30431E-01 +4.26352E-01 +4.53626E-01 -2.99515E-01 +5.43326E-01 -7.26605E-01 -8.87985E-02
 -3.46074E-01 -8.16023E-01 +5.39985E-01 -8.57636E-01 +1.07318E+00 -8.04890E-02 +6.87075E-01 +8.15833E-01
 -2.89797E-01 +9.61186E-01 -9.13105E-01 +1.94571E-01 -5.50260E-01 -7.29955E-01 +4.57213E-01 -8.61635E-01
 +1.08942E+00 -1.24743E-02 +6.52178E-01 +1.00939E+00 -4.97183E-01 +1.16918E+00 -1.25618E+00 +2.46060E-01
 -8.56409E-01 -8.99829E-01 +3.42059E-01 -1.14341E+00 +1.16058E+00 -2.18522E-01 +7.54044E-01 +9.74042E-01
 -5.21380E-01 +1.22318E+00 -1.41415E+00 +2.15208E-01 -9.99031E-01 -1.11065E+00 +3.78131E-01 -1.45332E+00
 +1.39519E+00 -4.41640E-01 +1.04143E+00 +9.56590E-01 -3.57246E-01 +1.35405E+00 -1.41521E+00 +3.19345E-01
 -1.03720E+00 -1.15464E+00 +4.72775E-01 -1.59258E+00 +1.66348E+00 -4.95798E-01 +1.34494E+00 +1.12396E+00
 -2.15747E-01 +1.70160E+00 -1.51373E+00 +6.59890E-01 -1.26771E+00 -9.85752E-01 +2.96158E-01 -1.59247E+00
 +1.62473E+00 -5.10886E-01 +1.34760E+00 +1.23528E+00 -3.49112E-01 +1.91693E+00 -1.85797E+00 +7.99458E-01
 -1.70373E+00 -1.09682E+00 -9.58873E-03 -1.95895E+00 +1.58458E+00 -9.56946E-01 +1.51206E+00 +9.10681E-01
 -1.63182E-01 +1.76604E+00 -1.76994E+00 +6.98824E-01 -1.65114E+00 -1.30095E+00 +1.86723E-01 -2.27409E+00
 +2.03289E+00 -1.20935E+00 +2.12008E+00 +9.31211E-01 +3.67347E-01 +2.11640E+00 -1.50683E+00 +1.22815E+00
 -1.64961E+00 -8.17694E-01 +9.35175E-02 -1.94103E+00 +1.99014E+00 -9.39012E-01 +2.09842E+00 +1.29766E+00
 +1.89455E-01 +2.61577E+00 -1.98334E+00 +1.69869E+00 -2.36850E+00 -6.16612E-01 -6.28665E-01 -2.12242E+00
 +1.50130E+00 -1.39012E+00 +1.89504E+00 +8.11446E-01 +1.30812E-01 +2.24357E+00 -2.06049E+00 +1.39124E+00
 -2.46816E+00 -1.01861E+00 -5.80904E-01 -2.68631E+00 +1.87050E+00 -1.97488E+00 +2.57181E+00 +4.67102E-01
 +8.86606E-01 +2.30647E+00 -1.49947E+00 +1.79405E+00 -2.21195E+00 -5.09490E-01 -5.22806E-01 -2.26029E+00
 +1.90447E+00 -1.62548E+00 +2.61944E+00 +8.90885E-01 +7.92794E-01 +2.89820E+00 -1.93362E+00 +2.43723E+00
 -3.01588E+00 -8.99012E-02 -1.48626E+00 -2.28365E+00 +1.08590E+00 -2.07818E+00 +2.11633E+00 +2.28404E-01
 +5.44507E-01 +2.24720E+00 -2.09788E+00 +1.83545E+00 -3.16011E+00 -7.77425E-01 -1.47008E+00 -3.17113E+00
 +1.48576E+00 -3.07527E+00 +2.97918E+00 -5.94619E-01 +1.69270E+00 +1.87024E+00 -9.84708E-01 +1.95547E+00
 -2.30697E+00 -3.47821E-01 -8.66829E-01 -2.66881E+00 +1.99816E+00 -2.57432E+00 +3.48670E+00 +2.53791E-02
 +2.07207E+00 +2.74737E+00 -9.78017E-01 +3.03624E+00 -2.80642E+00 +6.60204E-01 -1.74147E+00 -2.04556E+00
 +1.06694E+00 -2.44879E+00 +2.76601E+00 -1.97764E-01 +1.59903E+00 +2.42135E+00 -1.34955E+00 +2.71786E+00
 -3.18736E+00 +2.50174E-01 -2.03662E+00 -2.70343E+00 +1.10868E+00 -3.33999E+00 +3.32238E+00 -1.06312E+00
 +2.58502E+00 +1.92373E+00 -2.46592E-01 +2.76025E+00 -2.27633E+00 +7.27295E-01 -1.41096E+00 -2.03993E+00
 +1.56708E+00 -2.63813E+00 +3.73666E+00 -2.54950E-01 +2.88363E+00 +2.99943E+00 -3.20074E-01 +4.12003E+00
 -2.94521E+00 +2.12796E+00 -2.64537E+00 -9.71149E-01 +5.94670E-02 -2.14209E+00 +2.29614E+00 -2.89752E-01
 +1.66027E+00 +2.66111E+00 -1.40680E+00 +3.64523E+00 -4.01997E+00 +1.46994E+00 -3.65483E+00 -1.98550E+00
 -6.21316E-01 -3.57173E+00 +2.21840E+00 -1.92581E+00 +2.22680E+00 +1.20276E+00 -4.43257E-01 +2.66226E+00
 -3.00580E+00 +9.83741E-01 -2.77867E+00 -2.17430E+00 +1.70318E-01 -3.64366E+00 +3.06151E+00 -1.85558E+00
 +3.10209E+00 +1.59785E+00 +2.15899E-01 +3.48719E+00 -2.86730E+00 +2.07780E+00 -3.26098E+00 -1.18649E+00
 -7.28258E-01 -3.09899E+00 +2.09847E+00 -1.82919E+00 +2.30615E+00 +1.28143E+00 -4.27942E-01 +3.02874E+00
 -3.49372E+00 +1.48879E+00 -3.87911E+00 -2.07656E+00 -1.10845E+00 -4.42101E+00 +2.28374E+00 -3.45815E+00
 +3.21352E+00 -2.81165E-01 +1.04443E+00 +1.91763E+00 -1.80741E+00 +9.76068E-01 -2.25475E+00 -2.11689E+00
 +4.17865E-01 -4.18514E+00 +3.82645E+00 -2.97761E+00 +4.79321E+00 +6.11347E-01 +2.43863E+00 +3.38724E+00
 -9.59885E-01 +2.94743E+00 -2.18494E+00 +3.43382E-03 -2.09144E-01 -2.33433E+00 +2.81841E+00 -1.61139E+00
 +3.69320E+00 +1.56143E+00 +1.31116E+00 +4.10007E+00 -2.22615E+00 +3.46451E+00 -3.64091E+00 +1.54138E-01
 -1.66426E+00 -2.75850E+00 +1.73218E+00 -2.60348E+00 +3.26089E+00 +3.04759E-01 +1.51958E+00 +2.99859E+00
 -1.65661E+00 +2.77472E+00 -3.01018E+00 -1.53782E-01 -1.06761E+00 -2.86225E+00 +2.39738E+00 -2.57548E+00
 +4.07447E+00 +6.10391E-01 +2.33165E+00 +3.80399E+00 -1.20361E+00 +4.11823E+00 -3.23740E+00 +1.46056E+00
 -2.01796E+00 -1.40681E+00 +9.73292E-01 -1.58923E+00 +2.49534E+00 +1.09879E+00 +7.40607E-01 +3.94834E+00
