 Created: 16-Jan-2021
 $NMID
 ID='D:\BASISSIMULATI'
 FMTDAT='(8E13.5)'
 VOLUME=   1.00000E+00
 TRAMP=   1.00000E+00
 $END
 +1.24798E+01 +1.39284E-02 +9.24556E+00 -5.28052E+00 +1.87040E+00 -6.24406E+00 -4.80105E+00 -1.73585E+00
 -6.67389E+00 +5.39959E+00 -3.18324E+00 +1.04012E+01 +2.51002E+00 +9.97518E+00 +5.94434E+00 +4.53957E+00
 +4.56052E+00 -2.21766E+00 -6.25094E-01 -6.02111E+00 -5.96214E+00 -4.91863E+00 -7.87788E+00 -3.75052E-01
 -5.32211E+00 +4.06105E+00 -2.64902E-01 +5.36995E+00 +3.90939E+00 +3.01816E+00 +4.78034E+00 -1.00993E+00
 +2.32501E+00 -3.88404E+00 -1.43510E+00 -3.92595E+00 -4.06263E+00 -1.52641E+00 -4.30119E+00 +1.45751E+00
 -2.58654E+00 +3.14029E+00 -3.68557E-01 +2.75554E+00 +1.02323E+00 +8.29801E-01 +1.10683E+00 -1.46921E+00
 +2.25877E-01 -3.13761E+00 -9.32050E-01 -3.73101E+00 -1.76679E+00 -3.28847E+00 -1.89756E+00 -2.10355E+00
 -1.13252E+00 -6.23336E-01 +4.76238E-01 +5.57156E-01 +2.47523E+00 +8.38028E-01 +4.00502E+00 -1.75406E-02
 +4.17771E+00 -1.54114E+00 +2.70825E+00 -2.64270E+00 +3.15934E-01 -2.25321E+00 -1.55292E+00 -1.55709E-01
 -1.64338E+00 +2.65464E+00 +1.57452E-01 +4.48917E+00 +2.59468E+00 +4.10915E+00 +3.82926E+00 +1.68502E+00
 +2.74271E+00 -1.19627E+00 -1.87508E-01 -2.57440E+00 -3.13787E+00 -1.49971E+00 -4.19060E+00 +1.25829E+00
 -2.69767E+00 +3.72985E+00 +2.45235E-01 +4.13795E+00 +2.57061E+00 +2.15579E+00 +2.69414E+00 -8.83288E-01
 +5.95304E-01 -2.95741E+00 -2.23621E+00 -2.78058E+00 -3.90182E+00 -6.50223E-01 -3.41026E+00 +1.84811E+00
 -1.27478E+00 +2.99736E+00 +9.64039E-01 +2.09870E+00 +1.86144E+00 -1.71821E-01 +1.00438E+00 -2.35461E+00
 -8.45367E-01 -3.23180E+00 -2.38570E+00 -2.54798E+00 -2.65211E+00 -1.00779E+00 -1.53774E+00 +3.16748E-01
 +2.93277E-01 +6.80007E-01 +1.90847E+00 +1.75852E-02 +2.63230E+00 -1.15321E+00 +2.31049E+00 -2.10150E+00
 +1.27579E+00 -2.25585E+00 +1.35910E-01 -1.43212E+00 -4.96049E-01 +1.02897E-01 -2.68647E-01 +1.71708E+00
 +7.04447E-01 +2.65677E+00 +1.82268E+00 +2.41976E+00 +2.26637E+00 +1.10039E+00 +1.49820E+00 -5.46855E-01
 -2.88442E-01 -1.48145E+00 -2.14008E+00 -1.04493E+00 -2.87589E+00 +5.12999E-01 -1.90332E+00 +2.09164E+00
 +2.60677E-01 +2.45055E+00 +2.22102E+00 +1.13177E+00 +2.62577E+00 -1.09539E+00 +1.15756E+00 -2.67859E+00
 -1.16003E+00 -2.37673E+00 -2.64369E+00 -2.24936E-01 -2.17870E+00 +2.38664E+00 -9.02979E-02 +3.65241E+00
 +2.03453E+00 +2.66054E+00 +2.49735E+00 +9.47714E-02 +7.76519E-01 -2.23321E+00 -2.02661E+00 -2.70919E+00
 -3.95426E+00 -1.11843E+00 -3.62370E+00 +1.19081E+00 -1.25321E+00 +2.32312E+00 +1.49762E+00 +1.27288E+00
 +2.75964E+00 -1.30532E+00 +1.82970E+00 -3.57848E+00 -3.45466E-01 -3.90205E+00 -1.92868E+00 -2.03498E+00
 -1.60054E+00 +7.08102E-01 +4.57926E-01 +2.46077E+00 +2.73685E+00 +2.18362E+00 +3.56014E+00 +3.76563E-01
 +2.33367E+00 -1.38105E+00 -5.80909E-02 -1.66737E+00 -1.96575E+00 -2.70459E-01 -2.21208E+00 +1.72065E+00
 -9.04514E-01 +2.79998E+00 +7.52705E-01 +2.18531E+00 +1.43761E+00 +3.48859E-01 +6.94784E-01 -1.41370E+00
 -8.06661E-01 -1.98301E+00 -1.87122E+00 -1.19757E+00 -1.70959E+00 +1.40575E-01 -4.80778E-01 +9.63298E-01
 +9.19085E-01 +7.46571E-01 +1.58325E+00 -1.79801E-01 +1.23813E+00 -9.92884E-01 +3.38389E-01 -1.05412E+00
 -3.82100E-01 -3.55335E-01 -4.89336E-01 +5.67913E-01 -1.04066E-01 +1.11064E+00 +3.06015E-01 +1.04068E+00
 +3.56686E-01 +5.79497E-01 +2.57982E-02 +1.27348E-01 -4.10314E-01 -8.16078E-02 -6.63432E-01 -1.03696E-01
 -6.60825E-01 -1.34287E-01 -5.31482E-01 -2.71066E-01 -4.12844E-01 -4.26615E-01 -2.95691E-01 -4.52465E-01
 -6.21594E-02 -3.25175E-01 +3.33982E-01 -1.92155E-01 +7.43084E-01 -2.21903E-01 +8.99667E-01 -4.04475E-01
 +6.55312E-01 -5.10550E-01 +1.51346E-01 -2.77902E-01 -2.49488E-01 +3.23528E-01 -2.45879E-01 +9.92012E-01
 +1.33298E-01 +1.28030E+00 +5.15736E-01 +9.42813E-01 +4.68387E-01 +1.62376E-01 -1.36022E-01 -5.48597E-01
 -9.69770E-01 -7.20419E-01 -1.46034E+00 -2.89424E-01 -1.21603E+00 +3.39621E-01 -3.40699E-01 +5.95853E-01
 +6.15037E-01 +1.85594E-01 +1.04235E+00 -6.64846E-01 +7.14744E-01 -1.35961E+00 -5.06595E-02 -1.36946E+00
 -6.32050E-01 -6.27558E-01 -5.62339E-01 +4.10683E-01 +1.31838E-01 +1.08648E+00 +9.56222E-01 +9.98859E-01
 +1.31154E+00 +2.74383E-01 +9.22291E-01 -5.39015E-01 +2.58614E-02 -8.64231E-01 -8.00119E-01 -4.87695E-01
 -1.03585E+00 +3.15759E-01 -5.61127E-01 +9.93160E-01 +2.83225E-01 +1.09559E+00 +9.35780E-01 +5.68455E-01
 +9.80628E-01 -2.31422E-01 +3.98978E-01 -7.82412E-01 -4.40577E-01 -7.34482E-01 -1.02707E+00 -1.22352E-01
 -1.02369E+00 +6.65243E-01 -4.64372E-01 +1.12821E+00 +2.77888E-01 +9.58257E-01 +7.23921E-01 +2.24813E-01
 +5.82799E-01 -6.62047E-01 -6.48125E-02 -1.19121E+00 -8.05796E-01 -1.05628E+00 -1.14163E+00 -3.47661E-01
 -8.02914E-01 +4.91428E-01 +6.13641E-02 +9.31581E-01 +9.50426E-01 +6.91982E-01 +1.31128E+00 -6.82087E-02
 +8.93415E-01 -8.37383E-01 -7.19335E-02 -1.07852E+00 -9.99210E-01 -5.91175E-01 -1.31587E+00 +3.34923E-01
 -8.34988E-01 +1.09122E+00 +1.17543E-01 +1.14603E+00 +9.14943E-01 +4.04847E-01 +1.04501E+00 -7.10651E-01
 +4.51404E-01 -1.52501E+00 -4.29985E-01 -1.54191E+00 -9.64064E-01 -7.60189E-01 -7.40656E-01 +3.34295E-01
 +1.53294E-01 +1.08906E+00 +1.18883E+00 +1.10061E+00 +1.73246E+00 +4.54752E-01 +1.44092E+00 -3.52400E-01
 +4.63884E-01 -7.45741E-01 -6.59401E-01 -4.34969E-01 -1.32956E+00 +4.12506E-01 -1.23481E+00 +1.28126E+00
 -5.15878E-01 +1.62004E+00 +3.33952E-01 +1.16788E+00 +7.64750E-01 +1.11106E-01 +4.92705E-01 -1.01165E+00
 -3.27721E-01 -1.60444E+00 -1.18018E+00 -1.35217E+00 -1.48044E+00 -4.16136E-01 -9.35064E-01 +6.35480E-01
 +2.42858E-01 +1.14712E+00 +1.41151E+00 +7.79462E-01 +1.86275E+00 -2.46854E-01 +1.27333E+00 -1.24705E+00
 -4.28551E-02 -1.48981E+00 -1.28054E+00 -6.95245E-01 -1.63930E+00 +7.21762E-01 -8.67903E-01 +1.86632E+00
 +5.21282E-01 +1.93961E+00 +1.55581E+00 +8.05700E-01 +1.45871E+00 -8.58434E-01 +2.15953E-01 -1.97724E+00
 -1.36227E+00 -1.80465E+00 -2.16950E+00 -4.63567E-01 -1.57727E+00 +1.10631E+00 +9.22250E-02 +1.78861E+00
 +1.75454E+00 +1.08299E+00 +2.30508E+00 -5.19524E-01 +1.39680E+00 -1.86618E+00 -3.09094E-01 -1.95777E+00
 -1.61097E+00 -6.67763E-01 -1.62284E+00 +1.15775E+00 -4.00627E-01 +2.29619E+00 +1.11382E+00 +2.01004E+00
 +1.78418E+00 +5.51224E-01 +1.09734E+00 -1.04780E+00 -4.84780E-01 -1.72787E+00 -1.87845E+00 -1.14332E+00
 -2.15762E+00 +1.40568E-01 -1.18464E+00 +1.10685E+00 +3.47040E-01 +1.03773E+00 +1.44957E+00 +2.88556E-03
 +1.53436E+00 -1.24289E+00 +7.61878E-01 -1.83317E+00 -1.63362E-01 -1.38899E+00 -5.47774E-01 -2.23117E-01
 -1.83582E-01 +9.45992E-01 +5.76467E-01 +1.50934E+00 +1.13815E+00 +1.32660E+00 +1.09631E+00 +7.13944E-01
 +4.64653E-01 +1.41525E-01 -4.08028E-01 -9.29703E-02 -1.10693E+00 +7.75453E-03 -1.38269E+00 +2.38301E-01
 -1.21420E+00 +3.75431E-01 -7.34234E-01 +2.97806E-01 -1.32559E-01 -1.78355E-03 +3.93588E-01 -4.49117E-01
 +6.66759E-01 -9.00808E-01 +5.89816E-01 -1.14904E+00 +2.30216E-01 -9.84878E-01 -1.61819E-01 -3.38975E-01
 -2.79679E-01 +5.90488E-01 +1.15246E-02 +1.36415E+00 +5.15343E-01 +1.53451E+00 +7.80807E-01 +9.59546E-01
 +4.16969E-01 -4.28550E-02 -5.64851E-01 -8.62415E-01 -1.66178E+00 -1.01091E+00 -2.16417E+00 -4.91380E-01
 -1.64721E+00 +1.75383E-01 -3.11843E-01 +3.24561E-01 +1.10391E+00 -3.34743E-01 +1.81221E+00 -1.45041E+00
 +1.51987E+00 -2.23468E+00 +6.26243E-01 -2.01956E+00 -8.16127E-02 -7.57449E-01 -1.62334E-02 +9.09420E-01
 +7.75661E-01 +2.07189E+00 +1.65253E+00 +2.16436E+00 +1.85614E+00 +1.32237E+00 +1.06898E+00 +2.41590E-01
 -3.55374E-01 -3.36931E-01 -1.63996E+00 -1.28609E-01 -2.10872E+00 +5.55180E-01 -1.60505E+00 +1.09156E+00
 -5.32900E-01 +1.01052E+00 +4.59242E-01 +2.98988E-01 +8.91692E-01 -6.36915E-01 +6.85145E-01 -1.27002E+00
 +1.09064E-01 -1.27169E+00 -4.46977E-01 -6.55580E-01 -6.94500E-01 +2.85428E-01 -5.49047E-01 +1.14653E+00
 -1.24021E-01 +1.56998E+00 +3.25881E-01 +1.35798E+00 +4.90645E-01 +5.52393E-01 +1.40580E-01 -5.33363E-01
 -7.03830E-01 -1.39637E+00 -1.67414E+00 -1.58071E+00 -2.16651E+00 -9.80903E-01 -1.68839E+00 +9.51443E-04
 -2.54642E-01 +6.32618E-01 +1.47645E+00 +3.31996E-01 +2.52076E+00 -8.52508E-01 +2.20846E+00 -2.15030E+00
 +7.15881E-01 -2.52691E+00 -9.47693E-01 -1.43728E+00 -1.58064E+00 +6.69125E-01 -6.55290E-01 +2.52871E+00
 +1.22746E+00 +2.88964E+00 +2.69121E+00 +1.43100E+00 +2.55695E+00 -9.15899E-01 +7.49192E-01 -2.54551E+00
 -1.56049E+00 -2.29480E+00 -2.73795E+00 -2.99891E-01 -1.86694E+00 +2.06134E+00 +5.38298E-01 +3.13948E+00
 +2.84224E+00 +2.20861E+00 +3.42713E+00 +5.22167E-03 +1.84401E+00 -1.80192E+00 -8.68406E-01 -1.83277E+00
 -2.93374E+00 -1.05300E-02 -3.10470E+00 +2.37805E+00 -1.51767E+00 +3.61495E+00 +4.75211E-01 +2.78107E+00
 +1.34119E+00 +3.83839E-01 +4.81963E-01 -2.05159E+00 -1.38560E+00 -3.08797E+00 -2.82095E+00 -2.34756E+00
 -2.73628E+00 -6.63670E-01 -1.14644E+00 +6.31744E-01 +9.23408E-01 +6.96603E-01 +2.23232E+00 -2.94593E-01
 +2.18156E+00 -1.41563E+00 +1.11658E+00 -1.75964E+00 -6.94959E-02 -1.09067E+00 -6.43081E-01 +8.42764E-02
 -4.85531E-01 +9.89956E-01 -8.79695E-03 +1.16586E+00 +2.99146E-01 +7.05247E-01 +2.71534E-01 +3.87356E-02
 +9.76897E-02 -4.70784E-01 +4.49645E-02 -7.51690E-01 +1.78338E-01 -9.19199E-01 +3.42301E-01 -1.01670E+00
 +3.87634E-01 -9.00492E-01 +3.82348E-01 -3.95886E-01 +5.66575E-01 +4.37371E-01 +1.07128E+00 +1.22350E+00
 +1.67388E+00 +1.50903E+00 +1.86566E+00 +1.14929E+00 +1.23765E+00 +4.96130E-01 -1.16232E-01 +1.73835E-01
 -1.54608E+00 +5.77453E-01 -2.25085E+00 +1.49397E+00 -1.86523E+00 +2.18852E+00 -7.67533E-01 +1.93831E+00
 +1.65717E-01 +6.20758E-01 +2.04259E-01 -1.11538E+00 -6.75552E-01 -2.26380E+00 -1.75463E+00 -2.17228E+00
 -2.10452E+00 -1.01890E+00 -1.29386E+00 +3.14062E-01 +2.68392E-01 +8.80726E-01 +1.61497E+00 +3.47918E-01
 +1.91440E+00 -7.94149E-01 +1.05674E+00 -1.62948E+00 -2.96134E-01 -1.50667E+00 -1.21054E+00 -5.01714E-01
 -1.14088E+00 +6.73332E-01 -2.64660E-01 +1.21483E+00 +7.20387E-01 +7.98746E-01 +1.14188E+00 -2.34034E-01
 +8.16304E-01 -1.17396E+00 +1.10145E-01 -1.45859E+00 -3.92972E-01 -1.01856E+00 -3.28154E-01 -2.36612E-01
 +2.35232E-01 +3.89093E-01 +9.12046E-01 +5.90531E-01 +1.30828E+00 +4.43101E-01 +1.26450E+00 +2.20798E-01
