 Created: 16-Jan-2021
 $NMID
 ID='D:\BASISSIMULATI'
 FMTDAT='(8E13.5)'
 VOLUME=   1.00000E+00
 TRAMP=   1.00000E+00
 $END
 +1.15697E+01 +1.29815E-02 +9.42217E+00 -2.26669E+00 +4.10818E+00 -2.65801E+00 -1.93040E+00 -4.59823E-01
 -6.08588E+00 +3.43516E+00 -6.85815E+00 +7.00578E+00 -4.50115E+00 +8.21314E+00 -7.37234E-01 +6.13969E+00
 +2.25931E+00 +1.53007E+00 +3.02989E+00 -3.55871E+00 +1.52147E+00 -6.80201E+00 -1.03742E+00 -6.78088E+00
 -2.94964E+00 -3.66403E+00 -3.05806E+00 +9.39612E-01 -1.37883E+00 +4.84303E+00 +9.70784E-01 +6.37381E+00
 +2.46934E+00 +5.12162E+00 +2.08916E+00 +1.98661E+00 -1.17690E-01 -1.42952E+00 -3.05688E+00 -3.70500E+00
 -5.20158E+00 -4.26037E+00 -5.41051E+00 -3.47961E+00 -3.49888E+00 -2.29799E+00 -2.73811E-01 -1.55790E+00
 +2.94015E+00 -1.52892E+00 +4.98534E+00 -1.84790E+00 +5.38108E+00 -1.86141E+00 +4.41361E+00 -1.11567E+00
 +2.82205E+00 +3.24697E-01 +1.32035E+00 +1.91439E+00 +2.54151E-01 +2.97189E+00 -4.33139E-01 +3.09382E+00
 -9.66969E-01 +2.37479E+00 -1.44873E+00 +1.30778E+00 -1.72690E+00 +4.49702E-01 -1.52118E+00 +8.22404E-02
 -6.99710E-01 +8.83310E-02 +5.06314E-01 +1.12889E-01 +1.53144E+00 -1.17034E-01 +1.76575E+00 -5.44812E-01
 +9.38678E-01 -7.93135E-01 -6.53603E-01 -4.38624E-01 -2.24894E+00 +6.25650E-01 -3.02153E+00 +1.99439E+00
 -2.56297E+00 +2.88608E+00 -1.15015E+00 +2.56917E+00 +3.81787E-01 +8.39425E-01 +1.11277E+00 -1.75105E+00
 +5.93045E-01 -4.08888E+00 -8.50642E-01 -5.05031E+00 -2.25907E+00 -4.11778E+00 -2.57747E+00 -1.70864E+00
 -1.29004E+00 +9.94864E-01 +1.21774E+00 +2.64946E+00 +3.79879E+00 +2.47126E+00 +5.13460E+00 +6.73472E-01
 +4.46114E+00 -1.63362E+00 +2.02366E+00 -3.04126E+00 -1.00802E+00 -2.61918E+00 -3.13660E+00 -4.43187E-01
 -3.33098E+00 +2.42373E+00 -1.58326E+00 +4.49468E+00 +1.08108E+00 +4.66257E+00 +3.15233E+00 +2.80482E+00
 +3.44974E+00 -1.42683E-01 +1.75729E+00 -2.68337E+00 -1.06297E+00 -3.55692E+00 -3.53892E+00 -2.40172E+00
 -4.38030E+00 +7.33730E-02 -3.16432E+00 +2.49212E+00 -5.48425E-01 +3.55981E+00 +2.09447E+00 +2.74672E+00
 +3.41060E+00 +5.40761E-01 +2.76924E+00 -1.85297E+00 +5.64250E-01 -3.18521E+00 -2.03047E+00 -2.83276E+00
 -3.69936E+00 -1.10601E+00 -3.66297E+00 +9.57080E-01 -2.03785E+00 +2.17825E+00 +2.90385E-01 +1.87674E+00
 +2.18167E+00 +2.14881E-01 +2.84523E+00 -1.91813E+00 +2.20764E+00 -3.39883E+00 +8.69618E-01 -3.45841E+00
 -2.90395E-01 -2.05459E+00 -6.23068E-01 +1.51887E-01 -4.24267E-02 +2.17337E+00 +9.78817E-01 +3.20114E+00
 +1.72181E+00 +2.96994E+00 +1.64618E+00 +1.81036E+00 +6.86206E-01 +3.99339E-01 -7.32136E-01 -6.24353E-01
 -1.93995E+00 -9.61862E-01 -2.38481E+00 -7.27853E-01 -1.90076E+00 -2.92578E-01 -7.56864E-01 -1.55828E-02
 +5.16289E-01 -3.66911E-02 +1.40531E+00 -2.34447E-01 +1.64149E+00 -3.51420E-01 +1.27024E+00 -1.89051E-01
 +5.56357E-01 +2.54075E-01 -1.92018E-01 +7.78647E-01 -7.69764E-01 +1.10546E+00 -1.11945E+00 +1.03779E+00
 -1.27697E+00 +5.66628E-01 -1.28070E+00 -1.35826E-01 -1.11802E+00 -8.17758E-01 -7.44429E-01 -1.27459E+00
 -1.53202E-01 -1.42648E+00 +5.63902E-01 -1.31237E+00 +1.21785E+00 -1.02288E+00 +1.59535E+00 -6.28816E-01
 +1.56344E+00 -1.56051E-01 +1.14205E+00 +3.82735E-01 +4.98526E-01 +9.32491E-01 -1.34476E-01 +1.36813E+00
 -5.70364E-01 +1.52725E+00 -7.45564E-01 +1.29264E+00 -7.21279E-01 +6.76126E-01 -6.16226E-01 -1.52617E-01
 -5.17589E-01 -9.19187E-01 -4.27761E-01 -1.35898E+00 -2.78627E-01 -1.33480E+00 -5.59039E-04 -8.95212E-01
 +4.01942E-01 -2.43287E-01 +8.20236E-01 +3.65588E-01 +1.08077E+00 +7.40896E-01 +1.03392E+00 +8.28439E-01
 +6.41493E-01 +7.04549E-01 +1.14913E-02 +5.06014E-01 -6.41686E-01 +3.42330E-01 -1.09142E+00 +2.41323E-01
 -1.19796E+00 +1.54334E-01 -9.62224E-01 +9.84431E-03 -5.10771E-01 -2.22815E-01 -2.59089E-02 -5.00236E-01
 +3.38695E-01 -7.21111E-01 +5.14125E-01 -7.80034E-01 +5.21892E-01 -6.26045E-01 +4.36296E-01 -2.92746E-01
 +3.31540E-01 +1.14754E-01 +2.44036E-01 +4.66242E-01 +1.66106E-01 +6.60161E-01 +6.71393E-02 +6.58629E-01
 -7.55048E-02 +4.91068E-01 -2.54759E-01 +2.30990E-01 -4.31171E-01 -3.84116E-02 -5.47476E-01 -2.53501E-01
 -5.51288E-01 -3.84910E-01 -4.16105E-01 -4.36804E-01 -1.54223E-01 -4.35018E-01 +1.81434E-01 -4.09611E-01
 +5.07832E-01 -3.77289E-01 +7.34416E-01 -3.29740E-01 +7.93651E-01 -2.34522E-01 +6.69439E-01 -5.25544E-02
 +4.09177E-01 +2.31455E-01 +1.08370E-01 +5.79643E-01 -1.31047E-01 +8.92675E-01 -2.51024E-01 +1.03709E+00
 -2.68344E-01 +9.05039E-01 -2.63483E-01 +4.80831E-01 -3.26518E-01 -1.23939E-01 -4.87266E-01 -6.96477E-01
 -6.73447E-01 -1.00997E+00 -7.31934E-01 -9.34688E-01 -5.14200E-01 -5.13924E-01 +1.51530E-02 +4.43579E-02
 +7.12386E-01 +4.67131E-01 +1.28409E+00 +5.61137E-01 +1.41625E+00 +3.23570E-01 +9.46126E-01 -5.04120E-02
 -1.64755E-02 -2.78684E-01 -1.09840E+00 -1.66963E-01 -1.81868E+00 +2.52824E-01 -1.82359E+00 +7.10850E-01
 -1.08002E+00 +8.38287E-01 +8.46223E-02 +3.91544E-01 +1.13247E+00 -5.63953E-01 +1.58755E+00 -1.62828E+00
 +1.28795E+00 -2.23805E+00 +4.75826E-01 -1.96065E+00 -3.34356E-01 -7.57201E-01 -6.46580E-01 +9.39683E-01
 -2.74783E-01 +2.39766E+00 +5.33234E-01 +2.93556E+00 +1.22161E+00 +2.27651E+00 +1.24449E+00 +7.11372E-01
 +4.03490E-01 -1.02743E+00 -9.91278E-01 -2.12844E+00 -2.24393E+00 -2.11463E+00 -2.63073E+00 -1.08680E+00
 -1.80699E+00 +3.38269E-01 -3.66276E-02 +1.36648E+00 +1.89576E+00 +1.46026E+00 +3.06155E+00 +6.29874E-01
 +2.86334E+00 -5.80463E-01 +1.35642E+00 -1.40674E+00 -7.61185E-01 -1.30659E+00 -2.49294E+00 -2.80627E-01
 -3.04520E+00 +1.11012E+00 -2.22193E+00 +2.04687E+00 -5.05193E-01 +1.91225E+00 +1.21696E+00 +6.51755E-01
 +2.12392E+00 -1.16677E+00 +1.88034E+00 -2.63493E+00 +7.77037E-01 -2.97834E+00 -4.70104E-01 -1.96824E+00
 -1.14006E+00 -4.80827E-02 -9.06264E-01 +1.89168E+00 +3.86060E-03 +2.96713E+00 +9.68326E-01 +2.73932E+00
 +1.34719E+00 +1.40848E+00 +8.56488E-01 -3.26305E-01 -2.71454E-01 -1.65055E+00 -1.42518E+00 -2.04466E+00
 -1.96237E+00 -1.50422E+00 -1.56739E+00 -4.71286E-01 -4.18688E-01 +4.58329E-01 +9.19017E-01 +8.69529E-01
 +1.80552E+00 +7.16067E-01 +1.85788E+00 +2.74574E-01 +1.12320E+00 -8.05154E-02 +1.11093E-02 -1.27056E-01
 -9.54417E-01 +8.40632E-02 -1.40865E+00 +2.99522E-01 -1.29186E+00 +2.63807E-01 -8.04664E-01 -9.03949E-02
 -2.30243E-01 -5.87220E-01 +2.46194E-01 -9.20558E-01 +6.04733E-01 -8.56711E-01 +9.17380E-01 -3.91133E-01
 +1.20730E+00 +2.44686E-01 +1.36024E+00 +7.30770E-01 +1.16886E+00 +8.62761E-01 +4.92530E-01 +6.76115E-01
 -5.76317E-01 +4.05379E-01 -1.66928E+00 +3.03193E-01 -2.28385E+00 +4.40953E-01 -2.05162E+00 +6.32833E-01
 -9.80015E-01 +5.49863E-01 +4.91017E-01 -3.52045E-02 +1.67873E+00 -1.02887E+00 +2.00947E+00 -1.98263E+00
 +1.34017E+00 -2.29958E+00 +5.72888E-02 -1.58698E+00 -1.12155E+00 +4.79770E-02 -1.54629E+00 +1.95398E+00
 -1.01125E+00 +3.20773E+00 +1.13600E-01 +3.08421E+00 +1.08791E+00 +1.47588E+00 +1.23940E+00 -9.83267E-01
 +3.87324E-01 -3.18542E+00 -1.00358E+00 -4.09026E+00 -2.04925E+00 -3.26061E+00 -1.94582E+00 -1.10062E+00
 -4.68183E-01 +1.34357E+00 +1.82432E+00 +2.92469E+00 +3.81627E+00 +2.98995E+00 +4.40015E+00 +1.70836E+00
 +3.08150E+00 -5.01752E-02 +2.92313E-01 -1.21778E+00 -2.77394E+00 -1.13460E+00 -4.73669E+00 +8.07091E-02
 -4.71791E+00 +1.60487E+00 -2.78416E+00 +2.38932E+00 +9.41163E-02 +1.77726E+00 +2.54419E+00 -8.97705E-02
 +3.48635E+00 -2.30980E+00 +2.65523E+00 -3.69107E+00 +6.79273E-01 -3.40185E+00 -1.30734E+00 -1.44375E+00
 -2.29453E+00 +1.31329E+00 -1.91992E+00 +3.55817E+00 -6.09113E-01 +4.20173E+00 +7.24884E-01 +2.92424E+00
 +1.23606E+00 +3.22393E-01 +6.34276E-01 -2.41043E+00 -6.62352E-01 -4.08908E+00 -1.78545E+00 -4.10251E+00
 -1.92721E+00 -2.65318E+00 -8.10979E-01 -5.70664E-01 +1.14003E+00 +1.16904E+00 +3.02150E+00 +1.94178E+00
 +3.92402E+00 +1.72799E+00 +3.40078E+00 +1.01250E+00 +1.67794E+00 +4.26217E-01 -4.89129E-01 +3.57712E-01
 -2.21479E+00 +7.57296E-01 -2.90962E+00 +1.22586E+00 -2.51187E+00 +1.30804E+00 -1.42726E+00 +7.96989E-01
 -2.48138E-01 -1.33293E-01 +5.66268E-01 -1.03638E+00 +8.70083E-01 -1.46247E+00 +7.98002E-01 -1.21766E+00
 +5.81482E-01 -4.60301E-01 +3.58038E-01 +4.10876E-01 +1.01578E-01 +9.94082E-01 -2.94727E-01 +1.09542E+00
 -8.61074E-01 +7.90295E-01 -1.44775E+00 +3.15477E-01 -1.76485E+00 -1.18856E-01 -1.55189E+00 -4.62218E-01
 -7.68288E-01 -8.12772E-01 +3.29388E-01 -1.27734E+00 +1.29218E+00 -1.81135E+00 +1.71840E+00 -2.16745E+00
 +1.48783E+00 -2.01183E+00 +8.41510E-01 -1.15124E+00 +2.45432E-01 +2.73498E-01 +1.08228E-01 +1.77013E+00
 +5.19805E-01 +2.69901E+00 +1.17585E+00 +2.60675E+00 +1.54824E+00 +1.50352E+00 +1.21270E+00 -8.90853E-02
 +1.41231E-01 -1.37324E+00 -1.22506E+00 -1.68413E+00 -2.18665E+00 -8.54251E-01 -2.17635E+00 +6.75805E-01
 -1.11079E+00 +2.07611E+00 +5.08797E-01 +2.56842E+00 +1.82536E+00 +1.85203E+00 +2.07633E+00 +2.76480E-01
 +1.02325E+00 -1.34151E+00 -8.82538E-01 -2.16287E+00 -2.70470E+00 -1.78957E+00 -3.50022E+00 -4.88451E-01
 -2.81912E+00 +9.52989E-01 -9.54093E-01 +1.66293E+00 +1.20063E+00 +1.17375E+00 +2.61083E+00 -3.09134E-01
 +2.63909E+00 -2.00977E+00 +1.37006E+00 -3.00205E+00 -4.48300E-01 -2.71751E+00 -1.81145E+00 -1.26112E+00
 -1.99074E+00 +6.39048E-01 -9.05216E-01 +2.02092E+00 +8.60488E-01 +2.20386E+00 +2.39042E+00 +1.15042E+00
 +2.93242E+00 -5.19097E-01 +2.28307E+00 -1.86233E+00 +8.60929E-01 -2.11548E+00 -5.56332E-01 -1.08931E+00
 -1.27246E+00 +7.45259E-01 -1.04282E+00 +2.51611E+00 -1.76356E-01 +3.40372E+00 +6.72591E-01 +3.04437E+00
 +8.92829E-01 +1.67730E+00 +2.62730E-01 -2.25595E-02 -9.33872E-01 -1.31541E+00 -2.07525E+00 -1.76173E+00
 -2.54826E+00 -1.39299E+00 -2.07739E+00 -6.19846E-01 -8.60592E-01 +4.34934E-02 +5.49064E-01 +2.68708E-01
 +1.53672E+00 +5.73265E-02 +1.72772E+00 -3.22404E-01 +1.14164E+00 -5.44327E-01 +1.35145E-01 -4.40861E-01
 -8.11438E-01 -9.84509E-02 -1.33260E+00 +2.13938E-01 -1.31493E+00 +2.26846E-01 -8.80387E-01 -1.54538E-01
 -2.56551E-01 -7.86694E-01 +3.68347E-01 -1.36669E+00 +9.16266E-01 -1.59871E+00 +1.38891E+00 -1.34631E+00
 +1.78011E+00 -6.85683E-01 +2.01001E+00 +1.58812E-01 +1.93858E+00 +9.44216E-01 +1.45539E+00 +1.51874E+00
 +5.84480E-01 +1.84993E+00 -4.73215E-01 +1.97002E+00 -1.40135E+00 +1.89347E+00 -1.90885E+00 +1.57739E+00
