 Created: 16-Jan-2021
 $NMID
 ID='D:\BASISSIMULATI'
 FMTDAT='(8E13.5)'
 VOLUME=   1.00000E+00
 TRAMP=   1.00000E+00
 $END
 +1.45424E+01 +1.40044E-01 +7.54136E+00 +1.17088E+01 -5.45563E+00 +1.11398E+01 -1.05271E+01 +3.66474E-02
 -3.10504E+00 -8.62415E+00 +7.27464E+00 -5.34438E+00 +8.23965E+00 +5.35022E+00 -1.23868E+00 +1.05610E+01
 -9.98866E+00 +4.09958E+00 -7.85493E+00 -6.46187E+00 +2.44014E+00 -8.79454E+00 +8.51432E+00 -3.09362E-01
 +2.84319E+00 +8.70298E+00 -8.26948E+00 +6.96588E+00 -1.17191E+01 -4.56608E+00 -2.63393E+00 -1.34503E+01
 +9.82844E+00 -9.72564E+00 +1.26150E+01 +2.80259E+00 +3.33492E+00 +1.08120E+01 -7.26736E+00 +6.36794E+00
 -7.58781E+00 -4.45668E+00 +1.89880E+00 -8.86532E+00 +9.66010E+00 -1.97036E+00 +6.60432E+00 +7.96849E+00
 -3.59455E+00 +9.43515E+00 -9.07852E+00 +1.03485E+00 -3.75007E+00 -7.07803E+00 +5.64537E+00 -5.20165E+00
 +7.43861E+00 +4.49308E+00 -1.27367E+00 +1.03610E+01 -1.10214E+01 +4.73502E+00 -1.06385E+01 -7.06653E+00
 -4.98134E-03 -1.25494E+01 +9.70852E+00 -6.05416E+00 +8.53794E+00 +4.97728E+00 -1.27375E+00 +8.50100E+00
 -8.15184E+00 +1.34331E+00 -4.42506E+00 -7.62142E+00 +5.24491E+00 -7.91577E+00 +9.63100E+00 +6.42207E-01
 +3.96737E+00 +8.12065E+00 -4.80173E+00 +6.20349E+00 -6.37234E+00 -2.23916E+00 +8.43199E-01 -6.70219E+00
 +7.90344E+00 -1.42599E+00 +5.78545E+00 +7.78827E+00 -4.04101E+00 +1.01748E+01 -1.10991E+01 +2.37928E+00
 -7.72587E+00 -7.59509E+00 +2.29714E+00 -9.34329E+00 +8.07095E+00 -1.65781E+00 +3.81163E+00 +6.36062E+00
 -4.92764E+00 +5.73470E+00 -7.89256E+00 -2.41725E+00 -1.79528E+00 -8.56788E+00 +6.28971E+00 -5.86126E+00
 +7.37147E+00 +2.24390E+00 +8.63736E-01 +6.33493E+00 -5.04494E+00 +2.07836E+00 -3.13488E+00 -4.88685E+00
 +4.40514E+00 -5.68903E+00 +8.54255E+00 +1.35780E+00 +3.88529E+00 +8.70112E+00 -5.03425E+00 +8.14792E+00
 -8.83390E+00 +1.86181E-01 -3.82673E+00 -6.59031E+00 +3.97869E+00 -5.17009E+00 +5.81186E+00 +2.16279E+00
 -4.17195E-02 +6.71000E+00 -6.63526E+00 +3.29794E+00 -6.49849E+00 -4.10845E+00 -2.51765E-02 -7.26923E+00
 +5.34859E+00 -3.13758E+00 +3.89895E+00 +2.94681E+00 -1.92661E+00 +3.73745E+00 -4.63485E+00 -1.47734E+00
 -5.41502E-01 -6.18972E+00 +5.94174E+00 -4.34260E+00 +7.41728E+00 +2.61211E+00 +1.99868E+00 +7.34130E+00
 -4.55412E+00 +4.94923E+00 -5.37593E+00 -1.57351E+00 -1.45776E-01 -4.86765E+00 +4.78753E+00 -1.50796E+00
 +3.71939E+00 +4.36186E+00 -2.10113E+00 +5.97017E+00 -6.18808E+00 +1.57476E+00 -4.30462E+00 -3.85236E+00
 +9.34695E-01 -4.54215E+00 +3.39661E+00 -4.48763E-01 +5.82862E-01 +3.02009E+00 -3.66974E+00 +1.47346E+00
 -3.84799E+00 -3.39467E+00 +7.84865E-01 -5.87763E+00 +5.36438E+00 -2.89212E+00 +5.01916E+00 +2.50902E+00
 +3.63058E-01 +4.65841E+00 -3.32439E+00 +1.65692E+00 -2.11748E+00 -2.65465E+00 +2.26332E+00 -3.19696E+00
 +4.62021E+00 +6.53961E-01 +2.21437E+00 +4.58597E+00 -2.32403E+00 +4.37940E+00 -4.20800E+00 +5.64709E-01
 -1.92329E+00 -2.47174E+00 +1.31950E+00 -1.63475E+00 +1.52528E+00 +1.48757E+00 -1.47678E+00 +2.71700E+00
 -4.00210E+00 +2.23834E-01 -2.88294E+00 -3.41902E+00 +9.01985E-01 -4.27575E+00 +3.42287E+00 -1.53542E+00
 +2.28067E+00 +1.67664E+00 -7.98300E-01 +1.92787E+00 -2.08035E+00 -7.08807E-01 -7.12430E-02 -2.92376E+00
 +2.94298E+00 -2.01715E+00 +3.62798E+00 +1.14243E+00 +1.33043E+00 +3.27849E+00 -1.38912E+00 +2.44882E+00
 -1.80394E+00 +5.58625E-02 -2.66297E-02 -9.88543E-01 +1.36781E+00 +3.62596E-01 +4.48280E-01 +2.25013E+00
 -1.89795E+00 +2.21115E+00 -3.10435E+00 +2.71634E-02 -1.89649E+00 -2.11398E+00 +3.44998E-01 -2.16429E+00
 +1.25754E+00 -4.61987E-01 +1.55337E-01 +8.05657E-01 -1.34089E+00 +1.48033E-01 -1.26418E+00 -1.62741E+00
 +4.94403E-01 -2.45995E+00 +2.18257E+00 -1.38235E+00 +2.21863E+00 +5.07621E-01 +8.67300E-01 +1.40203E+00
 -2.40738E-01 +7.81135E-01 -2.21310E-02 -1.86759E-01 +9.42975E-01 -1.27886E-01 +1.23797E+00 +9.81631E-01
 +2.80900E-01 +1.90505E+00 -1.08200E+00 +1.62172E+00 -1.60996E+00 +4.33083E-01 -1.03644E+00 -4.79453E-01
 -2.43547E-01 -4.07042E-01 -1.76361E-01 +1.90931E-01 -8.11587E-01 +3.32007E-01 -1.29067E+00 -3.51254E-01
 -9.40111E-01 -1.26434E+00 +2.11484E-02 -1.57329E+00 +8.01568E-01 -1.09360E+00 +9.09007E-01 -3.84875E-01
 +5.81944E-01 -6.74578E-02 +4.01199E-01 -1.94256E-01 +6.23083E-01 -3.18481E-01 +9.72054E-01 -6.22018E-02
 +1.01924E+00 +4.92847E-01 +6.45315E-01 +9.55370E-01 +1.04848E-01 +1.05141E+00 -2.81154E-01 +8.44767E-01
 -4.16572E-01 +5.90420E-01 -4.37744E-01 +4.58619E-01 -5.16343E-01 +4.17724E-01 -6.94612E-01 +3.24203E-01
 -8.73006E-01 +7.48318E-02 -9.03404E-01 -3.08480E-01 -6.99531E-01 -6.87487E-01 -3.10479E-01 -8.89670E-01
 +8.73523E-02 -8.31685E-01 +3.08975E-01 -6.05152E-01 +3.24843E-01 -4.20318E-01 +3.06394E-01 -4.09701E-01
 +4.57550E-01 -4.71824E-01 +7.70500E-01 -3.54705E-01 +9.83329E-01 +6.06514E-02 +8.36906E-01 +5.77675E-01
 +3.77672E-01 +8.44702E-01 -5.15375E-02 +7.22790E-01 -1.65506E-01 +4.49266E-01 -5.26339E-02 +3.78438E-01
 -7.20596E-02 +5.68965E-01 -4.20821E-01 +7.00063E-01 -8.67551E-01 +4.42611E-01 -9.86792E-01 -1.29777E-01
 -6.46465E-01 -5.82941E-01 -1.79291E-01 -5.96043E-01 -1.61605E-02 -3.24817E-01 -1.93728E-01 -2.17206E-01
 -3.17006E-01 -4.81054E-01 -3.49892E-02 -8.27136E-01 +5.24335E-01 -8.01371E-01 +8.79845E-01 -3.24011E-01
 +7.45618E-01 +2.02740E-01 +3.55638E-01 +3.53192E-01 +1.77173E-01 +1.62140E-01 +3.53312E-01 +5.80642E-02
 +5.42213E-01 +3.26678E-01 +3.45816E-01 +7.51581E-01 -1.90433E-01 +8.67056E-01 -6.12927E-01 +5.18291E-01
 -5.89185E-01 +5.06561E-02 -2.90381E-01 -1.01056E-01 -1.65163E-01 +7.66549E-02 -3.85206E-01 +1.85522E-01
 -6.42457E-01 -7.27572E-02 -5.43262E-01 -5.16757E-01 -1.07123E-01 -7.06758E-01 +2.52015E-01 -4.89944E-01
 +2.39792E-01 -1.86075E-01 +4.52606E-02 -1.76268E-01 +8.88702E-02 -4.09686E-01 +4.62979E-01 -4.59870E-01
 +7.77393E-01 -7.84396E-02 +6.30812E-01 +4.48242E-01 +1.33171E-01 +6.14069E-01 -1.93301E-01 +3.15088E-01
 -4.63932E-02 -2.67775E-03 +2.68877E-01 +1.11381E-01 +2.10262E-01 +5.31104E-01 -3.01973E-01 +6.81875E-01
 -7.35876E-01 +2.62196E-01 -5.84116E-01 -3.30062E-01 -2.66269E-02 -4.43319E-01 +2.36021E-01 +9.74568E-03
 -1.59060E-01 +3.84495E-01 -7.26291E-01 +6.72638E-02 -6.60820E-01 -7.17057E-01 +1.60675E-01 -1.08188E+00
 +9.31101E-01 -5.18963E-01 +8.08020E-01 +4.22743E-01 -5.63029E-02 +7.06291E-01 -6.20439E-01 +3.13267E-02
 -1.63602E-01 -7.46975E-01 +8.04698E-01 -5.89694E-01 +1.08299E+00 +4.52258E-01 +2.13621E-01 +1.21190E+00
 -8.86429E-01 +7.57980E-01 -9.42200E-01 -4.34707E-01 +1.37556E-01 -9.54642E-01 +1.05088E+00 -1.16185E-01
 +5.90798E-01 +1.13315E+00 -8.57864E-01 +1.23579E+00 -1.64496E+00 -1.18700E-01 -7.52330E-01 -1.50202E+00
 +9.22196E-01 -1.32559E+00 +1.49536E+00 +2.66952E-01 +2.79588E-01 +1.45463E+00 -1.32508E+00 +8.08148E-01
 -1.38312E+00 -9.81754E-01 +2.91127E-01 -1.81130E+00 +1.81126E+00 -6.04182E-01 +1.36113E+00 +1.33880E+00
 -6.24215E-01 +1.76209E+00 -1.85128E+00 +1.03626E-01 -8.10891E-01 -1.73494E+00 +1.36687E+00 -1.52617E+00
 +2.11170E+00 +6.31320E-01 +4.05299E-01 +2.29033E+00 -1.90704E+00 +1.43766E+00 -2.14470E+00 -1.08126E+00
 +7.27679E-02 -2.40335E+00 +2.25154E+00 -9.29404E-01 +1.82513E+00 +1.72245E+00 -8.19970E-01 +2.47273E+00
 -2.66510E+00 +3.46378E-01 -1.50299E+00 -2.28434E+00 +1.42481E+00 -2.35316E+00 +2.74710E+00 +3.14184E-01
 +8.50250E-01 +2.67574E+00 -2.14799E+00 +1.93009E+00 -2.74638E+00 -1.17021E+00 -1.34600E-01 -3.06437E+00
 +2.74385E+00 -1.47165E+00 +2.51426E+00 +1.86762E+00 -6.66159E-01 +3.08448E+00 -3.15210E+00 +6.58707E-01
 -1.96659E+00 -2.69410E+00 +1.66523E+00 -3.04935E+00 +3.58782E+00 +1.58557E-01 +1.47965E+00 +3.33963E+00
 -2.35619E+00 +2.79891E+00 -3.52081E+00 -9.43332E-01 -5.89916E-01 -3.61615E+00 +3.12642E+00 -2.06479E+00
 +3.30099E+00 +2.03222E+00 -3.92256E-01 +3.97837E+00 -3.78584E+00 +1.45081E+00 -2.95845E+00 -2.72931E+00
 +1.18591E+00 -3.75888E+00 +3.85711E+00 -4.13535E-01 +1.88784E+00 +3.43158E+00 -2.50935E+00 +3.21125E+00
 -4.18471E+00 -9.88070E-01 -1.00888E+00 -4.38337E+00 +3.52845E+00 -2.95296E+00 +4.21855E+00 +1.82903E+00
 +1.61990E-01 +4.53812E+00 -4.05289E+00 +2.00044E+00 -3.53075E+00 -2.95255E+00 +1.25508E+00 -4.61329E+00
 +4.88073E+00 -9.44367E-01 +3.14068E+00 +3.98345E+00 -2.06928E+00 +4.58090E+00 -4.84709E+00 +1.72398E-01
 -2.05641E+00 -4.15993E+00 +3.00558E+00 -3.39965E+00 +4.36261E+00 +1.56615E+00 +2.98246E-01 +4.88941E+00
 -4.54725E+00 +2.51280E+00 -4.46509E+00 -3.02852E+00 +6.62024E-01 -5.39949E+00 +5.06653E+00 -1.76444E+00
 +3.65736E+00 +3.81154E+00 -2.04451E+00 +4.90763E+00 -5.50795E+00 +1.34095E-01 -2.63186E+00 -5.14796E+00
 +3.47816E+00 -4.87541E+00 +5.96556E+00 +7.57327E-01 +2.04534E+00 +5.45082E+00 -3.77741E+00 +3.98144E+00
 -4.85875E+00 -1.79911E+00 -6.90216E-02 -5.08742E+00 +4.88173E+00 -1.99506E+00 +4.04488E+00 +3.90179E+00
 -1.81490E+00 +5.64912E+00 -5.99580E+00 +9.98088E-01 -3.57442E+00 -4.86283E+00 +2.80406E+00 -5.19437E+00
 +5.82865E+00 +4.82256E-01 +1.90399E+00 +5.68607E+00 -4.60788E+00 +4.32564E+00 -6.26047E+00 -2.26975E+00
 -1.02225E+00 -6.75597E+00 +5.34055E+00 -4.10338E+00 +5.79745E+00 +2.65955E+00 +6.10863E-02 +5.90483E+00
 -5.12340E+00 +2.13594E+00 -3.76384E+00 -4.03241E+00 +2.46724E+00 -5.24233E+00 +6.17758E+00 +6.12167E-02
 +2.84569E+00 +5.78252E+00 -3.86045E+00 +5.21233E+00 -6.24084E+00 -1.14053E+00 -1.47384E+00 -6.01027E+00
 +5.00329E+00 -3.69847E+00 +5.63785E+00 +3.28090E+00 -5.48009E-01 +6.94618E+00 -6.71644E+00 +2.93435E+00
 -5.93138E+00 -4.45955E+00 +9.51093E-01 -7.10841E+00 +6.25834E+00 -2.26646E+00 +4.24363E+00 +4.36443E+00
 -2.41425E+00 +5.21867E+00 -5.79253E+00 -4.67139E-01 -1.90070E+00 -5.85977E+00 +4.72656E+00 -4.49552E+00
 +6.31179E+00 +2.19871E+00 +8.90132E-01 +6.52804E+00 -5.33953E+00 +3.44740E+00 -5.13324E+00 -3.52014E+00
 +1.38281E+00 -6.24727E+00 +6.72843E+00 -1.35393E+00 +4.58058E+00 +5.80190E+00 -2.94676E+00 +7.13891E+00
 -7.62210E+00 +1.03801E+00 -4.40165E+00 -5.80341E+00 +2.90062E+00 -5.97311E+00 +6.03452E+00 +2.92916E-01
 +1.72631E+00 +5.52532E+00 -4.70112E+00 +3.66918E+00 -5.58785E+00 -3.00209E+00 +1.91089E-01 -6.62123E+00
 +5.96692E+00 -2.89315E+00 +5.04575E+00 +3.91222E+00 -1.49306E+00 +5.90239E+00 -5.99170E+00 +7.29731E-01
