 Created: 16-Jan-2021
 $NMID
 ID='D:\BASISSIMULATI'
 FMTDAT='(8E13.5)'
 VOLUME=   1.00000E+00
 TRAMP=   1.00000E+00
 $END
 +2.52826E+01 +1.80846E+00 +1.78424E+01 +1.59221E+01 +3.24124E+00 +2.05097E+01 -9.31811E+00 +1.36342E+01
 -1.23392E+01 +7.05894E-01 -4.81968E+00 -9.28030E+00 +7.37909E+00 -9.71372E+00 +1.56501E+01 -5.20450E-01
 +1.43281E+01 +1.21393E+01 +4.14178E+00 +2.01841E+01 -8.67497E+00 +1.88717E+01 -1.67252E+01 +9.52990E+00
 -1.61651E+01 -1.80289E+00 -8.72961E+00 -8.58752E+00 -3.76872E-02 -7.87132E+00 +4.34267E+00 -1.66073E+00
 +2.30597E+00 +4.97117E+00 -3.99143E+00 +7.42594E+00 -1.00827E+01 +4.30984E+00 -1.22523E+01 -2.23572E+00
 -9.61414E+00 -8.41406E+00 -4.09318E+00 -1.12997E+01 +1.26751E+00 -1.03236E+01 +4.27332E+00 -7.02937E+00
 +4.54957E+00 -3.65839E+00 +3.18746E+00 -1.73742E+00 +1.67141E+00 -1.52783E+00 +9.83560E-01 -2.38601E+00
 +1.37157E+00 -3.46212E+00 +2.62833E+00 -4.13894E+00 +4.41088E+00 -4.05007E+00 +6.29860E+00 -2.94907E+00
 +7.69494E+00 -7.54186E-01 +7.89101E+00 +2.21205E+00 +6.43826E+00 +5.09090E+00 +3.60185E+00 +6.76616E+00
 +4.61452E-01 +6.51196E+00 -1.57992E+00 +4.57818E+00 -1.65385E+00 +2.21326E+00 -6.88775E-02 +9.81402E-01
 +1.77496E+00 +1.76338E+00 +2.22792E+00 +4.12094E+00 +4.65079E-01 +6.50400E+00 -2.93249E+00 +7.21056E+00
 -6.30316E+00 +5.47776E+00 -7.93582E+00 +1.97783E+00 -7.12656E+00 -1.60713E+00 -4.57350E+00 -3.63748E+00
 -1.87963E+00 -3.49650E+00 -5.26787E-01 -1.87932E+00 -1.00276E+00 -2.55559E-01 -2.61322E+00 +8.99549E-02
 -4.02695E+00 -1.19594E+00 -4.13742E+00 -3.43305E+00 -2.67813E+00 -5.42932E+00 -2.59737E-01 -6.22246E+00
 +2.09743E+00 -5.56787E+00 +3.57013E+00 -3.93687E+00 +3.90294E+00 -2.12940E+00 +3.39244E+00 -8.09797E-01
 +2.59938E+00 -2.39201E-01 +2.02630E+00 -2.83476E-01 +1.93540E+00 -5.90700E-01 +2.32973E+00 -7.80526E-01
 +3.01679E+00 -5.61708E-01 +3.67922E+00 +2.06759E-01 +3.94882E+00 +1.46633E+00 +3.52244E+00 +2.92728E+00
 +2.31953E+00 +4.11802E+00 +5.99547E-01 +4.56291E+00 -1.07736E+00 +4.03940E+00 -2.09130E+00 +2.76429E+00
 -2.10601E+00 +1.35361E+00 -1.30701E+00 +5.22495E-01 -3.52675E-01 +6.71479E-01 -2.16328E-02 +1.61236E+00
 -7.43846E-01 +2.63143E+00 -2.30385E+00 +2.88747E+00 -3.92091E+00 +1.92229E+00 -4.68403E+00 -2.91818E-02
 -4.09248E+00 -2.13486E+00 -2.37319E+00 -3.42761E+00 -3.73513E-01 -3.36498E+00 +9.17487E-01 -2.15069E+00
 +9.38856E-01 -6.21100E-01 -1.18950E-01 +2.40840E-01 -1.42963E+00 -1.21207E-01 -2.01794E+00 -1.51306E+00
 -1.33239E+00 -3.10413E+00 +4.29567E-01 -3.91105E+00 +2.43078E+00 -3.36864E+00 +3.67206E+00 -1.65856E+00
 +3.56170E+00 +3.91771E-01 +2.24967E+00 +1.77941E+00 +5.36525E-01 +1.89420E+00 -5.89102E-01 +8.59196E-01
 -5.17644E-01 -5.51025E-01 +6.35656E-01 -1.36619E+00 +2.10545E+00 -9.86805E-01 +2.92800E+00 +4.66558E-01
 +2.50769E+00 +2.22431E+00 +9.67754E-01 +3.31842E+00 -9.20747E-01 +3.14899E+00 -2.19029E+00 +1.83336E+00
 -2.24179E+00 +1.31748E-01 -1.18784E+00 -1.00548E+00 +2.28460E-01 -9.97461E-01 +1.08691E+00 +3.50590E-02
 +8.40162E-01 +1.36095E+00 -3.70894E-01 +2.09146E+00 -1.82063E+00 +1.71531E+00 -2.64799E+00 +3.92826E-01
 -2.37150E+00 -1.15990E+00 -1.15922E+00 -2.11225E+00 +2.96884E-01 -2.00862E+00 +1.20777E+00 -1.01310E+00
 +1.14638E+00 +2.21224E-01 +2.67664E-01 +9.57526E-01 -8.20847E-01 +7.99722E-01 -1.43541E+00 -1.09141E-01
 -1.20440E+00 -1.20707E+00 -2.51057E-01 -1.85456E+00 +9.08515E-01 -1.68832E+00 +1.66741E+00 -7.97107E-01
 +1.65167E+00 +3.52488E-01 +9.00231E-01 +1.17649E+00 -1.72614E-01 +1.27479E+00 -9.96421E-01 +6.27190E-01
 -1.13336E+00 -4.00336E-01 -5.02349E-01 -1.23743E+00 +5.66870E-01 -1.39784E+00 +1.48567E+00 -7.42287E-01
 +1.70804E+00 +4.19234E-01 +1.04066E+00 +1.46004E+00 -2.09655E-01 +1.76442E+00 -1.36145E+00 +1.09059E+00
 -1.72427E+00 -2.43073E-01 -1.01628E+00 -1.48933E+00 +4.19776E-01 -1.88453E+00 +1.76583E+00 -1.11853E+00
 +2.19245E+00 +4.30699E-01 +1.37472E+00 +1.87408E+00 -2.65717E-01 +2.32705E+00 -1.77173E+00 +1.46275E+00
 -2.21455E+00 -2.48434E-01 -1.27429E+00 -1.78646E+00 +5.30168E-01 -2.18682E+00 +2.12313E+00 -1.13872E+00
 +2.50912E+00 +7.97680E-01 +1.38118E+00 +2.50079E+00 -6.72629E-01 +2.94597E+00 -2.49590E+00 +1.81998E+00
 -3.03439E+00 -2.76465E-01 -1.95715E+00 -2.16066E+00 +1.34327E-01 -2.74441E+00 +2.03215E+00 -1.66720E+00
 +2.60249E+00 +4.75098E-01 +1.44105E+00 +2.44102E+00 -8.64426E-01 +3.03127E+00 -3.02404E+00 +1.78096E+00
 -3.74988E+00 -7.30663E-01 -2.50188E+00 -3.14894E+00 +1.45356E-01 -4.07848E+00 +2.75638E+00 -2.89895E+00
 +3.81738E+00 -1.93092E-01 +2.63541E+00 +2.50433E+00 -1.74668E-01 +3.55580E+00 -2.95642E+00 +2.21302E+00
 -3.94642E+00 -8.47023E-01 -2.36191E+00 -3.82519E+00 +1.03081E+00 -4.83563E+00 +4.27958E+00 -3.08398E+00
 +5.39211E+00 +5.54765E-01 +3.59066E+00 +3.98119E+00 -1.27653E-01 +5.12848E+00 -3.53501E+00 +3.27116E+00
 -4.53296E+00 -4.61077E-01 -2.48567E+00 -3.73770E+00 +1.34023E+00 -4.47272E+00 +4.54275E+00 -2.14832E+00
 +5.08800E+00 +1.84263E+00 +2.58812E+00 +5.06796E+00 -1.46890E+00 +5.58257E+00 -4.67516E+00 +3.12573E+00
 -5.21063E+00 -7.67250E-01 -2.92938E+00 -3.77455E+00 +6.40695E-01 -4.23277E+00 +3.32105E+00 -2.08934E+00
 +3.62109E+00 +1.19117E+00 +1.54504E+00 +3.61714E+00 -1.56439E+00 +3.86383E+00 -3.93271E+00 +1.93600E+00
 -4.37269E+00 -1.00915E+00 -2.81832E+00 -3.43455E+00 -1.77789E-01 -4.24876E+00 +2.25827E+00 -3.24049E+00
 +3.44353E+00 -1.01777E+00 +2.95344E+00 +1.36466E+00 +1.06718E+00 +2.84405E+00 -1.35984E+00 +2.72262E+00
 -3.17366E+00 +9.45220E-01 -3.34946E+00 -1.77259E+00 -1.50998E+00 -4.10265E+00 +1.69672E+00 -4.64887E+00
 +4.68990E+00 -2.73966E+00 +5.67768E+00 +9.67947E-01 +3.74128E+00 +4.57825E+00 -3.74758E-01 +5.90771E+00
 -4.41671E+00 +3.86018E+00 -5.84184E+00 -6.51541E-01 -3.46456E+00 -4.98993E+00 +1.55639E+00 -6.30629E+00
 +6.19178E+00 -3.41950E+00 +7.35442E+00 +2.20256E+00 +3.95644E+00 +7.15474E+00 -2.18690E+00 +8.19195E+00
 -7.33907E+00 +4.39848E+00 -8.19058E+00 -2.05228E+00 -4.06594E+00 -7.16310E+00 +2.51654E+00 -7.66028E+00
 +7.38589E+00 -3.16188E+00 +7.39911E+00 +3.50294E+00 +2.49846E+00 +8.08311E+00 -4.23165E+00 +7.64513E+00
 -8.55562E+00 +2.45676E+00 -7.80751E+00 -4.21943E+00 -2.55328E+00 -8.25807E+00 +3.85950E+00 -7.29809E+00
 +7.50337E+00 -2.15390E+00 +6.33781E+00 +3.84047E+00 +1.35935E+00 +7.02677E+00 -4.20569E+00 +5.67554E+00
 -7.01555E+00 +8.85830E-01 -5.61605E+00 -4.30815E+00 -1.11966E+00 -6.90304E+00 +3.70323E+00 -5.66256E+00
 +6.18677E+00 -1.62146E+00 +5.24186E+00 +2.76828E+00 +1.74168E+00 +5.15654E+00 -2.21211E+00 +4.52386E+00
 -4.54268E+00 +1.51211E+00 -4.21998E+00 -2.13424E+00 -1.60132E+00 -4.55165E+00 +1.91089E+00 -4.62122E+00
 +4.59664E+00 -2.37998E+00 +5.17937E+00 +1.07984E+00 +3.36010E+00 +4.11105E+00 -3.37036E-02 +5.22709E+00
 -3.36058E+00 +3.79921E+00 -4.89022E+00 +4.47824E-01 -3.69034E+00 -3.12940E+00 -2.39533E-01 -4.94092E+00
 +3.65462E+00 -3.79018E+00 +5.73626E+00 -7.76904E-02 +4.58995E+00 +4.24002E+00 +5.92513E-01 +6.65540E+00
 -4.13099E+00 +5.58355E+00 -6.85068E+00 +1.42139E+00 -5.86614E+00 -3.53529E+00 -1.63058E+00 -6.37617E+00
 +3.39787E+00 -5.33994E+00 +6.17321E+00 -9.64626E-01 +4.91981E+00 +4.14370E+00 +2.75797E-01 +6.84376E+00
 -5.02681E+00 +5.37720E+00 -7.78794E+00 +4.80268E-01 -6.28532E+00 -5.02153E+00 -1.33823E+00 -7.90617E+00
 +4.17328E+00 -6.50121E+00 +7.04146E+00 -1.69109E+00 +5.65559E+00 +3.62437E+00 +9.51152E-01 +6.27897E+00
 -4.17527E+00 +4.72848E+00 -6.61056E+00 -5.39703E-02 -4.86897E+00 -5.18937E+00 +5.79650E-02 -7.61756E+00
 +5.32358E+00 -5.89428E+00 +7.92041E+00 -1.00553E+00 +6.43178E+00 +4.25221E+00 +1.82021E+00 +6.93008E+00
 -3.18104E+00 +5.63639E+00 -5.68812E+00 +1.30683E+00 -4.33861E+00 -3.38848E+00 -4.80388E-02 -5.62868E+00
 +4.56703E+00 -4.08048E+00 +6.73902E+00 +3.57232E-01 +5.15629E+00 +5.11599E+00 +6.94913E-01 +7.47648E+00
 -4.13230E+00 +6.14378E+00 -6.66396E+00 +1.96290E+00 -5.63006E+00 -2.62359E+00 -1.84566E+00 -5.03162E+00
 +2.32541E+00 -4.03393E+00 +4.39055E+00 -4.25372E-01 +3.17710E+00 +3.50789E+00 -5.35802E-01 +5.36618E+00
 -4.54048E+00 +4.02752E+00 -6.52804E+00 +2.43133E-01 -5.41467E+00 -3.87274E+00 -1.90048E+00 -6.10996E+00
 +2.01960E+00 -5.41698E+00 +4.25192E+00 -2.42512E+00 +3.78174E+00 +1.00965E+00 +1.16747E+00 +2.92203E+00
 -1.87631E+00 +2.33587E+00 -3.50556E+00 -2.64295E-01 -2.76768E+00 -3.29845E+00 -5.99733E-02 -5.02390E+00
 +3.17330E+00 -4.48300E+00 +5.27629E+00 -1.95970E+00 +5.26252E+00 +1.25107E+00 +3.28095E+00 +3.57991E+00
 +4.65784E-01 +4.00454E+00 -1.70176E+00 +2.53607E+00 -2.16449E+00 +1.55145E-01 -8.05550E-01 -1.73144E+00
 +1.52523E+00 -2.02113E+00 +3.46506E+00 -4.71885E-01 +3.83906E+00 +2.17843E+00 +2.26632E+00 +4.58223E+00
 -6.25271E-01 +5.46469E+00 -3.49180E+00 +4.28890E+00 -4.94825E+00 +1.56797E+00 -4.30120E+00 -1.35716E+00
 -1.95865E+00 -2.99610E+00 +7.30015E-01 -2.51731E+00 +2.16847E+00 -2.54555E-01 +1.40572E+00 +2.40178E+00
 -1.26299E+00 +3.72986E+00 -4.36656E+00 +2.66169E+00 -6.02994E+00 -5.25019E-01 -5.06113E+00 -4.25334E+00
 -1.72882E+00 -6.48258E+00 +2.27722E+00 -5.90389E+00 +4.76194E+00 -2.79463E+00 +4.33337E+00 +1.03465E+00
 +1.31929E+00 +3.25371E+00 -2.32313E+00 +2.43385E+00 -4.13543E+00 -9.92098E-01 -2.68845E+00 -4.88405E+00
 +1.43764E+00 -6.65241E+00 +5.89858E+00 -4.88961E+00 +7.98431E+00 -3.43105E-01 +6.33635E+00 +4.44706E+00
 +1.88253E+00 +6.69159E+00 -2.66689E+00 +5.13229E+00 -4.50484E+00 +9.03564E-01 -2.54081E+00 -3.13403E+00
 +1.84781E+00 -4.21165E+00 +5.66063E+00 -1.46284E+00 +6.20652E+00 +3.47068E+00 +2.87186E+00 +7.47070E+00
 -2.45077E+00 +7.96221E+00 -6.57915E+00 +4.59650E+00 -7.11214E+00 -5.23064E-01 -3.98328E+00 -4.22942E+00
 +5.34923E-01 -4.36947E+00 +3.36786E+00 -1.18451E+00 +2.67392E+00 +2.91632E+00 -9.86907E-01 +5.00817E+00
 -5.10831E+00 +3.59151E+00 -6.96232E+00 -4.81647E-01 -5.39469E+00 -4.67604E+00 -1.48902E+00 -6.51866E+00
 +2.28531E+00 -5.19947E+00 +3.78139E+00 -1.96555E+00 +2.53754E+00 +8.73643E-01 -9.35678E-02 +1.55708E+00
 -2.03173E+00 -3.69364E-02 -1.92424E+00 -2.50741E+00 +5.54683E-02 -4.05113E+00 +2.53602E+00 -3.70942E+00
 +4.03848E+00 -1.86926E+00 +3.97056E+00 +2.28549E-01 +2.84036E+00 +1.48404E+00 +1.65946E+00 +1.64651E+00
