 Created: 16-Jan-2021
 $NMID
 ID='D:\BASISSIMULATI'
 FMTDAT='(8E13.5)'
 VOLUME=   1.00000E+00
 TRAMP=   1.00000E+00
 $END
 +2.81339E+01 +1.30226E-01 +1.77693E+01 +2.17669E+01 -5.49038E+00 +2.75213E+01 -2.46993E+01 +1.32489E+01
 -2.58997E+01 -1.06218E+01 -8.26388E+00 -2.67088E+01 +1.53368E+01 -2.33339E+01 +2.77260E+01 -3.00001E+00
 +1.99229E+01 +1.94643E+01 -2.34779E+00 +2.77186E+01 -2.28553E+01 +1.57963E+01 -2.66919E+01 -7.58244E+00
 -1.11096E+01 -2.53889E+01 +1.25120E+01 -2.46889E+01 +2.69761E+01 -6.03789E+00 +2.17880E+01 +1.69568E+01
 +7.69558E-01 +2.75635E+01 -2.07557E+01 +1.81005E+01 -2.71343E+01 -4.50066E+00 -1.37659E+01 -2.37724E+01
 +9.57895E+00 -2.57094E+01 +2.58997E+01 -8.94678E+00 +2.33464E+01 +1.42795E+01 +3.82285E+00 +2.70641E+01
 -1.84315E+01 +2.01366E+01 -2.72273E+01 -1.41596E+00 -1.62025E+01 -2.18848E+01 +6.57643E+00 -2.63885E+01
 +2.45161E+01 -1.16923E+01 +2.45836E+01 +1.14692E+01 +6.77477E+00 +2.62326E+01 -1.59157E+01 +2.18837E+01
 -2.69760E+01 +1.63277E+00 -1.83927E+01 -1.97546E+01 +3.54349E+00 -2.67236E+01 +2.28479E+01 -1.42428E+01
 +2.54898E+01 +8.56349E+00 +9.58993E+00 +2.50855E+01 -1.32434E+01 +2.33249E+01 -2.63894E+01 +4.60778E+00
 -2.03131E+01 -1.74129E+01 +5.18822E-01 -2.67164E+01 +2.09212E+01 -1.65694E+01 +2.60593E+01 +5.60064E+00
 +1.22353E+01 +2.36425E+01 -1.04510E+01 +2.44472E+01 -2.54808E+01 +7.47290E+00 -2.19443E+01 -1.48928E+01
 -2.45963E+00 -2.63729E+01 +1.87647E+01 -1.86469E+01 +2.62908E+01 +2.61896E+00 +1.46804E+01 +2.19271E+01
 -7.57578E+00 +2.52422E+01 -2.42673E+01 +1.01940E+01 -2.32708E+01 -1.22292E+01 -5.35517E+00 -2.57035E+01
 +1.64095E+01 -2.04535E+01 +2.61872E+01 -3.43696E-01 +1.68981E+01 +1.99655E+01 -4.65529E+00 +2.57056E+01
 -2.27695E+01 +1.27393E+01 -2.42812E+01 -9.45802E+00 -8.13280E+00 -2.47221E+01 +1.38889E+01 -2.19710E+01
 +2.57559E+01 -3.25036E+00 +1.88644E+01 +1.77868E+01 -1.72712E+00 +2.58373E+01 -2.10111E+01 +1.50798E+01
 -2.49683E+01 -6.61613E+00 -1.07596E+01 -2.34466E+01 +1.12373E+01 -2.31854E+01 +2.50077E+01 -6.06542E+00
 +2.05590E+01 +1.54222E+01 +1.17173E+00 +2.56414E+01 -1.90189E+01 +1.71897E+01 -2.53291E+01 -3.74051E+00
 -1.32051E+01 -2.18982E+01 +8.49058E+00 -2.40868E+01 +2.39578E+01 -8.75502E+00 +2.19651E+01 +1.29046E+01
 +4.00527E+00 +2.51262E+01 -1.68220E+01 +1.90463E+01 -2.53647E+01 -8.67953E-01 -1.54418E+01 -2.01011E+01
 +5.68482E+00 -2.46693E+01 +2.26246E+01 -1.12875E+01 +2.30702E+01 +1.02685E+01 +6.73897E+00 +2.43036E+01
 -1.44516E+01 +2.06308E+01 -2.50804E+01 +1.96544E+00 -1.74450E+01 -1.80823E+01 +2.85643E+00 -2.49310E+01
 +2.10299E+01 -1.36337E+01 +2.38656E+01 +7.54909E+00 +9.34016E+00 +2.31893E+01 -1.19406E+01 +2.19280E+01
 -2.44853E+01 +4.72468E+00 -1.91937E+01 -1.58710E+01 +4.14059E-02 -2.48743E+01 +1.91982E+01 -1.57674E+01
 +2.43467E+01 +4.78207E+00 +1.17784E+01 +2.18026E+01 -9.32311E+00 +2.29265E+01 -2.35923E+01 +7.37632E+00
 -2.06703E+01 -1.34986E+01 -2.72505E+00 -2.45054E+01 +1.71567E+01 -1.76653E+01 +2.45129E+01 +2.00310E+00
 +1.40259E+01 +2.01656E+01 -6.63389E+00 +2.36189E+01 -2.24179E+01 +9.88885E+00 -2.18609E+01 -1.09975E+01
 -5.40896E+00 -2.38345E+01 +1.49348E+01 -1.93078E+01 +2.43676E+01 -7.52623E-01 +1.60575E+01 +1.83033E+01
 -3.90804E+00 +2.40019E+01 -2.09817E+01 +1.22331E+01 -2.27555E+01 -8.40163E+00 -7.97796E+00 -2.28752E+01
 +1.25637E+01 -2.06786E+01 +2.39180E+01 -3.45081E+00 +1.78516E+01 +1.62430E+01 -1.18053E+00 +2.40761E+01
 -1.93065E+01 +1.43824E+01 -2.33480E+01 -5.74524E+00 -1.04017E+01 -2.16447E+01 +1.00758E+01 -2.17651E+01
 +2.31752E+01 -6.05851E+00 +1.93897E+01 +1.40141E+01 +1.51428E+00 +2.38459E+01 -1.74174E+01 +1.63132E+01
 -2.36363E+01 -3.06286E+00 -1.26523E+01 -2.01631E+01 +7.50441E+00 -2.25586E+01 +2.21536E+01 -8.54445E+00
 +2.06568E+01 +1.16477E+01 +4.14302E+00 +2.33195E+01 -1.53420E+01 +1.80050E+01 -2.36220E+01 -3.88689E-01
 -1.47043E+01 -1.84535E+01 +4.88339E+00 -2.30544E+01 +2.08709E+01 -1.08795E+01 +2.16418E+01 +9.17597E+00
 +6.67377E+00 +2.25087E+01 -1.31096E+01 +1.94405E+01 -2.33106E+01 +2.24374E+00 -1.65354E+01 -1.65415E+01
 +2.24659E+00 -2.32512E+01 +1.93478E+01 -1.30368E+01 +2.23372E+01 +6.63179E+00 +9.07637E+00 +2.14287E+01
 -1.07511E+01 +2.06064E+01 -2.27111E+01 +4.80201E+00 -1.81264E+01 -1.44545E+01 -3.72500E-01 -2.31519E+01
 +1.76077E+01 -1.49924E+01 +2.27392E+01 +4.04850E+00 +1.13228E+01 +2.00977E+01 -8.29845E+00 +2.14924E+01
 -2.18362E+01 +7.25521E+00 -1.94615E+01 -1.22219E+01 -2.94123E+00 -2.27629E+01 +1.56763E+01 -1.67252E+01
 +2.28480E+01 +1.45928E+00 +1.33875E+01 +1.85370E+01 -5.78406E+00 +2.20925E+01 -2.07016E+01 +9.57430E+00
 -2.05283E+01 -9.87447E+00 -5.42813E+00 -2.20941E+01 +1.35813E+01 -1.82171E+01 +2.26672E+01 -1.10315E+00
 +1.52477E+01 +1.67701E+01 -3.24071E+00 +2.24039E+01 -1.93262E+01 +1.17324E+01 -2.13181E+01 -7.44362E+00
 -7.80333E+00 -2.11588E+01 +1.13517E+01 -1.94538E+01 +2.22042E+01 -3.60701E+00 +1.68835E+01 +1.48228E+01
 -7.00907E-01 +2.24279E+01 -1.77315E+01 +1.37052E+01 -2.18257E+01 -4.96145E+00 -1.00389E+01 -1.99735E+01
 +9.01819E+00 -2.04239E+01 +2.14698E+01 -6.02180E+00 +1.82781E+01 +1.27230E+01 +1.80343E+00 +2.21691E+01
 -1.59413E+01 +1.54710E+01 -2.20497E+01 -2.46011E+00 -1.21090E+01 -1.85573E+01 +6.61181E+00 -2.11200E+01
 +2.04778E+01 -8.31866E+00 +1.94184E+01 +1.04996E+01 +4.24138E+00 +2.16357E+01 -1.39817E+01 +1.70113E+01
 -2.19921E+01 +2.85802E-02 -1.39907E+01 -1.69323E+01 +4.16415E+00 -2.15381E+01 +1.92454E+01 -1.04707E+01
 +2.02943E+01 +8.18273E+00 +6.58343E+00 +2.08392E+01 -1.18803E+01 +1.83105E+01 -2.16588E+01 +2.47351E+00
 -1.56634E+01 -1.51224E+01 +1.70675E+00 -2.16778E+01 +1.77922E+01 -1.24535E+01 +2.08995E+01 +5.80330E+00
 +8.80175E+00 +1.97943E+01 -9.66590E+00 +1.93566E+01 -2.10585E+01 +4.84467E+00 -1.71097E+01 -1.31537E+01
 -7.29274E-01 -2.15421E+01 +1.61403E+01 -1.42449E+01 +2.12310E+01 +3.39230E+00 +1.08706E+01 +1.85184E+01
 -7.36847E+00 +2.01408E+01 -2.02037E+01 +7.11348E+00 -1.83154E+01 -1.10537E+01 -3.11364E+00 -2.11375E+01
 +1.43141E+01 -1.58257E+01 +2.12894E+01 +9.80642E-01 +1.27665E+01 +1.70317E+01 -5.01833E+00 +2.06577E+01
 -1.91094E+01 +9.25317E+00 -1.92695E+01 -8.85125E+00 -5.41722E+00 -2.04740E+01 +1.23395E+01 -1.71797E+01
 +2.10788E+01 -1.40130E+00 +1.44686E+01 +1.53564E+01 -2.64601E+00 +2.09055E+01 -1.77936E+01 +1.12391E+01
 -1.99644E+01 -6.57573E+00 -7.61244E+00 -1.95642E+01 +1.02439E+01 -1.82938E+01 +2.06065E+01 -3.72407E+00
 +1.59589E+01 +1.35171E+01 -2.81744E-01 +2.08859E+01 -1.62767E+01 +1.30488E+01 -2.03958E+01 -4.25711E+00
 -9.67354E+00 -1.84240E+01 +8.05601E+00 -1.91582E+01 +1.98830E+01 -5.95945E+00 +1.72223E+01 +1.15396E+01
 +2.04484E+00 +2.06036E+01 -1.45814E+01 +1.46628E+01 -2.05629E+01 -1.92534E+00 -1.15769E+01 -1.70718E+01
 +5.80481E+00 -1.97663E+01 +1.89219E+01 -8.08082E+00 +1.82468E+01 +9.45137E+00 +4.30510E+00 +2.00669E+01
 -1.27321E+01 +1.60640E+01 -2.04683E+01 +3.90012E-01 -1.33013E+01 -1.55282E+01 +3.51979E+00 -2.01150E+01
 +1.77393E+01 -1.00635E+01 +1.90238E+01 +7.28056E+00 +6.47175E+00 +1.92869E+01 -1.07547E+01 +1.72385E+01
 -2.01176E+01 +2.66007E+00 -1.48283E+01 -1.38160E+01 +1.23031E+00 -2.02043E+01 +1.63539E+01 -1.18848E+01
 +1.95477E+01 +5.05595E+00 +8.51915E+00 +1.82777E+01 -8.67649E+00 +1.81755E+01 -1.95198E+01 +4.85706E+00
 -1.61419E+01 -1.19598E+01 -1.03473E+00 -2.00378E+01 +1.47869E+01 -1.35248E+01 +1.98164E+01 +2.80648E+00
 +1.04236E+01 +1.70560E+01 -6.52524E+00 +1.88674E+01 -1.86866E+01 +6.95459E+00 -1.72293E+01 -9.98540E+00
 -3.24725E+00 -1.96219E+01 +1.30610E+01 -1.49660E+01 +1.98309E+01 +5.60914E-01 +1.21636E+01 +1.56409E+01
 -4.32935E+00 +1.93097E+01 -1.76328E+01 +8.92798E+00 -1.80810E+01 -7.91970E+00 -5.38030E+00 -1.89662E+01
 +1.12008E+01 -1.61935E+01 +1.95955E+01 -1.65256E+00 +1.37201E+01 +1.40536E+01 -2.11726E+00 +1.95011E+01
 -1.63753E+01 +1.07546E+01 -1.86901E+01 -5.79033E+00 -7.40842E+00 -1.80832E+01 +9.23205E+00 -1.71959E+01
 +1.91176E+01 -3.80662E+00 +1.50768E+01 +1.23170E+01 +8.29034E-02 +1.94438E+01 -1.49336E+01 +1.24139E+01
 -1.90533E+01 -3.62519E+00 -9.30790E+00 -1.69879E+01 +7.18139E+00 -1.79642E+01 +1.84073E+01 -5.87520E+00
 +1.62200E+01 +1.04557E+01 +2.24366E+00 +1.91426E+01 -1.33291E+01 +1.38880E+01 -1.91704E+01 -1.45218E+00
 -1.10571E+01 -1.56979E+01 +5.07608E+00 -1.84930E+01 +1.74776E+01 -7.83374E+00 +1.71390E+01 +8.49515E+00
 +4.33849E+00 +1.86057E+01 -1.15847E+01 +1.51616E+01 -1.90440E+01 +7.01226E-01 -1.26366E+01 -1.42328E+01
 +2.94358E+00 -1.87798E+01 +1.63442E+01 -9.65950E+00 +1.78263E+01 +6.46188E+00 +6.34216E+00 +1.78440E+01
 -9.72491E+00 +1.62221E+01 -1.86801E+01 +2.80825E+00 -1.40294E+01 -1.26140E+01 +8.11219E-01 -1.88251E+01
 +1.50247E+01 -1.13318E+01 +1.82772E+01 +4.38271E+00 +8.23106E+00 +1.68709E+01 -7.77512E+00 +1.70599E+01
 -1.80874E+01 +4.84317E+00 -1.52213E+01 -1.08646E+01 -1.29417E+00 -1.86327E+01 +1.35391E+01 -1.28323E+01
 +1.84901E+01 +2.28462E+00 +9.98339E+00 +1.57023E+01 -5.76146E+00 +1.76683E+01 -1.72773E+01 +6.78163E+00
 -1.62009E+01 -9.00900E+00 -3.34655E+00 -1.82090E+01 +1.19090E+01 -1.41451E+01 +1.84665E+01 +1.94361E-01
 +1.15795E+01 +1.43565E+01 -3.71038E+00 +1.80436E+01 -1.62638E+01 +8.60092E+00 -1.69594E+01 -7.07232E+00
 -5.32101E+00 -1.75635E+01 +1.01573E+01 -1.52569E+01 +1.82109E+01 -1.86189E+00 +1.30020E+01 +1.28534E+01
 -1.64835E+00 +1.81853E+01 -1.50633E+01 +1.02802E+01 -1.74911E+01 -5.08038E+00 -7.19405E+00 -1.67082E+01
 +8.30839E+00 -1.61573E+01 +1.77304E+01 -3.85885E+00 +1.42359E+01 +1.12147E+01 +3.98461E-01 +1.80955E+01
 -1.36940E+01 +1.18008E+01 -1.77934E+01 -3.05923E+00 -8.94386E+00 -1.56574E+01 +6.38708E+00 -1.68385E+01
 +1.70351E+01 -5.77240E+00 +1.52692E+01 +9.46338E+00 +2.40457E+00 +1.77795E+01 -1.21763E+01 +1.31463E+01
 -1.78664E+01 -1.03480E+00 -1.05506E+01 -1.44278E+01 +4.41887E+00 -1.72959E+01 +1.61375E+01 -7.57991E+00
 +1.60922E+01 +7.62348E+00 +4.34541E+00 +1.72452E+01 -1.05317E+01 +1.43028E+01 -1.77132E+01 +9.67347E-01
 -1.19964E+01 -1.30380E+01 +2.42935E+00 -1.75275E+01 +1.50524E+01 -9.26047E+00 +1.66983E+01 +5.71969E+00
 +6.19771E+00 +1.65031E+01 -8.78320E+00 +1.52591E+01 -1.73397E+01 +2.92240E+00 -1.32660E+01 -1.15084E+01
