 Created: 16-Jan-2021
 $NMID
 ID='D:\BASISSIMULATI'
 FMTDAT='(8E13.5)'
 VOLUME=   1.00000E+00
 TRAMP=   1.00000E+00
 $END
 +2.69915E+01 +1.68243E-01 +1.54731E+01 +2.01260E+01 -6.74144E+00 +2.13022E+01 -1.87729E+01 +3.82726E+00
 -9.94623E+00 -1.45893E+01 +1.02414E+01 -1.57920E+01 +2.14886E+01 +1.50275E+00 +1.22217E+01 +2.06894E+01
 -9.43476E+00 +2.33106E+01 -2.35779E+01 +6.66155E+00 -1.75539E+01 -1.38093E+01 +2.15669E+00 -1.93854E+01
 +1.63999E+01 -5.85607E+00 +1.17481E+01 +1.27610E+01 -6.83379E+00 +1.78821E+01 -2.10133E+01 +4.14911E+00
 -1.67615E+01 -1.56313E+01 +2.32732E+00 -2.29035E+01 +1.86641E+01 -1.10680E+01 +1.75363E+01 +8.43681E+00
 +9.80169E-01 +1.72727E+01 -1.44774E+01 +7.70052E+00 -1.37935E+01 -1.02921E+01 +2.30952E+00 -1.88275E+01
 +1.82958E+01 -9.30280E+00 +1.88329E+01 +9.55313E+00 +3.36488E+00 +2.02265E+01 -1.35925E+01 +1.31625E+01
 -1.64618E+01 -4.33807E+00 -3.35970E+00 -1.53731E+01 +1.24218E+01 -9.65697E+00 +1.53602E+01 +6.86300E+00
 +2.50551E+00 +1.79894E+01 -1.39444E+01 +1.28716E+01 -1.84990E+01 -3.77512E+00 -7.12416E+00 -1.64190E+01
 +9.16520E+00 -1.36225E+01 +1.50476E+01 +1.23613E+00 +5.48472E+00 +1.35099E+01 -9.75858E+00 +1.14273E+01
 -1.57272E+01 -2.80964E+00 -6.59207E+00 -1.54268E+01 +9.00756E+00 -1.43977E+01 +1.64560E+01 -8.08829E-01
 +9.12205E+00 +1.24559E+01 -5.56567E+00 +1.31697E+01 -1.34975E+01 +1.29366E+00 -7.39815E+00 -1.13155E+01
 +6.47293E+00 -1.24481E+01 +1.46073E+01 -1.11997E+00 +9.23390E+00 +1.17778E+01 -4.46211E+00 +1.40871E+01
 -1.35696E+01 +3.91348E+00 -9.84933E+00 -8.85767E+00 +2.62495E+00 -1.22226E+01 +1.16786E+01 -3.44871E+00
 +8.78085E+00 +8.62920E+00 -3.00240E+00 +1.23128E+01 -1.22547E+01 +4.19062E+00 -1.02504E+01 -7.87902E+00
 +8.81221E-01 -1.25248E+01 +1.04957E+01 -5.69811E+00 +9.73804E+00 +5.74524E+00 -1.75612E-01 +1.08705E+01
 -9.45430E+00 +5.10938E+00 -9.26729E+00 -5.65679E+00 -4.21487E-02 -1.10146E+01 +9.26269E+00 -6.00333E+00
 +9.90587E+00 +4.39760E+00 +1.59116E+00 +1.03153E+01 -7.56643E+00 +6.45645E+00 -8.99711E+00 -3.09178E+00
 -1.75212E+00 -9.08081E+00 +6.91790E+00 -6.01134E+00 +8.72699E+00 +2.84897E+00 +2.19515E+00 +8.90846E+00
 -6.24658E+00 +6.55976E+00 -8.64152E+00 -1.67621E+00 -3.04790E+00 -7.87605E+00 +4.91362E+00 -6.39595E+00
 +7.69014E+00 +9.43280E-01 +2.97395E+00 +6.92955E+00 -4.39662E+00 +5.99450E+00 -7.34081E+00 -6.47189E-01
 -3.29305E+00 -6.48855E+00 +3.63013E+00 -6.10953E+00 +6.84726E+00 -1.94920E-01 +3.60844E+00 +5.44794E+00
 -2.65626E+00 +5.61659E+00 -5.91537E+00 +5.38847E-01 -3.33426E+00 -4.67900E+00 +2.28115E+00 -5.13680E+00
 +5.47694E+00 -7.05616E-01 +3.42358E+00 +4.17311E+00 -1.62511E+00 +4.94967E+00 -4.79869E+00 +1.21588E+00
 -3.34272E+00 -3.22506E+00 +9.83193E-01 -4.22851E+00 +3.91206E+00 -1.19294E+00 +2.85342E+00 +2.68191E+00
 -8.43796E-01 +3.70808E+00 -3.50648E+00 +1.18591E+00 -2.77448E+00 -2.22907E+00 +3.36344E-01 -3.32734E+00
 +2.73065E+00 -1.38379E+00 +2.33704E+00 +1.44425E+00 -8.86600E-02 +2.45830E+00 -2.01679E+00 +9.94577E-01
 -1.73226E+00 -1.22396E+00 +1.76527E-01 -2.02531E+00 +1.70397E+00 -8.86865E-01 +1.52966E+00 +8.29363E-01
 +1.49746E-01 +1.47351E+00 -9.18483E-01 +7.25892E-01 -7.90452E-01 -3.51355E-01 +4.97849E-02 -6.36996E-01
 +5.30809E-01 -9.08763E-02 +2.41893E-01 +4.41398E-01 -2.56316E-01 +3.46777E-01 -2.72864E-01 -7.96045E-02
 +1.19870E-01 -1.30977E-01 +2.18710E-01 +3.24724E-01 -3.38419E-01 +6.10867E-01 -9.76708E-01 +8.87203E-02
 -7.72540E-01 -9.14451E-01 +3.74675E-01 -1.28465E+00 +1.38361E+00 -3.60662E-01 +1.03713E+00 +1.12180E+00
 -5.82597E-01 +1.58400E+00 -1.90541E+00 +2.68643E-01 -1.36889E+00 -1.72657E+00 +8.25488E-01 -2.33205E+00
 +2.62509E+00 -6.21540E-01 +2.05752E+00 +1.99305E+00 -6.38484E-01 +2.92367E+00 -2.95579E+00 +9.90078E-01
 -2.46160E+00 -2.15399E+00 +6.51365E-01 -3.40311E+00 +3.46368E+00 -1.25934E+00 +3.04997E+00 +2.44449E+00
 -5.11673E-01 +4.08507E+00 -3.92193E+00 +1.78293E+00 -3.72074E+00 -2.51548E+00 +2.12753E-01 -4.67018E+00
 +4.25237E+00 -2.34879E+00 +4.37743E+00 +2.47488E+00 +1.85810E-01 +5.17357E+00 -4.43566E+00 +2.91482E+00
 -4.90119E+00 -2.37378E+00 -4.65844E-01 -5.60580E+00 +4.77382E+00 -3.40539E+00 +5.64945E+00 +2.41627E+00
 +9.94843E-01 +6.33732E+00 -4.95570E+00 +4.38226E+00 -6.45114E+00 -1.85143E+00 -1.82866E+00 -6.46770E+00
 +4.62791E+00 -4.87233E+00 +6.61603E+00 +1.62210E+00 +1.93741E+00 +6.79600E+00 -5.12875E+00 +5.41802E+00
 -7.72767E+00 -1.54950E+00 -3.05233E+00 -7.60282E+00 +4.71448E+00 -6.83182E+00 +8.19900E+00 +2.58228E-01
 +3.93032E+00 +6.97767E+00 -4.10416E+00 +6.76229E+00 -8.07741E+00 -3.87004E-01 -3.84879E+00 -7.64935E+00
 +4.83196E+00 -7.80356E+00 +9.68872E+00 -2.83655E-01 +5.83638E+00 +8.01552E+00 -3.33159E+00 +9.19608E+00
 -9.17097E+00 +2.01824E+00 -6.04084E+00 -6.68129E+00 +3.10550E+00 -8.40616E+00 +9.33774E+00 -1.24090E+00
 +6.27987E+00 +8.07002E+00 -3.58323E+00 +1.04242E+01 -1.10410E+01 +3.15599E+00 -8.90540E+00 -7.17261E+00
 +9.54509E-01 -1.08768E+01 +9.18871E+00 -4.45968E+00 +7.85561E+00 +5.84239E+00 -1.82556E+00 +9.88422E+00
 -1.04289E+01 +3.38692E+00 -9.27990E+00 -7.73727E+00 +1.08466E+00 -1.28534E+01 +1.11870E+01 -6.79788E+00
 +1.15598E+01 +4.98375E+00 +1.89840E+00 +1.14633E+01 -8.46091E+00 +6.57860E+00 -9.39558E+00 -4.80205E+00
 +1.97231E-01 -1.13862E+01 +1.11321E+01 -6.29033E+00 +1.26170E+01 +6.16770E+00 +2.68050E+00 +1.43850E+01
 -9.71990E+00 +1.05280E+01 -1.31197E+01 -1.83490E+00 -4.55415E+00 -1.09787E+01 +7.45343E+00 -8.21063E+00
 +1.09604E+01 +3.67697E+00 +2.12534E+00 +1.29183E+01 -1.09054E+01 +1.00175E+01 -1.56403E+01 -2.99688E+00
 -7.22817E+00 -1.42915E+01 +6.72506E+00 -1.34490E+01 +1.32817E+01 -1.50811E+00 +6.55079E+00 +9.89515E+00
 -6.55409E+00 +9.62470E+00 -1.28394E+01 -2.18134E+00 -5.52133E+00 -1.40714E+01 +9.08343E+00 -1.41745E+01
 +1.74155E+01 -1.67169E+00 +1.16101E+01 +1.22201E+01 -2.86678E+00 +1.48506E+01 -1.23224E+01 +4.25885E+00
 -7.92622E+00 -8.85349E+00 +5.73574E+00 -1.13309E+01 +1.49473E+01 -2.60542E-01 +1.00154E+01 +1.40571E+01
 -5.28506E+00 +1.78500E+01 -1.71247E+01 +7.09427E+00 -1.47608E+01 -8.48555E+00 -8.58521E-01 -1.45967E+01
 +1.09762E+01 -6.04480E+00 +9.21380E+00 +8.22639E+00 -4.46184E+00 +1.36638E+01 -1.66419E+01 +4.12499E+00
 -1.50018E+01 -1.20593E+01 -2.11799E-01 -1.99006E+01 +1.45274E+01 -1.20634E+01 +1.59992E+01 +4.03609E+00
 +3.60892E+00 +1.32390E+01 -1.00086E+01 +7.14273E+00 -1.10958E+01 -7.79461E+00 +1.95089E+00 -1.63924E+01
 +1.68989E+01 -9.33826E+00 +1.93074E+01 +7.73684E+00 +6.39072E+00 +1.94748E+01 -1.01936E+01 +1.53992E+01
 -1.53975E+01 -5.17482E-02 -5.15395E+00 -1.17392E+01 +9.71751E+00 -8.33118E+00 +1.38912E+01 +6.77431E+00
 +2.31206E+00 +1.86306E+01 -1.48061E+01 +1.50608E+01 -2.16299E+01 -1.57560E+00 -1.18276E+01 -1.64899E+01
 +5.32523E+00 -1.65077E+01 +1.37680E+01 -2.63509E+00 +6.01331E+00 +1.09213E+01 -9.67107E+00 +1.04029E+01
 -1.71895E+01 -4.23227E+00 -8.11078E+00 -1.91644E+01 +1.01163E+01 -1.98937E+01 +2.11474E+01 -5.15831E+00
 +1.52982E+01 +1.17653E+01 -1.21509E+00 +1.56823E+01 -1.22354E+01 +3.96837E+00 -7.15784E+00 -1.09610E+01
 +8.87740E+00 -1.36036E+01 +1.98865E+01 -3.20485E-01 +1.43826E+01 +1.70549E+01 -3.52988E+00 +2.24486E+01
 -1.79613E+01 +1.08961E+01 -1.63416E+01 -6.69281E+00 -1.37604E+00 -1.39478E+01 +1.16103E+01 -4.68078E+00
 +9.41481E+00 +1.12248E+01 -6.32751E+00 +1.73367E+01 -2.06515E+01 +6.50098E+00 -1.95703E+01 -1.21917E+01
 -3.49402E+00 -2.19940E+01 +1.31014E+01 -1.44449E+01 +1.54562E+01 +2.59386E+00 +2.57364E+00 +1.25069E+01
 -1.19178E+01 +5.85658E+00 -1.29111E+01 -1.05820E+01 +1.61941E+00 -2.03370E+01 +1.85943E+01 -1.30656E+01
 +2.22861E+01 +5.46723E+00 +9.33298E+00 +1.88176E+01 -8.06174E+00 +1.55045E+01 -1.38026E+01 -1.07154E-01
 -3.26395E+00 -1.20890E+01 +1.23637E+01 -8.27853E+00 +1.68848E+01 +8.03461E+00 +4.69665E+00 +2.12480E+01
 -1.37653E+01 +1.83893E+01 -2.19376E+01 +1.54863E+00 -1.28965E+01 -1.40937E+01 +4.10651E+00 -1.47349E+01
 +1.25693E+01 -1.05558E+00 +4.55152E+00 +1.25642E+01 -1.17674E+01 +1.19275E+01 -1.99904E+01 -3.31584E+00
 -1.12636E+01 -1.92970E+01 +7.20151E+00 -2.11707E+01 +1.89768E+01 -7.27697E+00 +1.40508E+01 +9.31919E+00
 -1.72031E+00 +1.33403E+01 -1.23506E+01 +1.85455E+00 -7.10399E+00 -1.30405E+01 +9.22578E+00 -1.59212E+01
 +2.09404E+01 -2.87958E+00 +1.64878E+01 +1.46982E+01 -4.87868E-01 +2.09877E+01 -1.46392E+01 +1.07857E+01
 -1.35540E+01 -5.62565E+00 +4.92876E-01 -1.24070E+01 +1.28792E+01 -3.32115E+00 +1.07509E+01 +1.23824E+01
 -4.63655E+00 +1.89256E+01 -1.91323E+01 +9.16362E+00 -1.92285E+01 -8.56767E+00 -4.92981E+00 -1.84138E+01
 +1.03288E+01 -1.20920E+01 +1.25594E+01 +3.33356E+00 +5.22560E-01 +1.23621E+01 -1.32419E+01 +5.95560E+00
 -1.45512E+01 -9.85170E+00 -1.20357E+00 -1.98066E+01 +1.49259E+01 -1.40679E+01 +1.92423E+01 +2.40997E+00
 +8.31198E+00 +1.46584E+01 -6.98938E+00 +1.19783E+01 -1.19810E+01 -1.96671E+00 -2.20401E+00 -1.28376E+01
 +1.24349E+01 -9.45267E+00 +1.72716E+01 +5.51625E+00 +6.96092E+00 +1.81616E+01 -9.44224E+00 +1.66647E+01
 -1.71690E+01 +2.53168E+00 -9.79259E+00 -1.09524E+01 +4.78962E+00 -1.14633E+01 +1.20706E+01 +6.73944E-01
 +4.85723E+00 +1.29766E+01 -9.93078E+00 +1.28815E+01 -1.79942E+01 -2.19554E-01 -1.13680E+01 -1.44601E+01
 +4.02431E+00 -1.68755E+01 +1.41116E+01 -5.71883E+00 +1.01058E+01 +8.02406E+00 -3.24967E+00 +1.12459E+01
 -1.24096E+01 +1.21349E+00 -8.07741E+00 -1.19736E+01 +5.95013E+00 -1.51838E+01 +1.65195E+01 -4.83524E+00
 +1.37337E+01 +9.75656E+00 +3.28287E-01 +1.53456E+01 -1.10749E+01 +7.35565E+00 -1.00752E+01 -5.92215E+00
 +1.67931E+00 -1.14194E+01 +1.22650E+01 -3.80779E+00 +1.10103E+01 +9.52800E+00 -1.32336E+00 +1.56907E+01
 -1.33785E+01 +8.62911E+00 -1.41116E+01 -5.17518E+00 -3.26157E+00 -1.30104E+01 +8.57345E+00 -8.06663E+00
 +1.01725E+01 +4.22221E+00 +3.56001E-01 +1.15693E+01 -1.10676E+01 +6.65244E+00 -1.28217E+01 -5.97650E+00
 -2.93378E+00 -1.43840E+01 +9.49993E+00 -1.07014E+01 +1.30960E+01 +1.46337E+00 +4.99844E+00 +1.06278E+01
 -6.58095E+00 +8.44922E+00 -1.03696E+01 -2.43520E+00 -2.80191E+00 -1.11352E+01 +8.72937E+00 -9.02420E+00
 +1.30928E+01 +2.08043E+00 +6.06587E+00 +1.18035E+01 -5.76256E+00 +1.11925E+01 -1.14192E+01 +1.17187E+00
