 Created: 16-Jan-2021
 $NMID
 ID='D:\BASISSIMULATI'
 FMTDAT='(8E13.5)'
 VOLUME=   1.00000E+00
 TRAMP=   1.00000E+00
 $END
 +3.29452E+01 -1.92137E-01 +3.20906E+01 +6.57404E+00 +2.95369E+01 +1.28617E+01 +2.54869E+01 +1.82265E+01
 +2.02585E+01 +2.23004E+01 +1.42584E+01 +2.48214E+01 +7.94802E+00 +2.56530E+01 +1.80461E+00 +2.47945E+01
 -3.71736E+00 +2.23788E+01 -8.22324E+00 +1.86591E+01 -1.14094E+01 +1.39865E+01 -1.30862E+01 +8.77886E+00
 -1.31915E+01 +3.48530E+00 -1.17924E+01 -1.45183E+00 -9.07715E+00 -5.63329E+00 -5.33576E+00 -8.73501E+00
 -9.33569E-01 -1.05332E+01 +3.72168E+00 -1.09201E+01 +8.21533E+00 -9.90999E+00 +1.21611E+01 -7.63409E+00
 +1.52330E+01 -4.32587E+00 +1.71913E+01 -2.97925E-01 +1.79003E+01 +4.08745E+00 +1.73366E+01 +8.45114E+00
 +1.55874E+01 +1.24307E+01 +1.28393E+01 +1.57113E+01 +9.35831E+00 +1.80520E+01 +5.46392E+00 +1.93044E+01
 +1.49869E+00 +1.94226E+01 -2.20311E+00 +1.84642E+01 -5.34535E+00 +1.65813E+01 -7.69564E+00 +1.40040E+01
 -9.10453E+00 +1.10167E+01 -9.51674E+00 +7.93056E+00 -8.97348E+00 +5.05369E+00 -7.60604E+00 +2.66298E+00
 -5.62117E+00 +9.78865E-01 -3.27996E+00 +1.46090E-01 -8.72141E-01 +2.21736E-01 +1.31176E+00 +1.17156E+00
 +3.00784E+00 +2.87477E+00 +4.00326E+00 +5.13676E+00 +4.15571E+00 +7.70831E+00 +3.40599E+00 +1.03097E+01
 +1.78286E+00 +1.26570E+01 -6.00257E-01 +1.44889E+01 -3.55626E+00 +1.55907E+01 -6.84201E+00 +1.58139E+01
 -1.01808E+01 +1.50898E+01 -1.32878E+01 +1.34356E+01 -1.58957E+01 +1.09525E+01 -1.77792E+01 +7.81635E+00
 -1.87745E+01 +4.26216E+00 -1.87943E+01 +5.62723E-01 -1.78350E+01 -2.99551E+00 -1.59766E+01 -6.13759E+00
 -1.33759E+01 -8.62406E+00 -1.02519E+01 -1.02716E+01 -6.86682E+00 -1.09684E+01 -3.50325E+00 -1.06835E+01
 -4.39680E-01 -9.46867E+00 +2.07317E+00 -7.45304E+00 +3.83337E+00 -4.83165E+00 +4.70430E+00 -1.84798E+00
 +4.62540E+00 +1.22721E+00 +3.61612E+00 +4.11902E+00 +1.77315E+00 +6.57157E+00 -7.39021E-01 +8.36910E+00
 -3.70300E+00 +9.35328E+00 -6.86767E+00 +9.43533E+00 -9.96972E+00 +8.60194E+00 -1.27559E+01 +6.91474E+00
 -1.50035E+01 +4.50342E+00 -1.65385E+01 +1.55329E+00 -1.72483E+01 -1.71154E+00 -1.70893E+01 -5.04779E+00
 -1.60888E+01 -8.21375E+00 -1.43400E+01 -1.09892E+01 -1.19926E+01 -1.31929E+01 -9.23801E+00 -1.46966E+01
 -6.29198E+00 -1.54331E+01 -3.37573E+00 -1.54003E+01 -6.97197E-01 -1.46582E+01 +1.56598E+00 -1.33216E+01
 +3.28010E+00 -1.15479E+01 +4.36489E+00 -9.52191E+00 +4.79791E+00 -7.43889E+00 +4.61383E+00 -5.48719E+00
 +3.89882E+00 -3.83235E+00 +2.78057E+00 -2.60375E+00 +1.41519E+00 -1.88499E+00 -2.79424E-02 -1.70871E+00
 -1.38180E+00 -2.05609E+00 -2.49649E+00 -2.86096E+00 -3.25192E+00 -4.01796E+00 -3.56723E+00 -5.39383E+00
 -3.40633E+00 -6.84075E+00 -2.77914E+00 -8.21043E+00 -1.73869E+00 -9.36765E+00 -3.74367E-01 -1.02021E+01
 +1.19785E+00 -1.06372E+01 +2.84715E+00 -1.06362E+01 +4.44055E+00 -1.02033E+01 +5.85526E+00 -9.38180E+00
 +6.98954E+00 -8.24875E+00 +7.77125E+00 -6.90605E+00 +8.16332E+00 -5.47021E+00 +8.16572E+00 -4.06099E+00
 +7.81397E+00 -2.79013E+00 +7.17439E+00 -1.75138E+00 +6.33673E+00 -1.01247E+00 +5.40490E+00 -6.09970E-01
 +4.48670E+00 -5.47076E-01 +3.68373E+00 -7.94723E-01 +3.08219E+00 -1.29556E+00 +2.74550E+00 -1.97042E+00
 +2.70941E+00 -2.72654E+00 +2.97977E+00 -3.46667E+00 +3.53330E+00 -4.09827E+00 +4.32091E+00 -4.54174E+00
 +5.27337E+00 -4.73723E+00 +6.30852E+00 -4.64917E+00 +7.33930E+00 -4.26836E+00 +8.28197E+00 -3.61158E+00
 +9.06342E+00 -2.71868E+00 +9.62727E+00 -1.64776E+00 +9.93790E+00 -4.68887E-01 +9.98242E+00 +7.42947E-01
 +9.77035E+00 +1.91490E+00 +9.33114E+00 +2.98269E+00 +8.71004E+00 +3.89580E+00 +7.96268E+00 +4.62097E+00
 +7.14905E+00 +5.14378E+00 +6.32751E+00 +5.46822E+00 +5.54940E+00 +5.61458E+00 +4.85488E+00 +5.61572E+00
 +4.27011E+00 +5.51249E+00 +3.80631E+00 +5.34863E+00 +3.46036E+00 +5.16583E+00 +3.21701E+00 +4.99949E+00
 +3.05218E+00 +4.87553E+00 +2.93706E+00 +4.80857E+00 +2.84235E+00 +4.80173E+00 +2.74221E+00 +4.84771E+00
 +2.61749E+00 +4.93124E+00 +2.45778E+00 +5.03238E+00 +2.26216E+00 +5.13018E+00 +2.03857E+00 +5.20640E+00
 +1.80193E+00 +5.24861E+00 +1.57121E+00 +5.25246E+00 +1.36600E+00 +5.22262E+00 +1.20279E+00 +5.17249E+00
 +1.09172E+00 +5.12253E+00 +1.03402E+00 +5.09747E+00 +1.02062E+00 +5.12270E+00 +1.03211E+00 +5.22032E+00
 +1.04014E+00 +5.40529E+00 +1.01016E+00 +5.68224E+00 +9.05238E-01 +6.04323E+00 +6.90525E-01 +6.46707E+00
 +3.37903E-01 +6.92004E+00 -1.69715E-01 +7.35829E+00 -8.34997E-01 +7.73166E+00 -1.64414E+00 +7.98855E+00
 -2.56647E+00 +8.08138E+00 -3.55592E+00 +7.97211E+00 -4.55420E+00 +7.63724E+00 -5.49565E+00 +7.07152E+00
 -6.31317E+00 +6.29022E+00 -6.94471E+00 +5.32930E+00 -7.33983E+00 +4.24356E+00 -7.46545E+00 +3.10271E+00
 -7.31024E+00 +1.98569E+00 -6.88713E+00 +9.73736E-01 -6.23366E+00 +1.42757E-01 -5.40976E+00 -4.44174E-01
 -4.49343E+00 -7.43523E-01 -3.57423E+00 -7.36448E-01 -2.74548E+00 -4.31836E-01 -2.09558E+00 +1.33182E-01
 -1.69948E+00 +8.95408E-01 -1.61101E+00 +1.77035E+00 -1.85683E+00 +2.65922E+00 -2.43283E+00 +3.45766E+00
 -3.30317E+00 +4.06526E+00 -4.40239E+00 +4.39520E+00 -5.64037E+00 +4.38290E+00 -6.90981E+00 +3.99290E+00
 -8.09561E+00 +3.22331E+00 -9.08534E+00 +2.10716E+00 -9.77979E+00 +7.10576E-01 -1.01027E+01 -8.72276E-01
 -1.00084E+01 -2.52700E+00 -9.48723E+00 -4.12898E+00 -8.56753E+00 -5.55460E+00 -7.31386E+00 -6.69275E+00
 -5.82219E+00 -7.45550E+00 -4.21183E+00 -7.78685E+00 -2.61484E+00 -7.66875E+00 -1.16416E+00 -7.12375E+00
 +1.88504E-02 -6.21384E+00 +8.35986E-01 -5.03562E+00 +1.22194E+00 -3.71201E+00 +1.15120E+00 -2.38139E+00
 +6.41366E-01 -1.18487E+00 -2.47508E-01 -2.53096E-01 -1.41757E+00 +3.06324E-01 -2.74150E+00 +4.19567E-01
 -4.07384E+00 +5.43961E-02 -5.26430E+00 -7.75741E-01 -6.17184E+00 -2.01180E+00 -6.67823E+00 -3.55354E+00
 -6.69986E+00 -5.26784E+00 -6.19655E+00 -7.00040E+00 -5.17653E+00 -8.58961E+00 -3.69704E+00 -9.88156E+00
 -1.86035E+00 -1.07446E+01 +1.94490E-01 -1.10825E+01 +2.30358E+00 -1.08439E+01 +4.29262E+00 -1.00290E+01
 +5.99283E+00 -8.69059E+00 +7.25659E+00 -6.93066E+00 +7.97167E+00 -4.89262E+00 +8.07253E+00 -2.74916E+00
 +7.54754E+00 -6.87263E-01 +6.44159E+00 +1.10843E+00 +4.85351E+00 +2.47253E+00 +2.92855E+00 +3.27436E+00
 +8.46506E-01 +3.43075E+00 -1.19361E+00 +2.91478E+00 -2.99094E+00 +1.75967E+00 -4.36073E+00 +5.73572E-02
 -5.15123E+00 -2.04822E+00 -5.25806E+00 -4.37262E+00 -4.63458E+00 -6.70624E+00 -3.29744E+00 -8.83224E+00
 -1.32656E+00 -1.05454E+01 +1.14039E+00 -1.16706E+01 +3.91880E+00 -1.20782E+01 +6.79214E+00 -1.16969E+01
 +9.53010E+00 -1.05207E+01 +1.19082E+01 -8.61090E+00 +1.37271E+01 -6.09161E+00 +1.48303E+01 -3.14057E+00
 +1.51181E+01 +2.54422E-02 +1.45566E+01 +3.16852E+00 +1.31819E+01 +6.04961E+00 +1.10974E+01 +8.44880E+00
 +8.46573E+00 +1.01841E+01 +5.49574E+00 +1.11273E+01 +2.42478E+00 +1.12151E+01 -5.01018E-01 +1.04546E+01
 -3.04763E+00 +8.92367E+00 -5.01295E+00 +6.76370E+00 -6.24399E+00 +4.16835E+00 -6.64987E+00 +1.36691E+00
 -6.20954E+00 -1.39515E+00 -4.97342E+00 -3.87705E+00 -3.05898E+00 -5.86325E+00 -6.40472E-01 -7.18172E+00
 +2.06622E+00 -7.71848E+00 +4.82224E+00 -7.42705E+00 +7.38643E+00 -6.33211E+00 +9.53606E+00 -4.52688E+00
 +1.10859E+01 -2.16461E+00 +1.19042E+01 +5.55120E-01 +1.19230E+01 +3.40407E+00 +1.11445E+01 +6.14547E+00
 +9.63937E+00 +8.55471E+00 +7.54026E+00 +1.04389E+01 +5.02963E+00 +1.16536E+01 +2.32305E+00 +1.21148E+01
 -3.50148E-01 +1.18061E+01 -2.76740E+00 +1.07792E+01 -4.73267E+00 +9.14896E+00 -6.09375E+00 +7.08217E+00
 -6.75560E+00 +4.78232E+00 -6.68840E+00 +2.47087E+00 -5.92981E+00 +3.67036E-01 -4.58109E+00 -1.33212E+00
 -2.79750E+00 -2.46955E+00 -7.73871E-01 -2.94247E+00 +1.27337E+00 -2.71158E+00 +3.12616E+00 -1.80460E+00
 +4.58486E+00 -3.13753E-01 +5.48671E+00 +1.61269E+00 +5.72089E+00 +3.78385E+00 +5.23899E+00 +5.98368E+00
 +4.05986E+00 +7.99063E+00 +2.26833E+00 +9.59801E+00 +8.01162E-03 +1.06330E+01 -2.53122E+00 +1.09728E+01
 -5.13006E+00 +1.05564E+01 -7.55931E+00 +9.39065E+00 -9.60046E+00 +7.55062E+00 -1.10655E+01 +5.17368E+00
 -1.18142E+01 +2.44798E+00 -1.17670E+01 -4.03613E-01 -1.09135E+01 -3.14289E+00 -9.31350E+00 -5.53710E+00
 -7.09330E+00 -7.37953E+00 -4.43526E+00 -8.50796E+00 -1.56262E+00 -8.81938E+00 +1.27934E+00 -8.27969E+00
 +3.84428E+00 -6.92750E+00 +5.90602E+00 -4.87160E+00 +7.27821E+00 -2.28247E+00 +7.83064E+00 +6.21734E-01
 +7.50095E+00 +3.59326E+00 +6.30051E+00 +6.37555E+00 +4.31411E+00 +8.72492E+00 +1.69332E+00 +1.04312E+01
 -1.35578E+00 +1.13357E+01 -4.58961E+00 +1.13447E+01 -7.74727E+00 +1.04377E+01 -1.05723E+01 +8.66963E+00
 -1.28341E+01 +6.16600E+00 -1.43469E+01 +3.11299E+00 -1.49856E+01 -2.58160E-01 -1.46958E+01 -3.69029E+00
 -1.34984E+01 -6.92169E+00 -1.14875E+01 -9.70779E+00 -8.82219E+00 -1.18413E+01 -5.71335E+00 -1.31693E+01
 -2.40561E+00 -1.36052E+01 +8.43142E-01 -1.31359E+01 +3.78326E+00 -1.18217E+01 +6.19402E+00 -9.79118E+00
 +7.90171E+00 -7.22900E+00 +8.79354E+00 -4.36040E+00 +8.82637E+00 -1.43160E+00 +8.02929E+00 +1.31117E+00
 +6.50026E+00 +3.64236E+00 +4.39670E+00 +5.37587E+00 +1.92133E+00 +6.38024E+00 -6.95887E-01 +6.58897E+00
 -3.21775E+00 +6.00515E+00 -5.42034E+00 +4.70010E+00 -7.11204E+00 +2.80610E+00 -8.14958E+00 +5.03978E-01
 -8.44967E+00 -1.99339E+00 -7.99530E+00 -4.46009E+00 -6.83619E+00 -6.67713E+00 -5.08336E+00 -8.45151E+00
 -2.89847E+00 -9.63284E+00 -4.78807E-01 -1.01260E+01 +1.96066E+00 -9.89861E+00 +4.20664E+00 -8.98339E+00
 +6.06645E+00 -7.47411E+00 +7.38498E+00 -5.51663E+00 +8.05812E+00 -3.29522E+00 +8.04160E+00 -1.01565E+00
 +7.35434E+00 +1.11347E+00 +6.07627E+00 +2.89952E+00 +4.34060E+00 +4.18306E+00 +2.32150E+00 +4.85200E+00
 +2.18129E-01 +4.85144E+00 -1.76339E+00 +4.18835E+00 -3.42863E+00 +2.93074E+00 -4.61234E+00 +1.20135E+00
 -5.19324E+00 -8.33453E-01 -5.10492E+00 -2.97870E+00 -4.34180E+00 -5.02827E+00 -2.95965E+00 -6.78333E+00
 -1.07074E+00 -8.07008E+00 +1.16609E+00 -8.75530E+00 +3.55934E+00 -8.75819E+00 +5.90174E+00 -8.05771E+00
 +7.98845E+00 -6.69456E+00 +9.63498E+00 -4.76778E+00 +1.06934E+01 -2.42624E+00 +1.10654E+01 +1.44170E-01
 +1.07107E+01 +2.73664E+00 +9.65081E+00 +5.14125E+00 +7.96710E+00 +7.16303E+00 +5.79396E+00 +8.63875E+00
