 Created: 16-Jan-2021
 $NMID
 ID='D:\BASISSIMULATI'
 FMTDAT='(8E13.5)'
 VOLUME=   1.00000E+00
 TRAMP=   1.00000E+00
 $END
 +1.73502E+01 +1.19092E+00 +1.43133E+01 +8.90293E+00 +7.87254E+00 +1.36663E+01 +3.17146E-01 +1.41941E+01
 -5.79680E+00 +1.07594E+01 -8.60079E+00 +5.03072E+00 -7.57587E+00 -6.14480E-01 -3.67883E+00 -4.01754E+00
 +1.09689E+00 -4.04605E+00 +4.53700E+00 -9.76321E-01 +5.07188E+00 +3.67891E+00 +2.35841E+00 +7.80911E+00
 -2.63278E+00 +9.54667E+00 -8.03668E+00 +7.97909E+00 -1.18364E+01 +3.46609E+00 -1.26303E+01 -2.54086E+00
 -1.01300E+01 -8.08293E+00 -5.21436E+00 -1.14392E+01 +4.56217E-01 -1.17410E+01 +5.09365E+00 -9.23030E+00
 +7.43915E+00 -5.08745E+00 +7.17522E+00 -9.21414E-01 +4.95385E+00 +1.86021E+00 +2.05843E+00 +2.55405E+00
 -1.44062E-01 +1.35539E+00 -7.35654E-01 -8.05682E-01 +4.37483E-01 -2.69507E+00 +2.77025E+00 -3.28582E+00
 +5.19585E+00 -2.14706E+00 +6.63692E+00 +4.28302E-01 +6.42453E+00 +3.58443E+00 +4.52748E+00 +6.26579E+00
 +1.52042E+00 +7.62654E+00 -1.67389E+00 +7.32608E+00 -4.14963E+00 +5.60850E+00 -5.34180E+00 +3.15647E+00
 -5.19029E+00 +7.96665E-01 -4.09818E+00 -8.16667E-01 -2.72154E+00 -1.41811E+00 -1.68824E+00 -1.17601E+00
 -1.36015E+00 -5.67382E-01 -1.72449E+00 -1.48717E-01 -2.44189E+00 -3.21155E-01 -3.01635E+00 -1.17995E+00
 -3.01003E+00 -2.49683E+00 -2.21731E+00 -3.82863E+00 -7.36685E-01 -4.69938E+00 +1.07656E+00 -4.78131E+00
 +2.74854E+00 -4.00870E+00 +3.85797E+00 -2.58961E+00 +4.17656E+00 -9.20385E-01 +3.73251E+00 +5.58521E-01
 +2.78205E+00 +1.51102E+00 +1.70633E+00 +1.80759E+00 +8.74113E-01 +1.55108E+00 +5.17771E-01 +1.02324E+00
 +6.62077E-01 +5.74711E-01 +1.12580E+00 +4.96890E-01 +1.59271E+00 +9.17647E-01 +1.72752E+00 +1.75367E+00
 +1.29920E+00 +2.73445E+00 +2.71857E-01 +3.49111E+00 -1.16745E+00 +3.68282E+00 -2.65620E+00 +3.12094E+00
 -3.76767E+00 +1.84918E+00 -4.15294E+00 +1.49357E-01 -3.66712E+00 -1.53503E+00 -2.43470E+00 -2.73771E+00
 -8.25563E-01 -3.12759E+00 +6.57372E-01 -2.63103E+00 +1.54619E+00 -1.47150E+00 +1.57514E+00 -1.05203E-01
 +7.85531E-01 +9.32081E-01 -4.75178E-01 +1.21709E+00 -1.66767E+00 +6.01420E-01 -2.25347E+00 -7.18919E-01
 -1.89868E+00 -2.25918E+00 -6.12092E-01 -3.41360E+00 +1.23855E+00 -3.67821E+00 +3.04528E+00 -2.84675E+00
 +4.17526E+00 -1.10389E+00 +4.20534E+00 +1.02488E+00 +3.08725E+00 +2.85352E+00 +1.17804E+00 +3.78231E+00
 -8.80212E-01 +3.51973E+00 -2.38973E+00 +2.19451E+00 -2.85117E+00 +3.13338E-01 -2.14689E+00 -1.42243E+00
 -5.83810E-01 -2.37325E+00 +1.22104E+00 -2.19519E+00 +2.56903E+00 -9.63208E-01 +2.93633E+00 +8.61253E-01
 +2.16211E+00 +2.60443E+00 +4.99841E-01 +3.62877E+00 -1.48403E+00 +3.56176E+00 -3.12196E+00 +2.42126E+00
 -3.88565E+00 +5.94841E-01 -3.56547E+00 -1.31277E+00 -2.32668E+00 -2.70171E+00 -6.29309E-01 -3.18394E+00
 +9.50301E-01 -2.70132E+00 +1.92476E+00 -1.51936E+00 +2.05244E+00 -1.09315E-01 +1.39500E+00 +1.02895E+00
 +2.66199E-01 +1.53527E+00 -8.97616E-01 +1.29146E+00 -1.69084E+00 +4.31504E-01 -1.86104E+00 -7.30299E-01
 -1.36555E+00 -1.81627E+00 -3.56333E-01 -2.50201E+00 +8.87421E-01 -2.59732E+00 +2.04731E+00 -2.07624E+00
 +2.84544E+00 -1.06176E+00 +3.09954E+00 +2.17864E-01 +2.75084E+00 +1.48355E+00 +1.87000E+00 +2.46040E+00
 +6.45403E-01 +2.92998E+00 -6.46580E-01 +2.77884E+00 -1.69341E+00 +2.03706E+00 -2.22007E+00 +8.92859E-01
 -2.07290E+00 -3.32870E-01 -1.28846E+00 -1.26103E+00 -1.15488E-01 -1.56799E+00 +1.03376E+00 -1.10675E+00
 +1.70352E+00 +1.04245E-02 +1.55549E+00 +1.41086E+00 +5.14720E-01 +2.56035E+00 -1.16152E+00 +2.94192E+00
 -2.93377E+00 +2.25650E+00 -4.14830E+00 +5.67939E-01 -4.27283E+00 -1.67442E+00 -3.11431E+00 -3.76132E+00
 -9.28992E-01 -4.96508E+00 +1.63110E+00 -4.81367E+00 +3.73110E+00 -3.29089E+00 +4.65536E+00 -8.76410E-01
 +4.08629E+00 +1.60427E+00 +2.24722E+00 +3.27469E+00 -1.56926E-01 +3.54042E+00 -2.19050E+00 +2.33018E+00
 -3.04105E+00 +1.44293E-01 -2.34129E+00 -2.11922E+00 -3.29645E-01 -3.50242E+00 +2.22143E+00 -3.36223E+00
 +4.29012E+00 -1.63503E+00 +4.99790E+00 +1.11793E+00 +3.95789E+00 +3.90931E+00 +1.44013E+00 +5.69718E+00
 -1.71651E+00 +5.78657E+00 -4.41594E+00 +4.10352E+00 -5.72146E+00 +1.23122E+00 -5.21458E+00 -1.80896E+00
 -3.15433E+00 -3.94810E+00 -3.73475E-01 -4.47916E+00 +2.04841E+00 -3.32450E+00 +3.20606E+00 -1.05620E+00
 +2.71776E+00 +1.33774E+00 +8.65477E-01 +2.84770E+00 -1.52738E+00 +2.84013E+00 -3.42955E+00 +1.30193E+00
 -4.01230E+00 -1.16313E+00 -2.97363E+00 -3.58058E+00 -6.49770E-01 -4.99285E+00 +2.12570E+00 -4.83268E+00
 +4.35410E+00 -3.13570E+00 +5.25989E+00 -5.12654E-01 +4.58107E+00 +2.10128E+00 +2.65064E+00 +3.81482E+00
 +2.44476E-01 +4.11833E+00 -1.73624E+00 +3.05988E+00 -2.61713E+00 +1.19702E+00 -2.19780E+00 -6.46988E-01
 -8.02131E-01 -1.71838E+00 +8.78600E-01 -1.62355E+00 +2.07797E+00 -4.63651E-01 +2.26035E+00 +1.23150E+00
 +1.32012E+00 +2.73348E+00 -3.97722E-01 +3.41007E+00 -2.25310E+00 +2.96607E+00 -3.57115E+00 +1.53977E+00
 -3.89976E+00 -3.72706E-01 -3.16515E+00 -2.12440E+00 -1.67344E+00 -3.16661E+00 +3.04146E-02 -3.24192E+00
 +1.38091E+00 -2.45237E+00 +1.99797E+00 -1.18848E+00 +1.80473E+00 +4.11360E-02 +1.02199E+00 +8.05722E-01
 +5.49250E-02 +8.98557E-01 -6.73890E-01 +3.85355E-01 -8.77770E-01 -4.50739E-01 -4.92129E-01 -1.23430E+00
 +3.27641E-01 -1.63887E+00 +1.28286E+00 -1.49282E+00 +2.04509E+00 -8.19617E-01 +2.36310E+00 +1.89744E-01
 +2.13080E+00 +1.25115E+00 +1.40363E+00 +2.07756E+00 +3.69201E-01 +2.45696E+00 -7.10950E-01 +2.30118E+00
 -1.56999E+00 +1.66080E+00 -2.00046E+00 +7.09000E-01 -1.90490E+00 -2.99965E-01 -1.32471E+00 -1.09145E+00
 -4.38974E-01 -1.44186E+00 +4.72859E-01 -1.24707E+00 +1.10402E+00 -5.67987E-01 +1.21595E+00 +3.67561E-01
 +7.29091E-01 +1.21928E+00 -2.25842E-01 +1.63953E+00 -1.32535E+00 +1.40056E+00 -2.14752E+00 +4.98520E-01
 -2.32087E+00 -8.12506E-01 -1.67708E+00 -2.08328E+00 -3.45658E-01 -2.81997E+00 +1.25794E+00 -2.67450E+00
 +2.56179E+00 -1.60173E+00 +3.04714E+00 +8.64134E-02 +2.46172E+00 +1.80555E+00 +9.48560E-01 +2.90422E+00
 -9.72876E-01 +2.91822E+00 -2.58092E+00 +1.77370E+00 -3.22456E+00 -1.50323E-01 -2.59093E+00 -2.13910E+00
 -8.56119E-01 -3.40581E+00 +1.35271E+00 -3.40458E+00 +3.18252E+00 -2.06681E+00 +3.88699E+00 +1.42417E-01
 +3.13607E+00 +2.38347E+00 +1.17255E+00 +3.76446E+00 -1.25818E+00 +3.70285E+00 -3.18903E+00 +2.17879E+00
 -3.81745E+00 -2.30801E-01 -2.84241E+00 -2.56246E+00 -6.09731E-01 -3.84561E+00 +2.00298E+00 -3.50134E+00
 +3.92568E+00 -1.59637E+00 +4.32802E+00 +1.15931E+00 +2.96884E+00 +3.68002E+00 +3.15372E-01 +4.93614E+00
 -2.62543E+00 +4.37705E+00 -4.70280E+00 +2.16988E+00 -5.08845E+00 -8.50521E-01 -3.62217E+00 -3.50777E+00
 -8.90363E-01 -4.75862E+00 +2.00167E+00 -4.12321E+00 +3.87654E+00 -1.89130E+00 +3.97002E+00 +9.85940E-01
 +2.25428E+00 +3.28035E+00 -5.38843E-01 +3.99332E+00 -3.20968E+00 +2.77623E+00 -4.58269E+00 +8.83031E-02
 -3.99738E+00 -2.97858E+00 -1.59418E+00 -5.14128E+00 +1.72708E+00 -5.45411E+00 +4.66436E+00 -3.70676E+00
 +6.04276E+00 -5.24168E-01 +5.29926E+00 +2.87740E+00 +2.72114E+00 +5.18170E+00 -6.63660E-01 +5.51086E+00
 -3.50288E+00 +3.78845E+00 -4.67400E+00 +7.75011E-01 -3.74800E+00 -2.24180E+00 -1.17002E+00 -3.97747E+00
 +1.92017E+00 -3.68370E+00 +4.15673E+00 -1.46393E+00 +4.51386E+00 +1.76098E+00 +2.73637E+00 +4.62530E+00
 -5.43801E-01 +5.87803E+00 -4.05530E+00 +4.90033E+00 -6.39965E+00 +1.96775E+00 -6.61919E+00 -1.85152E+00
 -4.58848E+00 -5.12219E+00 -1.06878E+00 -6.61818E+00 +2.59695E+00 -5.81478E+00 +5.02409E+00 -3.09658E+00
 +5.34167E+00 +4.02943E-01 +3.53717E+00 +3.26347E+00 +4.52436E-01 +4.35280E+00 -2.56570E+00 +3.28099E+00
 -4.21579E+00 +5.50781E-01 -3.76908E+00 -2.65380E+00 -1.36092E+00 -4.95173E+00 +2.06854E+00 -5.32408E+00
 +5.15620E+00 -3.52196E+00 +6.66289E+00 -1.61570E-01 +5.96351E+00 +3.52673E+00 +3.28600E+00 +6.18941E+00
 -3.91609E-01 +6.88040E+00 -3.73736E+00 +5.41962E+00 -5.59067E+00 +2.44150E+00 -5.40532E+00 -8.77503E-01
 -3.43725E+00 -3.29508E+00 -6.11335E-01 -3.98827E+00 +1.86932E+00 -2.85587E+00 +3.00791E+00 -5.25297E-01
 +2.39739E+00 +1.92735E+00 +3.55765E-01 +3.42200E+00 -2.22966E+00 +3.30173E+00 -4.27488E+00 +1.57503E+00
 -4.93205E+00 -1.11382E+00 -3.90974E+00 -3.76119E+00 -1.56080E+00 -5.40672E+00 +1.28399E+00 -5.49760E+00
 +3.65709E+00 -4.07473E+00 +4.82657E+00 -1.71888E+00 +4.55263E+00 +7.06641E-01 +3.13660E+00 +2.40266E+00
 +1.25815E+00 +2.92887E+00 -3.19481E-01 +2.33558E+00 -1.05082E+00 +1.09419E+00 -7.97400E-01 -1.29894E-01
 +1.59601E-01 -7.59127E-01 +1.27290E+00 -5.24817E-01 +1.97314E+00 +4.54463E-01 +1.89864E+00 +1.75489E+00
 +1.02125E+00 +2.84218E+00 -3.71488E-01 +3.29091E+00 -1.81621E+00 +2.93911E+00 -2.86762E+00 +1.92342E+00
 -3.26332E+00 +5.93963E-01 -2.99750E+00 -6.43444E-01 -2.28495E+00 -1.48619E+00 -1.44349E+00 -1.83085E+00
 -7.53041E-01 -1.77577E+00 -3.52104E-01 -1.54154E+00 -2.09174E-01 -1.35377E+00 -1.70880E-01 -1.34227E+00
 -5.57725E-02 -1.49744E+00 +2.52754E-01 -1.69489E+00 +7.54794E-01 -1.76874E+00 +1.34106E+00 -1.59539E+00
 +1.84867E+00 -1.14942E+00 +2.13519E+00 -5.10387E-01 +2.13647E+00 +1.76964E-01 +1.88450E+00 +7.66193E-01
 +1.48250E+00 +1.16573E+00 +1.05331E+00 +1.36479E+00 +6.87001E-01 +1.42121E+00 +4.10843E-01 +1.42174E+00
 +1.91646E-01 +1.43600E+00 -3.50832E-02 +1.48530E+00 -3.25922E-01 +1.53812E+00 -6.98998E-01 +1.53019E+00
 -1.12415E+00 +1.39691E+00 -1.53466E+00 +1.10215E+00 -1.85191E+00 +6.52254E-01 -2.01040E+00 +9.26591E-02
 -1.97349E+00 -5.07128E-01 -1.73727E+00 -1.07108E+00 -1.32607E+00 -1.52965E+00 -7.86089E-01 -1.82664E+00
 -1.81036E-01 -1.92328E+00 +4.11080E-01 -1.80408E+00 +9.04774E-01 -1.48560E+00 +1.22205E+00 -1.02393E+00
 +1.31504E+00 -5.13108E-01 +1.18889E+00 -6.76556E-02 +9.12734E-01 +2.10469E-01 +6.07888E-01 +2.70955E-01
 +4.10793E-01 +1.43678E-01 +4.20327E-01 -5.98657E-02 +6.49618E-01 -1.79956E-01 +1.00520E+00 -6.97915E-02
 +1.30850E+00 +3.37211E-01 +1.35820E+00 +9.82567E-01 +1.01320E+00 +1.68383E+00 +2.63777E-01 +2.18851E+00
 -7.41236E-01 +2.26562E+00 -1.72850E+00 +1.80139E+00 -2.38894E+00 +8.60005E-01 -2.49082E+00 -3.19412E-01
 -1.97387E+00 -1.39456E+00 -9.85208E-01 -2.03776E+00 +1.61639E-01 -2.05655E+00 +1.09329E+00 -1.47004E+00
