 Created: 16-Jan-2021
 $NMID
 ID='D:\BASISSIMULATI'
 FMTDAT='(8E13.5)'
 VOLUME=   1.00000E+00
 TRAMP=   1.00000E+00
 $END
 +4.73473E+01 +2.69110E-01 +2.89265E+01 +3.41553E+01 -7.67620E+00 +3.77363E+01 -2.86897E+01 +1.13618E+01
 -1.83334E+01 -1.67995E+01 +7.47698E+00 -2.09785E+01 +2.08370E+01 -3.06085E+00 +1.20315E+01 +1.32878E+01
 -2.78770E+00 +1.10666E+01 -3.20532E+00 -1.69173E+00 +1.04719E+01 -3.61533E+00 +1.76661E+01 +1.27449E+01
 +2.73445E+00 +3.01054E+01 -2.42689E+01 +2.52556E+01 -3.59444E+01 -3.27744E+00 -1.70603E+01 -3.03270E+01
 +1.70761E+01 -2.89400E+01 +3.44349E+01 +1.06918E+00 +1.84904E+01 +3.17860E+01 -1.51541E+01 +3.50501E+01
 -3.51961E+01 +1.01977E+01 -2.62880E+01 -1.71730E+01 -2.45825E+00 -2.29198E+01 +1.05979E+01 -8.18017E+00
 +3.56575E+00 +5.46816E+00 -8.86808E+00 +2.19354E+00 -7.71517E+00 -1.07095E+01 +6.94356E+00 -1.32519E+01
 +1.58980E+01 +1.92250E+00 +4.01783E+00 +1.90003E+01 -2.00580E+01 +1.59993E+01 -3.09836E+01 -9.39746E+00
 -1.38401E+01 -3.45427E+01 +1.82841E+01 -3.42063E+01 +3.61918E+01 -7.13430E+00 +2.39884E+01 +2.18858E+01
 -5.08494E+00 +2.69743E+01 -2.29273E+01 +6.72521E+00 -1.52769E+01 -1.62560E+01 +5.65139E+00 -2.01825E+01
 +1.68164E+01 -5.89124E+00 +9.78434E+00 +7.18414E+00 -2.08737E+00 +4.66485E+00 -1.37716E+00 -6.78766E+00
 +1.19983E+01 -8.72089E+00 +2.03912E+01 +5.99493E+00 +9.43228E+00 +2.31575E+01 -1.36761E+01 +2.23248E+01
 -2.59696E+01 +4.50251E-01 -1.31303E+01 -2.26321E+01 +1.40961E+01 -2.38899E+01 +2.98609E+01 -1.19672E+00
 +1.93858E+01 +2.40842E+01 -6.39359E+00 +2.88852E+01 -2.29264E+01 +1.13563E+01 -1.73800E+01 -9.02789E+00
 -1.35973E-01 -1.31508E+01 +8.73324E+00 -1.62307E+00 +1.89110E+00 +8.55168E+00 -8.78936E+00 +4.79319E+00
 -7.82736E+00 -6.84028E+00 +4.84246E+00 -9.75170E+00 +1.33678E+01 +2.65577E+00 +4.56811E+00 +1.78735E+01
 -1.56130E+01 +1.74580E+01 -2.68726E+01 -1.92532E+00 -1.60017E+01 -2.32017E+01 +8.28016E+00 -2.58612E+01
 +2.35369E+01 -7.26261E+00 +1.63557E+01 +1.45699E+01 -4.52257E+00 +1.95312E+01 -1.82094E+01 +5.43634E+00
 -1.34271E+01 -1.14633E+01 +1.34982E+00 -1.48727E+01 +9.22216E+00 -5.12145E+00 +3.98016E+00 +3.51530E+00
 -4.31973E+00 +4.99842E-01 -2.63353E+00 -8.86858E+00 +8.86664E+00 -1.04068E+01 +1.64332E+01 +1.38800E+00
 +8.70569E+00 +1.55855E+01 -9.17438E+00 +1.61499E+01 -1.96227E+01 +2.44498E-02 -1.09944E+01 -1.82198E+01
 +9.58518E+00 -2.07971E+01 +2.29994E+01 -4.96458E+00 +1.74099E+01 +1.43090E+01 -3.84321E-01 +1.98426E+01
 -1.30291E+01 +9.17650E+00 -1.07265E+01 -4.65714E+00 +1.20696E-01 -8.18634E+00 +6.00166E+00 -1.29448E+00
 +1.87264E+00 +4.82682E+00 -4.31872E+00 +1.98704E+00 -2.43479E+00 -5.32692E+00 +6.85921E+00 -5.79629E+00
 +1.21504E+01 +4.47520E+00 +4.47938E+00 +1.59988E+01 -1.13313E+01 +1.55215E+01 -2.03932E+01 +8.62218E-01
 -1.30341E+01 -1.55393E+01 +4.74279E+00 -1.86880E+01 +1.69477E+01 -6.07192E+00 +1.34360E+01 +1.01353E+01
 -7.38946E-01 +1.56517E+01 -1.16890E+01 +7.84602E+00 -1.11372E+01 -3.42660E+00 -3.40617E+00 -7.56165E+00
 +1.49798E+00 -3.97829E+00 -2.25912E-01 -5.94954E-01 -2.88709E+00 -3.00951E+00 +3.96721E-01 -7.49920E+00
 +8.17879E+00 -5.87701E+00 +1.14124E+01 +3.74102E+00 +3.87656E+00 +1.30960E+01 -9.58038E+00 +1.18709E+01
 -1.67184E+01 -8.88402E-01 -1.01015E+01 -1.46636E+01 +5.08622E+00 -1.73631E+01 +1.59234E+01 -7.00118E+00
 +1.41596E+01 +6.86243E+00 +3.31949E+00 +1.29273E+01 -6.17313E+00 +8.59373E+00 -7.75353E+00 +6.04148E-01
 -3.81140E+00 -3.47321E+00 -7.63267E-01 -2.82809E+00 -9.12183E-01 -2.16493E+00 -6.37759E-01 -4.31391E+00
 +3.64333E+00 -6.08788E+00 +9.51131E+00 -2.36799E+00 +1.01661E+01 +6.59110E+00 +2.18957E+00 +1.36201E+01
 -9.40337E+00 +1.13492E+01 -1.49934E+01 +1.80900E-01 -9.50656E+00 -1.12323E+01 +2.58825E+00 -1.38352E+01
 +1.15464E+01 -6.36801E+00 +1.13051E+01 +4.21258E+00 +4.07635E+00 +9.87150E+00 -3.29063E+00 +8.43175E+00
 -6.35030E+00 +3.68663E+00 -5.94943E+00 -6.18285E-02 -4.96878E+00 -2.22327E+00 -3.89598E+00 -4.59492E+00
 -7.64490E-01 -7.17781E+00 +4.90584E+00 -6.98258E+00 +9.60388E+00 -1.63280E+00 +8.51007E+00 +6.58661E+00
 +8.10327E-01 +1.15158E+01 -8.38895E+00 +8.61865E+00 -1.21306E+01 -4.20970E-01 -7.76594E+00 -8.92168E+00
 +9.52742E-01 -1.10671E+01 +7.65574E+00 -6.52582E+00 +8.82706E+00 +3.61580E-01 +5.63035E+00 +5.16176E+00
 +1.23681E+00 +6.59624E+00 -2.50262E+00 +5.75413E+00 -5.41495E+00 +3.44890E+00 -7.01551E+00 -5.07291E-01
 -5.66386E+00 -5.49019E+00 -5.02636E-01 -8.74530E+00 +6.21971E+00 -7.14776E+00 +9.89491E+00 -6.27000E-01
 +7.41146E+00 +6.73682E+00 +2.85264E-01 +9.76448E+00 -6.41243E+00 +6.61304E+00 -8.41767E+00 +1.37938E-01
 -5.54252E+00 -5.04557E+00 -8.31767E-01 -6.52742E+00 +2.86725E+00 -5.11314E+00 +4.92109E+00 -2.58328E+00
 +5.77184E+00 +4.86770E-01 +4.93747E+00 +4.19144E+00 +1.29791E+00 +7.26911E+00 -4.48804E+00 +6.97689E+00
 -8.85530E+00 +1.88885E+00 -7.85880E+00 -5.44499E+00 -1.28170E+00 -9.67308E+00 +6.27332E+00 -7.28973E+00
 +9.13208E+00 -1.45772E-01 +5.66118E+00 +6.09191E+00 -5.13471E-01 +7.18160E+00 -4.40593E+00 +3.85223E+00
 -4.40977E+00 +1.09888E-01 -2.84848E+00 -1.44482E+00 -2.21064E+00 -1.86066E+00 -1.88548E+00 -3.31169E+00
 +5.67241E-01 -5.26121E+00 +5.23105E+00 -4.41687E+00 +8.20240E+00 +1.01698E+00 +5.25838E+00 +7.83131E+00
 -2.86405E+00 +9.86253E+00 -9.85993E+00 +4.20472E+00 -9.48119E+00 -5.05492E+00 -1.86885E+00 -1.01643E+01
 +6.28552E+00 -7.12586E+00 +8.26381E+00 +5.11992E-01 +3.75869E+00 +5.56713E+00 -1.56716E+00 +4.61477E+00
 -2.68072E+00 +8.57949E-01 -4.53034E-01 -4.19653E-01 +2.42252E-01 +1.64912E+00 -2.84125E+00 +2.69532E+00
 -5.96635E+00 -1.03394E+00 -3.63832E+00 -7.11282E+00 +4.22017E+00 -8.65827E+00 +1.07171E+01 -2.05013E+00
 +8.67596E+00 +7.96199E+00 -1.31025E+00 +1.21243E+01 -1.05424E+01 +6.05969E+00 -1.06311E+01 -4.83394E+00
 -1.99475E+00 -1.05867E+01 +6.70524E+00 -6.70063E+00 +7.67668E+00 +1.65117E+00 +1.82361E+00 +5.69747E+00
 -3.11554E+00 +2.60800E+00 -1.76724E+00 -2.05692E+00 +2.85114E+00 -1.51445E+00 +3.33198E+00 +3.83797E+00
 -2.74029E+00 +6.63703E+00 -9.04596E+00 +1.40703E+00 -7.25568E+00 -8.07471E+00 +2.99542E+00 -1.18325E+01
 +1.23767E+01 -4.48727E+00 +1.11128E+01 +8.03555E+00 -4.13913E-01 +1.38304E+01 -1.14276E+01 +7.22065E+00
 -1.16370E+01 -5.19870E+00 -1.76214E+00 -1.13972E+01 +7.61162E+00 -6.39968E+00 +7.54978E+00 +3.02344E+00
 +3.28823E-02 +6.38775E+00 -5.08447E+00 +1.17100E+00 -1.74702E+00 -4.89157E+00 +5.30858E+00 -3.31756E+00
 +6.25218E+00 +4.75986E+00 -1.88743E+00 +9.42882E+00 -1.08246E+01 +3.45058E+00 -9.73784E+00 -8.56661E+00
 +2.23075E+00 -1.41241E+01 +1.38556E+01 -6.24638E+00 +1.31675E+01 +8.27573E+00 +3.21513E-01 +1.53233E+01
 -1.21320E+01 +8.10650E+00 -1.22340E+01 -5.70094E+00 -9.99635E-01 -1.21764E+01 +9.15744E+00 -5.86268E+00
 +8.10809E+00 +4.97796E+00 -1.28924E+00 +8.10392E+00 -7.14522E+00 +1.01884E+00 -2.47751E+00 -6.64924E+00
 +6.69379E+00 -4.66723E+00 +8.34418E+00 +5.52511E+00 -1.29009E+00 +1.19247E+01 -1.24811E+01 +5.59384E+00
 -1.22590E+01 -8.42485E+00 +8.63184E-01 -1.55988E+01 +1.42200E+01 -7.49893E+00 +1.39776E+01 +8.50170E+00
 -7.24284E-03 +1.64455E+01 -1.37229E+01 +8.52065E+00 -1.37176E+01 -6.74029E+00 -1.15956E+00 -1.37378E+01
 +9.96157E+00 -6.46159E+00 +8.34784E+00 +5.61863E+00 -2.53695E+00 +8.65949E+00 -9.05198E+00 +3.12073E-03
 -3.25329E+00 -9.18863E+00 +7.90211E+00 -7.08036E+00 +1.05030E+01 +4.81800E+00 -6.05272E-02 +1.28001E+01
 -1.29758E+01 +6.37166E+00 -1.34080E+01 -9.22480E+00 +8.36376E-01 -1.77600E+01 +1.59750E+01 -9.41313E+00
 +1.64877E+01 +8.13425E+00 +1.74006E+00 +1.73716E+01 -1.31648E+01 +9.40806E+00 -1.34140E+01 -6.74700E+00
 -4.37563E-02 -1.41369E+01 +1.18161E+01 -6.10708E+00 +9.84224E+00 +7.09790E+00 -2.19913E+00 +1.03809E+01
 -9.36931E+00 +8.44334E-01 -2.93130E+00 -9.23018E+00 +9.46465E+00 -6.74339E+00 +1.23881E+01 +6.75434E+00
 +5.05687E-01 +1.61356E+01 -1.44597E+01 +9.52640E+00 -1.59912E+01 -7.74189E+00 -1.11089E+00 -1.79515E+01
 +1.55439E+01 -9.87304E+00 +1.68697E+01 +8.80028E+00 +1.48315E+00 +1.92665E+01 -1.48266E+01 +1.14393E+01
 -1.60045E+01 -5.65808E+00 -2.59139E+00 -1.40966E+01 +9.70240E+00 -6.48418E+00 +7.77872E+00 +6.68738E+00
 -4.57602E+00 +9.56711E+00 -1.16620E+01 -9.33528E-01 -4.25064E+00 -1.17934E+01 +9.46143E+00 -9.04541E+00
 +1.28803E+01 +5.66686E+00 +1.19564E-01 +1.60420E+01 -1.63201E+01 +9.03147E+00 -1.84286E+01 -1.00039E+01
 -2.40565E+00 -2.20383E+01 +1.64829E+01 -1.44202E+01 +1.96426E+01 +5.43706E+00 +4.67414E+00 +1.77248E+01
 -1.24004E+01 +1.10790E+01 -1.44876E+01 -5.92598E+00 -1.35210E+00 -1.48340E+01 +1.12449E+01 -7.52160E+00
 +9.71274E+00 +5.71253E+00 -2.36570E+00 +8.72563E+00 -9.02416E+00 -1.71044E+00 -8.31805E-01 -1.22036E+01
 +1.36133E+01 -8.31416E+00 +1.69060E+01 +8.16357E+00 +2.76578E+00 +1.99988E+01 -1.56958E+01 +1.31586E+01
 -1.92072E+01 -7.08757E+00 -3.10710E+00 -2.07033E+01 +1.70305E+01 -1.37230E+01 +2.13844E+01 +6.96765E+00
 +6.44199E+00 +2.09156E+01 -1.19205E+01 +1.55621E+01 -1.58336E+01 -1.27828E+00 -4.13621E+00 -1.10225E+01
 +7.78708E+00 -4.89710E+00 +6.13952E+00 +7.30348E+00 -5.81313E+00 +9.51598E+00 -1.21778E+01 -1.57160E+00
 -3.48006E+00 -1.24680E+01 +1.14896E+01 -8.50425E+00 +1.48510E+01 +8.48466E+00 -8.38722E-03 +2.07233E+01
 -1.96889E+01 +1.34518E+01 -2.40485E+01 -8.30941E+00 -7.61411E+00 -2.39372E+01 +1.40913E+01 -1.84031E+01
 +2.04328E+01 +2.12928E+00 +6.83975E+00 +1.70263E+01 -1.13032E+01 +1.28319E+01 -1.57508E+01 -3.50657E+00
 -4.52010E+00 -1.36086E+01 +7.57189E+00 -8.23519E+00 +6.69560E+00 +3.42814E+00 -4.28155E+00 +5.57202E+00
 -9.76116E+00 -5.24691E+00 -2.67059E-01 -1.57059E+01 +1.54832E+01 -1.10776E+01 +1.94498E+01 +6.95543E+00
 +4.66250E+00 +2.05116E+01 -1.56439E+01 +1.43493E+01 -2.09760E+01 -7.02263E+00 -5.15477E+00 -2.30075E+01
 +1.67743E+01 -1.79733E+01 +2.39558E+01 +2.69862E+00 +1.10311E+01 +1.86630E+01 -7.31471E+00 +1.59914E+01
 -1.28632E+01 +8.07936E-01 -3.01644E+00 -8.97538E+00 +8.06579E+00 -3.89941E+00 +6.68804E+00 +7.42835E+00
 -4.65928E+00 +9.51507E+00 -1.07406E+01 -1.28776E+00 -1.98547E+00 -1.20387E+01 +1.33105E+01 -8.03039E+00
 +1.73028E+01 +9.49868E+00 +2.64952E+00 +2.30905E+01 -1.80472E+01 +1.73518E+01 -2.45057E+01 -3.91777E+00
