 Created: 16-Jan-2021
 $NMID
 ID='D:\BASISSIMULATI'
 FMTDAT='(8E13.5)'
 VOLUME=   1.00000E+00
 TRAMP=   1.00000E+00
 $END
 +1.08210E+02 +4.99591E-01 +9.75189E+01 +4.51463E+01 +6.87347E+01 +8.05638E+01 +2.78409E+01 +9.97919E+01
 -1.67356E+01 +9.92788E+01 -5.59124E+01 +7.96015E+01 -8.18669E+01 +4.53068E+01 -8.96713E+01 +3.91119E+00
 -7.82993E+01 -3.57223E+01 -5.07926E+01 -6.52791E+01 -1.35604E+01 -7.87538E+01 +2.50351E+01 -7.36985E+01
 +5.64948E+01 -5.16985E+01 +7.40102E+01 -1.79768E+01 +7.39080E+01 +1.97781E+01 +5.64040E+01 +5.31031E+01
 +2.55113E+01 +7.46017E+01 -1.18713E+01 +7.95354E+01 -4.74869E+01 +6.68248E+01 -7.35267E+01 +3.92495E+01
 -8.43240E+01 +2.80759E+00 -7.75668E+01 -3.46165E+01 -5.47723E+01 -6.49834E+01 -2.09235E+01 -8.18495E+01
 +1.66447E+01 -8.17558E+01 +4.98645E+01 -6.49562E+01 +7.17001E+01 -3.53294E+01 +7.76763E+01 +4.98833E-01
 +6.68349E+01 +3.46289E+01 +4.19166E+01 +5.96289E+01 +8.73006E+00 +7.01637E+01 -2.51476E+01 +6.41543E+01
 -5.20532E+01 +4.32176E+01 -6.59317E+01 +1.22903E+01 -6.36706E+01 -2.14751E+01 -4.57840E+01 -5.03007E+01
 -1.62962E+01 -6.75076E+01 +1.81472E+01 -6.89990E+01 +4.97460E+01 -5.41736E+01 +7.12682E+01 -2.60717E+01
 +7.76502E+01 +9.27937E+00 +6.71253E+01 +4.41777E+01 +4.16327E+01 +7.09296E+01 +6.41572E+00 +8.35372E+01
 -3.11029E+01 +7.90202E+01 -6.29259E+01 +5.80844E+01 -8.22162E+01 +2.49899E+01 -8.47858E+01 -1.33552E+01
 -7.00137E+01 -4.88772E+01 -4.09919E+01 -7.40764E+01 -3.86918E+00 -8.36464E+01 +3.34682E+01 -7.56209E+01
 +6.30927E+01 -5.18001E+01 +7.87415E+01 -1.73646E+01 +7.71637E+01 +2.02412E+01 +5.88164E+01 +5.29133E+01
 +2.77622E+01 +7.36340E+01 -9.21320E+00 +7.79811E+01 -4.40675E+01 +6.50758E+01 -6.92383E+01 +3.77643E+01
 -7.92723E+01 +1.99588E+00 -7.19965E+01 -3.44671E+01 -4.89784E+01 -6.37277E+01 -1.51790E+01 -7.94576E+01
 +2.21256E+01 -7.82577E+01 +5.49200E+01 -6.03823E+01 +7.61785E+01 -2.96737E+01 +8.13766E+01 +7.27765E+00
 +6.94564E+01 +4.25631E+01 +4.30414E+01 +6.86648E+01 +7.85538E+00 +8.00742E+01 -2.85259E+01 +7.44700E+01
 -5.83170E+01 +5.32029E+01 -7.52041E+01 +2.09847E+01 -7.57000E+01 -1.51476E+01 -5.98815E+01 -4.73656E+01
 -3.13522E+01 -6.87481E+01 +3.55812E+00 -7.47743E+01 +3.71820E+01 -6.42910E+01 +6.21856E+01 -3.97438E+01
 +7.31616E+01 -6.62733E+00 +6.77954E+01 +2.77252E+01 +4.73564E+01 +5.57468E+01 +1.64071E+01 +7.12869E+01
 -1.82030E+01 +7.09478E+01 -4.88374E+01 +5.48180E+01 -6.87413E+01 +2.64456E+01 -7.35129E+01 -7.94214E+00
 -6.20615E+01 -4.07998E+01 -3.68422E+01 -6.49101E+01 -3.32022E+00 -7.49556E+01 +3.12198E+01 -6.86767E+01
 +5.92572E+01 -4.73626E+01 +7.46695E+01 -1.55724E+01 +7.40609E+01 +1.98540E+01 +5.74990E+01 +5.12784E+01
 +2.84992E+01 +7.19179E+01 -6.73654E+00 +7.73120E+01 -4.06622E+01 +6.62846E+01 -6.60182E+01 +4.11941E+01
 -7.73972E+01 +7.41937E+00 -7.24067E+01 -2.78067E+01 -5.21768E+01 -5.69609E+01 -2.11065E+01 -7.38519E+01
 +1.40959E+01 -7.49501E+01 +4.58675E+01 -6.01384E+01 +6.74252E+01 -3.27231E+01 +7.42257E+01 +1.29462E+00
 +6.49354E+01 +3.45270E+01 +4.17025E+01 +5.98017E+01 +9.67587E+00 +7.17112E+01 -2.41240E+01 +6.77727E+01
 -5.23333E+01 +4.89511E+01 -6.88411E+01 +1.94324E+01 -7.01064E+01 -1.42990E+01 -5.59131E+01 -4.48763E+01
 -2.94006E+01 -6.56518E+01 +3.63342E+00 -7.21345E+01 +3.60025E+01 -6.29536E+01 +6.06976E+01 -4.01407E+01
 +7.24061E+01 -8.67209E+00 +6.86568E+01 +2.46258E+01 +5.03413E+01 +5.25679E+01 +2.15030E+01 +6.91731E+01
 -1.15589E+01 +7.09576E+01 -4.16715E+01 +5.76794E+01 -6.23551E+01 +3.23730E+01 -6.92317E+01 +6.71133E-01
 -6.09697E+01 -3.04384E+01 -3.95608E+01 -5.41463E+01 -9.86899E+00 -6.53112E+01 +2.14455E+01 -6.15800E+01
 +4.73935E+01 -4.38958E+01 +6.21924E+01 -1.62834E+01 +6.25355E+01 +1.50397E+01 +4.83183E+01 +4.30313E+01
 +2.26631E+01 +6.13723E+01 -8.76242E+00 +6.58572E+01 -3.89845E+01 +5.53231E+01 -6.12490E+01 +3.19137E+01
 -7.05030E+01 +6.22631E-01 -6.45062E+01 -3.17876E+01 -4.43336E+01 -5.82537E+01 -1.41553E+01 -7.29498E+01
 +1.96555E+01 -7.25590E+01 +4.98969E+01 -5.70043E+01 +7.00945E+01 -2.94771E+01 +7.59037E+01 +4.24129E+00
 +6.60536E+01 +3.70212E+01 +4.26275E+01 +6.19184E+01 +1.06192E+01 +7.36707E+01 -2.31388E+01 +6.98316E+01
 -5.14451E+01 +5.12983E+01 -6.82780E+01 +2.21179E+01 -7.00900E+01 -1.13843E+01 -5.65684E+01 -4.19669E+01
 -3.06991E+01 -6.30308E+01 +1.87955E+00 -7.00370E+01 +3.40933E+01 -6.14795E+01 +5.89545E+01 -3.92040E+01
 +7.10627E+01 -8.00528E+00 +6.77618E+01 +2.54081E+01 +4.97029E+01 +5.38575E+01 +2.06963E+01 +7.12348E+01
 -1.31147E+01 +7.38068E+01 -4.45774E+01 +6.10062E+01 -6.70637E+01 +3.55386E+01 -7.58848E+01 +2.78694E+00
 -6.92809E+01 -3.03545E+01 -4.87769E+01 -5.69641E+01 -1.88312E+01 -7.15730E+01 +1.41446E+01 -7.13218E+01
 +4.31768E+01 -5.65483E+01 +6.22320E+01 -3.06818E+01 +6.75025E+01 +5.27110E-01 +5.82024E+01 +3.02718E+01
 +3.67019E+01 +5.21709E+01 +7.97823E+00 +6.16454E+01 -2.14940E+01 +5.68922E+01 -4.51683E+01 +3.92470E+01
 -5.78555E+01 +1.28607E+01 -5.68462E+01 -1.62341E+01 -4.24842E+01 -4.14618E+01 -1.80679E+01 -5.71503E+01
 +1.08924E+01 -5.97729E+01 +3.78991E+01 -4.87123E+01 +5.69007E+01 -2.63844E+01 +6.36230E+01 +2.30427E+00
 +5.65042E+01 +3.10422E+01 +3.70338E+01 +5.35042E+01 +9.42019E+00 +6.47424E+01 -2.03366E+01 +6.22714E+01
 -4.57638E+01 +4.66128E+01 -6.13376E+01 +2.11792E+01 -6.36942E+01 -8.47535E+00 -5.23685E+01 -3.58742E+01
 -2.98964E+01 -5.50383E+01 -1.26041E+00 -6.17987E+01 +2.72016E+01 -5.47124E+01 +4.91852E+01 -3.53831E+01
 +5.98025E+01 -8.11479E+00 +5.66580E+01 +2.10256E+01 +4.03819E+01 +4.55332E+01 +1.45028E+01 +5.98892E+01
 -1.53120E+01 +6.07732E+01 -4.24854E+01 +4.78001E+01 -6.09614E+01 +2.36194E+01 -6.65278E+01 -6.64500E+00
 -5.77422E+01 -3.64948E+01 -3.62608E+01 -5.94594E+01 -6.49667E+00 -7.04958E+01 +2.53194E+01 -6.70850E+01
 +5.24728E+01 -4.97854E+01 +6.92062E+01 -2.21238E+01 +7.19578E+01 +1.01529E+01 +6.01273E+01 +4.03040E+01
 +3.62070E+01 +6.20366E+01 +5.24809E+00 +7.08495E+01 -2.62209E+01 +6.49924E+01 -5.15918E+01 +4.58333E+01
 -6.55879E+01 +1.75565E+01 -6.53858E+01 -1.37423E+01 -5.12082E+01 -4.13682E+01 -2.62596E+01 -5.94620E+01
 +3.97592E+00 -6.42508E+01 +3.29243E+01 -5.48443E+01 +5.43387E+01 -3.34077E+01 +6.36391E+01 -4.67796E+00
 +5.88860E+01 +2.50714E+01 +4.11809E+01 +4.93894E+01 +1.44093E+01 +6.30372E+01 -1.56143E+01 +6.31086E+01
 -4.24119E+01 +4.96406E+01 -6.02427E+01 +2.55853E+01 -6.53355E+01 -3.84663E+00 -5.66883E+01 -3.23261E+01
 -3.62640E+01 -5.37798E+01 -8.54394E+00 -6.36995E+01 +2.04606E+01 -6.01044E+01 +4.45210E+01 -4.39492E+01
 +5.85423E+01 -1.88931E+01 +5.96592E+01 +9.51601E+00 +4.78397E+01 +3.50622E+01 +2.58699E+01 +5.22198E+01
 -1.27556E+00 +5.73517E+01 -2.75351E+01 +4.94905E+01 -4.70933E+01 +3.05316E+01 -5.56529E+01 +4.80110E+00
 -5.13694E+01 -2.19057E+01 -3.52451E+01 -4.36029E+01 -1.08986E+01 -5.54294E+01 +1.62366E+01 -5.47146E+01
 +4.01100E+01 -4.15611E+01 +5.53838E+01 -1.88201E+01 +5.86053E+01 +8.53608E+00 +4.89647E+01 +3.45038E+01
 +2.84759E+01 +5.33635E+01 +1.53783E+00 +6.09326E+01 -2.60231E+01 +5.54826E+01 -4.82241E+01 +3.81204E+01
 -6.02310E+01 +1.25520E+01 -5.94133E+01 -1.57216E+01 -4.59206E+01 -4.05991E+01 -2.26536E+01 -5.67049E+01
 +5.36333E+00 -6.05588E+01 +3.20711E+01 -5.13332E+01 +5.16902E+01 -3.10348E+01 +5.99748E+01 -4.07139E+00
 +5.51342E+01 +2.37032E+01 +3.82219E+01 +4.62575E+01 +1.29078E+01 +5.86891E+01 -1.53163E+01 +5.82869E+01
 -4.03253E+01 +4.51180E+01 -5.66869E+01 +2.20133E+01 -6.08362E+01 -6.04571E+00 -5.18459E+01 -3.30041E+01
 -3.16254E+01 -5.30425E+01 -4.50637E+00 -6.18337E+01 +2.36943E+01 -5.74751E+01 +4.69310E+01 -4.08957E+01
 +6.02338E+01 -1.56519E+01 +6.07767E+01 +1.28448E+01 +4.84822E+01 +3.84977E+01 +2.60297E+01 +5.58405E+01
 -1.72965E+00 +6.12128E+01 -2.88267E+01 +5.35422E+01 -4.94644E+01 +3.45656E+01 -5.92674E+01 +8.44262E+00
 -5.62190E+01 -1.91526E+01 -4.10858E+01 -4.22629E+01 -1.72382E+01 -5.59366E+01 +1.00907E+01 -5.72927E+01
 +3.49464E+01 -4.61339E+01 +5.19461E+01 -2.49760E+01 +5.74416E+01 +1.51014E+00 +5.03028E+01 +2.75212E+01
 +3.21512E+01 +4.73860E+01 +6.99647E+00 +5.67958E+01 -1.96443E+01 +5.37346E+01 -4.19506E+01 +3.89089E+01
 -5.50652E+01 +1.55842E+01 -5.61463E+01 -1.11328E+01 -4.49796E+01 -3.54106E+01 -2.40175E+01 -5.19620E+01
 +2.16101E+00 -5.71929E+01 +2.78510E+01 -4.99790E+01 +4.74640E+01 -3.19048E+01 +5.67426E+01 -6.91326E+00
 +5.36822E+01 +1.95556E+01 +3.89623E+01 +4.17493E+01 +1.57936E+01 +5.48532E+01 -1.07835E+01 +5.60333E+01
 -3.49971E+01 +4.50484E+01 -5.15968E+01 +2.42971E+01 -5.69925E+01 -1.70717E+00 -5.00299E+01 -2.73194E+01
 -3.22355E+01 -4.69892E+01 -7.48135E+00 -5.64637E+01 +1.88598E+01 -5.37075E+01 +4.10816E+01 -3.93384E+01
 +5.43812E+01 -1.64882E+01 +5.58979E+01 +9.88114E+00 +4.53281E+01 +3.40567E+01 +2.49851E+01 +5.08135E+01
 -7.08155E-01 +5.65446E+01 -2.61823E+01 +5.00380E+01 -4.59303E+01 +3.27324E+01 -5.56990E+01 +8.39842E+00
 -5.34064E+01 -1.76844E+01 -3.95853E+01 -3.98749E+01 -1.72597E+01 -5.33923E+01 +8.71814E+00 -5.53480E+01
 +3.27241E+01 -4.53644E+01 +4.95830E+01 -2.56473E+01 +5.56866E+01 -4.98433E-01 +4.97698E+01 +2.46239E+01
 +3.31745E+01 +4.42924E+01 +9.54833E+00 +5.42865E+01 -1.59557E+01 +5.25020E+01 -3.78034E+01 +3.93992E+01
 -5.12821E+01 +1.78914E+01 -5.35202E+01 -7.29774E+00 -4.41035E+01 -3.06679E+01 -2.51554E+01 -4.71412E+01
 -8.65291E-01 -5.31649E+01 +2.34313E+01 -4.74792E+01 +4.24182E+01 -3.13837E+01 +5.19566E+01 -8.44608E+00
 +4.99844E+01 +1.62818E+01 +3.69601E+01 +3.73691E+01 +1.57576E+01 +5.01913E+01 -8.96507E+00 +5.19376E+01
 -3.17846E+01 +4.22207E+01 -4.76956E+01 +2.31588E+01 -5.32021E+01 -1.08845E+00 -4.70783E+01 -2.52280E+01
 -3.06348E+01 -4.39871E+01 -7.43290E+00 -5.32618E+01 +1.74911E+01 -5.10099E+01 +3.87213E+01 -3.76955E+01
 +5.16398E+01 -1.61886E+01 +5.34304E+01 +8.85863E+00 +4.36903E+01 +3.20217E+01 +2.45181E+01 +4.82814E+01
 +5.87155E-02 +5.41122E+01 -2.43957E+01 +4.82477E+01 -4.35523E+01 +3.19539E+01 -5.32646E+01 +8.75526E+00
 -5.14295E+01 -1.63291E+01 -3.84420E+01 -3.78723E+01 -1.71085E+01 -5.12136E+01 +7.96129E+00 -5.34658E+01
 +3.13521E+01 -4.41379E+01 +4.80134E+01 -2.52390E+01 +5.43497E+01 -8.41406E-01 +4.89940E+01 +2.38002E+01
