 Created: 16-Jan-2021
 $NMID
 ID='D:\BASISSIMULATI'
 FMTDAT='(8E13.5)'
 VOLUME=   1.00000E+00
 TRAMP=   1.00000E+00
 $END
 +1.87552E+01 +8.65374E-02 +1.81895E+01 +4.47463E+00 +1.66131E+01 +8.60270E+00 +1.41161E+01 +1.22417E+01
 +1.08398E+01 +1.51903E+01 +6.96852E+00 +1.72862E+01 +2.71917E+00 +1.84148E+01 -1.67083E+00 +1.85159E+01
 -5.95684E+00 +1.75863E+01 -9.90059E+00 +1.56804E+01 -1.32835E+01 +1.29067E+01 -1.59187E+01 +9.42169E+00
 -1.76614E+01 +5.42114E+00 -1.84169E+01 +1.12894E+00 -1.81456E+01 -3.21531E+00 -1.68653E+01 -7.36972E+00
 -1.46496E+01 -1.11036E+01 -1.16242E+01 -1.42102E+01 -7.95956E+00 -1.65182E+01 -3.86117E+00 -1.79012E+01
 +4.41795E-01 -1.82845E+01 +4.70938E+00 -1.76494E+01 +8.70418E+00 -1.60337E+01 +1.22046E+01 -1.35298E+01
 +1.50170E+01 -1.02793E+01 +1.69867E+01 -6.46484E+00 +1.80062E+01 -2.30024E+00 +1.80210E+01 +1.98191E+00
 +1.70330E+01 +6.14303E+00 +1.50996E+01 +9.95184E+00 +1.23308E+01 +1.31973E+01 +8.88273E+00 +1.57002E+01
 +4.94900E+00 +1.73231E+01 +7.49735E-01 +1.79779E+01 -3.48071E+00 +1.76306E+01 -7.50684E+00 +1.63031E+01
 -1.11051E+01 +1.40716E+01 -1.40764E+01 +1.10627E+01 -1.62568E+01 +7.44574E+00 -1.75271E+01 +3.42348E+00
 -1.78189E+01 -7.79201E-01 -1.71183E+01 -4.92797E+00 -1.54669E+01 -8.79208E+00 -1.29589E+01 -1.21572E+01
 -9.73603E+00 -1.48374E+01 -5.97946E+00 -1.66851E+01 -1.89957E+00 -1.75997E+01 +2.27579E+00 -1.75326E+01
 +6.31402E+00 -1.64900E+01 +9.99074E+00 -1.45324E+01 +1.31023E+01 -1.17710E+01 +1.54769E+01 -8.36141E+00
 +1.69842E+01 -4.49512E+00 +1.75426E+01 -3.88378E-01 +1.71234E+01 +3.72966E+00 +1.57524E+01 +7.62982E+00
 +1.35081E+01 +1.10956E+01 +1.05178E+01 +1.39352E+01 +6.94974E+00 +1.59922E+01 +3.00385E+00 +1.71541E+01
 -1.09930E+00 +1.73585E+01 -5.13097E+00 +1.65964E+01 -8.86699E+00 +1.49126E+01 -1.21002E+01 +1.24032E+01
 -1.46519E+01 +9.20981E+00 -1.63819E+01 +5.51197E+00 -1.71958E+01 +1.51667E+00 -1.70509E+01 -2.55300E+00
 -1.59574E+01 -6.47039E+00 -1.39786E+01 -1.00179E+01 -1.12269E+01 -1.29990E+01 -7.85738E+00 -1.52492E+01
 -4.05904E+00 -1.66452E+01 -4.43521E-02 -1.71114E+01 +3.96273E+00 -1.66242E+01 +7.73922E+00 -1.52131E+01
 +1.10756E+01 -1.29589E+01 +1.37872E+01 -9.98927E+00 +1.57248E+01 -6.47119E+00 +1.67824E+01 -2.60183E+00
 +1.69035E+01 +1.40261E+00 +1.60836E+01 +5.31894E+00 +1.43707E+01 +8.92945E+00 +1.18624E+01 +1.20340E+01
 +8.70029E+00 +1.44610E+01 +5.06194E+00 +1.60773E+01 +1.15104E+00 +1.67948E+01 -2.81411E+00 +1.65758E+01
 -6.61269E+00 +1.54350E+01 -1.00338E+01 +1.34381E+01 -1.28879E+01 +1.06985E+01 -1.50176E+01 +7.37029E+00
 -1.63063E+01 +3.64033E+00 -1.66843E+01 -2.82852E-01 -1.61329E+01 -4.18045E+00 -1.46852E+01 -7.83562E+00
 -1.24238E+01 -1.10456E+01 -9.47673E+00 -1.36328E+01 -6.00970E+00 -1.54549E+01 -2.21694E+00 -1.64123E+01
 +1.68967E+00 -1.64541E+01 +5.49245E+00 -1.55800E+01 +8.98003E+00 -1.38412E+01 +1.19591E+01 -1.13364E+01
 +1.42652E+01 -8.20714E+00 +1.57717E+01 -4.62898E+00 +1.63967E+01 -8.02193E-01 +1.61077E+01 +3.05963E+00
 +1.49230E+01 +6.74149E+00 +1.29109E+01 +1.00389E+01 +1.01853E+01 +1.27695E+01 +6.89980E+00 +1.47825E+01
 +3.23855E+00 +1.59679E+01 -5.93737E-01 +1.62617E+01 -4.38336E+00 +1.56499E+01 -7.91954E+00 +1.41686E+01
 -1.10061E+01 +1.19026E+01 -1.34725E+01 +8.97995E+00 -1.51829E+01 +5.56490E+00 -1.60442E+01 +1.84873E+00
 -1.60104E+01 -1.96099E+00 -1.50858E+01 -5.65202E+00 -1.33239E+01 -9.01925E+00 -1.08251E+01 -1.18761E+01
 -7.73006E+00 -1.40649E+01 -4.21266E+00 -1.54655E+01 -4.69657E-01 -1.60020E+01 +3.29009E+00 -1.56466E+01
 +6.85730E+00 -1.44214E+01 +1.00340E+01 -1.23967E+01 +1.26443E+01 -9.68729E+00 +1.45444E+01 -6.44555E+00
 +1.56304E+01 -2.85326E+00 +1.58438E+01 +8.88793E-01 +1.51750E+01 +4.57199E+00 +1.36634E+01 +7.99152E+00
 +1.13952E+01 +1.09577E+01 +8.49865E+00 +1.33067E+01 +5.13640E+00 +1.49093E+01 +1.49674E+00 +1.56782E+01
 -2.21707E+00 +1.55727E+01 -5.79818E+00 +1.46008E+01 -9.04764E+00 +1.28189E+01 -1.17854E+01 +1.03280E+01
 -1.38605E+01 +7.26873E+00 -1.51591E+01 +3.81259E+00 -1.56108E+01 +1.52959E-01 -1.51927E+01 -3.50600E+00
 -1.39301E+01 -6.96066E+00 -1.18955E+01 -1.00193E+01 -9.20408E+00 -1.25127E+01 -6.00720E+00 -1.43035E+01
 -2.48404E+00 -1.52939E+01 +1.16851E+00 -1.54307E+01 +4.74686E+00 -1.47084E+01 +8.05207E+00 -1.31694E+01
 +1.09009E+01 -1.09015E+01 +1.31360E+01 -8.03255E+00 +1.46344E+01 -4.72383E+00 +1.53147E+01 -1.16053E+00
 +1.51410E+01 +2.45840E+00 +1.41252E+01 +5.93144E+00 +1.23259E+01 +9.06569E+00 +9.84519E+00 +1.16876E+01
 +6.82282E+00 +1.36525E+01 +3.42836E+00 +1.48527E+01 -1.48365E-01 +1.52234E+01 -3.70786E+00 +1.47459E+01
 -7.05207E+00 +1.34491E+01 -9.99546E+00 +1.14071E+01 -1.23752E+01 +8.73547E+00 -1.40603E+01 +5.58440E+00
 -1.49588E+01 +2.13047E+00 -1.50225E+01 -1.43335E+00 -1.42501E+01 -4.90846E+00 -1.26867E+01 -8.10170E+00
 -1.04211E+01 -1.08361E+01 -7.58135E+00 -1.29606E+01 -4.32681E+00 -1.43585E+01 -8.39656E-01 -1.49538E+01
 +2.68547E+00 -1.47156E+01 +6.05231E+00 -1.36590E+01 +9.07389E+00 -1.18449E+01 +1.15829E+01 -9.37627E+00
 +1.34411E+01 -6.39203E+00 +1.45466E+01 -3.05958E+00 +1.48399E+01 +4.34770E-01 +1.43065E+01 +3.89616E+00
 +1.29784E+01 +7.13204E+00 +1.09314E+01 +9.96290E+00 +8.28120E+00 +1.22322E+01 +5.17680E+00 +1.38152E+01
 +1.79212E+00 +1.46253E+01 -1.68380E+00 +1.46196E+01 -5.05729E+00 +1.38003E+01 -8.14088E+00 +1.22150E+01
 -1.07637E+01 +9.95404E+00 -1.27809E+01 +7.14478E+00 -1.40819E+01 +3.94498E+00 -1.45959E+01 +5.33681E-01
 -1.42964E+01 -2.89876E+00 -1.32021E+01 -6.16127E+00 -1.13758E+01 -9.07272E+00 -8.92107E+00 -1.14720E+01
 -5.97605E+00 -1.32268E+01 -2.70585E+00 -1.42412E+01 +7.06706E-01 -1.44605E+01 +4.07137E+00 -1.38746E+01
 +7.20103E+00 -1.25180E+01 +9.92209E+00 -1.04682E+01 +1.20842E+01 -7.84101E+00 +1.35684E+01 -4.78407E+00
 +1.42938E+01 -1.46859E+00 +1.42219E+01 +1.92030E+00 +1.33588E+01 +5.19382E+00 +1.17544E+01 +8.17010E+00
 +9.50000E+00 +1.06842E+01 +6.72255E+00 +1.25975E+01 +3.57797E+00 +1.38049E+01 +2.42178E-01 +1.42411E+01
 -3.09872E+00 +1.38837E+01 -6.25880E+00 +1.27545E+01 -9.06264E+00 +1.09184E+01 -1.13551E+01 +8.47937E+00
 -1.30100E+01 +5.57454E+00 -1.39366E+01 +2.36680E+00 -1.40854E+01 -9.64611E-01 -1.34500E+01 -4.23398E+00
 -1.20677E+01 -7.25952E+00 -1.00173E+01 -9.87348E+00 -7.41464E+00 -1.19314E+01 -4.40587E+00 -1.33202E+01
 -1.15946E+00 -1.39643E+01 +2.14331E+00 -1.38297E+01 +5.31853E+00 -1.29258E+01 +8.18981E+00 -1.13048E+01
 +1.05981E+01 -9.05883E+00 +1.24106E+01 -6.31438E+00 +1.35279E+01 -3.22542E+00 +1.38896E+01 +3.52740E-02
 +1.34774E+01 +3.28582E+00 +1.23163E+01 +6.34536E+00 +1.04727E+01 +9.04410E+00 +8.05094E+00 +1.12328E+01
 +5.18721E+00 +1.27909E+01 +2.04202E+00 +1.36332E+01 -1.20892E+00 +1.37148E+01 -4.38442E+00 +1.30330E+01
 -7.30796E+00 +1.16276E+01 -9.81749E+00 +9.57868E+00 -1.17744E+01 +7.00186E+00 -1.30711E+01 +4.04185E+00
 -1.36372E+01 +8.64349E-01 -1.34430E+01 -2.35328E+00 -1.25012E+01 -5.43187E+00 -1.08661E+01 -8.20045E+00
 -8.63034E+00 -1.05057E+01 -5.91997E+00 -1.22206E+01 -2.88696E+00 -1.32511E+01 +2.99090E-01 -1.35416E+01
 +3.46050E+00 -1.30778E+01 +6.42140E+00 -1.18874E+01 +9.01753E+00 -1.00385E+01 +1.11053E+01 -7.63555E+00
 +1.25699E+01 -4.81375E+00 +1.33312E+01 -1.73114E+00 +1.33488E+01 +1.44006E+00 +1.26235E+01 +4.52316E+00
 +1.11976E+01 +7.34681E+00 +9.15207E+00 +9.75454E+00 +6.60238E+00 +1.16134E+01 +3.69168E+00 +1.28213E+01
 +5.82848E-01 +1.33127E+01 -2.55062E+00 +1.30620E+01 -5.53428E+00 +1.20851E+01 -8.20247E+00 +1.04381E+01
 -1.04075E+01 +8.21432E+00 -1.20278E+01 +5.53904E+00 -1.29748E+01 +2.56224E+00 -1.31973E+01 -5.49677E-01
 -1.26848E+01 -3.62319E+00 -1.14678E+01 -6.48737E+00 -9.61561E+00 -8.98334E+00 -7.23298E+00 -1.09731E+01
 -4.45383E+00 -1.23473E+01 -1.43380E+00 -1.30309E+01 +1.65844E+00 -1.29876E+01 +4.65062E+00 -1.22217E+01
 +7.37650E+00 -1.07776E+01 +9.68503E+00 -8.73732E+00 +1.14488E+01 -6.21596E+00 +1.25710E+01 -3.35503E+00
 +1.29909E+01 -3.14570E-01 +1.26868E+01 +2.73576E+00 +1.16774E+01 +5.62620E+00 +1.00207E+01 +8.19628E+00
 +7.81058E+00 +1.03038E+01 +5.17132E+00 +1.18326E+01 +2.25091E+00 +1.26992E+01 -7.87436E-01 +1.28568E+01
 -3.77433E+00 +1.22986E+01 -6.54369E+00 +1.10574E+01 -8.94195E+00 +9.20396E+00 -1.08366E+01 +6.84300E+00
 -1.21234E+01 +4.10715E+00 -1.27324E+01 +1.14961E+00 -1.26312E+01 -1.86448E+00 -1.18274E+01 -4.76724E+00
 -1.03675E+01 -7.39743E+00 -8.33426E+00 -9.60936E+00 -5.84235E+00 -1.12810E+01 -3.03156E+00 -1.23206E+01
 -5.91332E-02 -1.26721E+01 +2.90913E+00 -1.23174E+01 +5.70805E+00 -1.12782E+01 +8.18229E+00 -9.61396E+00
 +1.01950E+01 -7.41891E+00 +1.16353E+01 -4.81651E+00 +1.24245E+01 -1.95261E+00 +1.25203E+01 +1.01276E+00
 +1.19191E+01 +3.91433E+00 +1.06562E+01 +6.59079E+00 +8.80340E+00 +8.89375E+00 +6.46537E+00 +1.06960E+01
 +3.77341E+00 +1.18985E+01 +8.78222E-01 +1.24359E+01 -2.05857E+00 +1.22798E+01 -4.87343E+00 +1.14408E+01
 -7.41003E+00 +9.96727E+00 -9.52790E+00 +7.94273E+00 -1.11102E+01 +5.48127E+00 -1.20703E+01 +2.72096E+00
 -1.23563E+01 -1.83840E-01 -1.19540E+01 -3.07112E+00 -1.08874E+01 -5.78024E+00 -9.21762E+00 -8.16091E+00
 -7.03910E+00 -1.00814E+01 -4.47433E+00 -1.14361E+01 -1.66701E+00 -1.21510E+01 +1.22604E+00 -1.21879E+01
 +4.04359E+00 -1.15465E+01 +6.62906E+00 -1.02641E+01 +8.83913E+00 -8.41378E+00 +1.05518E+01 -6.09986E+00
 +1.16729E+01 -3.45230E+00 +1.21417E+01 -6.19267E-01 +1.19335E+01 +2.24111E+00 +1.10619E+01 +4.96960E+00
 +9.57682E+00 +7.41468E+00 +7.56254E+00 +9.44101E+00 +5.13248E+00 +1.09369E+01 +2.42289E+00 +1.18204E+01
 -4.14720E-01 +1.20438E+01 -3.22213E+00 +1.15965E+01 -5.84319E+00 +1.05050E+01 -8.13250E+00 +8.83161E+00
 -9.96350E+00 +6.67096E+00 -1.12354E+01 +4.14451E+00 -1.18790E+01 +1.39376E+00 -1.18598E+01 -1.42765E+00
 -1.11807E+01 -4.16253E+00 -9.88113E+00 -6.65890E+00 -8.03493E+00 -8.77844E+00 -5.74624E+00 -1.04042E+01
 -3.14352E+00 -1.14468E+01 -3.72396E-01 -1.18498E+01 +2.41249E+00 -1.15924E+01 +5.05614E+00 -1.06906E+01
 +7.41178E+00 -9.19604E+00 +9.34905E+00 -7.19352E+00 +1.07612E+01 -4.79571E+00 +1.15709E+01 -2.13704E+00
 +1.17348E+01 +6.33872E-01 +1.12451E+01 +3.36256E+00 +1.01309E+01 +5.89727E+00 +8.45578E+00 +8.09745E+00
