 Created: 16-Jan-2021
 $NMID
 ID='D:\BASISSIMULATI'
 FMTDAT='(8E13.5)'
 VOLUME=   1.00000E+00
 TRAMP=   1.00000E+00
 $END
 +4.46595E+01 +4.61250E-01 +3.86242E+01 +2.02905E+01 +2.37792E+01 +3.35350E+01 +5.60382E+00 +3.68855E+01
 -9.90117E+00 +3.09657E+01 -1.86748E+01 +1.95747E+01 -1.98844E+01 +7.65240E+00 -1.56009E+01 -9.13706E-01
 -9.27132E+00 -4.58926E+00 -3.93578E+00 -4.15507E+00 -1.09990E+00 -1.63298E+00 -6.66070E-01 +1.04635E+00
 -1.68383E+00 +2.87795E+00 -3.28123E+00 +3.79861E+00 -5.17168E+00 +4.10422E+00 -7.51336E+00 +3.80762E+00
 -1.03543E+01 +2.41744E+00 -1.31428E+01 -7.30704E-01 -1.46953E+01 -5.85223E+00 -1.36841E+01 -1.22507E+01
 -9.35727E+00 -1.83531E+01 -2.05911E+00 -2.22651E+01 +6.76114E+00 -2.25543E+01 +1.50612E+01 -1.88459E+01
 +2.09633E+01 -1.19401E+01 +2.33761E+01 -3.43626E+00 +2.22142E+01 +4.89614E+00 +1.81942E+01 +1.16715E+01
 +1.24027E+01 +1.61381E+01 +5.90411E+00 +1.81076E+01 -4.38552E-01 +1.77227E+01 -5.93202E+00 +1.52712E+01
 -9.95262E+00 +1.11605E+01 -1.19402E+01 +6.01722E+00 -1.15521E+01 +7.64276E-01 -8.90376E+00 -3.46628E+00
 -4.72962E+00 -5.62434E+00 -3.16674E-01 -5.13710E+00 +2.83166E+00 -2.22190E+00 +3.49959E+00 +2.05749E+00
 +1.23398E+00 +6.06089E+00 -3.41218E+00 +8.09550E+00 -8.98510E+00 +7.00908E+00 -1.35675E+01 +2.63213E+00
 -1.54044E+01 -4.09980E+00 -1.35021E+01 -1.14001E+01 -7.98873E+00 -1.71845E+01 -1.06262E-01 -1.97398E+01
 +8.17392E+00 -1.82781E+01 +1.47818E+01 -1.31809E+01 +1.82042E+01 -5.84254E+00 +1.79270E+01 +1.82631E+00
 +1.45057E+01 +8.04380E+00 +9.25595E+00 +1.16999E+01 +3.70895E+00 +1.25929E+01 -9.22654E-01 +1.12949E+01
 -4.04864E+00 +8.75135E+00 -5.67737E+00 +5.83523E+00 -6.13966E+00 +3.07406E+00 -5.75867E+00 +6.54868E-01
 -4.67240E+00 -1.35869E+00 -2.90179E+00 -2.78573E+00 -5.89990E-01 -3.25856E+00 +1.78327E+00 -2.40039E+00
 +3.40619E+00 -1.53434E-01 +3.42189E+00 +2.96068E+00 +1.37711E+00 +5.85638E+00 -2.41506E+00 +7.23923E+00
 -6.83277E+00 +6.16434E+00 -1.03017E+01 +2.52400E+00 -1.14138E+01 -2.79945E+00 -9.52106E+00 -8.21962E+00
 -5.01737E+00 -1.20515E+01 +8.24122E-01 -1.31539E+01 +6.36609E+00 -1.13153E+01 +1.02175E+01 -7.23141E+00
 +1.16595E+01 -2.13424E+00 +1.07331E+01 +2.70604E+00 +8.02536E+00 +6.36217E+00 +4.33584E+00 +8.37853E+00
 +4.19358E-01 +8.67990E+00 -3.09791E+00 +7.40886E+00 -5.67802E+00 +4.84024E+00 -6.84063E+00 +1.41645E+00
 -6.24984E+00 -2.17953E+00 -3.90913E+00 -5.05411E+00 -3.35470E-01 -6.31966E+00 +3.45225E+00 -5.44518E+00
 +6.20965E+00 -2.56545E+00 +6.92986E+00 +1.44920E+00 +5.28103E+00 +5.25501E+00 +1.78736E+00 +7.54357E+00
 -2.36114E+00 +7.56578E+00 -5.79433E+00 +5.41637E+00 -7.51030E+00 +1.94197E+00 -7.22377E+00 -1.66930E+00
 -5.36374E+00 -4.39816E+00 -2.76020E+00 -5.74942E+00 -2.16708E-01 -5.80152E+00 +1.79690E+00 -4.97868E+00
 +3.19403E+00 -3.72085E+00 +4.09074E+00 -2.25960E+00 +4.55547E+00 -6.15531E-01 +4.47270E+00 +1.21986E+00
 +3.61254E+00 +3.07272E+00 +1.85391E+00 +4.51296E+00 -5.95885E-01 +4.99076E+00 -3.14507E+00 +4.11719E+00
 -4.98786E+00 +1.92685E+00 -5.42895E+00 -1.03754E+00 -4.19845E+00 -3.88131E+00 -1.59628E+00 -5.68768E+00
 +1.60402E+00 -5.86549E+00 +4.44066E+00 -4.35781E+00 +6.10240E+00 -1.63310E+00 +6.17734E+00 +1.51199E+00
 +4.73086E+00 +4.23248E+00 +2.21978E+00 +5.87980E+00 -6.87506E-01 +6.13845E+00 -3.30201E+00 +5.04606E+00
 -5.06341E+00 +2.93261E+00 -5.63460E+00 +3.21429E-01 -4.95034E+00 -2.18410E+00 -3.22499E+00 -4.02251E+00
 -9.10307E-01 -4.79820E+00 +1.40706E+00 -4.38281E+00 +3.15784E+00 -2.95521E+00 +3.94998E+00 -9.50342E-01
 +3.67563E+00 +1.07737E+00 +2.51903E+00 +2.62748E+00 +8.63063E-01 +3.39278E+00 -8.58294E-01 +3.30933E+00
 -2.29014E+00 +2.50980E+00 -3.21520E+00 +1.22364E+00 -3.53498E+00 -3.10457E-01 -3.21580E+00 -1.87461E+00
 -2.25803E+00 -3.24772E+00 -7.20896E-01 -4.17415E+00 +1.21484E+00 -4.37972E+00 +3.20302E+00 -3.65649E+00
 +4.76442E+00 -1.98436E+00 +5.41194E+00 +3.79567E-01 +4.82867E+00 +2.90930E+00 +3.01998E+00 +4.93695E+00
 +3.64418E-01 +5.85994E+00 -2.46909E+00 +5.34871E+00 -4.71234E+00 +3.47384E+00 -5.72962E+00 +7.05790E-01
 -5.21260E+00 -2.21013E+00 -3.28080E+00 -4.46147E+00 -4.62712E-01 -5.39890E+00 +2.43682E+00 -4.72947E+00
 +4.55436E+00 -2.62278E+00 +5.22228E+00 +3.06413E-01 +4.19311E+00 +3.15296E+00 +1.75697E+00 +4.99043E+00
 -1.30999E+00 +5.18378E+00 -3.97984E+00 +3.63705E+00 -5.32975E+00 +8.66506E-01 -4.89380E+00 -2.15769E+00
 -2.86072E+00 -4.36455E+00 -1.64847E-02 -4.99838E+00 +2.56306E+00 -3.92159E+00 +3.94812E+00 -1.66504E+00
 +3.73093E+00 +8.04260E-01 +2.17458E+00 +2.49819E+00 +7.11015E-02 +2.81981E+00 -1.62049E+00 +1.79109E+00
 -2.18736E+00 +4.80365E-03 -1.44510E+00 -1.66100E+00 +2.20258E-01 -2.42539E+00 +2.04452E+00 -1.91600E+00
 +3.20797E+00 -2.93446E-01 +3.14949E+00 +1.83359E+00 +1.76297E+00 +3.64244E+00 -5.68341E-01 +4.38311E+00
 -3.08664E+00 +3.63067E+00 -4.88229E+00 +1.44664E+00 -5.17658E+00 -1.58567E+00 -3.60826E+00 -4.47664E+00
 -4.45207E-01 -6.10491E+00 +3.37731E+00 -5.61195E+00 +6.47189E+00 -2.80350E+00 +7.46509E+00 +1.61588E+00
 +5.58192E+00 +6.14004E+00 +1.10511E+00 +8.94347E+00 -4.54707E+00 +8.61675E+00 -9.25069E+00 +4.85529E+00
 -1.10055E+01 -1.24454E+00 -8.82792E+00 -7.49276E+00 -3.28272E+00 -1.14534E+01 +3.64328E+00 -1.14856E+01
 +9.32590E+00 -7.49674E+00 +1.16145E+01 -1.02798E+00 +9.75646E+00 +5.39464E+00 +4.69450E+00 +9.35306E+00
 -1.39938E+00 +9.55788E+00 -6.11635E+00 +6.32179E+00 -7.84028E+00 +1.29193E+00 -6.33359E+00 -3.38012E+00
 -2.65145E+00 -5.99134E+00 +1.49259E+00 -5.90706E+00 +4.53218E+00 -3.61240E+00 +5.62072E+00 -2.77687E-01
 +4.75809E+00 +2.85145E+00 +2.53361E+00 +4.90650E+00 -2.64506E-01 +5.52826E+00 -2.92388E+00 +4.74629E+00
 -4.87752E+00 +2.80790E+00 -5.66704E+00 +1.20096E-01 -4.97296E+00 -2.69735E+00 -2.79354E+00 -4.80248E+00
 +3.31394E-01 -5.33134E+00 +3.28334E+00 -3.81824E+00 +4.69617E+00 -6.26590E-01 +3.61036E+00 +2.93488E+00
 +1.37202E-01 +5.03007E+00 -4.29706E+00 +4.16630E+00 -7.40622E+00 +1.10118E-01 -7.10287E+00 -5.69322E+00
 -2.67345E+00 -1.05532E+01 +4.58214E+00 -1.17366E+01 +1.16952E+01 -7.89212E+00 +1.53100E+01 +5.46430E-02
 +1.33242E+01 +9.08664E+00 +6.05264E+00 +1.53737E+01 -3.73756E+00 +1.60650E+01 -1.20094E+01 +1.07021E+01
 -1.53099E+01 +1.51459E+00 -1.23780E+01 -7.58190E+00 -4.70145E+00 -1.27948E+01 +4.24016E+00 -1.21677E+01
 +1.06347E+01 -6.36119E+00 +1.20457E+01 +1.83204E+00 +8.33889E+00 +8.90974E+00 +1.45501E+00 +1.22457E+01
 -5.72141E+00 +1.10555E+01 -1.07191E+01 +6.36896E+00 -1.23633E+01 +2.01220E-01 -1.08523E+01 -5.49787E+00
 -7.19419E+00 -9.52611E+00 -2.49830E+00 -1.14902E+01 +2.41160E+00 -1.14286E+01 +6.92104E+00 -9.43054E+00
 +1.03248E+01 -5.59777E+00 +1.17111E+01 -3.61988E-01 +1.02782E+01 +5.17527E+00 +5.95757E+00 +9.29977E+00
 -1.04023E-01 +1.03151E+01 -5.67162E+00 +7.49339E+00 -8.29605E+00 +1.77110E+00 -6.57488E+00 -4.35461E+00
 -1.09820E+00 -7.86111E+00 +5.55897E+00 -6.72778E+00 +9.95368E+00 -1.13816E+00 +9.51236E+00 +6.38236E+00
 +3.97453E+00 +1.20960E+01 -4.29534E+00 +1.29390E+01 -1.13919E+01 +8.17793E+00 -1.38440E+01 -9.06812E-02
 -1.04459E+01 -7.93296E+00 -2.94444E+00 -1.15824E+01 +4.82517E+00 -9.40244E+00 +8.91872E+00 -2.74999E+00
 +7.32713E+00 +4.73323E+00 +9.96219E-01 +9.02104E+00 -6.70660E+00 +7.77373E+00 -1.17616E+01 +1.48379E+00
 -1.15314E+01 -6.87143E+00 -5.98766E+00 -1.34165E+01 +2.45393E+00 -1.53025E+01 +1.02927E+01 -1.19504E+01
 +1.46780E+01 -5.04008E+00 +1.45807E+01 +2.59588E+00 +1.08755E+01 +8.44130E+00 +5.47970E+00 +1.12942E+01
 +2.00078E-01 +1.13484E+01 -3.99147E+00 +9.52248E+00 -6.92280E+00 +6.63405E+00 -8.64715E+00 +3.02015E+00
 -8.90268E+00 -1.19668E+00 -7.10437E+00 -5.51072E+00 -2.92857E+00 -8.69022E+00 +2.94458E+00 -9.11387E+00
 +8.56865E+00 -5.71623E+00 +1.13362E+01 +1.02604E+00 +9.27473E+00 +8.78781E+00 +2.33542E+00 +1.41598E+01
 -7.14836E+00 +1.42346E+01 -1.52606E+01 +8.20658E+00 -1.82804E+01 -1.94411E+00 -1.45497E+01 -1.21709E+01
 -5.41034E+00 -1.82120E+01 +5.35043E+00 -1.76411E+01 +1.33084E+01 -1.10340E+01 +1.55299E+01 -1.61924E+00
 +1.18995E+01 +6.39806E+00 +4.96974E+00 +9.93336E+00 -1.53620E+00 +8.42351E+00 -4.70853E+00 +3.82669E+00
 -3.83628E+00 -6.90946E-01 -4.92313E-01 -2.58115E+00 +2.62494E+00 -1.21771E+00 +3.34922E+00 +1.99540E+00
 +1.23460E+00 +4.66747E+00 -2.35515E+00 +4.92389E+00 -5.20875E+00 +2.46999E+00 -5.63370E+00 -1.35666E+00
 -3.40004E+00 -4.48403E+00 +2.46467E-01 -5.34448E+00 +3.41871E+00 -3.70093E+00 +4.69498E+00 -6.21422E-01
 +3.81786E+00 +2.28616E+00 +1.62172E+00 +3.83387E+00 -6.63311E-01 +3.80255E+00 -2.20934E+00 +2.79814E+00
 -2.95966E+00 +1.60950E+00 -3.37506E+00 +5.74937E-01 -3.80962E+00 -5.81169E-01 -4.02236E+00 -2.33909E+00
 -3.22771E+00 -4.72309E+00 -6.99621E-01 -6.91201E+00 +3.46816E+00 -7.48312E+00 +8.00157E+00 -5.22851E+00
 +1.08294E+01 -7.07741E-02 +1.00942E+01 +6.52387E+00 +5.25348E+00 +1.19847E+01 -2.38125E+00 +1.37841E+01
 -1.00427E+01 +1.07138E+01 -1.47008E+01 +3.59270E+00 -1.44576E+01 -5.00184E+00 -9.42312E+00 -1.18674E+01
 -1.62987E+00 -1.45974E+01 +5.94514E+00 -1.25760E+01 +1.07222E+01 -7.08259E+00 +1.15460E+01 -5.29426E-01
 +8.93992E+00 +4.70693E+00 +4.57212E+00 +7.24691E+00 +3.19425E-01 +7.03658E+00 -2.54204E+00 +5.00960E+00
 -3.65354E+00 +2.39882E+00 -3.36784E+00 +1.32843E-01 -2.28223E+00 -1.39347E+00 -8.55676E-01 -2.17067E+00
 +6.85375E-01 -2.27474E+00 +2.18997E+00 -1.68301E+00 +3.38390E+00 -3.29708E-01 +3.83706E+00 +1.68415E+00
 +3.15088E+00 +3.93312E+00 +1.23617E+00 +5.72732E+00 -1.52939E+00 +6.39051E+00 -4.39992E+00 +5.59114E+00
 -6.57830E+00 +3.51334E+00 -7.56429E+00 +7.54465E-01 -7.32429E+00 -1.98583E+00 -6.19255E+00 -4.22726E+00
 -4.58974E+00 -5.84472E+00 -2.75998E+00 -6.95443E+00 -7.03017E-01 -7.65786E+00 +1.66573E+00 -7.84509E+00
 +4.25862E+00 -7.21209E+00 +6.66690E+00 -5.49190E+00 +8.25419E+00 -2.74243E+00 +8.46234E+00 +5.18647E-01
 +7.14870E+00 +3.45279E+00 +4.73810E+00 +5.26032E+00 +2.07711E+00 +5.56263E+00 +5.73479E-02 +4.58597E+00
 -7.86791E-01 +3.03997E+00 -4.87542E-01 +1.76296E+00 +4.38805E-01 +1.33588E+00 +1.29398E+00 +1.86969E+00
 +1.53082E+00 +3.05209E+00 +9.37011E-01 +4.38020E+00 -3.93405E-01 +5.41004E+00 -2.22220E+00 +5.87657E+00
