 Created: 16-Jan-2021
 $NMID
 ID='D:\BASISSIMULATI'
 FMTDAT='(8E13.5)'
 VOLUME=   1.00000E+00
 TRAMP=   1.00000E+00
 $END
 +2.61325E+01 +1.20645E-01 +2.40061E+01 +9.57168E+00 +1.84177E+01 +1.73025E+01 +1.04431E+01 +2.20779E+01
 +1.56201E+00 +2.32646E+01 -6.65454E+00 +2.09366E+01 -1.28662E+01 +1.58284E+01 -1.62246E+01 +9.14959E+00
 -1.65184E+01 +2.30574E+00 -1.41748E+01 -3.41028E+00 -1.01207E+01 -7.08701E+00 -5.54190E+00 -8.36533E+00
 -1.59587E+00 -7.47672E+00 +8.54376E-01 -5.14528E+00 +1.42538E+00 -2.38065E+00 +2.77885E-01 -2.13101E-01
 -1.95014E+00 +5.66126E-01 -4.32302E+00 -4.00990E-01 -5.85452E+00 -2.95439E+00 -5.76352E+00 -6.45805E+00
 -3.67790E+00 -9.95717E+00 +2.60312E-01 -1.24122E+01 +5.41238E+00 -1.29543E+01 +1.07780E+01 -1.11029E+01
 +1.52166E+01 -6.89512E+00 +1.77037E+01 -8.97726E-01 +1.75638E+01 +5.90095E+00 +1.46283E+01 +1.22941E+01
 +9.28214E+00 +1.71088E+01 +2.39104E+00 +1.94519E+01 -4.87470E+00 +1.88950E+01 -1.12792E+01 +1.55587E+01
 -1.57705E+01 +1.00802E+01 -1.76861E+01 +3.47367E+00 -1.68716E+01 -3.08505E+00 -1.36891E+01 -8.49974E+00
 -8.91781E+00 -1.19690E+01 -3.57077E+00 -1.31298E+01 +1.32766E+00 -1.21014E+01 +4.95517E+00 -9.42357E+00
 +6.84867E+00 -5.90889E+00 +6.97378E+00 -2.44343E+00 +5.69510E+00 +2.15923E-01 +3.65887E+00 +1.60289E+00
 +1.61828E+00 +1.62746E+00 +2.43769E-01 +5.69645E-01 -3.76417E-02 -1.01320E+00 +8.61751E-01 -2.44078E+00
 +2.67915E+00 -3.08813E+00 +4.87464E+00 -2.54536E+00 +6.76969E+00 -7.22541E-01 +7.71714E+00 +2.12354E+00
 +7.26246E+00 +5.44526E+00 +5.25951E+00 +8.52840E+00 +1.91469E+00 +1.06553E+01 -2.24935E+00 +1.12691E+01
 -6.50137E+00 +1.01025E+01 -1.00555E+01 +7.24219E+00 -1.22371E+01 +3.11632E+00 -1.26231E+01 -1.59186E+00
 -1.11284E+01 -6.08310E+00 -8.01926E+00 -9.60354E+00 -3.85379E+00 -1.15931E+01 +6.35841E-01 -1.17895E+01
 +4.69302E+00 -1.02682E+01 +7.68493E+00 -7.41140E+00 +9.21847E+00 -3.81580E+00 +9.20115E+00 -1.62172E-01
 +7.83667E+00 +2.92490E+00 +5.55988E+00 +4.99650E+00 +2.92836E+00 +5.85397E+00 +4.96212E-01 +5.56566E+00
 -1.30166E+00 +4.42570E+00 -2.23058E+00 +2.86748E+00 -2.28705E+00 +1.35364E+00 -1.67606E+00 +2.68141E-01
 -7.43261E-01 -1.65835E-01 +1.20154E-01 +7.45485E-02 +5.76817E-01 +8.21050E-01 +4.24250E-01 +1.76764E+00
 -3.59829E-01 +2.55344E+00 -1.61647E+00 +2.85504E+00 -3.04701E+00 +2.46694E+00 -4.28604E+00 +1.35232E+00
 -4.98829E+00 -3.46120E-01 -4.90960E+00 -2.33631E+00 -3.96413E+00 -4.24005E+00 -2.24626E+00 -5.67440E+00
 -1.32338E-02 -6.33328E+00 +2.36632E+00 -6.05158E+00 +4.48628E+00 -4.83913E+00 +5.98299E+00 -2.87822E+00
 +6.60492E+00 -4.86709E-01 +6.25805E+00 +1.94460E+00 +5.01904E+00 +4.02652E+00 +3.11522E+00 +5.44277E+00
 +8.76748E-01 +6.00399E+00 -1.32788E+00 +5.67511E+00 -3.15978E+00 +4.57229E+00 -4.36767E+00 +2.93210E+00
 -4.82559E+00 +1.06052E+00 -4.54474E+00 -7.26781E-01 -3.65908E+00 -2.16116E+00 -2.38962E+00 -3.06418E+00
 -9.95956E-01 -3.37019E+00 +2.74877E-01 -3.12596E+00 +1.23217E+00 -2.46938E+00 +1.77042E+00 -1.59313E+00
 +1.87924E+00 -7.01669E-01 +1.63394E+00 +2.99075E-02 +1.17050E+00 +4.87215E-01 +6.50887E-01 +6.33143E-01
 +2.26154E-01 +5.07544E-01 +4.74341E-03 +2.11393E-01 +3.16523E-02 -1.20476E-01 +2.81944E-01 -3.52059E-01
 +6.69128E-01 -3.77676E-01 +1.06620E+00 -1.46149E-01 +1.33482E+00 +3.26840E-01 +1.35691E+00 +9.60406E-01
 +1.06231E+00 +1.62372E+00 +4.47299E-01 +2.16199E+00 -4.19863E-01 +2.42820E+00 -1.40768E+00 +2.31475E+00
 -2.34327E+00 +1.77878E+00 -3.04356E+00 +8.56181E-01 -3.35038E+00 -3.38980E-01 -3.16287E+00 -1.63007E+00
 -2.46097E+00 -2.80649E+00 -1.31495E+00 -3.66043E+00 +1.21346E-01 -4.02533E+00 +1.63348E+00 -3.80875E+00
 +2.98178E+00 -3.01319E+00 +3.94330E+00 -1.74031E+00 +4.35240E+00 -1.76824E-01 +4.13246E+00 +1.43591E+00
 +3.31206E+00 +2.84367E+00 +2.02187E+00 +3.82468E+00 +4.72461E-01 +4.23003E+00 -1.08357E+00 +4.01098E+00
 -2.39789E+00 +3.22758E+00 -3.27224E+00 +2.03645E+00 -3.59468E+00 +6.59661E-01 -3.35866E+00 -6.59062E-01
 -2.66093E+00 -1.70223E+00 -1.67860E+00 -2.32062E+00 -6.29789E-01 -2.46061E+00 +2.73616E-01 -2.17101E+00
 +8.71155E-01 -1.58782E+00 +1.08702E+00 -9.00083E-01 +9.43933E-01 -3.04421E-01 +5.54454E-01 +4.18398E-02
 +9.14626E-02 +5.82036E-02 -2.55689E-01 -2.39407E-01 -3.29484E-01 -7.41858E-01 -4.58795E-02 -1.27253E+00
 +5.80597E-01 -1.63014E+00 +1.43465E+00 -1.63914E+00 +2.32221E+00 -1.19623E+00 +3.01237E+00 -3.01896E-01
 +3.29032E+00 +9.30781E-01 +3.00960E+00 +2.29316E+00 +2.13154E+00 +3.52099E+00 +7.42580E-01 +4.34922E+00
 -9.55441E-01 +4.56991E+00 -2.68085E+00 +4.08042E+00 -4.12660E+00 +2.91100E+00 -5.02231E+00 +1.22485E+00
 -5.19056E+00 -7.09908E-01 -4.58512E+00 -2.57114E+00 -3.30248E+00 -4.04583E+00 -1.56393E+00 -4.89207E+00
 +3.28446E-01 -4.98671E+00 +2.05235E+00 -4.34826E+00 +3.32961E+00 -3.13017E+00 +3.98039E+00 -1.58611E+00
 +3.95562E+00 -1.49035E-02 +3.34097E+00 +1.30274E+00 +2.33180E+00 +2.16166E+00 +1.18527E+00 +2.47147E+00
 +1.60469E-01 +2.26914E+00 -5.39687E-01 +1.70272E+00 -8.11777E-01 +9.90381E-01 -6.70806E-01 +3.64708E-01
 -2.40848E-01 +1.51517E-02 +2.80009E-01 +4.21307E-02 +6.71923E-01 +4.33279E-01 +7.50369E-01 +1.06725E+00
 +4.14554E-01 +1.74403E+00 -3.24228E-01 +2.23469E+00 -1.34104E+00 +2.33875E+00 -2.42309E+00 +1.93595E+00
 -3.31712E+00 +1.02007E+00 -3.78757E+00 -2.93169E-01 -3.67225E+00 -1.78620E+00 -2.92275E+00 -3.18361E+00
 -1.62033E+00 -4.21022E+00 +3.67418E-02 -4.65030E+00 +1.77147E+00 -4.39482E+00 +3.28399E+00 -3.46624E+00
 +4.31251E+00 -2.01524E+00 +4.68620E+00 -2.90434E-01 +4.35848E+00 +1.41235E+00 +3.41384E+00 +2.80991E+00
 +2.04716E+00 +3.68751E+00 +5.20591E-01 +3.93894E+00 -8.92138E-01 +3.58239E+00 -1.96152E+00 +2.74958E+00
 -2.54610E+00 +1.65142E+00 -2.61531E+00 +5.28559E-01 -2.24701E+00 -4.01761E-01 -1.60159E+00 -9.90506E-01
 -8.79361E-01 -1.18387E+00 -2.71543E-01 -1.02720E+00 +8.36440E-02 -6.46038E-01 +1.30086E-01 -2.09631E-01
 -9.80236E-02 +1.13832E-01 -4.89890E-01 +1.99618E-01 -8.89675E-01 -3.39438E-03 -1.13788E+00 -4.61393E-01
 -1.11249E+00 -1.06522E+00 -7.60255E-01 -1.65800E+00 -1.10945E-01 -2.07383E+00 +7.28247E-01 -2.17832E+00
 +1.59653E+00 -1.90139E+00 +2.31562E+00 -1.25506E+00 +2.72967E+00 -3.32291E-01 +2.73981E+00 +7.12216E-01
 +2.32575E+00 +1.69476E+00 +1.54993E+00 +2.44112E+00 +5.43834E-01 +2.82218E+00 -5.19954E-01 +2.77902E+00
 -1.46324E+00 +2.33241E+00 -2.13736E+00 +1.57539E+00 -2.45051E+00 +6.51433E-01 -2.38172E+00 -2.76443E-01
 -1.97956E+00 -1.05834E+00 -1.34684E+00 -1.58496E+00 -6.15707E-01 -1.80453E+00 +8.08822E-02 -1.72632E+00
 +6.34731E-01 -1.41158E+00 +9.80026E-01 -9.54702E-01 +1.10003E+00 -4.60143E-01 +1.02271E+00 -2.02143E-02
 +8.07606E-01 +3.01279E-01 +5.28079E-01 +4.76855E-01 +2.53435E-01 +5.14043E-01 +3.50932E-02 +4.46620E-01
 -1.00705E-01 +3.21570E-01 -1.52997E-01 +1.85545E-01 -1.40223E-01 +7.41641E-02 -9.09118E-02 +6.26246E-03
 -3.39151E-02 -1.63733E-02 +9.16256E-03 -4.79953E-03 +2.77417E-02 +2.37192E-02 +2.19937E-02 +5.23920E-02
 -5.19829E-04 +6.96504E-02 -2.95459E-02 +7.09190E-02 -5.63001E-02 +5.75055E-02 -7.56975E-02 +3.36807E-02
 -8.61771E-02 +3.52834E-03 -8.76504E-02 -3.09474E-02 -7.88573E-02 -6.96099E-02 -5.56632E-02 -1.11979E-01
 -1.14807E-02 -1.54057E-01 +5.98412E-02 -1.85797E-01 +1.59374E-01 -1.90823E-01 +2.78342E-01 -1.49373E-01
 +3.95297E-01 -4.43455E-02 +4.77050E-01 +1.30909E-01 +4.84257E-01 +3.65366E-01 +3.81127E-01 +6.26360E-01
 +1.47279E-01 +8.61090E-01 -2.11397E-01 +1.00457E+00 -6.56301E-01 +9.93273E-01 -1.11698E+00 +7.81786E-01
 -1.50056E+00 +3.58660E-01 -1.70892E+00 -2.43073E-01 -1.66052E+00 -9.44334E-01 -1.31219E+00 -1.62932E+00
 -6.75313E-01 -2.16507E+00 +1.78182E-01 -2.42796E+00 +1.12297E+00 -2.33167E+00 +2.00037E+00 -1.85014E+00
 +2.64814E+00 -1.02968E+00 +2.93392E+00 +1.38763E-02 +2.78517E+00 +1.11349E+00 +2.20819E+00 +2.08188E+00
 +1.29130E+00 +2.74908E+00 +1.90192E-01 +2.99828E+00 -9.02185E-01 +2.79191E+00 -1.79521E+00 +2.18129E+00
 -2.34102E+00 +1.29691E+00 -2.46657E+00 +3.20728E-01 -2.18949E+00 -5.53876E-01 -1.61346E+00 -1.16556E+00
 -9.03540E-01 -1.42185E+00 -2.46484E-01 -1.32040E+00 +1.94957E-01 -9.49009E-01 +3.22906E-01 -4.63663E-01
 +1.30384E-01 -4.91187E-02 -2.94506E-01 +1.29081E-01 -7.88194E-01 -3.02305E-02 -1.15136E+00 -5.32751E-01
 -1.20000E+00 -1.28004E+00 -8.15921E-01 -2.08661E+00 +1.57878E-02 -2.72005E+00 +1.19208E+00 -2.95581E+00
 +2.50513E+00 -2.63423E+00 +3.68185E+00 -1.70628E+00 +4.44185E+00 -2.56505E-01 +4.56152E+00 +1.50366E+00
 +3.92933E+00 +3.27223E+00 +2.57939E+00 +4.71606E+00 +6.94158E-01 +5.54058E+00 -1.42542E+00 +5.55480E+00
 -3.41732E+00 +4.71642E+00 -4.93130E+00 +3.14641E+00 -5.70158E+00 +1.10855E+00 -5.60307E+00 -1.04239E+00
 -4.67814E+00 -2.93307E+00 -3.12755E+00 -4.24881E+00 -1.26673E+00 -4.79862E+00 +5.42896E-01 -4.55303E+00
 +1.97262E+00 -3.64619E+00 +2.79716E+00 -2.34137E+00 +2.94139E+00 -9.67507E-01 +2.49203E+00 +1.58562E-01
 +1.67156E+00 +8.06425E-01 +7.80213E-01 +8.85404E-01 +1.19385E-01 +4.64191E-01 -8.54047E-02 -2.48213E-01
 +2.56305E-01 -9.56240E-01 +1.07314E+00 -1.35387E+00 +2.14466E+00 -1.20527E+00 +3.15154E+00 -4.10698E-01
 +3.75226E+00 +9.58663E-01 +3.66866E+00 +2.66620E+00 +2.76041E+00 +4.35583E+00 +1.07018E+00 +5.62891E+00
 -1.17198E+00 +6.13529E+00 -3.58773E+00 +5.65761E+00 -5.72537E+00 +4.16927E+00 -7.15471E+00 +1.85187E+00
 -7.56097E+00 -9.33148E-01 -6.81642E+00 -3.71350E+00 -5.01315E+00 -6.00123E+00 -2.44903E+00 -7.39340E+00
 +4.31051E-01 -7.65599E+00 +3.12599E+00 -6.77231E+00 +5.18165E+00 -4.94483E+00 +6.28352E+00 -2.54984E+00
 +6.31847E+00 -5.49975E-02 +5.39180E+00 +2.08181E+00 +3.79603E+00 +3.50970E+00 +1.93894E+00 +4.05612E+00
 +2.47367E-01 +3.75652E+00 -9.31061E-01 +2.83598E+00 -1.40554E+00 +1.64730E+00 -1.18134E+00 +5.80562E-01
 -4.51745E-01 -3.47964E-02 +4.55265E-01 -1.21536E-02 +1.16292E+00 +6.45236E-01 +1.34380E+00 +1.74362E+00
 +8.06959E-01 +2.94505E+00 -4.46914E-01 +3.85001E+00 -2.21594E+00 +4.09733E+00 -4.13610E+00 +3.45780E+00
 -5.76072E+00 +1.89940E+00 -6.66259E+00 -3.91994E-01 -6.53540E+00 -3.04210E+00 -5.27103E+00 -5.56236E+00
 -2.99448E+00 -7.45272E+00 -4.74444E-02 -8.31010E+00 +3.07640E+00 -7.91837E+00 +5.83097E+00 -6.29928E+00
