 Created: 16-Jan-2021
 $NMID
 ID='D:\BASISSIMULATI'
 FMTDAT='(8E13.5)'
 VOLUME=   1.00000E+00
 TRAMP=   1.00000E+00
 $END
 +2.90733E+01 +2.49281E+00 +2.02985E+01 +2.00449E+01 +2.68088E+00 +2.70849E+01 -1.41548E+01 +2.09759E+01
 -2.19383E+01 +6.44784E+00 -1.83801E+01 -7.86242E+00 -7.72198E+00 -1.49003E+01 +2.75829E+00 -1.30624E+01
 +7.62900E+00 -6.16633E+00 +6.27276E+00 -1.90831E-02 +2.26351E+00 +1.73150E+00 +6.33867E-02 -3.85367E-01
 +1.64671E+00 -2.84085E+00 +5.38438E+00 -2.23023E+00 +7.67212E+00 +2.09327E+00 +5.81797E+00 +7.66892E+00
 +8.32227E-03 +1.08405E+01 -6.91117E+00 +9.33136E+00 -1.14176E+01 +3.63262E+00 -1.14758E+01 -3.56143E+00
 -7.43085E+00 -9.17393E+00 -1.31070E+00 -1.13906E+01 +4.61806E+00 -1.01192E+01 +8.87390E+00 -6.33159E+00
 +1.08274E+01 -1.16399E+00 +1.02029E+01 +4.41596E+00 +6.81768E+00 +9.31511E+00 +9.58467E-01 +1.20386E+01
 -6.00244E+00 +1.10864E+01 -1.15719E+01 +5.98833E+00 -1.31330E+01 -1.81665E+00 -9.52555E+00 -9.18024E+00
 -2.09355E+00 -1.27320E+01 +5.73458E+00 -1.08370E+01 +1.02852E+01 -4.68927E+00 +9.77829E+00 +2.32337E+00
 +5.32402E+00 +6.67001E+00 +6.39808E-02 +6.80021E+00 -2.96978E+00 +3.90284E+00 -2.79490E+00 +8.05056E-01
 -8.81897E-01 -1.69283E-01 +2.06388E-01 +1.16512E+00 -1.10119E+00 +2.88157E+00 -4.11895E+00 +2.56295E+00
 -6.37921E+00 -7.06645E-01 -5.48756E+00 -5.45929E+00 -9.97287E-01 -8.72761E+00 +5.06244E+00 -8.07061E+00
 +9.39362E+00 -3.30328E+00 +9.52899E+00 +3.27856E+00 +5.37815E+00 +8.31084E+00 -7.94746E-01 +9.41441E+00
 -5.86261E+00 +6.50715E+00 -7.71668E+00 +1.58268E+00 -6.28790E+00 -2.74541E+00 -3.16070E+00 -4.84063E+00
 -2.41775E-01 -4.72374E+00 +1.47146E+00 -3.54218E+00 +2.19766E+00 -2.41896E+00 +2.71152E+00 -1.62695E+00
 +3.39622E+00 -6.57649E-01 +3.82043E+00 +1.00711E+00 +3.15023E+00 +3.15088E+00 +1.00336E+00 +4.76168E+00
 -1.99683E+00 +4.72221E+00 -4.45658E+00 +2.70215E+00 -5.09190E+00 -4.63331E-01 -3.60063E+00 -3.22848E+00
 -8.75197E-01 -4.30876E+00 +1.59885E+00 -3.46779E+00 +2.71297E+00 -1.56652E+00 +2.37617E+00 +1.24611E-01
 +1.39830E+00 +8.18479E-01 +7.58820E-01 +6.58936E-01 +8.41382E-01 +4.37324E-01 +1.20251E+00 +8.45436E-01
 +1.01389E+00 +1.85972E+00 -1.91775E-01 +2.72304E+00 -2.05327E+00 +2.52385E+00 -3.54711E+00 +9.27262E-01
 -3.66619E+00 -1.48819E+00 -2.12018E+00 -3.53427E+00 +4.33990E-01 -4.14070E+00 +2.77722E+00 -3.00393E+00
 +3.84812E+00 -7.34634E-01 +3.31448E+00 +1.55367E+00 +1.65524E+00 +2.90187E+00 -2.31655E-01 +2.97316E+00
 -1.57912E+00 +2.07969E+00 -2.09402E+00 +8.40887E-01 -1.93348E+00 -2.30420E-01 -1.42997E+00 -9.35609E-01
 -8.23003E-01 -1.31990E+00 -1.84158E-01 -1.46812E+00 +4.72774E-01 -1.37439E+00 +1.05464E+00 -9.82653E-01
 +1.37641E+00 -3.23787E-01 +1.28865E+00 +4.08607E-01 +8.22424E-01 +9.37007E-01 +2.07397E-01 +1.07987E+00
 -2.72086E-01 +8.80628E-01 -4.74948E-01 +5.67786E-01 -4.92213E-01 +3.66967E-01 -5.45375E-01 +3.13320E-01
 -7.67790E-01 +2.23048E-01 -1.04608E+00 -1.38216E-01 -1.06429E+00 -8.12342E-01 -5.41937E-01 -1.52659E+00
 +4.99617E-01 -1.81259E+00 +1.64936E+00 -1.31205E+00 +2.29260E+00 -6.68485E-02 +1.97570E+00 +1.41876E+00
 +7.19043E-01 +2.41552E+00 -9.35524E-01 +2.37830E+00 -2.19381E+00 +1.27744E+00 -2.44443E+00 -3.58939E-01
 -1.60036E+00 -1.72695E+00 -1.41472E-01 -2.18932E+00 +1.16625E+00 -1.61670E+00 +1.70502E+00 -4.30241E-01
 +1.33576E+00 +6.71314E-01 +4.35174E-01 +1.12924E+00 -3.70927E-01 +8.35719E-01 -6.07633E-01 +1.56762E-01
 -2.37450E-01 -3.37269E-01 +3.40772E-01 -2.60302E-01 +5.77041E-01 +3.27178E-01 +1.59144E-01 +9.51026E-01
 -7.44274E-01 +1.03796E+00 -1.55217E+00 +3.18776E-01 -1.62581E+00 -9.38674E-01 -6.99725E-01 -2.03222E+00
 +8.84288E-01 -2.22622E+00 +2.30846E+00 -1.22037E+00 +2.72629E+00 +6.04791E-01 +1.77369E+00 +2.33953E+00
 -1.66993E-01 +3.03327E+00 -2.13068E+00 +2.24575E+00 -3.08938E+00 +3.30750E-01 -2.53430E+00 -1.73326E+00
 -7.73747E-01 -2.88260E+00 +1.23889E+00 -2.56667E+00 +2.45245E+00 -1.04939E+00 +2.31575E+00 +7.67203E-01
 +1.06823E+00 +1.88893E+00 -4.46627E-01 +1.81149E+00 -1.32206E+00 +7.85631E-01 -1.14420E+00 -3.88724E-01
 -2.19801E-01 -9.00737E-01 +6.59781E-01 -4.56031E-01 +7.62368E-01 +5.39714E-01 -8.15697E-02 +1.25606E+00
 -1.33856E+00 +9.98070E-01 -2.09065E+00 -3.02905E-01 -1.62157E+00 -1.98232E+00 +8.99361E-02 -2.99904E+00
 +2.27772E+00 -2.55133E+00 +3.76680E+00 -5.88972E-01 +3.61459E+00 +2.08281E+00 +1.65557E+00 +4.17697E+00
 -1.35341E+00 +4.57743E+00 -4.06796E+00 +2.92422E+00 -5.19828E+00 -1.71351E-01 -4.13539E+00 -3.38696E+00
 -1.25777E+00 -5.29381E+00 +2.22259E+00 -5.01630E+00 +4.80006E+00 -2.64213E+00 +5.35553E+00 +8.03107E-01
 +3.67155E+00 +3.80978E+00 +5.45145E-01 +5.07173E+00 -2.57068E+00 +4.10078E+00 -4.25523E+00 +1.47351E+00
 -3.82621E+00 -1.43878E+00 -1.70431E+00 -3.16599E+00 +7.93709E-01 -2.93272E+00 +2.18214E+00 -1.11686E+00
 +1.69233E+00 +9.35075E-01 -2.00106E-01 +1.70699E+00 -1.98808E+00 +5.08439E-01 -2.05640E+00 -1.94989E+00
 +1.85443E-01 -3.84726E+00 +3.68942E+00 -3.35691E+00 +6.17951E+00 +4.79714E-02 +5.48606E+00 +4.93997E+00
 +1.06024E+00 +8.49235E+00 -5.31977E+00 +8.07708E+00 -1.02543E+01 +3.01313E+00 -1.05936E+01 -4.66200E+00
 -5.42545E+00 -1.10381E+01 +3.08232E+00 -1.24605E+01 +1.06476E+01 -7.73432E+00 +1.32176E+01 +9.71362E-01
 +9.33984E+00 +9.18966E+00 +1.09276E+00 +1.26562E+01 -7.06651E+00 +9.76973E+00 -1.08950E+01 +2.49413E+00
 -8.82265E+00 -4.88188E+00 -2.75289E+00 -8.37014E+00 +3.28246E+00 -6.64710E+00 +5.73468E+00 -1.67504E+00
 +3.72813E+00 +2.77461E+00 -5.66795E-01 +3.69002E+00 -3.56780E+00 +7.79019E-01 -2.79245E+00 -3.44995E+00
 +1.43808E+00 -5.49139E+00 +6.21797E+00 -3.28878E+00 +8.01364E+00 +2.31639E+00 +5.02918E+00 +8.07047E+00
 -1.57783E+00 +1.03646E+01 -8.37811E+00 +7.48708E+00 -1.17352E+01 +6.35225E-01 -9.88729E+00 -6.86378E+00
 -3.78078E+00 -1.15006E+01 +3.69719E+00 -1.14126E+01 +9.40737E+00 -7.05099E+00 +1.14353E+01 -5.28790E-01
 +9.58750E+00 +5.66876E+00 +4.93976E+00 +9.70905E+00 -9.36616E-01 +1.07217E+01 -6.46523E+00 +8.60544E+00
 -1.01732E+01 +3.84886E+00 -1.07903E+01 -2.38097E+00 -7.69563E+00 -8.14882E+00 -1.57844E+00 -1.11605E+01
 +5.30908E+00 -9.82123E+00 +9.88695E+00 -4.40548E+00 +9.86767E+00 +2.60544E+00 +5.32063E+00 +7.61180E+00
 -1.02731E+00 +8.00846E+00 -5.28151E+00 +3.99309E+00 -4.91351E+00 -1.32544E+00 -6.48553E-01 -3.88727E+00
 +3.78789E+00 -1.57591E+00 +4.18232E+00 +3.97054E+00 -9.55935E-01 +8.13354E+00 -8.78697E+00 +6.45425E+00
 -1.35578E+01 -1.86961E+00 -1.04187E+01 -1.26675E+01 +8.22461E-01 -1.89233E+01 +1.47241E+01 -1.52685E+01
 +2.30491E+01 -1.94923E+00 +1.98709E+01 +1.45553E+01 +5.68004E+00 +2.50194E+01 -1.23588E+01 +2.30616E+01
 -2.44309E+01 +9.27507E+00 -2.39599E+01 -8.88142E+00 -1.16084E+01 -2.15056E+01 +5.21627E+00 -2.22161E+01
 +1.70384E+01 -1.18403E+01 +1.81233E+01 +2.49918E+00 +9.66588E+00 +1.21867E+01 -1.58689E+00 +1.25575E+01
 -8.15907E+00 +5.42325E+00 -6.75936E+00 -2.80620E+00 -2.83849E-02 -5.88633E+00 +5.84578E+00 -2.01334E+00
 +5.76568E+00 +5.25043E+00 -6.88416E-01 +9.82392E+00 -9.11931E+00 +7.55027E+00 -1.35167E+01 -9.06418E-01
 -1.04164E+01 -1.05989E+01 -1.13415E+00 -1.56862E+01 +9.28535E+00 -1.31920E+01 +1.54201E+01 -4.61138E+00
 +1.46847E+01 +5.45967E+00 +8.33731E+00 +1.23900E+01 -1.54725E-02 +1.40206E+01 -6.95584E+00 +1.10892E+01
 -1.09007E+01 +5.77831E+00 -1.19517E+01 -8.69139E-02 -1.06153E+01 -5.70288E+00 -6.88181E+00 -1.05742E+01
 -6.01543E-01 -1.34987E+01 +7.27426E+00 -1.25931E+01 +1.40028E+01 -6.69367E+00 +1.60175E+01 +2.95426E+00
 +1.12510E+01 +1.23766E+01 +1.14278E+00 +1.67144E+01 -9.46342E+00 +1.32951E+01 -1.49358E+01 +3.77375E+00
 -1.24496E+01 -6.45775E+00 -4.03858E+00 -1.15438E+01 +4.56767E+00 -9.03890E+00 +7.76663E+00 -1.63355E+00
 +4.00189E+00 +4.67358E+00 -3.05434E+00 +4.85902E+00 -7.07670E+00 -1.35674E+00 -3.75875E+00 -9.03817E+00
 +5.71058E+00 -1.14062E+01 +1.49834E+01 -4.83357E+00 +1.67109E+01 +8.05783E+00 +7.78679E+00 +1.95537E+01
 -7.97594E+00 +2.17107E+01 -2.17561E+01 +1.17469E+01 -2.51387E+01 -5.71648E+00 -1.55149E+01 -2.11925E+01
 +2.11632E+00 -2.60804E+01 +1.81510E+01 -1.79010E+01 +2.42181E+01 -1.64812E+00 +1.80577E+01 +1.35133E+01
 +4.39515E+00 +1.99159E+01 -8.50651E+00 +1.57182E+01 -1.41223E+01 +5.26874E+00 -1.12773E+01 -4.36748E+00
 -3.97549E+00 -8.11801E+00 +2.01077E+00 -5.68975E+00 +3.17823E+00 -8.62792E-01 +2.17773E-01 +1.79260E+00
 -3.18203E+00 +2.42337E-01 -3.43359E+00 -3.90404E+00 +3.18184E-01 -6.98126E+00 +5.79123E+00 -6.11867E+00
 +9.39323E+00 -1.22740E+00 +8.74197E+00 +5.13219E+00 +4.07082E+00 +9.62395E+00 -2.25304E+00 +1.02254E+01
 -7.43929E+00 +7.10804E+00 -9.82135E+00 +1.98830E+00 -9.25335E+00 -3.22263E+00 -6.44538E+00 -7.31819E+00
 -2.13401E+00 -9.73738E+00 +3.09360E+00 -9.99479E+00 +8.30813E+00 -7.47213E+00 +1.18298E+01 -1.99399E+00
 +1.16736E+01 +5.28339E+00 +6.84285E+00 +1.16576E+01 -1.44475E+00 +1.39467E+01 -9.74942E+00 +1.04052E+01
 -1.40156E+01 +2.19204E+00 -1.19616E+01 -6.83681E+00 -4.66281E+00 -1.21650E+01 +3.88832E+00 -1.12988E+01
 +9.13546E+00 -5.31749E+00 +8.74911E+00 +1.83219E+00 +3.98988E+00 +5.90404E+00 -1.30161E+00 +5.08424E+00
 -3.41209E+00 +1.03290E+00 -1.29909E+00 -2.46960E+00 +2.78608E+00 -2.31584E+00 +5.01519E+00 +1.65520E+00
 +2.82478E+00 +6.49770E+00 -3.11530E+00 +8.22564E+00 -9.19055E+00 +4.66863E+00 -1.12028E+01 -2.86221E+00
 -7.19685E+00 -1.02465E+01 +1.15130E+00 -1.31131E+01 +9.48825E+00 -9.57808E+00 +1.34111E+01 -1.38682E+00
 +1.10403E+01 +7.20300E+00 +3.94148E+00 +1.19766E+01 -4.04118E+00 +1.10842E+01 -9.13213E+00 +5.75541E+00
 -9.61283E+00 -8.23654E-01 -6.33120E+00 -5.54018E+00 -1.68638E+00 -6.94477E+00 +2.01391E+00 -5.55507E+00
 +3.71256E+00 -2.98292E+00 +3.70767E+00 -7.03947E-01 +2.93463E+00 +6.78657E-01 +2.13132E+00 +1.36404E+00
 +1.47575E+00 +1.79181E+00 +7.83428E-01 +2.15501E+00 -8.74172E-02 +2.32860E+00 -1.03163E+00 +2.12463E+00
 -1.81369E+00 +1.53348E+00 -2.29668E+00 +7.12064E-01 -2.50313E+00 -2.14596E-01 -2.44473E+00 -1.27029E+00
 -1.93543E+00 -2.48555E+00 -6.61074E-01 -3.61144E+00 +1.45538E+00 -4.01381E+00 +3.87937E+00 -2.97971E+00
 +5.48092E+00 -3.15274E-01 +5.09711E+00 +3.21031E+00 +2.35222E+00 +6.01645E+00 -1.84553E+00 +6.51605E+00
