 Created: 16-Jan-2021
 $NMID
 ID='D:\BASISSIMULATI'
 FMTDAT='(8E13.5)'
 VOLUME=   1.00000E+00
 TRAMP=   1.00000E+00
 $END
 +5.21195E+01 +7.95515E-01 +4.89990E+01 +1.51156E+01 +4.08433E+01 +2.73852E+01 +2.87668E+01 +3.60240E+01
 +1.43805E+01 +3.99855E+01 -4.50163E-01 +3.88940E+01 -1.38790E+01 +3.30778E+01 -2.43396E+01 +2.34955E+01
 -3.07527E+01 +1.15705E+01 -3.26520E+01 -1.03526E+00 -3.02109E+01 -1.26724E+01 -2.41729E+01 -2.19381E+01
 -1.57013E+01 -2.78594E+01 -6.17684E+00 -2.99988E+01 +3.02165E+00 -2.84725E+01 +1.07185E+01 -2.38836E+01
 +1.60939E+01 -1.71880E+01 +1.87683E+01 -9.51867E+00 +1.88106E+01 -1.99929E+00 +1.66766E+01 +4.42165E+00
 +1.30920E+01 +9.09298E+00 +8.90603E+00 +1.17233E+01 +4.93999E+00 +1.23801E+01 +1.85688E+00 +1.14314E+01
 +7.05080E-02 +9.44581E+00 -2.95100E-01 +7.07126E+00 +6.05701E-01 +4.91369E+00 +2.39641E+00 +3.43627E+00
 +4.56597E+00 +2.89292E+00 +6.57045E+00 +3.30369E+00 +7.93114E+00 +4.47183E+00 +8.31382E+00 +6.03598E+00
 +7.57820E+00 +7.54586E+00 +5.79261E+00 +8.54741E+00 +3.21453E+00 +8.66355E+00 +2.42661E-01 +7.65837E+00
 -2.65016E+00 +5.47656E+00 -4.99210E+00 +2.25378E+00 -6.38433E+00 -1.70139E+00 -6.56016E+00 -5.95003E+00
 -5.42402E+00 -9.98286E+00 -3.06623E+00 -1.32891E+01 +2.47505E-01 -1.54248E+01 +4.10952E+00 -1.60728E+01
 +8.02208E+00 -1.50862E+01 +1.14611E+01 -1.25112E+01 +1.39438E+01 -8.58602E+00 +1.50924E+01 -3.71596E+00
 +1.46861E+01 +1.57221E+00 +1.26941E+01 +6.69239E+00 +9.28600E+00 +1.10700E+01 +4.81683E+00 +1.42134E+01
 -2.12639E-01 +1.57768E+01 -5.21553E+00 +1.56062E+01 -9.59200E+00 +1.37616E+01 -1.28067E+01 +1.05123E+01
 -1.44599E+01 +6.30336E+00 -1.43429E+01 +1.69824E+00 -1.24683E+01 -2.69600E+00 -9.07153E+00 -6.31084E+00
 -4.58074E+00 -8.69407E+00 +4.40136E-01 -9.57191E+00 +5.36810E+00 -8.88603E+00 +9.60665E+00 -6.79943E+00
 +1.26674E+01 -3.67003E+00 +1.42360E+01 +4.47652E-03 +1.42112E+01 +3.66220E+00 +1.27130E+01 +6.76149E+00
 +1.00570E+01 +8.86117E+00 +6.69966E+00 +9.68403E+00 +3.16451E+00 +9.15378E+00 -4.03860E-02 +7.40001E+00
 -2.49936E+00 +4.73080E+00 -3.94863E+00 +1.57798E+00 -4.30915E+00 -1.57550E+00 -3.68819E+00 -4.27396E+00
 -2.35022E+00 -6.16009E+00 -6.63030E-01 -7.02740E+00 +9.71396E-01 -6.84586E+00 +2.18897E+00 -5.75731E+00
 +2.72640E+00 -4.04233E+00 +2.46441E+00 -2.06513E+00 +1.44458E+00 -2.06363E-01 -1.42418E-01 +1.20421E+00
 -1.99436E+00 +1.94396E+00 -3.75374E+00 +1.93312E+00 -5.07272E+00 +1.24452E+00 -5.67549E+00 +8.64390E-02
 -5.40754E+00 -1.23798E+00 -4.26371E+00 -2.38724E+00 -2.39072E+00 -3.04417E+00 -6.41328E-02 -2.97392E+00
 +2.35613E+00 -2.06787E+00 +4.48404E+00 -3.66262E-01 +5.96997E+00 +1.94402E+00 +6.55740E+00 +4.55569E+00
 +6.12480E+00 +7.08720E+00 +4.70635E+00 +9.14107E+00 +2.48859E+00 +1.03654E+01 -2.16346E-01 +1.05091E+01
 -3.01647E+00 +9.46211E+00 -5.49762E+00 +7.27553E+00 -7.28442E+00 +4.15765E+00 -8.09539E+00 +4.47704E-01
 -7.78444E+00 -3.42927E+00 -6.36264E+00 -7.01964E+00 -3.99762E+00 -9.90229E+00 -9.90719E-01 -1.17450E+01
 +2.26456E+00 -1.23480E+01 +5.33676E+00 -1.16697E+01 +7.81563E+00 -9.82946E+00 +9.36793E+00 -7.08961E+00
 +9.78213E+00 -3.81765E+00 +8.99585E+00 -4.34981E-01 +7.10254E+00 +2.64058E+00 +4.33658E+00 +5.05054E+00
 +1.03919E+00 +6.54194E+00 -2.38976E+00 +6.99756E+00 -5.54702E+00 +6.44635E+00 -8.08045E+00 +5.05278E+00
 -9.73484E+00 +3.08722E+00 -1.03827E+01 +8.81964E-01 -1.00357E+01 -1.22028E+00 -8.83585E+00 -2.91757E+00
 -7.02777E+00 -3.99200E+00 -4.91696E+00 -4.33851E+00 -2.82081E+00 -3.97537E+00 -1.01991E+00 -3.03493E+00
 +2.82631E-01 -1.73672E+00 +9.87814E-01 -3.47551E-01 +1.10932E+00 +8.64762E-01 +7.63333E-01 +1.67626E+00
 +1.41655E-01 +1.94320E+00 -5.26868E-01 +1.62393E+00 -1.01999E+00 +7.83194E-01 -1.16328E+00 -4.21719E-01
 -8.61969E-01 -1.77016E+00 -1.18305E-01 -3.01755E+00 +9.68464E-01 -3.93827E+00 +2.21908E+00 -4.36470E+00
 +3.40522E+00 -4.21607E+00 +4.28904E+00 -3.51226E+00 +4.66451E+00 -2.37064E+00 +4.39375E+00 -9.86685E-01
 +3.43226E+00 +3.98338E-01 +1.83914E+00 +1.53694E+00 -2.29280E-01 +2.21585E+00 -2.54121E+00 +2.29070E+00
 -4.82287E+00 +1.70957E+00 -6.79831E+00 +5.21880E-01 -8.22931E+00 -1.12853E+00 -8.94931E+00 -3.02475E+00
 -8.88634E+00 -4.90891E+00 -8.07191E+00 -6.52017E+00 -6.63487E+00 -7.63255E+00 -4.78153E+00 -8.08725E+00
 -2.76537E+00 -7.81489E+00 -8.50979E-01 -6.84464E+00 +7.22623E-01 -5.29937E+00 +1.77412E+00 -3.37795E+00
 +2.20310E+00 -1.32719E+00 +2.00155E+00 +5.92170E-01 +1.25219E+00 +2.14096E+00 +1.14367E-01 +3.13358E+00
 -1.20058E+00 +3.46242E+00 -2.46078E+00 +3.11132E+00 -3.44798E+00 +2.15653E+00 -3.98960E+00 +7.55037E-01
 -3.98447E+00 -8.78387E-01 -3.41834E+00 -2.50212E+00 -2.36719E+00 -3.88268E+00 -9.87273E-01 -4.82890E+00
 +5.06891E-01 -5.22038E+00 +1.87386E+00 -5.02611E+00 +2.88173E+00 -4.31005E+00 +3.34448E+00 -3.22247E+00
 +3.15272E+00 -1.97772E+00 +2.29392E+00 -8.21193E-01 +8.58358E-01 +9.69880E-03 -9.70741E-01 +3.24929E-01
 -2.94226E+00 +1.51373E-02 -4.77413E+00 -9.26787E-01 -6.19681E+00 -2.39998E+00 -6.99656E+00 -4.20748E+00
 -7.05136E+00 -6.08462E+00 -6.35311E+00 -7.74002E+00 -5.01192E+00 -8.90279E+00 -3.24076E+00 -9.36834E+00
 -1.32255E+00 -9.03479E+00 +4.35618E-01 -7.92340E+00 +1.75350E+00 -6.17880E+00 +2.42540E+00 -4.04829E+00
 +2.35611E+00 -1.84301E+00 +1.57833E+00 +1.12789E-01 +2.48139E-01 +1.53579E+00 -1.38139E+00 +2.23157E+00
 -3.00419E+00 +2.12779E+00 -4.31522E+00 +1.28646E+00 -5.06518E+00 -1.07455E-01 -5.10574E+00 -1.77918E+00
 -4.41724E+00 -3.41367E+00 -3.11319E+00 -4.71246E+00 -1.42072E+00 -5.44778E+00 +3.59925E-01 -5.50381E+00
 +1.90954E+00 -4.89748E+00 +2.94799E+00 -3.77487E+00 +3.28533E+00 -2.38362E+00 +2.85664E+00 -1.02651E+00
 +1.73406E+00 -4.69241E-03 +1.13665E-01 +4.38828E-01 -1.72022E+00 +1.64900E-01 -3.44670E+00 -8.35321E-01
 -4.76627E+00 -2.43809E+00 -5.45424E+00 -4.40923E+00 -5.39979E+00 -6.44641E+00 -4.62353E+00 -8.23341E+00
 -3.27068E+00 -9.49622E+00 -1.58163E+00 -1.00503E+01 +1.54233E-01 -9.83051E+00 +1.65208E+00 -8.89843E+00
 +2.68257E+00 -7.42643E+00 +3.11039E+00 -5.66200E+00 +2.91354E+00 -3.88003E+00 +2.18045E+00 -2.33235E+00
 +1.08630E+00 -1.20450E+00 -1.45997E-01 -5.87574E-01 -1.29171E+00 -4.70115E-01 -2.16790E+00 -7.50562E-01
 -2.66591E+00 -1.26678E+00 -2.76696E+00 -1.83586E+00 -2.53819E+00 -2.29555E+00 -2.11107E+00 -2.53866E+00
 -1.64738E+00 -2.53355E+00 -1.30039E+00 -2.32701E+00 -1.17967E+00 -2.02955E+00 -1.32692E+00 -1.78691E+00
 -1.70748E+00 -1.74432E+00 -2.21904E+00 -2.01144E+00 -2.71508E+00 -2.63544E+00 -3.03762E+00 -3.58787E+00
 -3.05222E+00 -4.76776E+00 -2.67749E+00 -6.02004E+00 -1.90336E+00 -7.16486E+00 -7.94184E-01 -8.03167E+00
 +5.23063E-01 -8.49059E+00 +1.88288E+00 -8.47492E+00 +3.11189E+00 -7.99046E+00 +4.05949E+00 -7.11038E+00
 +4.62212E+00 -5.95760E+00 +4.75651E+00 -4.67923E+00 +4.47989E+00 -3.41895E+00 +3.85824E+00 -2.29366E+00
 +2.98615E+00 -1.37900E+00 +1.96388E+00 -7.06397E-01 +8.77291E-01 -2.70999E-01 -2.14466E-01 -4.75531E-02
 -1.28088E+00 -9.10195E-03 -2.31179E+00 -1.42926E-01 -3.30162E+00 -4.58868E-01 -4.23139E+00 -9.87221E-01
 -5.05385E+00 -1.76617E+00 -5.68739E+00 -2.82162E+00 -6.02159E+00 -4.14471E+00 -5.93504E+00 -5.67319E+00
 -5.32243E+00 -7.28279E+00 -4.12552E+00 -8.79274E+00 -2.36077E+00 -9.98642E+00 -1.36448E-01 -1.06451E+01
 +2.34643E+00 -1.05888E+01 +4.81197E+00 -9.71688E+00 +6.94485E+00 -8.03903E+00 +8.43838E+00 -5.68992E+00
 +9.04702E+00 -2.92215E+00 +8.63353E+00 -7.69761E-02 +7.20137E+00 +2.46371E+00 +4.90507E+00 +4.33661E+00
 +2.03510E+00 +5.25726E+00 -1.02156E+00 +5.07046E+00 -3.83933E+00 +3.78105E+00 -6.02078E+00 +1.55881E+00
 -7.26077E+00 -1.28437E+00 -7.39657E+00 -4.34196E+00 -6.43471E+00 -7.17692E+00 -4.54965E+00 -9.39169E+00
 -2.05414E+00 -1.06916E+01 +6.53677E-01 -1.09311E+01 +3.15693E+00 -1.01336E+01 +5.08895E+00 -8.48360E+00
 +6.19211E+00 -6.29042E+00 +6.35654E+00 -3.93249E+00 +5.63228E+00 -1.79101E+00 +4.21335E+00 -1.85562E-01
 +2.39740E+00 +6.77065E-01 +5.28783E-01 +7.32288E-01 -1.06409E+00 +6.07387E-02 -2.12575E+00 -1.13462E+00
 -2.51499E+00 -2.57216E+00 -2.22354E+00 -3.94728E+00 -1.36989E+00 -4.98949E+00 -1.70129E-01 -5.51051E+00
 +1.10752E+00 -5.43480E+00 +2.19568E+00 -4.80790E+00 +2.87816E+00 -3.78195E+00 +3.02842E+00 -2.58205E+00
 +2.62982E+00 -1.46060E+00 +1.77464E+00 -6.48498E-01 +6.42986E-01 -3.12278E-01 -5.33539E-01 -5.24841E-01
 -1.51615E+00 -1.25439E+00 -2.10276E+00 -2.37276E+00 -2.16364E+00 -3.68073E+00 -1.66273E+00 -4.94495E+00
 -6.61818E-01 -5.93937E+00 +6.92470E-01 -6.48366E+00 +2.19542E+00 -6.47222E+00 +3.61951E+00 -5.88929E+00
 +4.75156E+00 -4.80852E+00 +5.42563E+00 -3.37823E+00 +5.54633E+00 -1.79558E+00 +5.09976E+00 -2.74977E-01
 +4.15127E+00 +9.84000E-01 +2.83154E+00 +1.82401E+00 +1.31440E+00 +2.14898E+00 -2.09510E-01 +1.93273E+00
 -1.55891E+00 +1.21720E+00 -2.58403E+00 +1.01766E-01 -3.18229E+00 -1.27375E+00 -3.30628E+00 -2.74909E+00
 -2.96408E+00 -4.16365E+00 -2.21323E+00 -5.37409E+00 -1.14992E+00 -6.26776E+00 +1.04428E-01 -6.77134E+00
 +1.41743E+00 -6.85442E+00 +2.65941E+00 -6.52876E+00 +3.71544E+00 -5.84387E+00 +4.49499E+00 -4.87972E+00
 +4.93895E+00 -3.73750E+00 +5.02355E+00 -2.52896E+00 +4.76124E+00 -1.36527E+00 +4.19805E+00 -3.45993E-01
 +3.40775E+00 +4.50788E-01 +2.48298E+00 +9.76088E-01 +1.52406E+00 +1.21444E+00 +6.26671E-01 +1.18420E+00
 -1.30015E-01 +9.33372E-01 -6.92989E-01 +5.31193E-01 -1.04124E+00 +5.64566E-02 -1.18653E+00 -4.15695E-01
 -1.16864E+00 -8.26358E-01 -1.04577E+00 -1.14253E+00 -8.81348E-01 -1.36190E+00 -7.29917E-01 -1.51156E+00
 -6.24496E-01 -1.64050E+00 -5.68284E-01 -1.80714E+00 -5.32583E-01 -2.06387E+00 -4.61850E-01 -2.44184E+00
 -2.85379E-01 -2.93903E+00 +6.62615E-02 -3.51444E+00 +6.43039E-01 -4.09006E+00 +1.45911E+00 -4.56115E+00
 +2.48182E+00 -4.81336E+00 +3.62880E+00 -4.74400E+00 +4.77448E+00 -4.28372E+00 +5.76573E+00 -3.41453E+00
 +6.44436E+00 -2.18021E+00 +6.67311E+00 -6.86958E-01 +6.36046E+00 +9.07014E-01 +5.47997E+00 +2.41148E+00
 +4.08030E+00 +3.63116E+00 +2.28371E+00 +4.39517E+00 +2.72754E-01 +4.58432E+00 -1.73311E+00 +4.15134E+00
 -3.50754E+00 +3.13066E+00 -4.84909E+00 +1.63580E+00 -5.60977E+00 -1.55473E-01 -5.71577E+00 -2.02583E+00
