 Created: 16-Jan-2021
 $NMID
 ID='D:\BASISSIMULATI'
 FMTDAT='(8E13.5)'
 VOLUME=   1.00000E+00
 TRAMP=   1.00000E+00
 $END
 +4.73016E+01 +8.13962E-01 +3.47377E+01 +4.04325E+00 +5.78043E+00 +7.15541E+00 -2.24030E+01 +9.56704E+00
 -3.40731E+01 +9.69588E+00 -2.45010E+01 +6.60262E+00 -2.03483E+00 +1.64932E+00 +1.82098E+01 -1.73435E+00
 +2.42970E+01 -5.17371E-01 +1.43033E+01 +5.05235E+00 -3.99594E+00 +1.07636E+01 -1.94191E+01 +1.10756E+01
 -2.46599E+01 +3.45568E+00 -1.96486E+01 -8.94038E+00 -9.56903E+00 -1.87283E+01 -7.96152E-02 -1.93133E+01
 +6.22902E+00 -9.93409E+00 +9.87625E+00 +3.20841E+00 +1.19986E+01 +1.09836E+01 +1.22297E+01 +7.86649E+00
 +9.06611E+00 -3.80211E+00 +2.22708E+00 -1.51741E+01 -5.52726E+00 -1.71347E+01 -9.31990E+00 -6.98015E+00
 -5.60126E+00 +9.39878E+00 +4.53665E+00 +2.15435E+01 +1.51189E+01 +2.18070E+01 +1.88346E+01 +1.07187E+01
 +1.20607E+01 -3.56555E+00 -2.32036E+00 -1.12572E+01 -1.65296E+01 -7.91169E+00 -2.29058E+01 +2.70840E+00
 -1.87775E+01 +1.18228E+01 -7.78541E+00 +1.22928E+01 +3.07198E+00 +3.70339E+00 +8.27765E+00 -7.79139E+00
 +6.94843E+00 -1.44475E+01 +2.30344E+00 -1.27251E+01 -1.59211E+00 -5.48840E+00 -2.89740E+00 +8.23036E-01
 -2.50329E+00 +1.54768E+00 -2.02099E+00 -2.65212E+00 -1.49162E+00 -6.75478E+00 +8.33783E-01 -5.86930E+00
 +6.32367E+00 +5.19928E-01 +1.34623E+01 +8.02552E+00 +1.76691E+01 +1.09458E+01 +1.42640E+01 +7.02016E+00
 +2.57650E+00 -5.43093E-01 -1.22262E+01 -5.47001E+00 -2.16409E+01 -3.39698E+00 -1.94219E+01 +4.52345E+00
 -6.34888E+00 +1.22864E+01 +9.56493E+00 +1.35248E+01 +1.80321E+01 +6.38047E+00 +1.33848E+01 -4.99211E+00
 -1.45251E+00 -1.34307E+01 -1.68324E+01 -1.39570E+01 -2.28639E+01 -7.21596E+00 -1.59552E+01 +1.33514E+00
 -8.64227E-01 +5.68230E+00 +1.29908E+01 +3.58529E+00 +1.80859E+01 -2.25267E+00 +1.34435E+01 -6.79776E+00
 +4.28811E+00 -6.75409E+00 -2.54266E+00 -2.80548E+00 -3.63857E+00 +1.55679E+00 -7.31342E-01 +3.34293E+00
 +1.80651E+00 +2.56507E+00 +1.19763E+00 +1.83204E+00 -1.43496E+00 +3.52475E+00 -2.51870E+00 +7.15826E+00
 +2.02530E-01 +9.39908E+00 +5.01009E+00 +6.91303E+00 +7.15915E+00 -3.13822E-01 +2.86614E+00 -8.14863E+00
 -6.91919E+00 -1.10304E+01 -1.62735E+01 -6.33243E+00 -1.82041E+01 +3.10079E+00 -9.94718E+00 +1.05118E+01
 +4.42094E+00 +1.00166E+01 +1.62892E+01 +1.11405E+00 +1.82917E+01 -1.05828E+01 +9.42935E+00 -1.71418E+01
 -4.20845E+00 -1.39443E+01 -1.36584E+01 -3.00047E+00 -1.31703E+01 +8.52007E+00 -3.81974E+00 +1.34383E+01
 +7.75876E+00 +9.55622E+00 +1.42942E+01 +8.37839E-01 +1.26970E+01 -5.92202E+00 +5.39985E+00 -6.24341E+00
 -2.29773E+00 -9.75296E-01 -6.40174E+00 +4.95344E+00 -6.59245E+00 +6.79323E+00 -5.27349E+00 +3.71552E+00
 -4.62016E+00 -9.05868E-01 -4.45833E+00 -2.71474E+00 -2.83365E+00 -2.85086E-01 +1.40025E+00 +3.59098E+00
 +6.53218E+00 +4.34153E+00 +8.64915E+00 -2.41542E-01 +4.79449E+00 -7.65609E+00 -3.92858E+00 -1.22540E+01
 -1.21539E+01 -9.65659E+00 -1.36359E+01 -5.49965E-01 -5.95034E+00 +9.28509E+00 +7.10188E+00 +1.29793E+01
 +1.75242E+01 +7.69299E+00 +1.84353E+01 -3.06542E+00 +8.91975E+00 -1.17885E+01 -5.15769E+00 -1.23225E+01
 -1.50694E+01 -4.26383E+00 -1.51052E+01 +6.84644E+00 -6.22388E+00 +1.36051E+01 +5.03103E+00 +1.19980E+01
 +1.13573E+01 +3.94052E+00 +9.61693E+00 -4.59898E+00 +2.36258E+00 -8.22002E+00 -4.79106E+00 -5.82907E+00
 -7.58384E+00 -7.76214E-01 -5.82878E+00 +2.38015E+00 -2.58655E+00 +1.64689E+00 -9.08073E-01 -1.15199E+00
 -1.12095E+00 -2.47292E+00 -9.54213E-01 -5.20899E-01 +1.77086E+00 +2.97375E+00 +6.42665E+00 +4.23864E+00
 +9.44667E+00 +9.62934E-01 +7.16579E+00 -5.20659E+00 -6.32215E-01 -9.46922E+00 -9.57690E+00 -7.56710E+00
 -1.33374E+01 +5.09300E-01 -8.31956E+00 +9.89581E+00 +3.14501E+00 +1.40798E+01 +1.38102E+01 +9.69333E+00
 +1.63232E+01 -7.68710E-01 +8.46238E+00 -1.04873E+01 -5.06244E+00 -1.30870E+01 -1.56850E+01 -7.13198E+00
 -1.67982E+01 +2.97300E+00 -8.15802E+00 +1.02851E+01 +4.22096E+00 +1.02956E+01 +1.24491E+01 +3.86595E+00
 +1.21288E+01 -3.90923E+00 +4.86913E+00 -7.79665E+00 -3.58231E+00 -6.19254E+00 -7.82969E+00 -1.73936E+00
 -6.41830E+00 +1.40372E+00 -2.01632E+00 +1.17902E+00 +1.48120E+00 -8.87748E-01 +2.25180E+00 -1.45945E+00
 +1.53473E+00 +1.23966E+00 +1.75237E+00 +5.45248E+00 +3.69079E+00 +7.13888E+00 +5.40722E+00 +3.52323E+00
 +3.94953E+00 -4.02757E+00 -1.57030E+00 -1.03849E+01 -8.34145E+00 -1.03170E+01 -1.13950E+01 -2.71459E+00
 -7.41440E+00 +7.99663E+00 +2.16021E+00 +1.46127E+01 +1.14317E+01 +1.22332E+01 +1.39154E+01 +1.93141E+00
 +7.28608E+00 -9.78637E+00 -4.58294E+00 -1.54302E+01 -1.40066E+01 -1.16699E+01 -1.47349E+01 -1.45582E+00
 -6.30060E+00 +8.31759E+00 +5.69203E+00 +1.17419E+01 +1.35267E+01 +7.74413E+00 +1.26703E+01 +1.84329E-01
 +4.59356E+00 -5.52454E+00 -4.75065E+00 -6.43652E+00 -9.41503E+00 -3.66158E+00 -7.46362E+00 -6.04671E-01
 -1.66155E+00 +3.38575E-01 +3.28844E+00 -2.78537E-01 +4.49410E+00 +5.33219E-02 +2.62674E+00 +2.90685E+00
 +5.56752E-01 +6.82940E+00 +3.65531E-01 +8.10201E+00 +1.45489E+00 +3.93214E+00 +1.37045E+00 -4.55128E+00
 -1.48894E+00 -1.22209E+01 -5.80294E+00 -1.32924E+01 -7.93512E+00 -5.77104E+00 -4.94345E+00 +6.44289E+00
 +2.46365E+00 +1.56807E+01 +9.68548E+00 +1.56106E+01 +1.12917E+01 +5.72837E+00 +5.24336E+00 -8.05783E+00
 -5.04635E+00 -1.72655E+01 -1.26803E+01 -1.64222E+01 -1.20883E+01 -6.49730E+00 -3.19276E+00 +6.09352E+00
 +8.25847E+00 +1.39784E+01 +1.46030E+01 +1.35000E+01 +1.16474E+01 +6.40578E+00 +1.59917E+00 -2.19652E+00
 -8.59403E+00 -7.65309E+00 -1.22428E+01 -8.40734E+00 -7.56016E+00 -5.86497E+00 +1.39729E+00 -2.25628E+00
 +8.01290E+00 +1.29002E+00 +8.00722E+00 +4.83016E+00 +2.27083E+00 +8.15649E+00 -4.31479E+00 +9.64796E+00
 -6.89937E+00 +6.98420E+00 -4.28682E+00 -5.46635E-01 +5.72156E-01 -1.01905E+01 +3.36151E+00 -1.64171E+01
 +2.03426E+00 -1.43355E+01 -1.65959E+00 -3.59894E+00 -3.88036E+00 +1.03174E+01 -2.10765E+00 +1.89737E+01
 +2.62296E+00 +1.64181E+01 +6.50853E+00 +3.51118E+00 +6.13450E+00 -1.21279E+01 +1.39275E+00 -2.08291E+01
 -4.25642E+00 -1.71562E+01 -6.44326E+00 -3.45390E+00 -3.36203E+00 +1.17985E+01 +2.72400E+00 +1.96353E+01
 +7.17004E+00 +1.62986E+01 +6.51512E+00 +5.13073E+00 +1.12438E+00 -6.34239E+00 -5.14688E+00 -1.17267E+01
 -7.95709E+00 -9.59182E+00 -5.75204E+00 -3.36654E+00 -7.54533E-01 +2.05882E+00 +3.01260E+00 +4.04691E+00
 +2.98492E+00 +3.40995E+00 -5.14797E-02 +2.57133E+00 -2.89139E+00 +2.69694E+00 -2.78135E+00 +2.48797E+00
 +2.23777E-01 -2.92928E-01 +3.39398E+00 -5.99714E+00 +3.80493E+00 -1.16649E+01 +1.02627E+00 -1.26254E+01
 -2.33388E+00 -6.18053E+00 -2.79858E+00 +5.52418E+00 +8.44944E-01 +1.60134E+01 +6.12715E+00 +1.84734E+01
 +8.57107E+00 +1.05574E+01 +5.30122E+00 -3.51932E+00 -2.29297E+00 -1.53289E+01 -9.15272E+00 -1.75872E+01
 -1.02066E+01 -8.88115E+00 -4.37924E+00 +5.46047E+00 +4.23145E+00 +1.68688E+01 +9.14337E+00 +1.89261E+01
 +6.31391E+00 +1.10253E+01 -2.63009E+00 -1.88788E+00 -1.13234E+01 -1.28637E+01 -1.32236E+01 -1.70874E+01
 -6.47556E+00 -1.39510E+01 +4.57886E+00 -6.26581E+00 +1.24526E+01 +2.10999E+00 +1.19238E+01 +8.24380E+00
 +3.81263E+00 +1.06547E+01 -5.67107E+00 +8.87172E+00 -9.50943E+00 +3.19474E+00 -4.98046E+00 -4.83458E+00
 +4.46585E+00 -1.19823E+01 +1.18618E+01 -1.41071E+01 +1.18454E+01 -8.47558E+00 +4.43895E+00 +3.72136E+00
 -5.20837E+00 +1.68147E+01 -1.07397E+01 +2.32554E+01 -9.13568E+00 +1.82515E+01 -2.55929E+00 +3.42470E+00
 +3.64734E+00 -1.33677E+01 +5.06446E+00 -2.24814E+01 +1.23716E+00 -1.85638E+01 -4.45943E+00 -4.18892E+00
 -7.71142E+00 +1.15937E+01 -6.48206E+00 +1.90060E+01 -2.12569E+00 +1.37772E+01 +2.16993E+00 -3.24025E-01
 +4.06532E+00 -1.42863E+01 +3.62840E+00 -1.99066E+01 +2.68235E+00 -1.48681E+01 +2.78736E+00 -3.50858E+00
 +3.76959E+00 +6.85243E+00 +4.07717E+00 +1.10564E+01 +2.53245E+00 +8.98879E+00 -2.25337E-01 +4.47865E+00
 -2.04358E+00 +1.58862E+00 -1.16433E+00 +1.47005E+00 +1.92128E+00 +2.16811E+00 +4.43639E+00 +1.16878E+00
 +3.39273E+00 -1.77218E+00 -1.78609E+00 -4.09437E+00 -8.30979E+00 -2.72376E+00 -1.17587E+01 +2.76591E+00
 -9.37350E+00 +8.94439E+00 -2.36899E+00 +1.05974E+01 +4.67025E+00 +4.72287E+00 +7.04665E+00 -6.62772E+00
 +3.46757E+00 -1.70665E+01 -2.89918E+00 -1.99292E+01 -6.74582E+00 -1.28837E+01 -4.63413E+00 +2.48865E-01
 +2.35492E+00 +1.18479E+01 +9.39528E+00 +1.54195E+01 +1.15595E+01 +9.68035E+00 +7.54546E+00 -9.37460E-01
 +6.07727E-01 -9.49586E+00 -4.03200E+00 -1.10581E+01 -3.27875E+00 -5.40470E+00 +1.44110E+00 +3.57890E+00
 +5.37458E+00 +1.09204E+01 +4.30500E+00 +1.35744E+01 -1.95399E+00 +1.14750E+01 -9.22069E+00 +6.46916E+00
 -1.21031E+01 +5.55745E-01 -8.23866E+00 -4.99918E+00 -2.99154E-01 -9.29370E+00 +5.87818E+00 -1.11260E+01
 +5.68618E+00 -9.22544E+00 -6.65428E-01 -3.52152E+00 -8.14812E+00 +3.73096E+00 -1.05739E+01 +8.43489E+00
 -5.20980E+00 +7.02942E+00 +5.09858E+00 -6.98432E-01 +1.38809E+01 -1.06258E+01 +1.56188E+01 -1.63573E+01
 +9.57472E+00 -1.33258E+01 +1.26282E-01 -2.15801E+00 -6.50474E+00 +1.12511E+01 -6.61693E+00 +1.93064E+01
 -1.31460E+00 +1.76204E+01 +4.75408E+00 +7.86782E+00 +6.99888E+00 -3.44138E+00 +4.02692E+00 -9.40990E+00
 -1.87670E+00 -7.27259E+00 -6.93446E+00 +1.50588E-01 -8.75071E+00 +6.91628E+00 -7.62159E+00 +8.34119E+00
 -5.53101E+00 +4.04419E+00 -4.02619E+00 -2.41915E+00 -2.94829E+00 -6.72525E+00 -1.05267E+00 -7.09159E+00
 +2.22013E+00 -5.16426E+00 +5.61400E+00 -4.01020E+00 +6.78527E+00 -5.09700E+00 +4.40507E+00 -6.88666E+00
 -2.03494E-01 -6.24471E+00 -3.52673E+00 -1.46402E+00 -2.37265E+00 +5.70767E+00 +3.41716E+00 +1.09017E+01
 +1.03045E+01 +1.03653E+01 +1.32413E+01 +4.10428E+00 +9.28193E+00 -3.65317E+00 -5.11184E-02 -7.25860E+00
 -9.53051E+00 -3.74673E+00 -1.37073E+01 +4.82914E+00 -1.06357E+01 +1.26579E+01 -3.12830E+00 +1.41853E+01
 +3.35746E+00 +7.97625E+00 +4.61058E+00 -2.36590E+00 +4.71227E-01 -1.08148E+01 -5.42155E+00 -1.30699E+01
 -8.56668E+00 -9.20729E+00 -6.87978E+00 -3.05705E+00 -1.86437E+00 +9.56339E-01 +3.00647E+00 +9.65607E-01
 +5.18642E+00 -1.51338E+00 +4.83186E+00 -3.42231E+00 +4.12800E+00 -2.91440E+00 +4.92788E+00 -7.04343E-01
 +6.85196E+00 +9.71261E-01 +7.54880E+00 +7.04192E-01 +4.92781E+00 -5.84181E-01 -5.76563E-01 -3.78223E-01
