 Created: 16-Jan-2021
 $NMID
 ID='D:\BASISSIMULATI'
 FMTDAT='(8E13.5)'
 VOLUME=   1.00000E+00
 TRAMP=   1.00000E+00
 $END
 +3.35288E+01 +1.11637E+00 +2.48735E+01 +2.12535E+01 +5.39934E+00 +3.00785E+01 -1.39549E+01 +2.35279E+01
 -2.27108E+01 +6.39224E+00 -1.69382E+01 -1.07006E+01 -1.34669E+00 -1.76766E+01 +1.37740E+01 -1.09098E+01
 +1.88122E+01 +4.86617E+00 +1.04846E+01 +1.96380E+01 -6.44228E+00 +2.41910E+01 -2.22229E+01 +1.54807E+01
 -2.79832E+01 -1.83104E+00 -2.07844E+01 -1.83963E+01 -4.98263E+00 -2.57484E+01 +1.06929E+01 -2.10243E+01
 +1.83679E+01 -8.15078E+00 +1.53623E+01 +4.93996E+00 +5.20016E+00 +1.11493E+01 -5.01584E+00 +8.13514E+00
 -9.02212E+00 -8.63178E-01 -4.88242E+00 -9.47829E+00 +4.37120E+00 -1.21974E+01 +1.30071E+01 -7.41489E+00
 +1.61346E+01 +2.09588E+00 +1.23292E+01 +1.12467E+01 +3.95879E+00 +1.57230E+01 -4.65218E+00 +1.41885E+01
 -9.84423E+00 +8.48465E+00 -1.04078E+01 +2.04348E+00 -7.66450E+00 -2.25788E+00 -4.13365E+00 -3.46217E+00
 -1.85904E+00 -2.49588E+00 -1.45395E+00 -1.08123E+00 -2.25143E+00 -5.13849E-01 -3.16057E+00 -1.09353E+00
 -3.46800E+00 -2.37539E+00 -3.05591E+00 -3.80323E+00 -2.07183E+00 -5.11867E+00 -5.16319E-01 -6.26211E+00
 +1.79562E+00 -6.98428E+00 +4.84415E+00 -6.65347E+00 +7.96969E+00 -4.56836E+00 +9.88898E+00 -6.20403E-01
 +9.33371E+00 +4.22638E+00 +5.96361E+00 +8.13733E+00 +8.92147E-01 +9.33449E+00 -3.67215E+00 +7.22948E+00
 -5.59627E+00 +2.99015E+00 -4.13613E+00 -9.49448E-01 -5.30182E-01 -2.25885E+00 +2.60525E+00 -1.65199E-01
 +2.80999E+00 +3.94304E+00 -6.57385E-01 +7.22446E+00 -6.21670E+00 +7.05627E+00 -1.07651E+01 +2.68339E+00
 -1.14604E+01 -4.18126E+00 -7.43818E+00 -1.02247E+01 -4.13758E-01 -1.23973E+01 +6.22785E+00 -9.67611E+00
 +9.33777E+00 -3.66823E+00 +7.78244E+00 +2.31490E+00 +3.04295E+00 +5.16889E+00 -1.71109E+00 +3.76033E+00
 -3.50902E+00 -4.91145E-01 -1.30213E+00 -4.53144E+00 +3.48248E+00 -5.51690E+00 +7.84761E+00 -2.48067E+00
 +9.01533E+00 +3.14508E+00 +6.02787E+00 +8.41238E+00 +2.41561E-01 +1.05768E+01 -5.51878E+00 +8.62397E+00
 -8.58998E+00 +3.73901E+00 -7.90901E+00 -1.48615E+00 -4.45556E+00 -4.57311E+00 -5.21604E-01 -4.49024E+00
 +1.68403E+00 -2.05989E+00 +1.24894E+00 +7.09282E-01 -1.08057E+00 +1.88676E+00 -3.50859E+00 +7.06750E-01
 -4.32406E+00 -2.11888E+00 -2.86196E+00 -4.95341E+00 +2.30674E-01 -6.24215E+00 +3.48854E+00 -5.35215E+00
 +5.50624E+00 -2.79664E+00 +5.65745E+00 +1.94327E-01 +4.28019E+00 +2.41904E+00 +2.31451E+00 +3.29941E+00
 +6.93170E-01 +3.02394E+00 -1.26118E-01 +2.24877E+00 -2.55397E-01 +1.62093E+00 -1.32456E-01 +1.43666E+00
 -1.66427E-01 +1.59823E+00 -5.14136E-01 +1.81163E+00 -1.08547E+00 +1.83127E+00 -1.69965E+00 +1.57787E+00
 -2.23038E+00 +1.09129E+00 -2.62869E+00 +4.15239E-01 -2.84052E+00 -4.54296E-01 -2.73220E+00 -1.50349E+00
 -2.12820E+00 -2.58518E+00 -9.61158E-01 -3.38181E+00 +5.78421E-01 -3.52511E+00 +2.03453E+00 -2.82514E+00
 +2.87539E+00 -1.45508E+00 +2.79097E+00 +6.11597E-02 +1.91019E+00 +1.09356E+00 +7.75585E-01 +1.25801E+00
 +5.75198E-02 +6.59133E-01 +1.61476E-01 -1.45019E-01 +9.67310E-01 -4.60487E-01 +1.87414E+00 +1.19365E-01
 +2.14350E+00 +1.44042E+00 +1.34683E+00 +2.84071E+00 -3.49937E-01 +3.51322E+00 -2.24239E+00 +2.97241E+00
 -3.46131E+00 +1.35031E+00 -3.45109E+00 -6.55248E-01 -2.27650E+00 -2.15388E+00 -5.81812E-01 -2.54321E+00
 +7.71003E-01 -1.82267E+00 +1.17476E+00 -5.66963E-01 +5.92637E-01 +4.16445E-01 -4.53598E-01 +5.44129E-01
 -1.20298E+00 -2.30286E-01 -1.09243E+00 -1.41326E+00 -6.60733E-02 -2.26555E+00 +1.40558E+00 -2.21828E+00
 +2.59176E+00 -1.18000E+00 +2.89539E+00 +4.23617E-01 +2.15984E+00 +1.88324E+00 +7.33804E-01 +2.57505E+00
 -7.24404E-01 +2.26765E+00 -1.58745E+00 +1.21476E+00 -1.56449E+00 +9.62168E-04 -8.21875E-01 -7.67573E-01
 +1.29215E-01 -7.65180E-01 +7.10031E-01 -9.39941E-02 +5.72695E-01 +7.88046E-01 -2.26862E-01 +1.31448E+00
 -1.26242E+00 +1.10685E+00 -1.95756E+00 +1.74085E-01 -1.88315E+00 -1.08319E+00 -9.85162E-01 -2.06753E+00
 +3.72768E-01 -2.28511E+00 +1.57911E+00 -1.60345E+00 +2.07835E+00 -3.33010E-01 +1.65829E+00 +9.17196E-01
 +5.70211E-01 +1.54590E+00 -5.90285E-01 +1.27494E+00 -1.19131E+00 +3.05824E-01 -9.06065E-01 -7.75703E-01
 +9.66504E-02 -1.30986E+00 +1.22677E+00 -9.29312E-01 +1.78669E+00 +2.18379E-01 +1.36317E+00 +1.52591E+00
 +8.11492E-02 +2.24501E+00 -1.43287E+00 +1.90450E+00 -2.37509E+00 +5.95922E-01 -2.20880E+00 -1.04413E+00
 -9.81986E-01 -2.16284E+00 +6.70471E-01 -2.16079E+00 +1.85876E+00 -1.04106E+00 +1.93120E+00 +5.68678E-01
 +8.53195E-01 +1.75000E+00 -7.51309E-01 +1.80847E+00 -1.93523E+00 +6.80667E-01 -1.96339E+00 -1.00606E+00
 -7.46251E-01 -2.27033E+00 +1.08260E+00 -2.33110E+00 +2.50383E+00 -1.06716E+00 +2.68454E+00 +8.87429E-01
 +1.46248E+00 +2.47951E+00 -5.39813E-01 +2.82414E+00 -2.24713E+00 +1.71169E+00 -2.72999E+00 -2.58830E-01
 -1.73147E+00 -2.00436E+00 +1.80243E-01 -2.56219E+00 +1.92538E+00 -1.63252E+00 +2.51747E+00 +2.50364E-01
 +1.61706E+00 +2.01700E+00 -2.79165E-01 +2.66204E+00 -2.11838E+00 +1.80441E+00 -2.87876E+00 -1.05605E-01
 -2.13129E+00 -2.04237E+00 -2.65225E-01 -2.97222E+00 +1.73751E+00 -2.41160E+00 +2.84112E+00 -6.71913E-01
 +2.50452E+00 +1.32864E+00 +9.46432E-01 +2.56568E+00 -9.97851E-01 +2.44134E+00 -2.32890E+00 +1.07006E+00
 -2.39313E+00 -8.11845E-01 -1.19024E+00 -2.24043E+00 +6.56867E-01 -2.50483E+00 +2.22786E+00 -1.47732E+00
 +2.75025E+00 +3.48288E-01 +1.95360E+00 +2.10400E+00 +1.84442E-01 +2.95161E+00 -1.75290E+00 +2.46276E+00
 -2.95355E+00 +8.18168E-01 -2.81940E+00 -1.25434E+00 -1.34988E+00 -2.78515E+00 +8.14738E-01 -2.99874E+00
 +2.64210E+00 -1.70208E+00 +3.17324E+00 +5.59575E-01 +2.01389E+00 +2.69106E+00 -3.91468E-01 +3.54306E+00
 -2.88403E+00 +2.51045E+00 -4.11702E+00 -7.05762E-02 -3.26386E+00 -2.98005E+00 -5.41715E-01 -4.67058E+00
 +2.77676E+00 -4.08627E+00 +4.94800E+00 -1.31411E+00 +4.68601E+00 +2.33303E+00 +1.94097E+00 +4.92661E+00
 -1.94532E+00 +4.95711E+00 -4.87192E+00 +2.23763E+00 -5.11490E+00 -1.86794E+00 -2.35217E+00 -5.09556E+00
 +2.03538E+00 -5.51249E+00 +5.62762E+00 -2.65879E+00 +6.28436E+00 +2.07809E+00 +3.39786E+00 +6.13365E+00
 -1.65847E+00 +7.16358E+00 -6.19870E+00 +4.39993E+00 -7.68759E+00 -8.25327E-01 -5.19138E+00 -5.73801E+00
 +2.41895E-02 -7.63675E+00 +5.13075E+00 -5.42770E+00 +7.28946E+00 -2.95906E-01 +5.25822E+00 +4.90122E+00
 +1.35050E-01 +7.20867E+00 -5.20880E+00 +5.24250E+00 -7.71192E+00 +4.36853E-03 -5.84226E+00 -5.63581E+00
 -4.82731E-01 -8.51630E+00 +5.52548E+00 -6.94304E+00 +8.93649E+00 -1.64643E+00 +7.88717E+00 +4.60312E+00
 +2.92395E+00 +8.50875E+00 -3.29853E+00 +8.04903E+00 -7.47447E+00 +3.57207E+00 -7.44951E+00 -2.41447E+00
 -3.37780E+00 -6.62943E+00 +2.39065E+00 -6.80912E+00 +6.61336E+00 -2.92264E+00 +6.92385E+00 +2.83877E+00
 +3.10148E+00 +7.27194E+00 -2.83238E+00 +7.89818E+00 -7.72103E+00 +4.28410E+00 -8.96634E+00 -1.75047E+00
 -5.89586E+00 -7.12472E+00 -8.56483E-02 -9.13619E+00 +5.50716E+00 -6.86643E+00 +8.11630E+00 -1.61852E+00
 +6.59969E+00 +3.81834E+00 +1.98721E+00 +6.66117E+00 -3.11912E+00 +5.58214E+00 -5.94820E+00 +1.35964E+00
 -5.01317E+00 -3.58528E+00 -8.58577E-01 -6.49498E+00 +4.26648E+00 -5.72328E+00 +7.61009E+00 -1.57243E+00
 +7.35017E+00 +3.89537E+00 +3.51491E+00 +7.94609E+00 -2.06516E+00 +8.57826E+00 -6.72007E+00 +5.51798E+00
 -8.30042E+00 +3.12054E-01 -6.23387E+00 -4.49804E+00 -1.75656E+00 -6.67414E+00 +2.76748E+00 -5.38379E+00
 +5.06628E+00 -1.56343E+00 +4.09296E+00 +2.61172E+00 +5.13415E-01 +4.85722E+00 -3.67039E+00 +3.93064E+00
 -6.14955E+00 +2.38379E-01 -5.46811E+00 -4.38364E+00 -1.74586E+00 -7.58837E+00 +3.37700E+00 -7.67624E+00
 +7.53490E+00 -4.43151E+00 +8.78187E+00 +7.62357E-01 +6.53576E+00 +5.58039E+00 +1.86810E+00 +7.87271E+00
 -3.00487E+00 +6.70647E+00 -5.79584E+00 +2.82841E+00 -5.27373E+00 -1.68948E+00 -1.89244E+00 -4.46973E+00
 +2.40804E+00 -4.03096E+00 +5.16148E+00 -5.75591E-01 +4.64357E+00 +4.05512E+00 +8.13094E-01 +7.27718E+00
 -4.57911E+00 +7.09256E+00 -8.81734E+00 +3.17992E+00 -9.60190E+00 -2.84106E+00 -6.28294E+00 -8.15915E+00
 -2.80630E-01 -1.01913E+01 +5.57659E+00 -7.94725E+00 +8.49297E+00 -2.60069E+00 +7.18211E+00 +3.07688E+00
 +2.57930E+00 +6.16083E+00 -2.62739E+00 +5.14183E+00 -5.43112E+00 +7.65086E-01 -4.14836E+00 -4.34224E+00
 +6.27448E-01 -7.08396E+00 +6.30266E+00 -5.59606E+00 +9.66445E+00 -3.05896E-01 +8.62698E+00 +6.24459E+00
 +3.38985E+00 +1.07329E+01 -3.63121E+00 +1.08295E+01 -9.07124E+00 +6.44671E+00 -1.03941E+01 -2.15729E-01
 -7.21853E+00 -5.84978E+00 -1.48014E+00 -7.79683E+00 +3.64238E+00 -5.43324E+00 +5.44344E+00 -4.47358E-01
 +3.12018E+00 +4.11952E+00 -1.83941E+00 +5.53220E+00 -6.49308E+00 +2.82536E+00 -8.03616E+00 -2.69663E+00
 -5.29506E+00 -8.16493E+00 +6.55827E-01 -1.06608E+01 +7.05495E+00 -8.73517E+00 +1.08774E+01 -3.14955E+00
 +1.03737E+01 +3.52651E+00 +5.93638E+00 +8.23261E+00 -1.33994E-01 +8.96406E+00 -4.82689E+00 +5.75997E+00
 -5.96485E+00 +6.39341E-01 -3.30504E+00 -3.47320E+00 +1.36003E+00 -4.28083E+00 +5.15582E+00 -1.32306E+00
 +5.65048E+00 +3.76545E+00 +2.16883E+00 +8.09335E+00 -3.79441E+00 +9.03258E+00 -9.30172E+00 +5.63873E+00
 -1.14893E+01 -7.82312E-01 -9.09145E+00 -7.29020E+00 -3.15682E+00 -1.08185E+01 +3.45633E+00 -9.79321E+00
 +7.57293E+00 -4.98737E+00 +7.39757E+00 +8.79385E-01 +3.48738E+00 +4.61297E+00 -1.55820E+00 +4.30226E+00
 -4.55043E+00 +3.87286E-01 -3.51692E+00 -4.57936E+00 +1.15480E+00 -7.37202E+00 +6.90042E+00 -5.93752E+00
 +1.04086E+01 -5.99318E-01 +9.49754E+00 +6.08023E+00 +4.36617E+00 +1.07171E+01 -2.50436E+00 +1.09979E+01
 -7.74644E+00 +6.96005E+00 -8.99169E+00 +9.24447E-01 -6.15508E+00 -3.86960E+00 -1.38408E+00 -5.11846E+00
 +2.27046E+00 -2.71364E+00 +2.65649E+00 +1.31073E+00 -2.69581E-01 +4.07215E+00 -4.51336E+00 +3.57597E+00
 -7.30300E+00 -1.41905E-01 -6.74901E+00 -5.11233E+00 -2.90872E+00 -8.65510E+00 +2.33914E+00 -8.94893E+00
 +6.46640E+00 -6.00667E+00 +7.75631E+00 -1.52229E+00 +6.17360E+00 +2.23594E+00 +3.18098E+00 +3.75490E+00
 +7.08295E-01 +3.02245E+00 -2.69124E-02 +1.30559E+00 +8.75269E-01 +1.99828E-01 +2.26498E+00 +6.09630E-01
 +2.81250E+00 +2.29127E+00 +1.86525E+00 +4.16797E+00 -2.42000E-01 +5.11597E+00 -2.54227E+00 +4.65731E+00
