 Created: 16-Jan-2021
 $NMID
 ID='D:\BASISSIMULATI'
 FMTDAT='(8E13.5)'
 VOLUME=   1.00000E+00
 TRAMP=   1.00000E+00
 $END
 +1.87557E+01 +8.65599E-02 +1.75422E+01 +6.57064E+00 +1.41617E+01 +1.22257E+01 +9.03795E+00 +1.63542E+01
 +2.80902E+00 +1.84493E+01 -3.75175E+00 +1.82570E+01 -9.83196E+00 +1.58067E+01 -1.46807E+01 +1.14074E+01
 -1.77012E+01 +5.60793E+00 -1.85246E+01 -8.70637E-01 -1.70543E+01 -7.22525E+00 -1.34781E+01 -1.26701E+01
 -8.24370E+00 -1.65341E+01 -2.00264E+00 -1.83430E+01 +4.47048E+00 -1.78784E+01 +1.03744E+01 -1.52034E+01
 +1.49801E+01 -1.06544E+01 +1.77212E+01 -4.79891E+00 +1.82634E+01 +1.63552E+00 +1.65450E+01 +7.85149E+00
 +1.27842E+01 +1.30806E+01 +7.45155E+00 +1.66786E+01 +1.21049E+00 +1.82043E+01 -5.16464E+00 +1.74744E+01
 -1.08849E+01 +1.45847E+01 -1.52443E+01 +9.89807E+00 -1.77071E+01 +3.99886E+00 -1.79733E+01 -2.38020E+00
 -1.60156E+01 -8.44882E+00 -1.20816E+01 -1.34571E+01 -6.66297E+00 -1.67881E+01 -4.33760E-01 -1.80341E+01
 +5.83347E+00 -1.70462E+01 +1.13634E+01 -1.39521E+01 +1.54737E+01 -9.13985E+00 +1.76597E+01 -3.20912E+00
 +1.76556E+01 +3.10370E+00 +1.54676E+01 +9.01673E+00 +1.13717E+01 +1.37996E+01 +5.87937E+00 +1.68634E+01
 -3.26423E-01 +1.78335E+01 -6.47626E+00 +1.65951E+01 -1.18095E+01 +1.33071E+01 -1.56686E+01 +8.38122E+00
 -1.75798E+01 +2.43094E+00 -1.73115E+01 -3.80512E+00 -1.49025E+01 -9.55482E+00 -1.06560E+01 -1.41082E+01
 -5.10213E+00 -1.69049E+01 +1.06898E+00 -1.76034E+01 +7.09237E+00 -1.61227E+01 +1.22233E+01 -1.26513E+01
 +1.58293E+01 -7.62363E+00 +1.74682E+01 -1.66554E+00 +1.69422E+01 +4.48362E+00 +1.43217E+01 +1.00627E+01
 +9.93618E+00 +1.43831E+01 +4.33258E+00 +1.69134E+01 -1.79291E+00 +1.73451E+01 -7.68123E+00 +1.56302E+01
 -1.26046E+01 +1.19861E+01 -1.59564E+01 +6.86851E+00 -1.73260E+01 +9.14104E-01 -1.65489E+01 -5.13843E+00
 -1.37267E+01 -1.05402E+01 -9.21355E+00 -1.46245E+01 -3.57201E+00 -1.68895E+01 +2.49723E+00 -1.70596E+01
 +8.24233E+00 -1.51190E+01 +1.29534E+01 -1.13131E+01 +1.60504E+01 -6.11723E+00 +1.71541E+01 -1.77735E-01
 +1.61331E+01 +5.76884E+00 +1.31189E+01 +1.09869E+01 +8.48957E+00 +1.48327E+01 +2.82166E+00 +1.68341E+01
 -3.18106E+00 +1.67481E+01 -8.77522E+00 +1.45906E+01 -1.32698E+01 +1.06336E+01 -1.61117E+01 +5.37114E+00
 -1.69534E+01 -5.42502E-01 -1.56958E+01 -6.37419E+00 -1.24999E+01 -1.14028E+01 -7.76566E+00 -1.50082E+01
 -2.08274E+00 -1.67480E+01 +3.84356E+00 -1.64118E+01 +9.27953E+00 -1.40462E+01 +1.35540E+01 -9.94908E+00
 +1.61411E+01 -4.63153E+00 +1.67250E+01 +1.24560E+00 +1.52386E+01 +6.95389E+00 +1.18709E+01 +1.17877E+01
 +7.04319E+00 +1.51512E+01 +1.35639E+00 +1.66320E+01 -4.48393E+00 +1.60518E+01 -9.75492E+00 +1.34873E+01
 -1.38060E+01 +9.26099E+00 -1.61391E+01 +3.89966E+00 -1.64699E+01 -1.93061E+00 -1.47626E+01 -7.50742E+00
 -1.12334E+01 -1.21416E+01 -6.32351E+00 -1.52622E+01 -6.43704E-01 -1.64870E+01 +5.10147E+00 -1.56693E+01
 +1.02012E+01 -1.29154E+01 +1.40262E+01 -8.57071E+00 +1.61065E+01 -3.17675E+00 +1.61893E+01 +2.59663E+00
 +1.42692E+01 +8.03431E+00 +1.05889E+01 +1.24645E+01 +5.60790E+00 +1.53417E+01 -5.42620E-02 +1.63139E+01
 -5.69550E+00 +1.52656E+01 -1.06180E+01 +1.23316E+01 -1.42148E+01 +7.87958E+00 -1.60441E+01 +2.46398E+00
 -1.58842E+01 -3.24282E+00 -1.37598E+01 -8.53415E+00 -9.93862E+00 -1.27565E+01 -4.89765E+00 -1.53903E+01
 +7.36515E-01 -1.61137E+01 +6.26543E+00 -1.48420E+01 +1.10054E+01 -1.17375E+01 +1.43722E+01 -7.18894E+00
 +1.59526E+01 -1.76247E+00 +1.55557E+01 +3.86840E+00 +1.32356E+01 +9.00661E+00 +9.28405E+00 +1.30178E+01
 +4.19398E+00 +1.54086E+01 -1.40211E+00 +1.58874E+01 -6.81071E+00 +1.43997E+01 -1.13632E+01 +1.11344E+01
 -1.44987E+01 +6.50009E+00 -1.58328E+01 +1.07330E+00 -1.52051E+01 -4.47264E+00 -1.26980E+01 -9.45138E+00
 -8.62647E+00 -1.32485E+01 -3.49808E+00 -1.53972E+01 +2.05015E+00 -1.56359E+01 +7.33086E+00 -1.39399E+01
 +1.16915E+01 -1.05237E+01 +1.45949E+01 -5.81430E+00 +1.56857E+01 -3.97505E-01 +1.48334E+01 +5.05486E+00
 +1.21483E+01 +9.86826E+00 +7.96722E+00 +1.34489E+01 +2.81110E+00 +1.53569E+01 -2.67981E+00 +1.53604E+01
 -7.82545E+00 +1.34639E+01 -1.19902E+01 +9.90659E+00 -1.46612E+01 +5.13281E+00 -1.55120E+01 -2.63930E-01
 -1.44418E+01 -5.61447E+00 -1.15878E+01 -1.02571E+01 -7.30758E+00 -1.36192E+01 -2.13415E+00 -1.52882E+01
 +3.29030E+00 -1.50619E+01 +8.29411E+00 -1.29729E+01 +1.22594E+01 -9.28449E+00 +1.46982E+01 -4.45680E+00
 +1.53127E+01 +9.10070E-01 +1.40315E+01 +6.15090E+00 +1.10179E+01 +1.06177E+01 +6.64881E+00 +1.37599E+01
 +1.46828E+00 +1.51921E+01 -3.88088E+00 +1.47414E+01 -8.73654E+00 +1.24683E+01 -1.24993E+01 +8.65866E+00
 -1.47065E+01 +3.78745E+00 -1.50889E+01 -1.54003E+00 -1.36038E+01 -6.66364E+00 -1.04397E+01 -1.09501E+01
 -5.99215E+00 -1.38713E+01 -8.14516E-01 -1.50692E+01 +4.45088E+00 -1.44001E+01 +9.15248E+00 -1.19514E+01
 +1.27101E+01 -8.03037E+00 +1.46866E+01 -3.12588E+00 +1.48413E+01 +2.15298E+00 +1.31598E+01 +7.15226E+00
 +9.85468E+00 +1.12543E+01 +5.33879E+00 +1.39538E+01 +1.73827E-01 +1.49205E+01 -4.99967E+00 +1.40391E+01
 -9.54172E+00 +1.14232E+01 -1.28921E+01 +7.40089E+00 -1.46392E+01 +2.47317E+00 -1.45711E+01 -2.74812E+00
 -1.27008E+01 -7.61636E+00 -9.26400E+00 -1.15302E+01 -4.68990E+00 -1.40080E+01 +4.52863E-01 -1.47467E+01
 +5.52670E+00 -1.36594E+01 +9.90414E+00 -1.08852E+01 +1.30455E+01 -6.77143E+00 +1.45652E+01 -1.83035E+00
 +1.42793E+01 +3.32474E+00 +1.22279E+01 +8.05562E+00 +8.66894E+00 +1.17781E+01 +4.04662E+00 +1.40344E+01
 -1.06468E+00 +1.45489E+01 -6.03144E+00 +1.32624E+01 -1.02396E+01 +1.03385E+01 -1.31706E+01 +6.14318E+00
 -1.44651E+01 +1.19844E+00 -1.39669E+01 -3.88214E+00 -1.17423E+01 -8.46975E+00 -8.07073E+00 -1.19981E+01
 -3.41003E+00 -1.40335E+01 +1.66078E+00 -1.43278E+01 +6.51343E+00 -1.28490E+01 +1.05482E+01 -9.78448E+00
 +1.32680E+01 -5.51732E+00 +1.43397E+01 -5.78381E-01 +1.36349E+01 +4.41971E+00 +1.12453E+01 +8.85853E+00
 +7.47056E+00 +1.21904E+01 +2.78121E+00 +1.40060E+01 -2.24041E+00 +1.40844E+01 -6.97228E+00 +1.24204E+01
 -1.08298E+01 +9.22421E+00 -1.33380E+01 +4.89497E+00 -1.41900E+01 -2.89068E-02 -1.32845E+01 -4.93685E+00
 -1.07380E+01 -9.22179E+00 -6.86962E+00 -1.23552E+01 -2.16117E+00 -1.39525E+01 +2.80281E+00 -1.38198E+01
 +7.40761E+00 -1.19779E+01 +1.10845E+01 -8.65896E+00 +1.33811E+01 -4.27725E+00 +1.40166E+01 +6.22557E-01
 +1.29167E+01 +5.43305E+00 +1.02217E+01 +9.55940E+00 +6.26908E+00 +1.24929E+01 +1.55089E+00 +1.38736E+01
 -3.34731E+00 +1.35348E+01 -7.81914E+00 +1.15225E+01 -1.13125E+01 +8.08990E+00 -1.33978E+01 +3.66521E+00
 -1.38205E+01 -1.20175E+00 -1.25325E+01 -5.90784E+00 -9.69753E+00 -9.87131E+00 -5.67006E+00 -1.26038E+01
 -9.51311E-01 -1.37702E+01 +3.87327E+00 -1.32304E+01 +8.20661E+00 -1.10554E+01 +1.15139E+01 -7.51819E+00
 +1.33886E+01 -3.05991E+00 +1.36025E+01 +1.76570E+00 +1.21332E+01 +6.36078E+00 +9.16665E+00 +1.01575E+01
 +5.07366E+00 +1.26882E+01 +3.63338E-01 +1.36430E+01 -4.38011E+00 +1.29078E+01 -8.56983E+00 +1.05777E+01
 -1.16889E+01 +6.94500E+00 -1.33543E+01 +2.46232E+00 -1.33635E+01 -2.31369E+00 -1.17197E+01 -6.79151E+00
 -8.63024E+00 -1.04180E+01 -4.48097E+00 -1.27466E+01 +2.12176E-01 -1.34927E+01 +4.86730E+00 -1.25678E+01
 +8.90865E+00 -1.00906E+01 +1.18378E+01 -6.37143E+00 +1.32954E+01 -1.87343E+00 +1.31046E+01 +2.84503E+00
 +1.12932E+01 +7.19971E+00 +8.08943E+00 +1.06528E+01 +3.89302E+00 +1.27796E+01 -7.74414E-01 +1.33201E+01
 -5.33434E+00 +1.22116E+01 -9.22296E+00 +9.59527E+00 -1.19609E+01 +5.79859E+00 -1.32125E+01 +1.29415E+00
 -1.28265E+01 -3.35907E+00 -1.08548E+01 -7.58510E+00 -7.54535E+00 -1.08622E+01 -3.31083E+00 -1.27875E+01
 +1.32261E+00 -1.31261E+01 +5.78081E+00 -1.18401E+01 +9.51273E+00 -9.09278E+00 +1.20586E+01 -5.22755E+00
 +1.31063E+01 -7.25364E-01 +1.25302E+01 +3.85524E+00 +1.04056E+01 +7.94746E+00 +6.99910E+00 +1.10463E+01
 +2.73537E+00 +1.27709E+01 -1.85603E+00 +1.29115E+01 -6.20631E+00 +1.14545E+01 -9.77794E+00 +8.58425E+00
 -1.21311E+01 +4.65934E+00 -1.29777E+01 +1.67924E-01 -1.22168E+01 -4.33299E+00 -9.94666E+00 -8.28662E+00
 -6.45178E+00 -1.12053E+01 -2.16758E+00 -1.27305E+01 +2.37399E+00 -1.26771E+01 +6.61050E+00 -1.10557E+01
 +1.00187E+01 -8.07079E+00 +1.21789E+01 -4.09500E+00 +1.28273E+01 +3.77369E-01 +1.18872E+01 +4.79183E+00
 +9.47910E+00 +8.60246E+00 +5.90444E+00 +1.13394E+01 +1.60838E+00 +1.26668E+01 -2.87586E+00 +1.24239E+01
 -6.99310E+00 +1.06449E+01 -1.02350E+01 +7.55349E+00 -1.22026E+01 +3.53550E+00 -1.26558E+01 -9.09748E-01
 -1.15424E+01 -5.23130E+00 -9.00399E+00 -8.89489E+00 -5.35813E+00 -1.14490E+01 -1.05862E+00 -1.25804E+01
 +3.36104E+00 -1.21528E+01 +7.35386E+00 -1.02230E+01 +1.04270E+01 -7.03340E+00 +1.22026E+01 -2.98179E+00
 +1.24642E+01 +1.42849E+00 +1.11834E+01 +5.65100E+00 +8.52240E+00 +9.16388E+00 +4.81386E+00 +1.15344E+01
 +5.19155E-01 +1.24721E+01 -3.82899E+00 +1.18647E+01 -7.69258E+00 +9.79111E+00 -1.05949E+01 +6.51159E+00
 -1.21793E+01 +2.43481E+00 -1.22532E+01 -1.93292E+00 -1.08112E+01 -6.05059E+00 -8.03540E+00 -9.40946E+00
 -4.27262E+00 -1.15959E+01 +9.23401E-03 -1.23425E+01 +4.27920E+00 -1.15604E+01 +8.00911E+00 -9.35030E+00
 +1.07389E+01 -5.98908E+00 +1.21335E+01 -1.89543E+00 +1.20236E+01 +2.42240E+00 +1.04267E+01 +6.42974E+00
 +7.54402E+00 +9.63166E+00 +3.73537E+00 +1.16341E+01 -5.25788E-01 +1.21924E+01 -4.71121E+00 +1.12411E+01
 -8.30335E+00 +8.90160E+00 -1.08593E+01 +5.46688E+00 -1.20656E+01 +1.36452E+00 -1.17763E+01 -2.89632E+00
 -1.00311E+01 -6.78820E+00 -7.04931E+00 -9.83060E+00 -3.20304E+00 -1.16493E+01 +1.02979E+00 -1.20225E+01
 +5.12461E+00 -1.09075E+01 +8.57523E+00 -8.44601E+00 +1.09564E+01 -4.94597E+00 +1.19763E+01 -8.42893E-01
 +1.15122E+01 +3.35415E+00 +9.62519E+00 +7.12575E+00 +6.55226E+00 +1.00064E+01 +2.67653E+00 +1.16421E+01
 -1.52056E+00 +1.18335E+01 -5.51903E+00 +1.05606E+01 -8.82475E+00 +7.98458E+00 -1.10305E+01 +4.42732E+00
 -1.18663E+01 +3.31328E-01 -1.12321E+01 -3.79537E+00 -9.21013E+00 -7.44221E+00 -6.05389E+00 -1.01593E+01
 -2.15671E+00 -1.16129E+01 +1.99747E+00 -1.16263E+01 +5.89414E+00 -1.02014E+01 +9.05192E+00 -7.51829E+00
 +1.10821E+01 -3.91186E+00 +1.17362E+01 +1.69424E-01 +1.09370E+01 +4.21950E+00 +8.78685E+00 +7.73746E+00
