 Created: 16-Jan-2021
 $NMID
 ID='D:\BASISSIMULATI'
 FMTDAT='(8E13.5)'
 VOLUME=   1.00000E+00
 TRAMP=   1.00000E+00
 $END
 +1.57528E+02 +6.37097E-01 +1.45731E+02 +5.60933E+01 +1.13493E+02 +1.02039E+02 +6.66902E+01 +1.31060E+02
 +1.37172E+01 +1.38974E+02 -3.61603E+01 +1.25568E+02 -7.46028E+01 +9.45509E+01 -9.57775E+01 +5.27273E+01
 -9.74099E+01 +8.57234E+00 -8.10984E+01 -2.94908E+01 -5.18429E+01 -5.47594E+01 -1.68976E+01 -6.35260E+01
 +1.58044E+01 -5.57040E+01 +3.93205E+01 -3.46897E+01 +4.91143E+01 -6.50323E+00 +4.39268E+01 +2.15971E+01
 +2.59311E+01 +4.27273E+01 +1.50065E-01 +5.18722E+01 -2.67275E+01 +4.69467E+01 -4.78713E+01 +2.92043E+01
 -5.78443E+01 +2.91240E+00 -5.38181E+01 -2.56277E+01 -3.62094E+01 -4.95014E+01 -8.60353E+00 -6.27326E+01
 +2.30164E+01 -6.16318E+01 +5.15686E+01 -4.56507E+01 +7.04207E+01 -1.75564E+01 +7.48535E+01 +1.71124E+01
 +6.31273E+01 +5.11953E+01 +3.69186E+01 +7.74227E+01 +1.02963E+00 +8.99700E+01 -3.75713E+01 +8.57241E+01
 -7.11821E+01 +6.49888E+01 -9.29705E+01 +3.14775E+01 -9.84136E+01 -8.41158E+00 -8.62676E+01 -4.68918E+01
 -5.88618E+01 -7.63857E+01 -2.16504E+01 -9.10941E+01 +1.78893E+01 -8.82065E+01 +5.17851E+01 -6.85000E+01
 +7.32107E+01 -3.61984E+01 +7.78970E+01 +1.88276E+00 +6.50214E+01 +3.77297E+01 +3.73892E+01 +6.37768E+01
 +8.67283E-01 +7.44651E+01 -3.68128E+01 +6.73912E+01 -6.76381E+01 +4.38095E+01 -8.49559E+01 +8.38310E+00
 -8.48371E+01 -3.17633E+01 -6.68799E+01 -6.84945E+01 -3.42921E+01 -9.43197E+01 +6.76586E+00 -1.03910E+02
 +4.84352E+01 -9.51709E+01 +8.27539E+01 -6.96445E+01 +1.03260E+02 -3.21742E+01 +1.06277E+02 +1.01045E+01
 +9.16157E+01 +4.92286E+01 +6.25581E+01 +7.80231E+01 +2.51319E+01 +9.15342E+01 -1.31676E+01 +8.79857E+01
 -4.49367E+01 +6.90667E+01 -6.43766E+01 +3.95000E+01 -6.84471E+01 +5.98809E+00 -5.74260E+01 -2.42337E+01
 -3.47617E+01 -4.49302E+01 -6.26226E+00 -5.21621E+01 +2.12037E+01 -4.50752E+01 +4.12128E+01 -2.60200E+01
 +4.91784E+01 +1.55395E-02 +4.33329E+01 +2.65358E+01 +2.50937E+01 +4.69830E+01 -1.26172E+00 +5.61906E+01
 -2.95406E+01 +5.15310E+01 -5.29962E+01 +3.35148E+01 -6.58144E+01 +5.71106E+00 -6.44077E+01 -2.59942E+01
 -4.82397E+01 -5.46467E+01 -2.00022E+01 -7.37139E+01 +1.48976E+01 -7.85029E+01 +4.94336E+01 -6.72036E+01
 +7.64151E+01 -4.13335E+01 +8.99934E+01 -5.48785E+00 +8.69057E+01 +3.35592E+01 +6.71928E+01 +6.82173E+01
 +3.42394E+01 +9.16255E+01 -5.87763E+00 +9.90602E+01 -4.55978E+01 +8.89123E+01 -7.73969E+01 +6.30299E+01
 -9.53030E+01 +2.63545E+01 -9.60970E+01 -1.40745E+01 -7.99495E+01 -5.05431E+01 -5.03649E+01 -7.62189E+01
 -1.34447E+01 -8.65194E+01 +2.33742E+01 -8.00130E+01 +5.28453E+01 -5.86674E+01 +6.93854E+01 -2.73990E+01
 +7.01908E+01 +6.97917E+00 +5.57692E+01 +3.71897E+01 +2.97807E+01 +5.70038E+01 -1.77313E+00 +6.25197E+01
 -3.18391E+01 +5.29439E+01 -5.38084E+01 +3.07143E+01 -6.29051E+01 +9.47118E-01 -5.71777E+01 -2.96747E+01
 -3.78887E+01 -5.43329E+01 -9.22451E+00 -6.75247E+01 +2.26100E+01 -6.62265E+01 +5.07186E+01 -5.05297E+01
 +6.89815E+01 -2.36151E+01 +7.33550E+01 +8.92459E+00 +6.27300E+01 +4.02704E+01 +3.91691E+01 +6.38194E+01
 +7.47582E+00 +7.45797E+01 -2.58143E+01 +7.02259E+01 -5.38062E+01 +5.15924E+01 -7.06927E+01 +2.25022E+01
 -7.29741E+01 -1.10315E+01 -6.01921E+01 -4.20629E+01 -3.50273E+01 -6.41665E+01 -2.73794E+00 -7.27806E+01
 +2.99395E+01 -6.61587E+01 +5.61988E+01 -4.57327E+01 +7.05846E+01 -1.58097E+01 +7.01303E+01 +1.73311E+01
 +5.49729E+01 +4.67523E+01 +2.83193E+01 +6.63082E+01 -4.22892E+00 +7.19267E+01 -3.58499E+01 +6.24553E+01
 -5.99283E+01 +3.98962E+01 -7.14363E+01 +8.98228E+00 -6.79799E+01 -2.38172E+01 -5.02937E+01 -5.16503E+01
 -2.20801E+01 -6.87140E+01 +1.07694E+01 -7.14622E+01 +4.14093E+01 -5.93408E+01 +6.34703E+01 -3.48956E+01
 +7.23868E+01 -3.23268E+00 +6.63440E+01 +2.90540E+01 +4.66478E+01 +5.52626E+01 +1.74421E+01 +6.99819E+01
 -1.51657E+01 +7.02157E+01 -4.43867E+01 +5.59998E+01 -6.41708E+01 +3.03823E+01 -7.04678E+01 -1.22462E+00
 -6.20662E+01 -3.21856E+01 -4.08355E+01 -5.60351E+01 -1.13228E+01 -6.78306E+01 +2.02100E+01 -6.51825E+01
 +4.71047E+01 -4.87460E+01 +6.37059E+01 -2.20746E+01 +6.65455E+01 +9.13459E+00 +5.50658E+01 +3.82426E+01
 +3.17318E+01 +5.90656E+01 +1.50819E+00 +6.71744E+01 -2.91858E+01 +6.08232E+01 -5.38263E+01 +4.13158E+01
 -6.71544E+01 +1.27314E+01 -6.62807E+01 -1.89300E+01 -5.12924E+01 -4.70045E+01 -2.52374E+01 -6.55590E+01
 +6.50981E+00 -7.06324E+01 +3.73688E+01 -6.10651E+01 +6.09240E+01 -3.87422E+01 +7.22608E+01 -8.20283E+00
 +6.89871E+01 +2.43036E+01 +5.17282E+01 +5.21158E+01 +2.39943E+01 +6.95419E+01 -8.55253E+00 +7.30369E+01
 -3.92756E+01 +6.19304E+01 -6.19400E+01 +3.85552E+01 -7.20003E+01 +7.75210E+00 -6.75318E+01 -2.41446E+01
 -4.96134E+01 -5.06265E+01 -2.20842E+01 -6.63601E+01 +9.27306E+00 -6.82840E+01 +3.79472E+01 -5.62266E+01
 +5.80591E+01 -3.29182E+01 +6.55810E+01 -3.39695E+00 +5.91619E+01 +2.60623E+01 +4.03871E+01 +4.92717E+01
 +1.34216E+01 +6.14277E+01 -1.58850E+01 +6.01092E+01 -4.12436E+01 +4.57711E+01 -5.72555E+01 +2.16289E+01
 -6.05487E+01 -7.03597E+00 -5.04833E+01 -3.40049E+01 -2.92766E+01 -5.34434E+01 -1.52605E+00 -6.11386E+01
 +2.67700E+01 -5.53915E+01 +4.94867E+01 -3.73769E+01 +6.16720E+01 -1.08964E+01 +6.05994E+01 +1.84232E+01
 +4.63512E+01 +4.43169E+01 +2.18104E+01 +6.12053E+01 -7.93668E+00 +6.53747E+01 -3.66634E+01 +5.57686E+01
 -5.83067E+01 +3.42217E+01 -6.82401E+01 +5.08805E+00 -6.42484E+01 -2.56584E+01 -4.70010E+01 -5.16648E+01
 -1.99228E+01 -6.75215E+01 +1.15083E+01 -6.98898E+01 +4.08930E+01 -5.81997E+01 +6.22341E+01 -3.47728E+01
 +7.11768E+01 -4.34509E+00 +6.59077E+01 +2.69115E+01 +4.75261E+01 +5.26634E+01 +1.98117E+01 +6.77214E+01
 -1.15626E+01 +6.91062E+01 -4.02068E+01 +5.66535E+01 -6.03346E+01 +3.30339E+01 -6.79525E+01 +3.18600E+00
 -6.16725E+01 -2.67178E+01 -4.29803E+01 -5.05553E+01 -1.59052E+01 -6.35205E+01 +1.38355E+01 -6.31092E+01
 +4.00372E+01 -4.96182E+01 +5.73025E+01 -2.60603E+01 +6.21586E+01 +2.48777E+00 +5.37655E+01 +2.99624E+01
 +3.40690E+01 +5.05895E+01 +7.37099E+00 +6.00917E+01 -2.05919E+01 +5.65746E+01 -4.38645E+01 +4.09074E+01
 -5.75279E+01 +1.65218E+01 -5.87301E+01 -1.13266E+01 -4.72772E+01 -3.66777E+01 -2.56613E+01 -5.41284E+01
 +1.47612E+00 -5.99730E+01 +2.83333E+01 -5.29815E+01 +4.91783E+01 -3.46532E+01 +5.95618E+01 -8.89558E+00
 +5.72574E+01 +1.88060E+01 +4.27320E+01 +4.25491E+01 +1.90475E+01 +5.72622E+01 -8.78424E+00 +5.97782E+01
 -3.48572E+01 +4.95053E+01 -5.36160E+01 +2.85572E+01 -6.10279E+01 +1.31374E+00 -5.54360E+01 -2.64953E+01
 -3.79148E+01 -4.89911E+01 -1.20528E+01 -6.13797E+01 +1.67915E+01 -6.09601E+01 +4.26053E+01 -4.76963E+01
 +5.99758E+01 -2.42323E+01 +6.52199E+01 +4.65125E+00 +5.71554E+01 +3.30277E+01 +3.73508E+01 +5.50535E+01
 +9.80337E+00 +6.61806E+01 -1.98877E+01 +6.40991E+01 -4.56797E+01 +4.92147E+01 -6.23363E+01 +2.45617E+01
 -6.65066E+01 -4.82844E+00 -5.74119E+01 -3.29717E+01 -3.69962E+01 -5.41697E+01 -9.51296E+00 -6.41843E+01
 +1.93663E+01 -6.11048E+01 +4.37323E+01 -4.57284E+01 +5.86620E+01 -2.13762E+01 +6.12304E+01 +6.81305E+00
 +5.11022E+01 +3.29633E+01 +3.05794E+01 +5.16880E+01 +4.10049E+00 +5.92073E+01 -2.27035E+01 +5.41232E+01
 -4.41955E+01 +3.76916E+01 -5.59130E+01 +1.35382E+01 -5.54956E+01 -1.31197E+01 -4.31666E+01 -3.65818E+01
 -2.16692E+01 -5.18676E+01 +4.32550E+00 -5.57629E+01 +2.92142E+01 -4.74900E+01 +4.76491E+01 -2.88627E+01
 +5.56674E+01 -3.89451E+00 +5.15270E+01 +2.20541E+01 +3.60718E+01 +4.34114E+01 +1.25519E+01 +5.55724E+01
 -1.40625E+01 +5.58715E+01 -3.81289E+01 +4.41464E+01 -5.45206E+01 +2.27755E+01 -5.97073E+01 -3.81940E+00
 -5.24994E+01 -3.00988E+01 -3.43016E+01 -5.05666E+01 -8.82298E+00 -6.09218E+01 +1.86963E+01 -5.89600E+01
 +4.25780E+01 -4.50368E+01 +5.78909E+01 -2.19954E+01 +6.14791E+01 +5.42593E+00 +5.26192E+01 +3.15804E+01
 +3.31695E+01 +5.10895E+01 +7.18051E+00 +5.99617E+01 -1.99512E+01 +5.64207E+01 -4.26080E+01 +4.12708E+01
 -5.61205E+01 +1.77236E+01 -5.77365E+01 -9.27665E+00 -4.71886E+01 -3.40865E+01 -2.67418E+01 -5.15406E+01
 -7.14273E-01 -5.80261E+01 +2.54291E+01 -5.22294E+01 +4.62196E+01 -3.54027E+01 +5.73238E+01 -1.10943E+01
 +5.64440E+01 +1.55996E+01 +4.37890E+01 +3.91026E+01 +2.20226E+01 +5.45227E+01 -4.30158E+00 +5.86698E+01
 -2.96968E+01 +5.07153E+01 -4.88911E+01 +3.23552E+01 -5.79264E+01 +7.44666E+00 -5.49796E+01 -1.88057E+01
 -4.07334E+01 -4.09421E+01 -1.82235E+01 -5.43886E+01 +7.80590E+00 -5.64089E+01 +3.19017E+01 -4.66681E+01
 +4.90452E+01 -2.72919E+01 +5.57006E+01 -2.41117E+00 +5.05492E+01 +2.27119E+01 +3.47568E+01 +4.27915E+01
 +1.17189E+01 +5.36267E+01 -1.36595E+01 +5.29791E+01 -3.59992E+01 +4.10367E+01 -5.05782E+01 +2.03666E+01
 -5.43228E+01 -4.63016E+00 -4.64496E+01 -2.86479E+01 -2.86265E+01 -4.65935E+01 -4.61865E+00 -5.46562E+01
 +2.05048E+01 -5.11078E+01 +4.14364E+01 -3.66639E+01 +5.37449E+01 -1.43324E+01 +5.48045E+01 +1.12172E+01
 +4.43449E+01 +3.46333E+01 +2.45086E+01 +5.10026E+01 -5.97978E-01 +5.68783E+01 -2.57630E+01 +5.10004E+01
 -4.57579E+01 +3.45580E+01 -5.64281E+01 +1.09398E+01 -5.55586E+01 -1.49740E+01 -4.33328E+01 -3.78302E+01
 -2.22906E+01 -5.29184E+01 +3.20487E+00 -5.71499E+01 +2.78800E+01 -4.96963E+01 +4.66503E+01 -3.21559E+01
 +5.56780E+01 -8.21278E+00 +5.31666E+01 +1.71372E+01 +3.97270E+01 +3.86320E+01 +1.82404E+01 +5.18410E+01
 -6.75175E+00 +5.40852E+01 -3.00031E+01 +4.49890E+01 -4.66608E+01 +2.65486E+01 -5.32779E+01 +2.70469E+00
 -4.85292E+01 -2.14895E+01 -3.34798E+01 -4.09304E+01 -1.13539E+01 -5.15328E+01 +1.31480E+01 -5.10828E+01
 +3.48386E+01 -3.96959E+01 +4.91329E+01 -1.97868E+01 +5.30069E+01 +4.44232E+00 +4.56291E+01 +2.78864E+01
 +2.85298E+01 +4.56086E+01 +5.27640E+00 +5.38740E+01 -1.92762E+01 +5.09292E+01 -4.00039E+01 +3.73660E+01
 -5.25850E+01 +1.59931E+01 -5.44016E+01 -8.75452E+00 -4.50828E+01 -3.17454E+01 -2.65773E+01 -4.82243E+01
 -2.74044E+00 -5.48042E+01 +2.14758E+01 -5.01686E+01 +4.10595E+01 -3.53402E+01 +5.19849E+01 -1.34595E+01
 +5.20498E+01 +1.08785E+01 +4.13287E+01 +3.25893E+01 +2.21486E+01 +4.71638E+01 -1.40639E+00 +5.16092E+01
 -2.43565E+01 +4.50696E+01 -4.18725E+01 +2.89974E+01 -5.02875E+01 +6.84134E+00 -4.78623E+01 -1.66837E+01
