 Created: 16-Jan-2021
 $NMID
 ID='D:\BASISSIMULATI'
 FMTDAT='(8E13.5)'
 VOLUME=   1.00000E+00
 TRAMP=   1.00000E+00
 $END
 +8.67076E+01 +8.91732E-01 +6.89389E+01 +1.42890E+01 +2.94582E+01 +3.22026E+01 -5.77735E+00 +4.95675E+01
 -1.90982E+01 +5.35848E+01 -1.30043E+01 +3.74619E+01 -2.83397E+00 +1.00809E+01 -1.38370E-01 -9.94730E+00
 -4.09492E+00 -1.05691E+01 -7.32298E+00 +3.56863E+00 -6.61201E+00 +1.69788E+01 -5.73749E+00 +1.82632E+01
 -8.75410E+00 +8.67084E+00 -1.36177E+01 -2.83337E+00 -1.44603E+01 -1.02879E+01 -9.25118E+00 -1.48803E+01
 -2.61510E+00 -1.96845E+01 +2.41762E-01 -2.35518E+01 +9.93331E-01 -2.25096E+01 +7.07690E+00 -1.63463E+01
 +2.22164E+01 -1.07240E+01 +3.96391E+01 -1.06099E+01 +4.70679E+01 -1.25168E+01 +3.91867E+01 -6.21497E+00
 +2.38038E+01 +1.38286E+01 +1.40230E+01 +3.94540E+01 +1.42993E+01 +5.36939E+01 +1.57623E+01 +4.64104E+01
 +6.51026E+00 +2.48700E+01 -1.40405E+01 +7.46048E+00 -3.26851E+01 +6.15612E+00 -3.51526E+01 +1.55321E+01
 -2.07282E+01 +1.95563E+01 -3.19306E+00 +8.80387E+00 +2.87426E+00 -9.94079E+00 -4.12081E+00 -2.11989E+01
 -1.30348E+01 -1.67642E+01 -1.29150E+01 -3.27518E+00 -4.05964E+00 +5.52370E+00 +4.15812E+00 +2.40495E+00
 +4.91521E+00 -8.17434E+00 +1.37802E+00 -1.70023E+01 +2.20171E+00 -1.95948E+01 +1.12647E+01 -1.77115E+01
 +2.36347E+01 -1.33298E+01 +3.15342E+01 -4.49404E+00 +3.22774E+01 +1.10452E+01 +2.87606E+01 +2.94621E+01
 +2.31017E+01 +4.12286E+01 +1.27540E+01 +3.97042E+01 -4.98900E+00 +2.85780E+01 -2.55810E+01 +1.87288E+01
 -3.74868E+01 +1.68338E+01 -3.23899E+01 +1.82361E+01 -1.50268E+01 +1.26992E+01 -7.21461E-01 -2.75318E+00
 -1.30712E+00 -1.84460E+01 -1.34722E+01 -2.11104E+01 -2.21934E+01 -8.30643E+00 -1.63050E+01 +7.58322E+00
 -7.22846E-02 +1.09010E+01 +1.14447E+01 -1.84618E+00 +8.29548E+00 -1.87623E+01 -4.02589E+00 -2.47701E+01
 -1.04893E+01 -1.62413E+01 -2.01403E+00 -3.01984E+00 +1.58035E+01 +3.22945E+00 +2.90758E+01 +1.07134E+00
 +2.92752E+01 -8.38270E-01 +1.96504E+01 +5.38791E+00 +9.15617E+00 +1.80605E+01 +2.40183E+00 +2.83896E+01
 -2.98865E+00 +3.01803E+01 -1.02786E+01 +2.52142E+01 -1.77668E+01 +1.90479E+01 -2.07465E+01 +1.36523E+01
 -1.82511E+01 +6.36768E+00 -1.52310E+01 -4.06838E+00 -1.65771E+01 -1.30283E+01 -2.01560E+01 -1.39344E+01
 -1.82210E+01 -6.65261E+00 -6.82825E+00 +2.88841E-01 +7.51186E+00 -2.08130E+00 +1.28600E+01 -1.28359E+01
 +4.42645E+00 -2.08349E+01 -8.97870E+00 -1.61610E+01 -1.27472E+01 -1.47162E+00 -1.24272E+00 +9.60746E+00
 +1.60219E+01 +6.33033E+00 +2.37719E+01 -7.45566E+00 +1.63258E+01 -1.65041E+01 +2.82233E+00 -9.39135E+00
 -2.96105E+00 +9.97567E+00 +2.91094E+00 +2.63797E+01 +1.10572E+01 +2.82511E+01 +9.38409E+00 +1.78829E+01
 -4.12890E+00 +7.07969E+00 -1.98770E+01 +4.18242E+00 -2.69106E+01 +6.71613E+00 -2.32062E+01 +6.42182E+00
 -1.54207E+01 -4.87226E-01 -1.01245E+01 -9.68078E+00 -7.42611E+00 -1.46711E+01 -3.61667E+00 -1.41780E+01
 +1.94501E+00 -1.21247E+01 +5.13504E+00 -1.13123E+01 +2.73668E+00 -9.61497E+00 -2.13673E+00 -3.86356E+00
 -2.57983E+00 +3.76293E+00 +3.83203E+00 +5.97008E+00 +1.10998E+01 -1.50146E+00 +1.09486E+01 -1.30049E+01
 +2.80002E+00 -1.66574E+01 -4.23581E+00 -6.25349E+00 -8.65401E-01 +1.11604E+01 +1.12285E+01 +2.11899E+01
 +1.94328E+01 +1.62641E+01 +1.26596E+01 +3.29280E+00 -6.50511E+00 -3.61983E+00 -2.32133E+01 +2.05455E+00
 -2.44993E+01 +1.26340E+01 -1.17090E+01 +1.46804E+01 +1.53514E+00 +3.35578E+00 +3.33864E+00 -1.25794E+01
 -5.26130E+00 -2.00078E+01 -1.29709E+01 -1.46137E+01 -1.07924E+01 -4.12323E+00 -6.35555E-01 +8.26795E-01
 +8.29845E+00 -2.51776E+00 +9.88651E+00 -7.92512E+00 +6.31076E+00 -8.51481E+00 +3.47410E+00 -4.16316E+00
 +3.46658E+00 -2.44316E-02 +3.33694E+00 +6.83868E-01 +7.20794E-01 +1.77678E-01 -1.78006E+00 +1.94448E+00
 +3.48710E-01 +4.98200E+00 +6.74134E+00 +4.51943E+00 +1.07388E+01 -1.14595E+00 +6.35575E+00 -6.50482E+00
 -3.99483E+00 -3.81667E+00 -1.07311E+01 +7.39176E+00 -7.18151E+00 +1.75344E+01 +2.37711E+00 +1.56243E+01
 +6.43680E+00 +1.07832E+00 -1.31437E+00 -1.43369E+01 -1.42081E+01 -1.75585E+01 -1.85969E+01 -7.24847E+00
 -7.99329E+00 +4.97433E+00 +9.55070E+00 +6.60024E+00 +1.89486E+01 -3.05905E+00 +1.28635E+01 -1.27925E+01
 -1.50559E+00 -1.17328E+01 -1.02847E+01 -6.25631E-01 -6.69093E+00 +9.58163E+00 +3.56305E+00 +9.57538E+00
 +9.76196E+00 +8.67500E-01 +7.39824E+00 -6.94726E+00 +1.14894E+00 -6.77763E+00 -2.10983E+00 -5.28124E-01
 -1.06047E+00 +4.68279E+00 +2.31783E-01 +4.90434E+00 -1.12179E+00 +2.42659E+00 -2.82612E+00 +1.08301E+00
 -9.37762E-01 +8.10603E-01 +3.96197E+00 -1.36290E+00 +6.36823E+00 -5.59518E+00 +2.40923E+00 -7.01362E+00
 -4.57005E+00 -1.10030E+00 -6.90755E+00 +9.25398E+00 -1.49940E+00 +1.43852E+01 +5.69610E+00 +7.31588E+00
 +5.67821E+00 -7.69439E+00 -3.03089E+00 -1.77180E+01 -1.13806E+01 -1.34873E+01 -8.80225E+00 +1.04797E+00
 +4.83219E+00 +1.23624E+01 +1.75437E+01 +1.08346E+01 +1.66057E+01 +6.07557E-02 +1.53533E+00 -7.67276E+00
 -1.49065E+01 -4.66071E+00 -1.89239E+01 +4.46360E+00 -8.57942E+00 +8.43378E+00 +5.51684E+00 +1.82571E+00
 +1.15239E+01 -9.29457E+00 +7.34310E+00 -1.41530E+01 +4.55037E-01 -8.51281E+00 -1.53469E+00 +1.74851E+00
 +1.55440E+00 +7.69800E+00 +4.36497E+00 +6.41366E+00 +3.49021E+00 +2.28621E+00 +1.05218E+00 +4.64816E-01
 +7.40755E-01 +1.08438E+00 +2.25314E+00 +8.29758E-01 +1.65498E+00 -1.21373E+00 -2.77490E+00 -1.64887E+00
 -7.04272E+00 +2.39195E+00 -5.56128E+00 +7.94796E+00 +1.47310E+00 +8.08173E+00 +6.73997E+00 -9.28427E-02
 +3.35861E+00 -1.04953E+01 -6.58196E+00 -1.31204E+01 -1.27834E+01 -4.64062E+00 -7.24748E+00 +7.06277E+00
 +6.37716E+00 +1.02974E+01 +1.53047E+01 +1.67517E+00 +1.02756E+01 -1.00754E+01 -4.61104E+00 -1.31260E+01
 -1.54249E+01 -5.02232E+00 -1.18916E+01 +4.77661E+00 +2.97713E+00 +5.13004E+00 +1.66352E+01 -4.68620E+00
 +1.94950E+01 -1.39107E+01 +1.29146E+01 -1.13071E+01 +5.27257E+00 +3.39670E+00 +1.90095E+00 +1.92786E+01
 +4.63263E-01 +2.46949E+01 -3.95636E+00 +1.72301E+01 -1.11653E+01 +3.76830E+00 -1.50910E+01 -7.41056E+00
 -1.07244E+01 -1.30051E+01 -3.71156E-01 -1.38306E+01 +8.20350E+00 -1.04273E+01 +9.52541E+00 -2.24564E+00
 +5.13728E+00 +8.60044E+00 +3.48232E-01 +1.52930E+01 -2.34155E+00 +1.09998E+01 -4.86902E+00 -3.42166E+00
 -8.65056E+00 -1.78298E+01 -1.00899E+01 -2.09789E+01 -3.48496E+00 -1.11383E+01 +1.10101E+01 +2.05497E+00
 +2.41168E+01 +7.12036E+00 +2.45868E+01 +2.04319E+00 +1.06771E+01 -4.46735E+00 -6.39463E+00 -2.96001E+00
 -1.20278E+01 +6.43810E+00 -2.09732E+00 +1.44827E+01 +1.29043E+01 +1.32482E+01 +1.79304E+01 +4.84364E+00
 +7.64750E+00 -1.14795E+00 -9.21238E+00 +1.55420E+00 -1.90524E+01 +8.98336E+00 -1.61013E+01 +1.13754E+01
 -6.00488E+00 +3.89784E+00 +1.77252E+00 -8.13696E+00 +3.36436E+00 -1.49201E+01 +2.04988E+00 -1.20504E+01
 +2.15755E+00 -4.00723E+00 +3.72006E+00 +1.70018E+00 +3.87112E+00 +2.30828E+00 +1.96164E+00 +9.20147E-01
 +1.03455E+00 +9.19223E-01 +3.57103E+00 +1.36833E+00 +7.31171E+00 -9.20455E-01 +7.33794E+00 -5.77055E+00
 +2.67645E+00 -8.24073E+00 -8.30571E-01 -3.93927E+00 +3.79429E+00 +5.17982E+00 +1.57721E+01 +1.20976E+01
 +2.48094E+01 +1.24271E+01 +1.99849E+01 +9.66065E+00 +9.80524E-01 +1.11059E+01 -2.01823E+01 +1.83439E+01
 -2.94003E+01 +2.32768E+01 -2.27267E+01 +1.56005E+01 -8.50113E+00 -5.18529E+00 +2.02315E+00 -2.62541E+01
 +5.11588E+00 -3.15088E+01 +5.42660E+00 -1.61788E+01 +7.79563E+00 +8.32256E+00 +1.03983E+01 +2.41185E+01
 +7.28681E+00 +2.17046E+01 -2.98805E+00 +6.11831E+00 -1.32633E+01 -9.83862E+00 -1.36821E+01 -1.69803E+01
 -1.68864E+00 -1.47138E+01 +1.46948E+01 -7.25588E+00 +2.39293E+01 +2.04539E+00 +2.09965E+01 +1.15988E+01
 +1.04048E+01 +1.87640E+01 +2.78783E-01 +1.94479E+01 -5.08370E+00 +1.23354E+01 -6.58739E+00 +2.60632E+00
 -6.15684E+00 -1.00943E+00 -3.75440E+00 +5.49940E+00 +4.95679E-01 +1.64211E+01 +2.94705E+00 +2.09316E+01
 -1.83156E+00 +1.34892E+01 -1.43559E+01 -6.58195E-01 -2.63313E+01 -1.08185E+01 -2.60851E+01 -1.14453E+01
 -9.79125E+00 -6.69473E+00 +1.28467E+01 -4.38481E+00 +2.56311E+01 -6.54330E+00 +1.99831E+01 -7.36931E+00
 +2.55557E+00 -8.59829E-01 -1.12734E+01 +1.07853E+01 -1.15675E+01 +1.79609E+01 -1.73833E+00 +1.33634E+01
 +6.84576E+00 +1.69200E-01 +6.91343E+00 -1.03784E+01 +1.39344E+00 -9.63135E+00 -1.64179E+00 +6.95738E-01
 +1.59027E+00 +1.14031E+01 +7.13435E+00 +1.55295E+01 +8.44975E+00 +1.42744E+01 +3.28137E+00 +1.34852E+01
 -5.31884E+00 +1.57533E+01 -1.35610E+01 +1.74018E+01 -2.04205E+01 +1.32561E+01 -2.58746E+01 +3.02484E+00
 -2.72819E+01 -8.15562E+00 -2.01920E+01 -1.50664E+01 -4.12363E+00 -1.68493E+01 +1.35018E+01 -1.55539E+01
 +2.15131E+01 -1.16217E+01 +1.46646E+01 -3.08938E+00 -8.83926E-01 +9.74716E+00 -1.26711E+01 +2.03741E+01
 -1.30776E+01 +1.95859E+01 -5.34688E+00 +4.80593E+00 +1.36060E+00 -1.45869E+01 +2.05796E+00 -2.33048E+01
 +1.37338E-01 -1.33935E+01 +1.63502E+00 +7.98133E+00 +6.76963E+00 +2.44303E+01 +8.86166E+00 +2.47191E+01
 +2.08249E+00 +1.19212E+01 -1.08555E+01 -9.74946E-01 -2.02048E+01 -3.77500E+00 -1.88228E+01 +2.66903E+00
 -9.66439E+00 +9.65304E+00 -2.94188E+00 +1.01708E+01 -5.84544E+00 +4.40128E+00 -1.55550E+01 -3.14765E+00
 -2.24540E+01 -9.54569E+00 -1.95702E+01 -1.49906E+01 -8.34988E+00 -1.93200E+01 +4.17214E+00 -1.94612E+01
 +1.22765E+01 -1.22552E+01 +1.47826E+01 +4.15574E-01 +1.26273E+01 +1.11316E+01 +5.86857E+00 +1.30570E+01
 -5.11374E+00 +6.55178E+00 -1.61792E+01 -1.24639E+00 -1.98982E+01 -3.84181E+00 -1.18256E+01 -1.73893E+00
 +3.49452E+00 -6.43135E-01 +1.44989E+01 -3.66753E+00 +1.24003E+01 -6.76728E+00 -4.71575E-01 -3.14287E+00
 -1.27520E+01 +8.03266E+00 -1.50895E+01 +1.86949E+01 -9.07090E+00 +1.89124E+01 -4.80339E+00 +6.89044E+00
 -9.73042E+00 -8.77657E+00 -2.04531E+01 -1.72937E+01 -2.60358E+01 -1.58034E+01 -1.91079E+01 -1.09515E+01
 -3.14561E+00 -1.06873E+01 +1.11527E+01 -1.54890E+01 +1.58861E+01 -1.83718E+01 +1.18659E+01 -1.31380E+01
 +5.39920E+00 -1.51949E+00 +9.68899E-01 +8.37876E+00 -1.79957E+00 +1.01069E+01 -4.73873E+00 +4.47936E+00
 -6.93098E+00 -2.62441E+00 -5.49349E+00 -6.69686E+00 -1.54760E-01 -7.72922E+00 +4.79371E+00 -7.48177E+00
 +4.49311E+00 -5.68285E+00 -8.49461E-01 -6.59756E-01 -5.68884E+00 +6.52404E+00 -5.26793E+00 +1.06132E+01
