 Created: 16-Jan-2021
 $NMID
 ID='D:\BASISSIMULATI'
 FMTDAT='(8E13.5)'
 VOLUME=   1.00000E+00
 TRAMP=   1.00000E+00
 $END
 +6.45144E+01 +1.92875E+00 +4.79131E+01 +1.00556E+01 +1.22919E+01 +2.03381E+01 -1.95883E+01 +2.98199E+01
 -3.15010E+01 +3.04964E+01 -2.42628E+01 +1.80926E+01 -1.05684E+01 -1.67923E+00 -1.33254E+00 -1.70310E+01
 +2.45289E+00 -2.06350E+01 +6.01102E+00 -1.56569E+01 +1.18438E+01 -1.08253E+01 +1.64778E+01 -1.00744E+01
 +1.57724E+01 -8.36256E+00 +1.12425E+01 +1.50218E+00 +8.94887E+00 +1.85912E+01 +1.18087E+01 +3.20227E+01
 +1.46362E+01 +3.06211E+01 +8.79494E+00 +1.44434E+01 -7.59137E+00 -4.15577E+00 -2.50668E+01 -1.16900E+01
 -2.99837E+01 -5.89893E+00 -1.70723E+01 +3.14565E+00 +5.12635E+00 +4.05022E+00 +2.16480E+01 -4.29785E+00
 +2.40131E+01 -1.22755E+01 +1.59842E+01 -1.00520E+01 +7.33364E+00 +2.30186E+00 +3.25460E+00 +1.53865E+01
 +8.26911E-01 +2.02534E+01 -4.65730E+00 +1.64954E+01 -1.18645E+01 +1.05161E+01 -1.37844E+01 +7.11937E+00
 -6.19188E+00 +4.59369E+00 +5.69141E+00 -1.29684E+00 +1.08423E+01 -9.77989E+00 +3.53735E+00 -1.37151E+01
 -9.79347E+00 -6.99553E+00 -1.59497E+01 +7.27593E+00 -7.81673E+00 +1.76882E+01 +8.27962E+00 +1.48958E+01
 +1.83895E+01 +1.19092E+00 +1.41612E+01 -1.09886E+01 +2.37585E-01 -1.06965E+01 -1.11508E+01 +1.28157E+00
 -1.22055E+01 +1.37950E+01 -5.80890E+00 +1.65377E+01 -5.16166E-01 +9.40447E+00 -8.57011E-01 +8.17886E-01
 -3.69054E+00 -2.17489E+00 -3.69999E+00 -8.34090E-01 -6.62267E-01 -1.50206E+00 +3.96633E-01 -6.67181E+00
 -3.74586E+00 -1.10730E+01 -8.99877E+00 -7.56358E+00 -7.35559E+00 +3.78025E+00 +3.71393E+00 +1.40266E+01
 +1.63869E+01 +1.38616E+01 +1.86067E+01 +3.48544E+00 +5.89828E+00 -6.88818E+00 -1.32090E+01 -7.02881E+00
 -2.42800E+01 +2.95907E+00 -1.99518E+01 +1.26852E+01 -6.01462E+00 +1.18894E+01 +5.11106E+00 +4.67743E-01
 +6.39138E+00 -1.19636E+01 +1.47634E+00 -1.58997E+01 -1.24121E+00 -1.05649E+01 +1.59367E+00 -2.77396E+00
 +5.43880E+00 +1.56582E+00 +4.31859E+00 +3.27774E+00 -1.47659E+00 +6.84570E+00 -5.56016E+00 +1.28215E+01
 -3.27006E+00 +1.53476E+01 +2.09494E+00 +8.42546E+00 +2.32855E+00 -5.91605E+00 -6.14257E+00 -1.73707E+01
 -1.68149E+01 -1.65632E+01 -1.84964E+01 -4.59407E+00 -6.63593E+00 +7.37117E+00 +1.11346E+01 +8.69795E+00
 +2.13821E+01 -4.75694E-01 +1.70452E+01 -9.76407E+00 +3.30097E+00 -9.18261E+00 -8.33036E+00 +1.07208E+00
 -1.10281E+01 +1.14744E+01 -7.53243E+00 +1.31301E+01 -4.79339E+00 +6.10664E+00 -5.39538E+00 -2.14238E+00
 -5.50776E+00 -5.53078E+00 -1.03753E+00 -5.15853E+00 +5.89619E+00 -6.12252E+00 +8.31191E+00 -9.79429E+00
 +2.45281E+00 -1.11427E+01 -6.69438E+00 -4.66987E+00 -9.47405E+00 +7.73561E+00 -1.68049E+00 +1.65487E+01
 +1.00622E+01 +1.33833E+01 +1.40447E+01 -4.04202E-02 +5.04322E+00 -1.25506E+01 -1.00657E+01 -1.38207E+01
 -1.85706E+01 -4.09908E+00 -1.38294E+01 +6.48105E+00 -9.12735E-01 +8.14971E+00 +9.20066E+00 +7.07370E-01
 +1.02749E+01 -7.42811E+00 +5.33042E+00 -8.57097E+00 +1.31264E+00 -3.22714E+00 +8.42363E-01 +1.86354E+00
 +4.05765E-01 +2.03137E+00 -3.64673E+00 -4.07208E-01 -9.04587E+00 +3.63761E-02 -9.20445E+00 +4.36308E+00
 -1.10836E+00 +6.93392E+00 +9.62837E+00 +1.84625E+00 +1.31268E+01 -9.16919E+00 +5.24625E+00 -1.66971E+01
 -7.33449E+00 -1.25201E+01 -1.29368E+01 +1.50621E+00 -6.19228E+00 +1.42014E+01 +6.61274E+00 +1.52645E+01
 +1.36721E+01 +4.82510E+00 +9.02110E+00 -7.21703E+00 -2.31843E+00 -1.11029E+01 -1.01195E+01 -6.07393E+00
 -9.05254E+00 +5.02049E-01 -2.62130E+00 +1.88305E+00 +2.27489E+00 -1.27667E+00 +3.21251E+00 -3.07591E+00
 +3.65133E+00 -1.75295E-01 +6.94550E+00 +4.06727E+00 +1.06801E+01 +3.86433E+00 +8.60712E+00 -1.47103E+00
 -1.54615E+00 -5.80350E+00 -1.34431E+01 -2.81644E+00 -1.68613E+01 +6.15255E+00 -7.72521E+00 +1.21948E+01
 +6.99335E+00 +7.60705E+00 +1.51858E+01 -5.56232E+00 +1.08329E+01 -1.64731E+01 -6.50207E-01 -1.55268E+01
 -8.19748E+00 -3.48746E+00 -5.87619E+00 +9.47918E+00 +2.25955E+00 +1.36508E+01 +7.54260E+00 +8.34585E+00
 +5.85152E+00 +9.48573E-01 +7.51573E-01 -1.66364E+00 -1.95319E+00 +2.93953E-01 -1.30035E+00 +1.50967E+00
 -1.59961E+00 -1.07770E+00 -5.99050E+00 -4.46698E+00 -1.10820E+01 -3.63535E+00 -9.60870E+00 +1.59987E+00
 +1.15445E+00 +5.36597E+00 +1.45636E+01 +2.19114E+00 +1.95195E+01 -5.93700E+00 +1.09215E+01 -1.03377E+01
 -4.90775E+00 -4.35640E+00 -1.56628E+01 +8.87913E+00 -1.41579E+01 +1.82830E+01 -4.16027E+00 +1.50699E+01
 +4.38664E+00 +1.31487E+00 +5.23647E+00 -1.18677E+01 +6.35815E-01 -1.46932E+01 -3.01099E+00 -7.22488E+00
 -2.79401E+00 +2.07576E+00 -1.56421E+00 +5.42590E+00 -2.92953E+00 +2.63413E+00 -5.61370E+00 -7.59969E-01
 -4.38290E+00 -8.81283E-01 +3.16900E+00 +3.87928E-01 +1.19908E+01 -1.03671E+00 +1.32927E+01 -5.04144E+00
 +3.55131E+00 -6.22675E+00 -1.07333E+01 -6.64060E-02 -1.82614E+01 +1.04950E+01 -1.34577E+01 +1.60614E+01
 -1.71271E+00 +9.46805E+00 +6.08959E+00 -6.47945E+00 +4.21509E+00 -2.05122E+01 -2.89738E+00 -2.26623E+01
 -6.03224E+00 -1.27911E+01 -9.91895E-01 +2.98477E-01 +7.45570E+00 +7.65544E+00 +1.11285E+01 +7.62805E+00
 +7.04510E+00 +4.94278E+00 -1.25213E-01 +3.75216E+00 -3.86020E+00 +3.10121E+00 -2.93194E+00 -3.33400E-01
 -1.95879E+00 -6.24825E+00 -5.12985E+00 -9.40686E+00 -1.05574E+01 -5.41390E+00 -1.18554E+01 +2.80202E+00
 -5.25739E+00 +5.99630E+00 +5.75687E+00 -2.43691E+00 +1.36382E+01 -1.82948E+01 +1.43270E+01 -2.83003E+01
 +1.08224E+01 -2.13427E+01 +8.83437E+00 +1.01109E+00 +9.54723E+00 +2.48213E+01 +7.94621E+00 +3.47841E+01
 -9.66388E-01 +2.58404E+01 -1.48042E+01 +5.39140E+00 -2.39039E+01 -1.43554E+01 -1.97976E+01 -2.55299E+01
 -3.73648E+00 -2.72744E+01 +1.36844E+01 -2.20093E+01 +2.18152E+01 -1.16358E+01 +1.89899E+01 +1.88285E+00
 +1.24506E+01 +1.39472E+01 +9.78161E+00 +1.82352E+01 +1.11070E+01 +1.20993E+01 +1.00567E+01 +7.89587E-01
 +1.93064E+00 -5.56045E+00 -1.00795E+01 -9.47490E-01 -1.73658E+01 +1.00281E+01 -1.43410E+01 +1.55047E+01
 -3.82624E+00 +7.32302E+00 +6.10585E+00 -1.06975E+01 +1.01253E+01 -2.54449E+01 +9.92417E+00 -2.58530E+01
 +1.07209E+01 -1.21161E+01 +1.44913E+01 +5.67356E+00 +1.76119E+01 +1.72865E+01 +1.52093E+01 +2.04096E+01
 +6.89685E+00 +1.96003E+01 -2.69071E+00 +1.87453E+01 -8.88676E+00 +1.61099E+01 -1.13970E+01 +7.40375E+00
 -1.28776E+01 -7.08085E+00 -1.36349E+01 -1.98892E+01 -9.48898E+00 -2.20178E+01 +3.44446E+00 -1.12872E+01
 +2.17094E+01 +5.17846E+00 +3.38299E+01 +1.69830E+01 +2.88965E+01 +1.89452E+01 +7.25871E+00 +1.39089E+01
 -1.74610E+01 +8.11738E+00 -2.83668E+01 +4.96796E+00 -1.90252E+01 +3.63213E+00 +1.43130E+00 +2.67724E+00
 +1.63966E+01 +3.08977E+00 +1.55166E+01 +6.51939E+00 +1.86084E+00 +1.11676E+01 -1.27154E+01 +1.14333E+01
 -1.82322E+01 +3.39543E+00 -1.32077E+01 -9.23998E+00 -2.85311E+00 -1.61640E+01 +6.93352E+00 -9.27710E+00
 +1.29894E+01 +8.66095E+00 +1.38891E+01 +2.47122E+01 +8.37346E+00 +2.63818E+01 -3.23377E+00 +1.27227E+01
 -1.63372E+01 -4.66127E+00 -2.29974E+01 -1.18779E+01 -1.78756E+01 -4.69907E+00 -4.08735E+00 +8.74136E+00
 +7.79180E+00 +1.62669E+01 +8.17656E+00 +1.24149E+01 -2.97987E+00 +1.69531E+00 -1.59350E+01 -7.34477E+00
 -1.98624E+01 -1.01033E+01 -1.22936E+01 -8.15562E+00 -3.31049E-01 -5.09936E+00 +6.99425E+00 -1.97646E+00
 +7.02236E+00 +2.56933E+00 +4.09416E+00 +8.62217E+00 +2.72090E+00 +1.31908E+01 +1.49846E+00 +1.29388E+01
 -5.11837E+00 +8.13301E+00 -1.89880E+01 +2.62656E+00 -3.32709E+01 -6.35324E-01 -3.65906E+01 -3.33322E+00
 -2.31493E+01 -9.69917E+00 +9.79885E-01 -2.02043E+01 +2.17811E+01 -2.82096E+01 +2.80016E+01 -2.46104E+01
 +1.89425E+01 -7.05046E+00 +3.02878E+00 +1.55512E+01 -1.01433E+01 +2.87966E+01 -1.62963E+01 +2.44921E+01
 -1.66371E+01 +7.45710E+00 -1.39573E+01 -9.07091E+00 -1.00795E+01 -1.51000E+01 -6.59662E+00 -1.16357E+01
 -5.86224E+00 -7.71546E+00 -9.06919E+00 -1.05024E+01 -1.30340E+01 -1.84801E+01 -1.06899E+01 -2.38164E+01
 +2.78156E+00 -2.04590E+01 +2.31370E+01 -9.43619E+00 +3.72941E+01 +3.18110E+00 +3.26335E+01 +1.22063E+01
 +8.18176E+00 +1.64363E+01 -2.27212E+01 +1.65597E+01 -4.16784E+01 +1.18597E+01 -3.88822E+01 +6.67917E-01
 -1.94361E+01 -1.56982E+01 +2.54364E+00 -3.07640E+01 +1.58043E+01 -3.63812E+01 +1.89524E+01 -2.93335E+01
 +1.75926E+01 -1.43856E+01 +1.64528E+01 -2.53672E-01 +1.51200E+01 +7.67942E+00 +1.07399E+01 +1.05812E+01
 +3.16136E+00 +1.23863E+01 -3.92770E+00 +1.37093E+01 -6.92550E+00 +1.06345E+01 -6.25455E+00 +3.62299E-03
 -5.42508E+00 -1.47889E+01 -6.29175E+00 -2.46574E+01 -6.25498E+00 -2.25733E+01 -1.07103E+00 -1.06593E+01
 +9.60519E+00 +1.00601E+00 +2.03181E+01 +3.38983E+00 +2.42052E+01 -3.22998E+00 +1.93751E+01 -9.82887E+00
 +1.05150E+01 -7.46983E+00 +3.96633E+00 +4.20106E+00 +1.56724E+00 +1.67691E+01 -9.80140E-02 +2.07753E+01
 -4.39977E+00 +1.35656E+01 -9.47649E+00 +2.89476E-01 -9.36602E+00 -1.15258E+01 -6.85167E-01 -1.75457E+01
 +1.23633E+01 -1.74450E+01 +2.06052E+01 -1.21884E+01 +1.81456E+01 -2.50357E+00 +8.05956E+00 +9.46458E+00
 -4.11519E-01 +1.84735E+01 -5.31139E-01 +1.85218E+01 +5.96220E+00 +8.42190E+00 +1.13010E+01 -5.15444E+00
 +9.67458E+00 -1.17142E+01 +2.53848E+00 -5.63265E+00 -3.70746E+00 +8.44955E+00 -4.54953E+00 +1.91514E+01
 -1.31401E+00 +1.80206E+01 +1.41255E+00 +6.48283E+00 +1.31902E+00 -6.20093E+00 +4.97073E-01 -1.15086E+01
 +2.15737E+00 -8.30149E+00 +6.20790E+00 -1.73187E+00 +9.05505E+00 +3.22101E+00 +7.84910E+00 +6.22353E+00
 +4.05970E+00 +9.80547E+00 +1.92673E+00 +1.43846E+01 +3.30877E+00 +1.65176E+01 +4.92200E+00 +1.26878E+01
 +1.63587E+00 +4.21914E+00 -7.31404E+00 -2.74909E+00 -1.60748E+01 -2.92142E+00 -1.69898E+01 +2.63408E+00
 -8.04855E+00 +7.19215E+00 +4.64445E+00 +4.98290E+00 +1.21815E+01 -2.91603E+00 +1.07991E+01 -9.43048E+00
 +4.60352E+00 -8.19104E+00 +6.18828E-01 +6.97977E-01 +1.53403E+00 +1.13239E+01 +3.59262E+00 +1.77283E+01
 +1.38041E+00 +1.84762E+01 -5.96489E+00 +1.57825E+01 -1.37281E+01 +1.13214E+01 -1.65012E+01 +4.28746E+00
 -1.33977E+01 -5.93704E+00 -8.06342E+00 -1.61273E+01 -3.99060E+00 -1.98895E+01 -8.15646E-01 -1.31896E+01
 +4.13227E+00 +7.40957E-01 +1.10217E+01 +1.28842E+01 +1.54110E+01 +1.57844E+01 +1.19266E+01 +9.91479E+00
 +2.02425E-01 +2.73940E+00 -1.34157E+01 +1.30321E+00 -2.07534E+01 +5.65285E+00 -1.86985E+01 +9.43399E+00
