 Created: 16-Jan-2021
 $NMID
 ID='D:\BASISSIMULATI'
 FMTDAT='(8E13.5)'
 VOLUME=   1.00000E+00
 TRAMP=   1.00000E+00
 $END
 +3.06254E+01 +3.00698E-02 +1.83042E+01 +2.27080E+01 -6.77460E+00 +2.34932E+01 -1.89388E+01 +2.76018E+00
 -6.26931E+00 -1.68837E+01 +1.71435E+01 -1.42457E+01 +2.60324E+01 +8.44162E+00 +1.02856E+01 +2.79859E+01
 -1.46383E+01 +2.44422E+01 -2.39082E+01 +1.77701E+00 -9.12184E+00 -1.64316E+01 +1.31398E+01 -1.16049E+01
 +1.87463E+01 +1.06134E+01 +1.14019E+00 +2.64257E+01 -2.19814E+01 +1.87360E+01 -2.72041E+01 -5.15028E+00
 -9.71124E+00 -2.12846E+01 +1.18973E+01 -1.40250E+01 +1.51074E+01 +7.85252E+00 -3.13040E+00 +2.05096E+01
 -2.34283E+01 +9.93197E+00 -2.42831E+01 -1.36066E+01 -4.40210E+00 -2.64010E+01 +1.61352E+01 -1.59917E+01
 +1.68764E+01 +6.05491E+00 -1.83393E+00 +1.63930E+01 -1.94573E+01 +4.21981E+00 -1.67854E+01 -1.76615E+01
 +4.14500E+00 -2.63608E+01 +2.23646E+01 -1.27297E+01 +1.98745E+01 +9.30380E+00 +2.29028E-01 +1.74052E+01
 -1.54147E+01 +4.03961E+00 -1.04285E+01 -1.59235E+01 +1.01123E+01 -2.08988E+01 +2.49379E+01 -5.04090E+00
 +1.87991E+01 +1.58697E+01 -1.82120E+00 +2.10029E+01 -1.56860E+01 +6.07538E+00 -8.96050E+00 -1.24550E+01
 +1.05849E+01 -1.47135E+01 +2.19221E+01 +1.96400E+00 +1.27210E+01 +2.04927E+01 -7.99037E+00 +2.19732E+01
 -1.94366E+01 +5.25952E+00 -1.07222E+01 -1.21081E+01 +8.06813E+00 -1.23076E+01 +1.66280E+01 +4.34037E+00
 +5.59704E+00 +1.99850E+01 -1.39082E+01 +1.79781E+01 -2.20818E+01 +8.24214E-02 -1.10215E+01 -1.56152E+01
 +7.30054E+00 -1.36305E+01 +1.37310E+01 +2.98261E+00 +1.84092E+00 +1.61113E+01 -1.56469E+01 +1.15660E+01
 -2.03276E+01 -6.30792E+00 -7.23023E+00 -1.94137E+01 +1.02659E+01 -1.48117E+01 +1.45503E+01 +2.02323E+00
 +2.01969E+00 +1.31912E+01 -1.34752E+01 +7.07570E+00 -1.52649E+01 -9.77935E+00 -1.13618E+00 -1.97607E+01
 +1.46374E+01 -1.25728E+01 +1.63191E+01 +4.27230E+00 +2.95493E+00 +1.35400E+01 -1.09476E+01 +6.22800E+00
 -1.07017E+01 -9.32985E+00 +3.40407E+00 -1.64256E+01 +1.67070E+01 -7.39195E+00 +1.55842E+01 +8.66608E+00
 +1.47153E+00 +1.55947E+01 -1.09364E+01 +6.97319E+00 -9.11054E+00 -7.49956E+00 +4.46427E+00 -1.23689E+01
 +1.51999E+01 -2.48325E+00 +1.17184E+01 +1.19290E+01 -2.49411E+00 +1.61431E+01 -1.30138E+01 +6.19882E+00
 -9.57279E+00 -7.28397E+00 +3.49085E+00 -1.03885E+01 +1.20738E+01 -2.96813E-01 +7.07349E+00 +1.20988E+01
 -6.36830E+00 +1.37581E+01 -1.45151E+01 +2.96715E+00 -9.37755E+00 -9.18943E+00 +3.23479E+00 -1.05539E+01
 +1.00645E+01 -4.05195E-01 +4.23392E+00 +1.01320E+01 -7.87452E+00 +9.86139E+00 -1.35585E+01 -9.75193E-01
 -7.02689E+00 -1.12719E+01 +4.85547E+00 -1.07729E+01 +9.98821E+00 -5.62710E-01 +3.60052E+00 +8.40290E+00
 -7.09754E+00 +6.84688E+00 -1.07020E+01 -3.37046E+00 -3.45013E+00 -1.15226E+01 +7.16873E+00 -9.30478E+00
 +1.04577E+01 +7.37985E-01 +3.56885E+00 +8.18696E+00 -5.86480E+00 +5.68676E+00 -7.92299E+00 -3.64516E+00
 -6.33940E-01 -9.79966E+00 +8.30447E+00 -6.37723E+00 +9.76197E+00 +2.99989E+00 +2.56207E+00 +8.77165E+00
 -5.63085E+00 +5.43409E+00 -6.49355E+00 -3.01290E+00 +4.38432E-01 -7.54913E+00 +7.63636E+00 -3.55427E+00
 +7.60826E+00 +4.66847E+00 +5.39113E-01 +8.67205E+00 -6.24041E+00 +4.65748E+00 -6.04434E+00 -2.87511E+00
 +4.01961E-01 -6.10140E+00 +6.06824E+00 -1.99124E+00 +5.08688E+00 +4.85522E+00 -1.34254E+00 +7.27711E+00
 -6.54119E+00 +2.96166E+00 -5.42144E+00 -3.46836E+00 +4.46249E-01 -5.52358E+00 +4.80787E+00 -1.52387E+00
 +3.33308E+00 +3.99090E+00 -2.12406E+00 +5.23627E+00 -5.78952E+00 +1.11030E+00 -4.05503E+00 -3.99460E+00
 +1.02542E+00 -4.98694E+00 +4.19444E+00 -1.25160E+00 +2.50835E+00 +3.05467E+00 -1.88061E+00 +3.53771E+00
 -4.28285E+00 -4.94911E-03 -2.37978E+00 -3.71907E+00 +1.65086E+00 -3.89232E+00 +3.70108E+00 -6.53457E-01
 +2.00456E+00 +2.50448E+00 -1.33018E+00 +2.52118E+00 -2.80468E+00 -2.36088E-01 -1.14629E+00 -2.70083E+00
 +1.68053E+00 -2.44291E+00 +2.79271E+00 +6.53964E-03 +1.33951E+00 +2.04423E+00 -9.32034E-01 +1.81959E+00
 -1.75044E+00 -6.65244E-02 -6.06995E-01 -1.52157E+00 +1.04471E+00 -1.23364E+00 +1.54250E+00 +2.05141E-01
 +6.49516E-01 +1.23992E+00 -5.28800E-01 +1.04112E+00 -9.12537E-01 +1.11320E-01 -4.48771E-01 -5.51624E-01
 +1.68504E-01 -5.36168E-01 +4.20151E-01 -1.72382E-01 +3.59972E-01 +1.17078E-01 +2.24690E-01 +2.78978E-01
 +9.82302E-03 +4.03988E-01 -3.63597E-01 +3.43666E-01 -6.35994E-01 -1.29575E-01 -3.25903E-01 -7.91730E-01
 +5.84863E-01 -9.24053E-01 +1.30211E+00 -8.87791E-02 +9.11595E-01 +1.11445E+00 -4.71358E-01 +1.41271E+00
 -1.50112E+00 +2.34837E-01 -8.94618E-01 -1.38880E+00 +1.01573E+00 -1.65848E+00 +2.31224E+00 +4.59225E-02
 +1.40174E+00 +2.20658E+00 -1.09517E+00 +2.52184E+00 -2.68389E+00 +3.94971E-01 -1.52870E+00 -2.13398E+00
 +1.39416E+00 -2.30954E+00 +3.01989E+00 +3.53545E-01 +1.34826E+00 +3.25100E+00 -2.21681E+00 +3.21541E+00
 -4.04364E+00 -5.17809E-02 -2.03380E+00 -3.35784E+00 +1.93201E+00 -3.17832E+00 +3.68582E+00 +5.22358E-01
 +1.11933E+00 +3.94814E+00 -3.34771E+00 +3.28390E+00 -5.03167E+00 -1.16024E+00 -1.88741E+00 -4.96613E+00
 +3.08558E+00 -4.08334E+00 +4.72804E+00 +7.72718E-01 +1.13935E+00 +4.57357E+00 -4.06448E+00 +3.11745E+00
 -5.29784E+00 -2.39490E+00 -8.92031E-01 -6.32104E+00 +4.88079E+00 -4.37217E+00 +6.04920E+00 +1.71255E+00
 +1.24260E+00 +5.70031E+00 -4.60291E+00 +3.29788E+00 -5.20456E+00 -3.15902E+00 +4.16491E-01 -6.87425E+00
 +6.63066E+00 -3.63529E+00 +6.89348E+00 +3.56814E+00 +6.78556E-01 +7.39989E+00 -5.69775E+00 +3.79670E+00
 -5.50884E+00 -3.57013E+00 +1.24152E+00 -6.88385E+00 +7.55069E+00 -2.33204E+00 +6.58513E+00 +5.67752E+00
 -1.05084E+00 +8.87736E+00 -7.67314E+00 +3.76889E+00 -6.40833E+00 -4.49370E+00 +1.49200E+00 -7.26430E+00
 +7.70125E+00 -1.45212E+00 +5.40824E+00 +7.01331E+00 -3.41065E+00 +9.16485E+00 -9.79295E+00 +2.39641E+00
 -7.04942E+00 -6.57389E+00 +2.09322E+00 -8.51950E+00 +8.09665E+00 -1.38342E+00 +4.49890E+00 +7.34130E+00
 -5.16402E+00 +8.26287E+00 -1.08107E+01 -3.18286E-02 -6.28245E+00 -9.25645E+00 +4.04599E+00 -9.90533E+00
 +9.60305E+00 -1.24836E+00 +4.61242E+00 +7.67839E+00 -5.69699E+00 +7.36522E+00 -1.03405E+01 -2.14756E+00
 -4.02869E+00 -1.10767E+01 +7.11284E+00 -9.97546E+00 +1.17249E+01 +3.03273E-01 +5.05495E+00 +9.27025E+00
 -5.89789E+00 +7.63185E+00 -9.50617E+00 -2.90027E+00 -1.66548E+00 -1.11819E+01 +9.72072E+00 -8.17701E+00
 +1.28071E+01 +3.48058E+00 +4.18727E+00 +1.20143E+01 -7.35823E+00 +8.70345E+00 -9.86200E+00 -2.89589E+00
 -6.92456E-01 -1.04686E+01 +1.05102E+01 -5.73631E+00 +1.17503E+01 +6.75801E+00 +1.24925E+00 +1.41879E+01
 -1.04983E+01 +8.76950E+00 -1.15299E+01 -3.97954E+00 -9.45246E-01 -1.08167E+01 +9.97874E+00 -4.55697E+00
 +9.44559E+00 +8.28600E+00 -2.47216E+00 +1.41258E+01 -1.37146E+01 +6.46082E+00 -1.27001E+01 -7.18725E+00
 -4.76953E-01 -1.29496E+01 +1.02001E+01 -5.05864E+00 +8.08951E+00 +7.99817E+00 -4.72211E+00 +1.21958E+01
 -1.48259E+01 +2.61808E+00 -1.14021E+01 -1.12518E+01 +2.39791E+00 -1.52722E+01 +1.25688E+01 -5.39621E+00
 +8.78648E+00 +7.97144E+00 -4.73833E+00 +1.07104E+01 -1.35106E+01 -2.56163E-01 -7.83145E+00 -1.36032E+01
 +6.97149E+00 -1.53005E+01 +1.59400E+01 -3.27847E+00 +1.00309E+01 +1.02686E+01 -4.36478E+00 +1.14934E+01
 -1.19643E+01 -6.30984E-01 -4.51410E+00 -1.31156E+01 +1.04901E+01 -1.24252E+01 +1.74878E+01 +1.34500E+00
 +9.05743E+00 +1.44220E+01 -6.24210E+00 +1.36235E+01 -1.26791E+01 +1.39667E-01 -3.73955E+00 -1.15998E+01
 +1.09861E+01 -8.92188E+00 +1.57087E+01 +5.80558E+00 +4.91605E+00 +1.75138E+01 -1.07648E+01 +1.40799E+01
 -1.55359E+01 -9.79733E-01 -4.88922E+00 -1.20697E+01 +9.61473E+00 -7.73043E+00 +1.23338E+01 +7.35583E+00
 -1.17336E-01 +1.71522E+01 -1.52289E+01 +1.09597E+01 -1.75490E+01 -5.35391E+00 -4.79918E+00 -1.53632E+01
 +9.67161E+00 -9.16383E+00 +1.07440E+01 +6.25882E+00 -2.68534E+00 +1.42474E+01 -1.64728E+01 +5.83637E+00
 -1.59206E+01 -1.08224E+01 -1.13139E+00 -1.88629E+01 +1.30110E+01 -1.02561E+01 +1.22946E+01 +5.77754E+00
 -1.99597E+00 +1.23237E+01 -1.43686E+01 +2.40537E+00 -1.12528E+01 -1.36850E+01 +4.80693E+00 -1.90542E+01
 +1.77195E+01 -7.81430E+00 +1.45666E+01 +8.72260E+00 -9.24029E-01 +1.37749E+01 -1.22260E+01 +2.56865E+00
 -7.22805E+00 -1.26571E+01 +9.10603E+00 -1.53829E+01 +1.98552E+01 -2.04819E+00 +1.37523E+01 +1.41756E+01
 -3.04946E+00 +1.70545E+01 -1.33445E+01 +4.19236E+00 -6.78319E+00 -1.04582E+01 +9.33339E+00 -1.11277E+01
 +1.76444E+01 +3.31536E+00 +8.82723E+00 +1.81432E+01 -8.64964E+00 +1.80832E+01 -1.73039E+01 +3.23004E+00
 -8.82543E+00 -1.10338E+01 +7.27457E+00 -1.00496E+01 +1.35785E+01 +4.84631E+00 +2.92632E+00 +1.77098E+01
 -1.40971E+01 +1.46035E+01 -2.01619E+01 -1.86425E+00 -9.23043E+00 -1.52295E+01 +7.15891E+00 -1.22975E+01
 +1.19140E+01 +3.13549E+00 +1.92826E-01 +1.42604E+01 -1.55586E+01 +8.78707E+00 -1.85793E+01 -8.23573E+00
 -5.25992E+00 -1.96639E+01 +1.10929E+01 -1.40973E+01 +1.41055E+01 +2.27133E+00 +1.36561E+00 +1.21326E+01
 -1.31038E+01 +5.10011E+00 -1.34854E+01 -1.14823E+01 +1.34294E+00 -2.02083E+01 +1.66388E+01 -1.17441E+01
 +1.71408E+01 +5.46358E+00 +2.92994E+00 +1.39970E+01 -1.07041E+01 +5.59339E+00 -9.21866E+00 -1.02972E+01
 +6.04266E+00 -1.64050E+01 +1.92787E+01 -5.64802E+00 +1.67010E+01 +1.15036E+01 +8.70983E-01 +1.79416E+01
 -1.20060E+01 +7.70811E+00 -8.96580E+00 -7.86423E+00 +6.25697E+00 -1.20131E+01 +1.71852E+01 -1.16066E-02
 +1.17949E+01 +1.59453E+01 -4.97872E+00 +1.94700E+01 -1.64125E+01 +7.02794E+00 -1.14018E+01 -8.44110E+00
 +4.04442E+00 -1.10385E+01 +1.31451E+01 +1.56319E+00 +5.85616E+00 +1.57719E+01 -1.07039E+01 +1.62876E+01
 -1.97149E+01 +2.02513E+00 -1.21657E+01 -1.28068E+01 +3.83237E+00 -1.35231E+01 +1.15658E+01 -1.97012E-01
 +3.12752E+00 +1.25183E+01 -1.24219E+01 +1.07135E+01 -1.85681E+01 -4.31265E+00 -8.54761E+00 -1.74699E+01
 +7.67167E+00 -1.56106E+01 +1.38257E+01 -1.15533E+00 +4.26086E+00 +1.05302E+01 -1.02867E+01 +7.17897E+00
 -1.39671E+01 -7.65905E+00 -2.32684E+00 -1.84093E+01 +1.31253E+01 -1.37253E+01 +1.69542E+01 +1.75684E+00
 +5.82653E+00 +1.23333E+01 -8.13663E+00 +7.59582E+00 -1.00676E+01 -6.82590E+00 +2.19064E+00 -1.52492E+01
 +1.59406E+01 -8.30857E+00 +1.69188E+01 +7.35832E+00 +4.10525E+00 +1.61051E+01 -9.32455E+00 +9.55980E+00
