 Created: 16-Jan-2021
 $NMID
 ID='D:\BASISSIMULATI'
 FMTDAT='(8E13.5)'
 VOLUME=   1.00000E+00
 TRAMP=   1.00000E+00
 $END
 +4.19816E+01 +6.81700E-01 +3.92432E+01 +1.40223E+01 +3.22265E+01 +2.55398E+01 +2.18805E+01 +3.38867E+01
 +9.55824E+00 +3.81602E+01 -3.17948E+00 +3.80107E+01 -1.47813E+01 +3.36689E+01 -2.39134E+01 +2.58902E+01
 -2.96267E+01 +1.58287E+01 -3.14630E+01 +4.86221E+00 -2.94869E+01 -5.60281E+00 -2.42441E+01 -1.43190E+01
 -1.66573E+01 -2.03509E+01 -7.87888E+00 -2.31746E+01 +8.75979E-01 -2.27153E+01 +8.49092E+00 -1.93211E+01
 +1.40830E+01 -1.36851E+01 +1.70951E+01 -6.72866E+00 +1.73384E+01 +5.33031E-01 +1.49840E+01 +7.12397E+00
 +1.05121E+01 +1.22227E+01 +4.62848E+00 +1.52473E+01 -1.83628E+00 +1.59035E+01 -8.03168E+00 +1.41958E+01
 -1.31835E+01 +1.04040E+01 -1.66725E+01 +5.03374E+00 -1.80900E+01 -1.25142E+00 -1.72682E+01 -7.70759E+00
 -1.42857E+01 -1.35893E+01 -9.45039E+00 -1.82233E+01 -3.26326E+00 -2.10726E+01 +3.63330E+00 -2.17863E+01
 +1.05186E+01 -2.02331E+01 +1.66639E+01 -1.65148E+01 +2.14042E+01 -1.09604E+01 +2.42073E+01 -4.09739E+00
 +2.47318E+01 +3.39664E+00 +2.28698E+01 +1.07604E+01 +1.87668E+01 +1.72281E+01 +1.28141E+01 +2.21136E+01
 +5.61431E+00 +2.48902E+01 -2.08152E+00 +2.52569E+01 -9.45707E+00 +2.31799E+01 -1.57264E+01 +1.89037E+01
 -2.02298E+01 +1.29278E+01 -2.25170E+01 +5.94866E+00 -2.24059E+01 -1.22449E+00 -2.00068E+01 -7.77205E+00
 -1.57086E+01 -1.29693E+01 -1.01263E+01 -1.62804E+01 -4.01732E+00 -1.74272E+01 +1.82202E+00 -1.64226E+01
 +6.66547E+00 -1.35626E+01 +9.95502E+00 -9.37947E+00 +1.13739E+01 -4.56035E+00 +1.08840E+01 +1.53839E-01
 +8.72178E+00 +4.07594E+00 +5.35483E+00 +6.66957E+00 +1.40552E+00 +7.62157E+00 -2.44582E+00 +6.87948E+00
 -5.56316E+00 +4.64944E+00 -7.44690E+00 +1.35600E+00 -7.80247E+00 -2.42887E+00 -6.57600E+00 -6.07568E+00
 -3.95303E+00 -8.99200E+00 -3.22201E-01 -1.07074E+01 +3.78892E+00 -1.09368E+01 +7.79490E+00 -9.61310E+00
 +1.11374E+01 -6.88780E+00 +1.33616E+01 -3.09961E+00 +1.41728E+01 +1.28082E+00 +1.34678E+01 +5.72098E+00
 +1.13372E+01 +9.70004E+00 +8.04184E+00 +1.27752E+01 +3.96806E+00 +1.46321E+01 -4.28894E-01 +1.51142E+01
 -4.68533E+00 +1.42294E+01 -8.38441E+00 +1.21345E+01 -1.11998E+01 +9.10426E+00 -1.29236E+01 +5.48896E+00
 -1.34770E+01 +1.66859E+00 -1.29054E+01 -1.99069E+00 -1.13602E+01 -5.17302E+00 -9.07205E+00 -7.63925E+00
 -6.31947E+00 -9.24209E+00 -3.39728E+00 -9.93050E+00 -5.87082E-01 -9.74472E+00 +1.86748E+00 -8.80384E+00
 +3.77986E+00 -7.28808E+00 +5.03339E+00 -5.41754E+00 +5.58779E+00 -3.42916E+00 +5.47905E+00 -1.55317E+00
 +4.81297E+00 +9.42836E-03 +3.75246E+00 +1.10692E+00 +2.49907E+00 +1.65266E+00 +1.26992E+00 +1.63476E+00
 +2.71868E-01 +1.11816E+00 -3.24645E-01 +2.37840E-01 -4.08794E-01 -8.16922E-01 +5.35243E-02 -1.82623E+00
 +1.01166E+00 -2.56885E+00 +2.33322E+00 -2.85360E+00 +3.81869E+00 -2.54856E+00 +5.22647E+00 -1.60373E+00
 +6.30548E+00 -6.33269E-02 +6.83104E+00 +1.93473E+00 +6.63888E+00 +4.17297E+00 +5.65219E+00 +6.38061E+00
 +3.89733E+00 +8.26876E+00 +1.50555E+00 +9.56959E+00 -1.30018E+00 +1.00739E+01 -4.23149E+00 +9.66181E+00
 -6.97071E+00 +8.32132E+00 -9.21156E+00 +6.15295E+00 -1.06988E+01 +3.35884E+00 -1.12613E+01 +2.18214E-01
 -1.08337E+01 -2.94727E+00 -9.46433E+00 -5.81355E+00 -7.30822E+00 -8.09394E+00 -4.60647E+00 -9.57348E+00
 -1.65528E+00 -1.01333E+01 +1.23113E+00 -9.76252E+00 +3.75873E+00 -8.55596E+00 +5.68821E+00 -6.69939E+00
 +6.86155E+00 -4.44378E+00 +7.21793E+00 -2.07270E+00 +6.79727E+00 +1.33228E-01 +5.73154E+00 +1.93032E+00
 +4.22524E+00 +3.14049E+00 +2.52761E+00 +3.67130E+00 +8.99873E-01 +3.52522E+00 -4.18531E-01 +2.79733E+00
 -1.24093E+00 +1.66149E+00 -1.45793E+00 +3.46786E-01 -1.05248E+00 -8.93417E-01 -1.03343E-01 -1.81606E+00
 +1.22377E+00 -2.22268E+00 +2.69702E+00 -1.98903E+00 +4.04902E+00 -1.08592E+00 +5.01384E+00 +4.11913E-01
 +5.36585E+00 +2.33093E+00 +4.95514E+00 +4.41815E+00 +3.73430E+00 +6.37299E+00 +1.77221E+00 +7.88806E+00
 -7.48172E-01 +8.69339E+00 -3.54885E+00 +8.59815E+00 -6.29082E+00 +7.52319E+00 -8.61910E+00 +5.51920E+00
 -1.02126E+01 +2.76666E+00 -1.08315E+01 -4.43304E-01 -1.03548E+01 -3.74525E+00 -8.80195E+00 -6.74826E+00
 -6.33405E+00 -9.09018E+00 -3.23484E+00 -1.04891E+01 +1.27514E-01 -1.07843E+01 +3.35140E+00 -9.95918E+00
 +6.05815E+00 -8.14412E+00 +7.94504E+00 -5.59635E+00 +8.82669E+00 -2.66177E+00 +8.65828E+00 +2.76063E-01
 +7.53740E+00 +2.85156E+00 +5.68441E+00 +4.76830E+00 +3.40523E+00 +5.83803E+00 +1.04283E+00 +6.00166E+00
 -1.07420E+00 +5.32969E+00 -2.67787E+00 +4.00317E+00 -3.59456E+00 +2.27923E+00 -3.76198E+00 +4.47975E-01
 -3.22789E+00 -1.21173E+00 -2.13248E+00 -2.47040E+00 -6.79045E-01 -3.17441E+00 +9.00934E-01 -3.25788E+00
 +2.38177E+00 -2.74024E+00 +3.57113E+00 -1.71182E+00 +4.32781E+00 -3.12410E-01 +4.56864E+00 +1.29229E+00
 +4.26614E+00 +2.93149E+00 +3.44012E+00 +4.44431E+00 +2.14729E+00 +5.68805E+00 +4.72500E-01 +6.54084E+00
 -1.47610E+00 +6.90153E+00 -3.56777E+00 +6.69028E+00 -5.64764E+00 +5.85276E+00 -7.53612E+00 +4.36953E+00
 -9.03329E+00 +2.26962E+00 -9.93142E+00 -3.54452E-01 -1.00369E+01 -3.33514E+00 -9.20024E+00 -6.42718E+00
 -7.35039E+00 -9.31832E+00 -4.52597E+00 -1.16559E+01 -8.96794E-01 -1.30888E+01 +3.23213E+00 -1.33196E+01
 +7.43889E+00 -1.21596E+01 +1.12265E+01 -9.57768E+00 +1.40851E+01 -5.73000E+00 +1.55664E+01 -9.65281E-01
 +1.53596E+01 +4.20168E+00 +1.33543E+01 +9.14686E+00 +9.68015E+00 +1.32185E+01 +4.71055E+00 +1.58322E+01
 -9.70857E-01 +1.65644E+01 -6.64092E+00 +1.52292E+01 -1.15354E+01 +1.19231E+01 -1.49609E+01 +7.02913E+00
 -1.64032E+01 +1.17548E+00 -1.56133E+01 -4.84651E+00 -1.26567E+01 -1.01940E+01 -7.91527E+00 -1.40973E+01
 -2.04046E+00 -1.59777E+01 +4.13742E+00 -1.55401E+01 +9.72968E+00 -1.28226E+01 +1.39213E+01 -8.19739E+00
 +1.60938E+01 -2.31909E+00 +1.59188E+01 +3.97076E+00 +1.34082E+01 +9.76794E+00 +8.91207E+00 +1.42396E+01
 +3.06471E+00 +1.67465E+01 -3.31071E+00 +1.69350E+01 -9.32527E+00 +1.47843E+01 -1.41543E+01 +1.06025E+01
 -1.71543E+01 +4.97440E+00 -1.79492E+01 -1.33037E+00 -1.64738E+01 -7.47311E+00 -1.29697E+01 -1.26662E+01
 -7.93677E+00 -1.62796E+01 -2.05060E+00 -1.79187E+01 +3.94006E+00 -1.74626E+01 +9.31825E+00 -1.50612E+01
 +1.34906E+01 -1.10943E+01 +1.60531E+01 -6.10241E+00 +1.68245E+01 -7.03155E-01 +1.58451E+01 +4.49377E+00
 +1.33464E+01 +8.95930E+00 +9.70007E+00 +1.22970E+01 +5.35656E+00 +1.42700E+01 +7.84844E-01 +1.48031E+01
 -3.57862E+00 +1.39649E+01 -7.36608E+00 +1.19377E+01 -1.02986E+01 +8.98155E+00 -1.21918E+01 +5.40089E+00
 -1.29524E+01 +1.51724E+00 -1.25690E+01 -2.35036E+00 -1.11046E+01 -5.89841E+00 -8.68962E+00 -8.84876E+00
 -5.51921E+00 -1.09589E+01 -1.85008E+00 -1.20354E+01 +2.00586E+00 -1.19526E+01 +5.69513E+00 -1.06723E+01
 +8.84667E+00 -8.26422E+00 +1.11064E+01 -4.91761E+00 +1.21798E+01 -9.41408E-01 +1.18770E+01 +3.25353E+00
 +1.01525E+01 +7.19086E+00 +7.13039E+00 +1.03820E+01 +3.10966E+00 +1.23902E+01 -1.45776E+00 +1.28964E+01
 -6.01402E+00 +1.17553E+01 -9.96439E+00 +9.03201E+00 -1.27587E+01 +5.00986E+00 -1.39735E+01 +1.65706E-01
 -1.33807E+01 -4.88614E+00 -1.09919E+01 -9.47483E+00 -7.06817E+00 -1.29672E+01 -2.09259E+00 -1.48609E+01
 +3.29194E+00 -1.48619E+01 +8.37144E+00 -1.29325E+01 +1.24626E+01 -9.30228E+00 +1.50118E+01 -4.43881E+00
 +1.56762E+01 +1.01793E+00 +1.43730E+01 +6.34737E+00 +1.12903E+01 +1.08522E+01 +6.85698E+00 +1.39580E+01
 +1.67696E+00 +1.52930E+01 -3.56114E+00 +1.47362E+01 -8.18449E+00 +1.24265E+01 -1.16309E+01 +8.73313E+00
 -1.35231E+01 +4.19310E+00 -1.37128E+01 -5.73420E-01 -1.22873E+01 -4.95528E+00 -9.54163E+00 -8.43559E+00
 -5.92186E+00 -1.06570E+01 -1.94991E+00 -1.14585E+01 +1.85603E+00 -1.08796E+01 +5.05324E+00 -9.13506E+00
 +7.32756E+00 -6.56547E+00 +8.52142E+00 -3.57523E+00 +8.63507E+00 -5.68304E-01 +7.80401E+00 +2.10715E+00
 +6.25936E+00 +4.19775E+00 +4.28013E+00 +5.56320E+00 +2.14661E+00 +6.17413E+00 +1.02584E-01 +6.09317E+00
 -1.66861E+00 +5.44578E+00 -3.05251E+00 +4.38789E+00 -3.99831E+00 +3.07735E+00 -4.50413E+00 +1.65402E+00
 -4.59853E+00 +2.30400E-01 -4.32365E+00 -1.10757E+00 -3.72419E+00 -2.29292E+00 -2.84416E+00 -3.26763E+00
 -1.73096E+00 -3.97466E+00 -4.43834E-01 -4.35579E+00 +9.37114E-01 -4.35660E+00 +2.30586E+00 -3.93804E+00
 +3.53258E+00 -3.09162E+00 +4.47460E+00 -1.85386E+00 +4.99516E+00 -3.15513E-01 +4.98705E+00 +1.37847E+00
 +4.39637E+00 +3.04008E+00 +3.24088E+00 +4.46022E+00 +1.61833E+00 +5.43841E+00 -2.98454E-01 +5.81537E+00
 -2.28027E+00 +5.50242E+00 -4.07193E+00 +4.50164E+00 -5.42968E+00 +2.91249E+00 -6.15928E+00 +9.22497E-01
 -6.14814E+00 -1.21716E+00 -5.38533E+00 -3.22753E+00 -3.96587E+00 -4.84348E+00 -2.07780E+00 -5.85396E+00
 +2.57353E-02 -6.13393E+00 +2.06486E+00 -5.66263E+00 +3.77529E+00 -4.52506E+00 +4.94744E+00 -2.89663E+00
 +5.45576E+00 -1.01385E+00 +5.27381E+00 +8.63525E-01 +4.47290E+00 +2.49241E+00 +3.20541E+00 +3.68150E+00
 +1.67632E+00 +4.31604E+00 +1.08389E-01 +4.36863E+00 -1.29267E+00 +3.89539E+00 -2.36713E+00 +3.01903E+00
 -3.01999E+00 +1.90302E+00 -3.22720E+00 +7.22037E-01 -3.02962E+00 -3.65893E-01 -2.51710E+00 -1.24079E+00
 -1.80678E+00 -1.83273E+00 -1.02019E+00 -2.12351E+00 -2.63582E-01 -2.13913E+00 +3.85383E-01 -1.93592E+00
 +8.82915E-01 -1.58402E+00 +1.21677E+00 -1.15199E+00 +1.39816E+00 -6.95598E-01 +1.45074E+00 -2.52508E-01
 +1.39994E+00 +1.57020E-01 +1.26525E+00 +5.24728E-01 +1.05717E+00 +8.46591E-01 +7.78994E-01 +1.11542E+00
 +4.32388E-01 +1.31620E+00 +2.47208E-02 +1.42570E+00 -4.24431E-01 +1.41663E+00 -8.79863E-01 +1.26520E+00
 -1.29190E+00 +9.60217E-01 -1.60245E+00 +5.11092E-01 -1.75495E+00 -4.76417E-02 -1.70626E+00 -6.56967E-01
 -1.43764E+00 -1.23972E+00 -9.62387E-01 -1.71183E+00 -3.27867E-01 -1.99649E+00 +3.88886E-01 -2.03855E+00
 +1.09170E+00 -1.81606E+00 +1.68018E+00 -1.34659E+00 +2.06633E+00 -6.86636E-01 +2.18979E+00 +7.59459E-02
 +2.02868E+00 +8.35408E-01 +1.60396E+00 +1.48503E+00 +9.76446E-01 +1.93444E+00 +2.36867E-01 +2.12417E+00
 -5.09095E-01 +2.03482E+00 -1.15808E+00 +1.68919E+00 -1.62545E+00 +1.14721E+00 -1.85795E+00 +4.94735E-01
 -1.84044E+00 -1.71546E-01 -1.59577E+00 -7.60197E-01 -1.17825E+00 -1.19920E+00 -6.62201E-01 -1.44576E+00
