 Created: 16-Jan-2021
 $NMID
 ID='D:\BASISSIMULATI'
 FMTDAT='(8E13.5)'
 VOLUME=   1.00000E+00
 TRAMP=   1.00000E+00
 $END
 +5.47847E+01 +1.18466E+00 +3.80235E+01 +2.16924E+01 +7.65102E-01 +3.19366E+01 -3.09288E+01 +2.63987E+01
 -3.61260E+01 +7.06293E+00 -1.37294E+01 -1.59695E+01 +1.82510E+01 -2.87559E+01 +3.72414E+01 -2.19614E+01
 +3.24417E+01 +1.66720E+00 +1.07236E+01 +2.72847E+01 -1.08856E+01 +3.73186E+01 -1.86610E+01 +2.44299E+01
 -1.08451E+01 -2.00741E+00 +3.75409E+00 -2.20700E+01 +1.40299E+01 -2.03417E+01 +1.42444E+01 +1.75730E+00
 +6.05475E+00 +2.66484E+01 -4.56915E+00 +3.43521E+01 -1.16479E+01 +1.85238E+01 -1.17747E+01 -8.29632E+00
 -4.88806E+00 -2.46628E+01 +5.63203E+00 -1.74045E+01 +1.36084E+01 +7.92634E+00 +1.26706E+01 +3.16465E+01
 +7.40323E-01 +3.55600E+01 -1.66081E+01 +1.68775E+01 -2.79156E+01 -1.03620E+01 -2.34181E+01 -2.66960E+01
 -3.54959E+00 -2.17961E+01 +1.90494E+01 -9.57333E-01 +2.74257E+01 +2.03473E+01 +1.33059E+01 +2.82827E+01
 -1.50555E+01 +1.94509E+01 -3.75467E+01 +1.17815E+00 -3.69859E+01 -1.50102E+01 -1.28016E+01 -2.07888E+01
 +1.76442E+01 -1.46124E+01 +3.18518E+01 -9.31400E-01 +1.93812E+01 +1.27461E+01 -1.01268E+01 +1.90475E+01
 -3.44811E+01 +1.37944E+01 -3.59747E+01 -1.36249E+00 -1.44619E+01 -1.83877E+01 +1.34373E+01 -2.63750E+01
 +2.76356E+01 -1.85665E+01 +1.94451E+01 +1.57152E+00 -3.25780E+00 +2.07921E+01 -2.33935E+01 +2.45472E+01
 -2.76742E+01 +8.20289E+00 -1.50908E+01 -1.79319E+01 +4.36721E+00 -3.49813E+01 +1.80433E+01 -2.95267E+01
 +1.88937E+01 -4.57284E+00 +8.39953E+00 +2.17842E+01 -6.10971E+00 +2.97620E+01 -1.63625E+01 +1.31893E+01
 -1.70602E+01 -1.54879E+01 -7.77421E+00 -3.46914E+01 +6.87256E+00 -3.02806E+01 +1.88079E+01 -6.14679E+00
 +2.03120E+01 +1.92986E+01 +9.04796E+00 +2.75420E+01 -8.90723E+00 +1.37088E+01 -2.14882E+01 -1.07729E+01
 -1.85147E+01 -2.77485E+01 +1.48342E-02 -2.59198E+01 +2.21357E+01 -8.04688E+00 +3.15233E+01 +1.26266E+01
 +1.98028E+01 +2.26353E+01 -5.95531E+00 +1.70407E+01 -2.73159E+01 +1.09590E+00 -2.79829E+01 -1.46871E+01
 -6.55965E+00 -2.13936E+01 +2.17222E+01 -1.60573E+01 +3.61782E+01 -2.11676E+00 +2.62931E+01 +1.28965E+01
 -3.95440E-01 +2.09004E+01 -2.42514E+01 +1.70760E+01 -2.84920E+01 +2.86077E+00 -1.13985E+01 -1.37451E+01
 +1.33489E+01 -2.20369E+01 +2.77242E+01 -1.54767E+01 +2.26738E+01 +2.80445E+00 +3.65313E+00 +2.07326E+01
 -1.48338E+01 +2.51602E+01 -2.04027E+01 +1.18625E+01 -1.09365E+01 -1.01890E+01 +5.49090E+00 -2.45893E+01
 +1.74183E+01 -1.97805E+01 +1.77225E+01 +1.50893E+00 +7.19096E+00 +2.35542E+01 -7.17601E+00 +2.93223E+01
 -1.68253E+01 +1.37221E+01 -1.62119E+01 -1.20809E+01 -5.41256E+00 -2.89262E+01 +9.80377E+00 -2.41788E+01
 +2.05361E+01 -1.23203E+00 +1.94334E+01 +2.32461E+01 +5.59077E+00 +3.19017E+01 -1.35489E+01 +1.92634E+01
 -2.57202E+01 -5.02395E+00 -2.17310E+01 -2.40024E+01 -2.67390E+00 -2.56667E+01 +1.94029E+01 -1.05530E+01
 +2.91103E+01 +1.00516E+01 +1.88619E+01 +2.27562E+01 -4.81539E+00 +2.07648E+01 -2.52763E+01 +7.03648E+00
 -2.77620E+01 -8.96300E+00 -1.05289E+01 -1.76556E+01 +1.36114E+01 -1.46621E+01 +2.68198E+01 -2.55701E+00
 +1.96364E+01 +1.10545E+01 -2.04232E+00 +1.78012E+01 -2.17033E+01 +1.32320E+01 -2.48289E+01 -2.56355E-01
 -9.59843E+00 -1.41721E+01 +1.22772E+01 -1.87641E+01 +2.47095E+01 -9.64147E+00 +1.90379E+01 +8.22596E+00
 -2.62386E-01 +2.27470E+01 -1.95380E+01 +2.27250E+01 -2.58994E+01 +6.42389E+00 -1.57133E+01 -1.59523E+01
 +3.83661E+00 -2.86515E+01 +2.02148E+01 -2.16810E+01 +2.36308E+01 +1.27842E+00 +1.25509E+01 +2.47366E+01
 -6.10041E+00 +3.22191E+01 -2.13826E+01 +1.82298E+01 -2.45632E+01 -7.62760E+00 -1.38901E+01 -2.75462E+01
 +4.39205E+00 -2.82848E+01 +1.94053E+01 -1.03314E+01 +2.19055E+01 +1.30818E+01 +1.01125E+01 +2.59132E+01
 -8.63960E+00 +2.05479E+01 -2.21378E+01 +2.28711E+00 -2.12891E+01 -1.54648E+01 -6.63569E+00 -2.10594E+01
 +1.15393E+01 -1.22047E+01 +2.02186E+01 +3.55889E+00 +1.30940E+01 +1.49260E+01 -4.53760E+00 +1.46099E+01
 -1.94214E+01 +3.63610E+00 -2.01516E+01 -1.00718E+01 -5.85654E+00 -1.72298E+01 +1.29278E+01 -1.31068E+01
 +2.20379E+01 -3.47316E-01 +1.43162E+01 +1.27254E+01 -4.93729E+00 +1.72536E+01 -2.17955E+01 +9.50288E+00
 -2.38974E+01 -6.34652E+00 -9.39790E+00 -2.02897E+01 +1.18102E+01 -2.26747E+01 +2.52370E+01 -1.08333E+01
 +2.19205E+01 +8.36703E+00 +4.35495E+00 +2.23799E+01 -1.55955E+01 +2.12623E+01 -2.48963E+01 +4.88389E+00
 -1.78435E+01 -1.62836E+01 +6.39779E-01 -2.79211E+01 +1.86151E+01 -2.17751E+01 +2.49027E+01 -1.69738E+00
 +1.59828E+01 +1.87485E+01 -2.09249E+00 +2.56511E+01 -1.76904E+01 +1.44809E+01 -2.09142E+01 -6.78525E+00
 -9.78766E+00 -2.33539E+01 +8.47123E+00 -2.39842E+01 +2.19738E+01 -8.64173E+00 +2.18025E+01 +1.18248E+01
 +7.95769E+00 +2.34657E+01 -1.04013E+01 +1.88055E+01 -2.08775E+01 +1.61214E+00 -1.61965E+01 -1.61020E+01
 +6.53510E-01 -2.24185E+01 +1.82294E+01 -1.33855E+01 +2.43946E+01 +4.69811E+00 +1.47534E+01 +1.97715E+01
 -4.18824E+00 +2.20534E+01 -1.94701E+01 +1.03377E+01 -2.06738E+01 -7.41108E+00 -7.14182E+00 -1.93925E+01
 +1.16499E+01 -1.77165E+01 +2.27562E+01 -3.55601E+00 +1.87110E+01 +1.36404E+01 +2.51425E+00 +2.24084E+01
 -1.46653E+01 +1.69295E+01 -2.12810E+01 +9.88470E-01 -1.32225E+01 -1.45279E+01 +3.61889E+00 -1.90195E+01
 +1.75714E+01 -9.45897E+00 +1.91549E+01 +7.47816E+00 +7.39768E+00 +2.00049E+01 -9.64125E+00 +1.94036E+01
 -2.03800E+01 +6.09136E+00 -1.75317E+01 -1.06879E+01 -3.03461E+00 -1.93211E+01 +1.31984E+01 -1.38900E+01
 +1.99385E+01 +1.78378E+00 +1.23037E+01 +1.68516E+01 -4.75942E+00 +2.09265E+01 -1.96722E+01 +1.11400E+01
 -2.20867E+01 -5.99566E+00 -1.00943E+01 -1.90473E+01 +8.26895E+00 -1.93287E+01 +2.04296E+01 -6.65137E+00
 +1.79572E+01 +1.05726E+01 +2.46916E+00 +2.08675E+01 -1.54339E+01 +1.72387E+01 -2.35011E+01 +1.83503E+00
 -1.62899E+01 -1.53285E+01 +1.17080E+00 -2.28621E+01 +1.69905E+01 -1.55761E+01 +2.06451E+01 +1.85523E+00
 +1.00420E+01 +1.77592E+01 -7.34186E+00 +2.12081E+01 -1.97619E+01 +9.55743E+00 -1.91088E+01 -9.46132E+00
 -6.07650E+00 -2.28151E+01 +1.06112E+01 -2.11491E+01 +2.00905E+01 -5.44906E+00 +1.63707E+01 +1.34534E+01
 +2.03724E+00 +2.23882E+01 -1.35164E+01 +1.51318E+01 -2.00935E+01 -3.17719E+00 -1.31985E+01 -1.96969E+01
 +2.97155E+00 -2.29790E+01 +1.80020E+01 -1.09516E+01 +2.18577E+01 +7.86442E+00 +1.15673E+01 +2.05646E+01
 -6.41417E+00 +1.88579E+01 -2.00855E+01 +4.47447E+00 -1.98566E+01 -1.25136E+01 -5.35086E+00 -2.08365E+01
 +1.38534E+01 -1.54517E+01 +2.45174E+01 -3.69628E-01 +1.89881E+01 +1.45008E+01 +8.42306E-01 +1.99176E+01
 -1.73733E+01 +1.29287E+01 -2.29572E+01 -1.69866E+00 -1.21379E+01 -1.46961E+01 +7.24040E+00 -1.79838E+01
 +2.14443E+01 -9.50852E+00 +2.07561E+01 +5.48556E+00 +6.24748E+00 +1.75396E+01 -1.14238E+01 +1.87989E+01
 -2.00107E+01 +8.18235E+00 -1.43506E+01 -7.49879E+00 +5.44370E-01 -1.76670E+01 +1.37637E+01 -1.50872E+01
 +1.64924E+01 -1.21913E+00 +7.78965E+00 +1.42875E+01 -5.57631E+00 +2.01733E+01 -1.44093E+01 +1.18305E+01
 -1.33199E+01 -4.90592E+00 -3.76722E+00 -1.76844E+01 +7.52092E+00 -1.67534E+01 +1.31190E+01 -2.50258E+00
 +9.42438E+00 +1.44986E+01 -1.33662E+00 +2.12908E+01 -1.24516E+01 +1.23516E+01 -1.66130E+01 -6.07783E+00
 -1.03917E+01 -2.05526E+01 +3.15591E+00 -2.04210E+01 +1.56350E+01 -5.66516E+00 +1.82216E+01 +1.32285E+01
 +7.75650E+00 +2.30216E+01 -1.01078E+01 +1.71156E+01 -2.36451E+01 -2.27082E-01 -2.27327E+01 -1.74048E+01
 -6.47259E+00 -2.36123E+01 +1.50895E+01 -1.56495E+01 +2.72454E+01 +8.38486E-01 +2.10035E+01 +1.56468E+01
 +1.91663E-02 +2.03645E+01 -2.14557E+01 +1.28434E+01 -2.85585E+01 -2.23121E+00 -1.65112E+01 -1.62728E+01
 +5.98897E+00 -2.14136E+01 +2.32442E+01 -1.46739E+01 +2.39594E+01 +2.07249E-01 +8.99731E+00 +1.44591E+01
 -1.00559E+01 +1.91709E+01 -1.99011E+01 +1.09931E+01 -1.49694E+01 -5.04360E+00 -4.24243E-01 -1.81858E+01
 +1.27345E+01 -1.91076E+01 +1.59874E+01 -6.83684E+00 +8.68579E+00 +9.92310E+00 -2.76759E+00 +1.87707E+01
 -1.02828E+01 +1.29058E+01 -9.51942E+00 -3.34386E+00 -1.88664E+00 -1.74447E+01 +7.28032E+00 -1.81969E+01
 +1.23138E+01 -4.58289E+00 +1.02495E+01 +1.31770E+01 +2.13965E+00 +2.14235E+01 -7.47236E+00 +1.36754E+01
 -1.26881E+01 -4.31453E+00 -9.48534E+00 -1.90269E+01 +1.31910E+00 -1.95525E+01 +1.34961E+01 -5.70301E+00
 +1.86084E+01 +1.22662E+01 +1.17848E+01 +2.16683E+01 -3.84810E+00 +1.66219E+01 -1.80750E+01 +1.60750E+00
 -2.03130E+01 -1.26452E+01 -7.75486E+00 -1.70760E+01 +1.14960E+01 -9.96793E+00 +2.35632E+01 +3.07469E+00
 +1.90233E+01 +1.37097E+01 +4.78693E-01 +1.61190E+01 -1.87974E+01 +9.70818E+00 -2.46107E+01 -1.43622E+00
 -1.26463E+01 -1.10718E+01 +8.14757E+00 -1.38120E+01 +2.23400E+01 -7.72191E+00 +1.96883E+01 +4.26662E+00
 +2.62296E+00 +1.51710E+01 -1.60570E+01 +1.75525E+01 -2.30904E+01 +8.52639E+00 -1.43589E+01 -7.16976E+00
 +2.92987E+00 -1.91701E+01 +1.63938E+01 -1.83173E+01 +1.75683E+01 -3.87024E+00 +7.06947E+00 +1.47562E+01
 -7.16812E+00 +2.40587E+01 -1.61231E+01 +1.64685E+01 -1.53282E+01 -3.33185E+00 -6.49284E+00 -2.12367E+01
 +4.71585E+00 -2.40964E+01 +1.22558E+01 -9.79029E+00 +1.24663E+01 +1.10046E+01 +5.35687E+00 +2.29222E+01
 -5.37865E+00 +1.75871E+01 -1.37090E+01 -2.88868E-01 -1.41875E+01 -1.69988E+01 -5.55845E+00 -2.05702E+01
 +7.37229E+00 -9.53417E+00 +1.59123E+01 +6.84320E+00 +1.33158E+01 +1.63552E+01 +3.90492E-01 +1.30276E+01
 -1.39414E+01 +6.57862E-01 -1.86351E+01 -1.11722E+01 -9.13238E+00 -1.45881E+01 +8.27189E+00 -8.44814E+00
 +2.04865E+01 +2.14187E+00 +1.76031E+01 +1.02509E+01 +1.04796E+00 +1.15562E+01 -1.69296E+01 +6.06069E+00
 -2.24991E+01 -2.86465E+00 -1.10793E+01 -1.04974E+01 +8.92390E+00 -1.26909E+01 +2.25578E+01 -7.61371E+00
 +1.98306E+01 +2.82527E+00 +3.16840E+00 +1.29580E+01 -1.48694E+01 +1.59581E+01 -2.14217E+01 +8.45720E+00
 -1.27441E+01 -5.93638E+00 +3.86839E+00 -1.77441E+01 +1.63785E+01 -1.78350E+01 +1.69499E+01 -4.70555E+00
 +6.69285E+00 +1.31581E+01 -6.50015E+00 +2.27015E+01 -1.42345E+01 +1.61166E+01 -1.28591E+01 -2.55195E+00
 -4.51591E+00 -1.97536E+01 +5.39346E+00 -2.25119E+01 +1.15969E+01 -8.53205E+00 +1.11546E+01 +1.17916E+01
 +4.26352E+00 +2.32767E+01 -5.78127E+00 +1.75915E+01 -1.35493E+01 -5.63182E-01 -1.39139E+01 -1.74557E+01
