 Created: 16-Jan-2021
 $NMID
 ID='D:\BASISSIMULATI'
 FMTDAT='(8E13.5)'
 VOLUME=   1.00000E+00
 TRAMP=   1.00000E+00
 $END
 +8.19485E+01 +2.48552E+00 +5.98165E+01 +5.00103E+01 +1.13385E+01 +6.72842E+01 -3.34420E+01 +4.51264E+01
 -4.75879E+01 -1.01877E+00 -2.40831E+01 -4.13878E+01 +2.03937E+01 -5.10198E+01 +5.68210E+01 -2.52558E+01
 +6.26139E+01 +1.81765E+01 +3.55766E+01 +5.13750E+01 -5.71586E+00 +5.44233E+01 -3.48055E+01 +2.76241E+01
 -3.46672E+01 -9.79764E+00 -8.10916E+00 -3.30860E+01 +2.51411E+01 -2.82494E+01 +4.21718E+01 -5.78135E-01
 +3.20384E+01 +2.97918E+01 +2.40882E+00 +4.18098E+01 -2.62676E+01 +2.74458E+01 -3.47509E+01 -3.47174E+00
 -1.76984E+01 -3.03275E+01 +1.31972E+01 -3.56411E+01 +3.73434E+01 -1.65093E+01 +3.89822E+01 +1.38187E+01
 +1.74083E+01 +3.49548E+01 -1.28634E+01 +3.28078E+01 -3.18023E+01 +8.61370E+00 -2.68968E+01 -2.21441E+01
 -1.04131E+00 -3.99483E+01 +2.96353E+01 -3.37877E+01 +4.63211E+01 -7.94424E+00 +3.94806E+01 +2.11247E+01
 +1.45813E+01 +3.55227E+01 -1.18452E+01 +2.72171E+01 -2.29915E+01 +2.73591E+00 -1.23558E+01 -2.14863E+01
 +1.25654E+01 -2.98399E+01 +3.55602E+01 -1.73468E+01 +4.22875E+01 +7.62907E+00 +2.92662E+01 +2.92219E+01
 +5.62344E+00 +3.44320E+01 -1.32413E+01 +2.12644E+01 -1.57454E+01 -4.65125E-01 -1.38539E+00 -1.59097E+01
 +1.93801E+01 -1.49474E+01 +3.23007E+01 +1.45333E+00 +2.87090E+01 +2.22477E+01 +1.09743E+01 +3.38228E+01
 -9.37826E+00 +2.89406E+01 -1.94528E+01 +1.12684E+01 -1.34409E+01 -7.33218E+00 +3.78405E+00 -1.47987E+01
 +2.01640E+01 -6.78225E+00 +2.45838E+01 +1.07042E+01 +1.41802E+01 +2.55230E+01 -3.96503E+00 +2.75926E+01
 -1.77480E+01 +1.55295E+01 -1.81943E+01 -2.61711E+00 -5.37353E+00 -1.49129E+01 +1.18186E+01 -1.35761E+01
 +2.17667E+01 -1.09591E-01 +1.79714E+01 +1.58550E+01 +3.35463E+00 +2.31476E+01 -1.18092E+01 +1.66100E+01
 -1.68835E+01 +5.38381E-01 -8.05460E+00 -1.42546E+01 +9.10903E+00 -1.77403E+01 +2.34057E+01 -7.41453E+00
 +2.55079E+01 +1.00322E+01 +1.41826E+01 +2.31994E+01 -2.92327E+00 +2.35790E+01 -1.44138E+01 +1.11786E+01
 -1.27204E+01 -5.56285E+00 +9.45755E-01 -1.54535E+01 +1.75293E+01 -1.19727E+01 +2.62489E+01 +2.52144E+00
 +2.17422E+01 +1.85532E+01 +7.45691E+00 +2.59797E+01 -6.91065E+00 +2.07318E+01 -1.20930E+01 +7.31737E+00
 -5.46740E+00 -4.51365E+00 +7.38958E+00 -6.57712E+00 +1.67899E+01 +2.16091E+00 +1.57854E+01 +1.50332E+01
 +5.03185E+00 +2.24882E+01 -7.70235E+00 +1.89135E+01 -1.30579E+01 +6.71117E+00 -6.81952E+00 -5.25681E+00
 +6.84198E+00 -7.86369E+00 +1.79880E+01 +1.68426E+00 +1.77390E+01 +1.74630E+01 +4.69438E+00 +2.84862E+01
 -1.35404E+01 +2.61112E+01 -2.49966E+01 +1.02441E+01 -2.12571E+01 -9.97136E+00 -3.41053E+00 -2.17090E+01
 +1.80653E+01 -1.67960E+01 +2.96731E+01 +2.62820E+00 +2.35429E+01 +2.49886E+01 +2.74685E+00 +3.63435E+01
 -2.02913E+01 +2.92171E+01 -3.14358E+01 +7.50930E+00 -2.37182E+01 -1.57615E+01 -1.77283E+00 -2.65349E+01
 +2.10444E+01 -1.84874E+01 +3.10357E+01 +3.08440E+00 +2.26887E+01 +2.47321E+01 +1.92648E+00 +3.34090E+01
 -1.79184E+01 +2.46009E+01 -2.47136E+01 +4.86014E+00 -1.51244E+01 -1.27546E+01 +3.64178E+00 -1.72392E+01
 +1.89126E+01 -6.59092E+00 +2.09728E+01 +1.13024E+01 +9.26249E+00 +2.42366E+01 -7.63669E+00 +2.38992E+01
 -1.80498E+01 +1.12430E+01 -1.51390E+01 -4.45706E+00 -1.39972E+00 -1.20974E+01 +1.32188E+01 -6.34357E+00
 +1.82112E+01 +8.78387E+00 +9.73360E+00 +2.27085E+01 -6.73683E+00 +2.55500E+01 -2.00850E+01 +1.49128E+01
 -2.10982E+01 -2.38108E+00 -8.77952E+00 -1.48064E+01 +8.83926E+00 -1.38875E+01 +1.99794E+01 +1.51457E-02
 +1.69934E+01 +1.78006E+01 +1.57051E+00 +2.76035E+01 -1.62543E+01 +2.27073E+01 -2.46971E+01 +6.11098E+00
 -1.80782E+01 -1.13446E+01 -6.95109E-01 -1.81197E+01 +1.59232E+01 -9.67845E+00 +2.06332E+01 +8.38698E+00
 +1.01434E+01 +2.39601E+01 -8.65766E+00 +2.64233E+01 -2.31463E+01 +1.38110E+01 -2.33281E+01 -5.69594E+00
 -8.61014E+00 -1.90329E+01 +1.15617E+01 -1.68919E+01 +2.37483E+01 -5.61798E-02 +1.93665E+01 +2.08282E+01
 +5.36543E-01 +3.20292E+01 -2.10007E+01 +2.57143E+01 -3.13262E+01 +5.26859E+00 -2.33801E+01 -1.66176E+01
 -1.71300E+00 -2.59685E+01 +2.02150E+01 -1.65205E+01 +2.85288E+01 +6.13232E+00 +1.77892E+01 +2.79738E+01
 -5.50417E+00 +3.54156E+01 -2.70218E+01 +2.38854E+01 -3.36784E+01 +6.47321E-01 -2.18338E+01 -1.99142E+01
 +6.10555E-01 -2.54549E+01 +1.94687E+01 -1.33567E+01 +2.33791E+01 +7.94427E+00 +1.08494E+01 +2.46892E+01
 -9.22502E+00 +2.67242E+01 -2.37074E+01 +1.37869E+01 -2.38470E+01 -4.82248E+00 -1.07050E+01 -1.67477E+01
 +6.05043E+00 -1.48005E+01 +1.49614E+01 -1.44422E+00 +1.05187E+01 +1.33040E+01 -3.35512E+00 +1.89561E+01
 -1.62972E+01 +1.17449E+01 -1.88124E+01 -2.92439E+00 -8.87705E+00 -1.43432E+01 +6.64437E+00 -1.39922E+01
 +1.67103E+01 -1.53497E+00 +1.37376E+01 +1.47780E+01 -1.02192E+00 +2.36082E+01 -1.80463E+01 +1.82621E+01
 -2.57593E+01 +1.45445E+00 -1.83112E+01 -1.61652E+01 +2.62212E-01 -2.28617E+01 +1.83510E+01 -1.35864E+01
 +2.41594E+01 +6.45607E+00 +1.34088E+01 +2.48827E+01 -7.68075E+00 +2.99599E+01 -2.61524E+01 +1.81701E+01
 -3.04802E+01 -3.38797E+00 -1.79291E+01 -2.13796E+01 +3.63187E+00 -2.46441E+01 +2.06676E+01 -1.12751E+01
 +2.25380E+01 +1.01677E+01 +8.22300E+00 +2.61029E+01 -1.30859E+01 +2.65560E+01 -2.78977E+01 +1.14553E+01
 -2.70396E+01 -9.42299E+00 -1.14532E+01 -2.28014E+01 +8.53625E+00 -2.04379E+01 +1.99734E+01 -4.35347E+00
 +1.56628E+01 +1.46030E+01 -1.23727E+00 +2.38897E+01 -1.93795E+01 +1.74515E+01 -2.67149E+01 -3.79789E-01
 -1.83995E+01 -1.77984E+01 +5.40464E-02 -2.33283E+01 +1.64454E+01 -1.33923E+01 +1.99618E+01 +5.33389E+00
 +8.34028E+00 +2.03423E+01 -1.06179E+01 +2.15816E+01 -2.42008E+01 +8.14010E+00 -2.32181E+01 -1.11135E+01
 -8.12829E+00 -2.33836E+01 +1.12176E+01 -2.04381E+01 +2.20798E+01 -4.10539E+00 +1.72843E+01 +1.48943E+01
 +1.26200E-02 +2.40361E+01 -1.82783E+01 +1.73045E+01 -2.54457E+01 -7.94614E-01 -1.67254E+01 -1.82106E+01
 +2.09777E+00 -2.33464E+01 +1.85320E+01 -1.27612E+01 +2.16803E+01 +6.55109E+00 +9.47228E+00 +2.18236E+01
 -9.98660E+00 +2.30066E+01 -2.38330E+01 +9.42435E+00 -2.30031E+01 -9.82382E+00 -8.22179E+00 -2.19601E+01
 +1.05486E+01 -1.90308E+01 +2.07916E+01 -3.14481E+00 +1.57644E+01 +1.50139E+01 -1.08222E+00 +2.33569E+01
 -1.84959E+01 +1.64284E+01 -2.49745E+01 -1.04339E+00 -1.64069E+01 -1.73976E+01 +1.27885E+00 -2.18660E+01
 +1.61682E+01 -1.17229E+01 +1.83532E+01 +5.98578E+00 +6.51450E+00 +1.92307E+01 -1.12705E+01 +1.90622E+01
 -2.29793E+01 +5.56148E+00 -2.06875E+01 -1.22557E+01 -5.84749E+00 -2.24799E+01 +1.16846E+01 -1.82547E+01
 +2.02040E+01 -2.35628E+00 +1.39418E+01 +1.46155E+01 -3.06281E+00 +2.12324E+01 -1.95587E+01 +1.28087E+01
 -2.44469E+01 -5.43127E+00 -1.40954E+01 -2.16781E+01 +5.18187E+00 -2.52029E+01 +2.11180E+01 -1.33821E+01
 +2.33944E+01 +6.48910E+00 +1.03469E+01 +2.17956E+01 -9.86083E+00 +2.26738E+01 -2.43781E+01 +8.37295E+00
 -2.38457E+01 -1.21870E+01 -8.38291E+00 -2.60354E+01 +1.24474E+01 -2.43720E+01 +2.56784E+01 -8.14692E+00
 +2.31350E+01 +1.25505E+01 +6.56909E+00 +2.48921E+01 -1.35176E+01 +2.14124E+01 -2.45796E+01 +4.65177E+00
 -1.99588E+01 -1.45823E+01 -2.98372E+00 -2.41708E+01 +1.53313E+01 -1.83657E+01 +2.34349E+01 -1.28635E+00
 +1.65893E+01 +1.59449E+01 -2.96388E-01 +2.24857E+01 -1.60958E+01 +1.47071E+01 -2.08196E+01 -1.69898E+00
 -1.20416E+01 -1.57090E+01 +3.77519E+00 -1.83249E+01 +1.58153E+01 -8.40546E+00 +1.61960E+01 +6.83931E+00
 +5.11795E+00 +1.69076E+01 -9.50888E+00 +1.51382E+01 -1.76084E+01 +3.09991E+00 -1.38324E+01 -1.06707E+01
 -1.11775E+00 -1.66436E+01 +1.14665E+01 -1.08609E+01 +1.50563E+01 +2.39591E+00 +7.13817E+00 +1.36331E+01
 -6.71447E+00 +1.47588E+01 -1.67020E+01 +4.72508E+00 -1.55960E+01 -9.69141E+00 -3.79793E+00 -1.85202E+01
 +1.08358E+01 -1.54745E+01 +1.83116E+01 -2.35826E+00 +1.33480E+01 +1.20404E+01 -9.22453E-01 +1.78532E+01
 -1.49447E+01 +1.08414E+01 -1.91119E+01 -4.64046E+00 -1.02308E+01 -1.84514E+01 +6.26820E+00 -2.13706E+01
 +1.98598E+01 -1.12204E+01 +2.18293E+01 +5.67230E+00 +1.09635E+01 +1.86159E+01 -5.71016E+00 +1.95168E+01
 -1.75524E+01 +8.06324E+00 -1.71920E+01 -8.21734E+00 -5.14011E+00 -1.89436E+01 +1.07770E+01 -1.75456E+01
 +2.06279E+01 -5.26356E+00 +1.87058E+01 +9.97968E+00 +6.88065E+00 +1.88846E+01 -7.01982E+00 +1.66646E+01
 -1.44944E+01 +5.73232E+00 -1.17314E+01 -6.34135E+00 -1.62129E+00 -1.19885E+01 +8.64091E+00 -8.41397E+00
 +1.25129E+01 +1.06055E+00 +8.23762E+00 +9.69670E+00 -4.69966E-01 +1.20326E+01 -7.38040E+00 +7.35508E+00
 -8.14192E+00 -2.53825E-01 -3.08688E+00 -5.09865E+00 +3.34039E+00 -3.94522E+00 +5.96938E+00 +1.82821E+00
 +2.66161E+00 +7.39889E+00 -4.17065E+00 +8.07912E+00 -9.30490E+00 +2.77318E+00 -8.47940E+00 -5.10615E+00
 -1.57168E+00 -9.92806E+00 +7.05424E+00 -7.80778E+00 +1.13669E+01 +4.69016E-01 +7.82611E+00 +9.63736E+00
 -1.92619E+00 +1.32809E+01 -1.17706E+01 +8.18330E+00 -1.49280E+01 -3.20258E+00 -8.49567E+00 -1.39557E+01
 +4.30684E+00 -1.69767E+01 +1.58269E+01 -9.68827E+00 +1.87202E+01 +3.95700E+00 +1.07845E+01 +1.56564E+01
 -3.30402E+00 +1.79271E+01 -1.46714E+01 +9.02573E+00 -1.58153E+01 -5.63415E+00 -5.55028E+00 -1.66786E+01
 +9.95342E+00 -1.67077E+01 +2.09005E+01 -5.19210E+00 +2.01244E+01 +1.09351E+01 +7.84991E+00 +2.15571E+01
 -8.23376E+00 +1.98914E+01 -1.78082E+01 +7.02199E+00 -1.46379E+01 -8.61758E+00 -7.71558E-01 -1.66313E+01
 +1.46313E+01 -1.14867E+01 +2.12203E+01 +3.71924E+00 +1.43018E+01 +1.91441E+01 -1.93288E+00 +2.46170E+01
 -1.70408E+01 +1.64053E+01 -2.11873E+01 -1.91596E-01 -1.17212E+01 -1.42459E+01 +4.95446E+00 -1.64319E+01
 +1.75564E+01 -5.29356E+00 +1.74339E+01 +1.16818E+01 +4.41473E+00 +2.29894E+01 -1.29789E+01 +2.08001E+01
 -2.31662E+01 +6.27427E+00 -1.92717E+01 -1.11186E+01 -3.80536E+00 -1.98870E+01 +1.29327E+01 -1.42354E+01
 +1.97136E+01 +1.97789E+00 +1.19343E+01 +1.77477E+01 -5.21828E+00 +2.22662E+01 -2.01618E+01 +1.22008E+01
 -2.26419E+01 -5.98756E+00 -1.06289E+01 -2.02803E+01 +8.24115E+00 -2.10929E+01 +2.16772E+01 -7.69657E+00
 +2.08787E+01 +1.12289E+01 +6.39777E+00 +2.32979E+01 -1.21846E+01 +2.05997E+01 -2.25575E+01 +4.93394E+00
 -1.77831E+01 -1.33625E+01 -8.49530E-01 -2.22070E+01 +1.73074E+01 -1.56856E+01 +2.49785E+01 +2.11266E+00
