 Created: 16-Jan-2021
 $NMID
 ID='D:\BASISSIMULATI'
 FMTDAT='(8E13.5)'
 VOLUME=   1.00000E+00
 TRAMP=   1.00000E+00
 $END
 +6.45784E+01 +5.33266E-01 +4.67430E+01 -2.74252E+01 +5.28661E+00 -3.18668E+01 -3.23058E+01 -6.62629E+00
 -4.22988E+01 +3.20213E+01 -2.10942E+01 +5.68169E+01 +1.28836E+01 +4.91068E+01 +3.29813E+01 +1.24820E+01
 +2.37468E+01 -2.93644E+01 -8.00295E+00 -4.90874E+01 -3.83668E+01 -3.47381E+01 -4.39485E+01 +2.12955E+00
 -1.90923E+01 +3.49694E+01 +1.96890E+01 +4.11762E+01 +4.52963E+01 +1.78750E+01 +3.93245E+01 -1.66175E+01
 +5.22428E+00 -3.64929E+01 -3.40468E+01 -2.72977E+01 -5.21580E+01 +3.66660E+00 -3.77797E+01 +3.27847E+01
 -2.15487E+00 +3.73689E+01 +2.93569E+01 +1.22158E+01 +3.55259E+01 -2.64253E+01 +1.41654E+01 -5.22742E+01
 -1.68501E+01 -4.75975E+01 -3.29584E+01 -1.56565E+01 -2.08811E+01 +2.17725E+01 +1.17580E+01 +3.98900E+01
 +4.19743E+01 +2.82306E+01 +4.79976E+01 -2.43545E+00 +2.49033E+01 -2.83611E+01 -1.18695E+01 -3.00963E+01
 -3.75094E+01 -6.31897E+00 -3.53570E+01 +2.55687E+01 -8.43824E+00 +4.22698E+01 +2.30825E+01 +3.14589E+01
 +3.64919E+01 +5.65814E-01 +2.26049E+01 -2.86829E+01 -8.09035E+00 -3.58696E+01 -3.33768E+01 -1.63720E+01
 -3.54082E+01 +1.55641E+01 -1.33509E+01 +3.71718E+01 +1.63557E+01 +3.33639E+01 +3.20641E+01 +7.19990E+00
 +2.24776E+01 -2.26845E+01 -5.43695E+00 -3.55964E+01 -3.16749E+01 -2.34428E+01 -3.75955E+01 +3.88360E+00
 -1.90992E+01 +2.59973E+01 +1.07459E+01 +2.67827E+01 +3.12733E+01 +5.78319E+00 +2.89458E+01 -2.17926E+01
 +6.69970E+00 -3.61982E+01 -1.85819E+01 -2.72646E+01 -2.83966E+01 -1.42205E+00 -1.57842E+01 +2.31909E+01
 +1.00187E+01 +2.97919E+01 +3.05178E+01 +1.47496E+01 +3.12924E+01 -1.02094E+01 +1.21178E+01 -2.67064E+01
 -1.32095E+01 -2.28930E+01 -2.69606E+01 -1.66893E+00 -2.00856E+01 +2.17504E+01 +1.63821E+00 +3.09183E+01
 +2.20999E+01 +1.98226E+01 +2.65274E+01 -3.13567E+00 +1.18923E+01 -2.14601E+01 -1.12741E+01 -2.24296E+01
 -2.66979E+01 -5.98044E+00 -2.40177E+01 +1.55970E+01 -5.92769E+00 +2.66770E+01 +1.41141E+01 +1.94188E+01
 +2.17247E+01 -9.22480E-01 +1.18115E+01 -2.00755E+01 -8.07181E+00 -2.50644E+01 -2.34077E+01 -1.32883E+01
 -2.31671E+01 +6.00459E+00 -7.51203E+00 +1.86565E+01 +1.26068E+01 +1.57894E+01 +2.34395E+01 -6.00128E-02
 +1.81522E+01 -1.70796E+01 +1.37081E+00 -2.28386E+01 -1.44848E+01 -1.31451E+01 -1.82257E+01 +5.16769E+00
 -7.73564E+00 +1.93256E+01 +8.86933E+00 +1.97536E+01 +1.93650E+01 +6.70528E+00 +1.62602E+01 -1.02147E+01
 +2.00631E+00 -1.90807E+01 -1.30085E+01 -1.40693E+01 -1.80486E+01 +6.99180E-01 -9.66931E+00 +1.44545E+01
 +6.00537E+00 +1.76349E+01 +1.78254E+01 +8.60570E+00 +1.75761E+01 -5.48007E+00 +5.64423E+00 -1.40936E+01
 -9.53184E+00 -1.09777E+01 -1.76420E+01 +1.47054E+00 -1.37748E+01 +1.41025E+01 -1.61761E+00 +1.76809E+01
 +9.52897E+00 +9.44817E+00 +1.15960E+01 -5.04946E+00 +3.46692E+00 -1.60429E+01 -8.45244E+00 -1.64760E+01
 -1.50598E+01 -6.81950E+00 -1.11834E+01 +5.56195E+00 +7.59901E-01 +1.18644E+01 +1.26035E+01 +8.10547E+00
 +1.63169E+01 -2.26530E+00 +9.65834E+00 -1.11337E+01 -2.40499E+00 -1.17232E+01 -1.13976E+01 -3.45514E+00
 -1.13904E+01 +7.76593E+00 -3.05718E+00 +1.39213E+01 +7.07660E+00 +1.06617E+01 +1.15061E+01 +3.45579E-01
 +7.14964E+00 -9.76540E+00 -2.58142E+00 -1.27476E+01 -1.04224E+01 -6.88118E+00 -1.05886E+01 +3.30643E+00
 -2.91680E+00 +1.04545E+01 +7.11479E+00 +9.68808E+00 +1.24043E+01 +2.00245E+00 +9.31396E+00 -6.64527E+00
 +1.71842E-01 -9.77055E+00 -8.53413E+00 -5.05845E+00 -1.08740E+01 +4.04585E+00 -5.66514E+00 +1.09183E+01
 +2.84489E+00 +1.05651E+01 +8.20132E+00 +3.16834E+00 +6.46521E+00 -6.14104E+00 -9.86868E-01 -1.10332E+01
 -8.55475E+00 -8.49143E+00 -1.05335E+01 -8.42068E-01 -5.24114E+00 +6.08938E+00 +3.80717E+00 +7.27885E+00
 +1.04659E+01 +2.11415E+00 +1.03566E+01 -5.26862E+00 +3.91482E+00 -9.09793E+00 -4.06112E+00 -6.21871E+00
 -7.95681E+00 +1.60606E+00 -5.36919E+00 +8.97642E+00 +1.28615E+00 +1.07474E+01 +6.68823E+00 +5.69884E+00
 +6.58655E+00 -2.64515E+00 +9.22235E-01 -8.58555E+00 -6.15494E+00 -8.30859E+00 -9.34410E+00 -2.50539E+00
 -6.07418E+00 +4.28928E+00 +1.60865E+00 +7.08780E+00 +8.49124E+00 +4.06908E+00 +9.90606E+00 -2.18914E+00
 +5.01834E+00 -6.70885E+00 -2.65701E+00 -5.83444E+00 -7.83223E+00 +5.18295E-02 -7.21887E+00 +6.78712E+00
 -1.77555E+00 +9.44741E+00 +4.14335E+00 +5.92184E+00 +6.05546E+00 -1.54496E+00 +2.62604E+00 -7.94008E+00
 -3.41915E+00 -9.03434E+00 -7.36617E+00 -4.33765E+00 -6.02212E+00 +2.64270E+00 -9.14140E-02 +6.97876E+00
 +6.30219E+00 +5.84128E+00 +8.58589E+00 +4.28130E-01 +5.03975E+00 -5.04271E+00 -1.95270E+00 -6.48622E+00
 -7.59161E+00 -2.93003E+00 -8.05492E+00 +2.83241E+00 -3.16022E+00 +6.35262E+00 +3.58896E+00 +4.83215E+00
 +7.55922E+00 -7.93916E-01 +6.27453E+00 -6.50241E+00 +1.07720E+00 -8.07725E+00 -3.98448E+00 -4.15484E+00
 -5.17775E+00 +2.77202E+00 -1.79717E+00 +8.09979E+00 +3.38719E+00 +8.34292E+00 +6.23210E+00 +3.53577E+00
 +4.31264E+00 -2.87989E+00 -1.25504E+00 -6.55212E+00 -6.57721E+00 -5.27815E+00 -7.77130E+00 -4.42447E-01
 -3.76451E+00 +4.14399E+00 +2.90414E+00 +5.10044E+00 +7.83945E+00 +1.93148E+00 +7.83549E+00 -2.68464E+00
 +3.04538E+00 -4.94321E+00 -3.23301E+00 -2.77555E+00 -6.94577E+00 +2.56341E+00 -6.10325E+00 +7.33032E+00
 -2.02863E+00 +7.94382E+00 +1.79738E+00 +3.54509E+00 +2.39053E+00 -3.35572E+00 -5.38176E-01 -8.59008E+00
 -4.42004E+00 -9.16660E+00 -5.78317E+00 -5.22761E+00 -2.87545E+00 +2.13892E-01 +2.95575E+00 +3.50134E+00
 +8.12326E+00 +2.89368E+00 +9.27886E+00 -3.58646E-01 +5.64130E+00 -3.12622E+00 -4.68565E-01 -2.82567E+00
 -5.23671E+00 +6.33407E-01 -5.94496E+00 +4.78112E+00 -2.71651E+00 +6.41781E+00 +1.76369E+00 +3.99238E+00
 +4.27763E+00 -1.19648E+00 +3.35627E+00 -5.83598E+00 +1.94141E-01 -6.86791E+00 -2.39676E+00 -3.57742E+00
 -2.16972E+00 +1.95720E+00 +8.50274E-01 +6.33206E+00 +4.36450E+00 +7.13178E+00 +5.47825E+00 +4.46005E+00
 +2.82688E+00 +6.59752E-01 -2.38243E+00 -1.49820E+00 -7.14875E+00 -8.12732E-01 -8.70710E+00 +1.58634E+00
 -6.36938E+00 +3.20529E+00 -1.90091E+00 +2.12279E+00 +1.78340E+00 -1.53325E+00 +2.63895E+00 -5.62873E+00
 +7.97776E-01 -7.53082E+00 -1.71354E+00 -5.97766E+00 -2.56803E+00 -1.97184E+00 -8.55445E-01 +1.91930E+00
 +2.30557E+00 +3.33357E+00 +4.65442E+00 +1.69076E+00 +4.48468E+00 -1.51373E+00 +1.90322E+00 -3.85376E+00
 -1.24378E+00 -3.69772E+00 -2.69564E+00 -1.28331E+00 -1.38004E+00 +1.58027E+00 +1.85087E+00 +2.90603E+00
 +4.84927E+00 +1.97830E+00 +5.68266E+00 -1.80019E-01 +3.93739E+00 -1.61796E+00 +9.09913E-01 -9.16939E-01
 -1.40071E+00 +1.76960E+00 -1.73521E+00 +4.83045E+00 -4.11945E-01 +6.34885E+00 +1.00667E+00 +5.43921E+00
 +9.28787E-01 +2.81265E+00 -1.07851E+00 +1.99604E-01 -3.97919E+00 -9.14013E-01 -6.02662E+00 -3.08327E-01
 -6.00767E+00 +9.10003E-01 -4.06487E+00 +1.20983E+00 -1.52759E+00 -1.90112E-01 +8.23547E-02 -2.73486E+00
 +1.19417E-01 -4.93990E+00 -8.14937E-01 -5.46512E+00 -1.43220E+00 -4.06090E+00 -7.93100E-01 -1.71236E+00
 +9.65171E-01 +8.91365E-02 +2.74131E+00 +3.87456E-01 +3.31649E+00 -6.43058E-01 +2.29023E+00 -1.94824E+00
 +4.09866E-01 -2.45420E+00 -9.41356E-01 -1.86517E+00 -7.10865E-01 -8.05536E-01 +1.10879E+00 -2.30053E-01
 +3.51870E+00 -5.83817E-01 +5.24103E+00 -1.37504E+00 +5.57342E+00 -1.49973E+00 +4.74547E+00 -8.10187E-02
 +3.55572E+00 +2.80685E+00 +2.62145E+00 +6.07635E+00 +1.85689E+00 +8.28118E+00 +5.97602E-01 +8.51446E+00
 -1.72970E+00 +6.90913E+00 -4.93256E+00 +4.40881E+00 -7.93466E+00 +2.02599E+00 -9.35905E+00 +1.73881E-01
 -8.41884E+00 -1.42758E+00 -5.47196E+00 -3.23956E+00 -1.82821E+00 -5.24062E+00 +1.05849E+00 -6.69253E+00
 +2.43321E+00 -6.58010E+00 +2.52602E+00 -4.42665E+00 +2.11956E+00 -8.56376E-01 +1.78362E+00 +2.57662E+00
 +1.40612E+00 +4.24311E+00 +4.02242E-01 +3.41026E+00 -1.56980E+00 +6.51933E-01 -3.98769E+00 -2.58769E+00
 -5.50528E+00 -4.95211E+00 -4.72934E+00 -5.95296E+00 -1.22251E+00 -6.02266E+00 +4.00539E+00 -5.85281E+00
 +8.93267E+00 -5.58732E+00 +1.16468E+01 -4.55671E+00 +1.14037E+01 -1.81889E+00 +8.90364E+00 +2.87868E+00
 +5.62221E+00 +8.48145E+00 +2.71536E+00 +1.29226E+01 +3.22552E-01 +1.42407E+01 -2.22416E+00 +1.17956E+01
 -5.48108E+00 +6.72451E+00 -9.02611E+00 +1.28209E+00 -1.13962E+01 -2.51021E+00 -1.09804E+01 -3.98141E+00
 -7.26639E+00 -3.93505E+00 -1.50243E+00 -3.74313E+00 +3.80202E+00 -4.12747E+00 +6.29263E+00 -4.57283E+00
 +5.17192E+00 -3.83265E+00 +1.61841E+00 -1.14447E+00 -2.07564E+00 +2.80451E+00 -4.04296E+00 +5.98125E+00
 -3.96863E+00 +6.22285E+00 -3.02200E+00 +2.75346E+00 -2.68936E+00 -3.09858E+00 -3.42048E+00 -8.56706E+00
 -4.14693E+00 -1.11072E+01 -3.08081E+00 -9.92905E+00 +7.73554E-01 -6.34674E+00 +6.54217E+00 -2.71330E+00
 +1.17185E+01 -7.19416E-01 +1.36542E+01 -2.88792E-01 +1.13014E+01 +1.38265E-01 +5.96694E+00 +2.16848E+00
 +5.01489E-01 +5.96553E+00 -2.54739E+00 +9.86387E+00 -2.53719E+00 +1.14373E+01 -9.66929E-01 +9.28176E+00
 -2.01146E-01 +4.20086E+00 -1.62490E+00 -1.13110E+00 -4.58584E+00 -3.86571E+00 -6.90371E+00 -2.87152E+00
 -6.57319E+00 +5.25479E-01 -3.39295E+00 +3.50054E+00 +7.14815E-01 +3.72431E+00 +2.98258E+00 +9.76975E-01
 +1.78004E+00 -2.76978E+00 -2.14120E+00 -4.85387E+00 -6.08200E+00 -3.91019E+00 -7.24546E+00 -8.89923E-01
 -4.70032E+00 +1.64126E+00 -4.63166E-02 +1.42079E+00 +3.71405E+00 -1.78310E+00 +4.30419E+00 -5.91742E+00
 +1.77893E+00 -8.08166E+00 -1.54912E+00 -6.63168E+00 -2.81077E+00 -2.41751E+00 -6.78548E-01 +1.77072E+00
 +3.65989E+00 +3.18029E+00 +7.36171E+00 +1.08387E+00 +7.99745E+00 -2.66459E+00 +5.31871E+00 -4.92914E+00
 +1.42807E+00 -3.53131E+00 -7.83422E-01 +1.17302E+00 +2.03777E-01 +6.51466E+00 +3.36578E+00 +9.37425E+00
 +5.83146E+00 +8.34875E+00 +4.97034E+00 +4.66544E+00 +3.71373E-01 +1.19782E+00 -5.73054E+00 +3.15575E-01
 -9.91658E+00 +2.14694E+00 -9.91045E+00 +4.52777E+00 -6.11609E+00 +4.67698E+00 -1.27488E+00 +1.36888E+00
 +1.49962E+00 -4.00369E+00 +8.89224E-01 -8.28573E+00 -1.81368E+00 -8.75152E+00 -3.80677E+00 -5.06393E+00
 -2.96295E+00 +4.17306E-01 +5.18042E-01 +4.22001E+00 +4.21392E+00 +4.11957E+00 +5.27389E+00 +6.00814E-01
 +2.59144E+00 -3.60376E+00 -2.24698E+00 -5.53962E+00 -5.96270E+00 -4.14104E+00 -5.84680E+00 -9.03853E-01
