 Created: 16-Jan-2021
 $NMID
 ID='D:\BASISSIMULATI'
 FMTDAT='(8E13.5)'
 VOLUME=   1.00000E+00
 TRAMP=   1.00000E+00
 $END
 +1.09827E+02 +5.07040E-01 +9.97418E+01 +4.36171E+01 +7.24685E+01 +7.81365E+01 +3.35171E+01 +9.75049E+01
 -9.30502E+00 +9.82680E+01 -4.75060E+01 +8.07621E+01 -7.36542E+01 +4.90121E+01 -8.28917E+01 +9.86902E+00
 -7.39044E+01 -2.84313E+01 -4.91490E+01 -5.79834E+01 -1.42963E+01 -7.28433E+01 +2.29891E+01 -7.02360E+01
 +5.46721E+01 -5.10907E+01 +7.40309E+01 -1.97973E+01 +7.70492E+01 +1.67599E+01 +6.32268E+01 +5.06808E+01
 +3.56425E+01 +7.47281E+01 +2.62958E-01 +8.38501E+01 -3.53526E+01 +7.62283E+01 -6.36737E+01 +5.36326E+01
 -7.88018E+01 +2.10127E+01 -7.77149E+01 -1.45822E+01 -6.08945E+01 -4.55244E+01 -3.22023E+01 -6.52430E+01
 +1.96249E+00 -6.96278E+01 +3.40440E+01 -5.79035E+01 +5.69546E+01 -3.27905E+01 +6.55977E+01 +8.10104E-02
 +5.79644E+01 +3.33770E+01 +3.55734E+01 +5.96301E+01 +3.15828E+00 +7.28408E+01 -3.23294E+01 +6.97690E+01
 -6.31923E+01 +5.06430E+01 -8.26218E+01 +1.91336E+01 -8.61506E+01 -1.84004E+01 -7.26154E+01 -5.42395E+01
 -4.44261E+01 -8.09219E+01 -7.08267E+00 -9.28144E+01 +3.19587E+01 -8.73040E+01 +6.48336E+01 -6.53601E+01
 +8.49071E+01 -3.13466E+01 +8.81572E+01 +7.87467E+00 +7.40151E+01 +4.43644E+01 +4.54853E+01 +7.07511E+01
 +8.52182E+00 +8.17583E+01 -2.92100E+01 +7.52941E+01 -5.99247E+01 +5.28762E+01 -7.73301E+01 +1.93051E+01
 -7.79248E+01 -1.83447E+01 -6.17103E+01 -5.22030E+01 -3.21712E+01 -7.52416E+01 +4.46988E+00 -8.27292E+01
 +4.05643E+01 -7.31995E+01 +6.86392E+01 -4.87341E+01 +8.29535E+01 -1.45023E+01 +8.06823E+01 +2.23410E+01
 +6.24840E+01 +5.41658E+01 +3.23346E+01 +7.44668E+01 -3.33287E+00 +7.92180E+01 -3.69982E+01 +6.76971E+01
 -6.16444E+01 +4.26110E+01 -7.22321E+01 +9.49924E+00 -6.67483E+01 -2.44565E+01 -4.66115E+01 -5.19615E+01
 -1.63501E+01 -6.71542E+01 +1.73750E+01 -6.68412E+01 +4.71942E+01 -5.11635E+01 +6.65984E+01 -2.35543E+01
 +7.13204E+01 +9.99983E+00 +6.02387E+01 +4.22363E+01 +3.56128E+01 +6.61622E+01 +2.60289E+00 +7.65397E+01
 -3.18243E+01 +7.09989E+01 -6.03706E+01 +5.05429E+01 -7.69510E+01 +1.93405E+01 -7.79819E+01 -1.61510E+01
 -6.31415E+01 -4.85444E+01 -3.54422E+01 -7.10781E+01 -6.00729E-01 -7.90397E+01 +3.41600E+01 -7.07579E+01
 +6.16263E+01 -4.79553E+01 +7.61060E+01 -1.53870E+01 +7.46204E+01 +2.01558E+01 +5.75254E+01 +5.12696E+01
 +2.84330E+01 +7.14884E+01 -6.55004E+00 +7.66347E+01 -4.01046E+01 +6.56881E+01 -6.52333E+01 +4.09910E+01
 -7.67228E+01 +7.74858E+00 -7.22292E+01 -2.70691E+01 -5.27577E+01 -5.61923E+01 -2.24400E+01 -7.35743E+01
 +1.23438E+01 -7.56527E+01 +4.43119E+01 -6.20858E+01 +6.68111E+01 -3.58097E+01 +7.52101E+01 -2.40787E+00
 +6.78626E+01 +3.10736E+01 +4.64397E+01 +5.76132E+01 +1.55637E+01 +7.16902E+01 -1.81780E+01 +7.04410E+01
 -4.76289E+01 +5.42508E+01 -6.65744E+01 +2.66599E+01 -7.10500E+01 -6.39414E+00 -6.01715E+01 -3.78383E+01
 -3.63134E+01 -6.09610E+01 -4.60016E+00 -7.08300E+01 +2.81820E+01 -6.53319E+01 +5.50209E+01 -4.56152E+01
 +7.01607E+01 -1.58457E+01 +7.03168E+01 +1.76749E+01 +5.53692E+01 +4.78381E+01 +2.83884E+01 +6.82279E+01
 -5.00959E+00 +7.44718E+01 -3.78435E+01 +6.51621E+01 -6.32331E+01 +4.21526E+01 -7.58430E+01 +1.01710E+01
 -7.30007E+01 -2.41725E+01 -5.52551E+01 -5.37692E+01 -2.62595E+01 -7.24987E+01 +7.99610E+00 -7.65067E+01
 +4.04396E+01 -6.50053E+01 +6.43952E+01 -4.04296E+01 +7.49743E+01 -7.92043E+00 +7.00891E+01 +2.57576E+01
 +5.08758E+01 +5.36341E+01 +2.14428E+01 +6.99877E+01 -1.20025E+01 +7.15342E+01 -4.24619E+01 +5.80985E+01
 -6.36140E+01 +3.26328E+01 -7.11329E+01 +5.79060E-01 -6.35806E+01 -3.12867E+01 -4.26901E+01 -5.62847E+01
 -1.29795E+01 -6.92326E+01 +1.92161E+01 -6.75254E+01 +4.70905E+01 -5.16666E+01 +6.48045E+01 -2.51419E+01
 +6.87122E+01 +6.33513E+00 +5.81193E+01 +3.60441E+01 +3.54138E+01 +5.76855E+01 +5.54517E+00 +6.67146E+01
 -2.50370E+01 +6.12979E+01 -4.97589E+01 +4.26935E+01 -6.33200E+01 +1.49747E+01 -6.28193E+01 -1.58419E+01
 -4.83691E+01 -4.30795E+01 -2.30715E+01 -6.08225E+01 +7.64093E+00 -6.51758E+01 +3.71566E+01 -5.50967E+01
 +5.90883E+01 -3.26224E+01 +6.86290E+01 -2.44618E+00 +6.35768E+01 +2.90681E+01 +4.48106E+01 +5.52269E+01
 +1.61164E+01 +7.04194E+01 -1.65985E+01 +7.13044E+01 -4.65394E+01 +5.75224E+01 -6.74470E+01 +3.17824E+01
 -7.49101E+01 -6.95110E-01 -6.72927E+01 -3.32614E+01 -4.60819E+01 -5.92235E+01 -1.55829E+01 -7.32372E+01
 +1.79736E+01 -7.24195E+01 +4.77253E+01 -5.69463E+01 +6.76017E+01 -3.00132E+01 +7.35804E+01 +2.83274E+00
 +6.45142E+01 +3.48486E+01 +4.23571E+01 +5.94960E+01 +1.17450E+01 +7.17939E+01 -2.09797E+01 +6.93404E+01
 -4.90934E+01 +5.27940E+01 -6.68878E+01 +2.57136E+01 -7.08468E+01 -6.20300E+00 -6.03573E+01 -3.63230E+01
 -3.78098E+01 -5.84672E+01 -8.07053E+00 -6.81945E+01 +2.25611E+01 -6.37116E+01 +4.76859E+01 -4.62213E+01
 +6.21495E+01 -1.96386E+01 +6.31137E+01 +1.02614E+01 +5.06320E+01 +3.70801E+01 +2.76103E+01 +5.51552E+01
 -8.34789E-01 +6.07541E+01 -2.84820E+01 +5.28519E+01 -4.93386E+01 +3.33300E+01 -5.89183E+01 +6.55609E+00
 -5.51934E+01 -2.15619E+01 -3.90194E+01 -4.48467E+01 -1.39455E+01 -5.81768E+01 +1.45498E+01 -5.85832E+01
 +4.02329E+01 -4.58875E+01 +5.74501E+01 -2.27448E+01 +6.23410E+01 +5.91753E+00 +5.36708E+01 +3.39446E+01
 +3.31073E+01 +5.52630E+01 +4.88167E+00 +6.51759E+01 -2.50959E+01 +6.13705E+01 -5.04787E+01 +4.44243E+01
 -6.58235E+01 +1.77024E+01 -6.77448E+01 -1.33334E+01 -5.56412E+01 -4.22603E+01 -3.18382E+01 -6.30356E+01
 -1.11824E+00 -7.12636E+01 +3.02645E+01 -6.51207E+01 +5.58803E+01 -4.57457E+01 +7.04586E+01 -1.70132E+01
 +7.09831E+01 +1.52634E+01 +5.73183E+01 +4.45329E+01 +3.22378E+01 +6.48594E+01 +8.47994E-01 +7.21468E+01
 -3.04699E+01 +6.49788E+01 -5.53797E+01 +4.49010E+01 -6.88957E+01 +1.60885E+01 -6.84018E+01 -1.55306E+01
 -5.41739E+01 -4.35097E+01 -2.92997E+01 -6.22186E+01 +9.85772E-01 -6.79989E+01 +3.04045E+01 -5.99013E+01
 +5.29489E+01 -3.98528E+01 +6.41263E+01 -1.22236E+01 +6.18773E+01 +1.71130E+01 +4.69752E+01 +4.20252E+01
 +2.28294E+01 +5.74109E+01 -5.26381E+00 +6.02563E+01 -3.12600E+01 +5.02468E+01 -4.96536E+01 +2.98016E+01
 -5.66397E+01 +3.53200E+00 -5.09068E+01 -2.27622E+01 -3.38948E+01 -4.33396E+01 -9.46663E+00 -5.37451E+01
 +1.69345E+01 -5.17565E+01 +3.94603E+01 -3.78514E+01 +5.31157E+01 -1.50966E+01 +5.48315E+01 +1.15154E+01
 +4.41243E+01 +3.61395E+01 +2.32050E+01 +5.33337E+01 -3.48914E+00 +5.92284E+01 -3.02370E+01 +5.23634E+01
 -5.12518E+01 +3.40117E+01 -6.19177E+01 +7.92455E+00 -5.97808E+01 -2.04530E+01 -4.50861E+01 -4.51276E+01
 -2.07447E+01 -6.08243E+01 +8.26218E+00 -6.41077E+01 +3.59188E+01 -5.41188E+01 +5.64326E+01 -3.27735E+01
 +6.54501E+01 -4.37866E+00 +6.09755E+01 +2.52545E+01 +4.37990E+01 +5.00144E+01 +1.73443E+01 +6.47596E+01
 -1.30329E+01 +6.63889E+01 -4.11503E+01 +5.44886E+01 -6.12760E+01 +3.14211E+01 -6.93117E+01 +1.83737E+00
 -6.36360E+01 -2.82851E+01 -4.54319E+01 -5.28770E+01 -1.84325E+01 -6.70275E+01 +1.18606E+01 -6.79894E+01
 +3.93220E+01 -5.57306E+01 +5.84695E+01 -3.29208E+01 +6.55897E+01 -4.35649E+00 +5.94883E+01 +2.40506E+01
 +4.17107E+01 +4.65092E+01 +1.61908E+01 +5.85492E+01 -1.15957E+01 +5.79362E+01 -3.57921E+01 +4.51104E+01
 -5.13904E+01 +2.30627E+01 -5.52728E+01 -3.32407E+00 -4.68454E+01 -2.83246E+01 -2.81356E+01 -4.65895E+01
 -3.33584E+00 -5.42737E+01 +2.21077E+01 -4.98382E+01 +4.26641E+01 -3.43581E+01 +5.38980E+01 -1.12729E+01
 +5.34097E+01 +1.43623E+01 +4.13384E+01 +3.69670E+01 +2.03220E+01 +5.16321E+01 -5.07418E+00 +5.51699E+01
 -2.93392E+01 +4.67953E+01 -4.71976E+01 +2.82934E+01 -5.47403E+01 +3.63978E+00 -5.02646E+01 -2.18467E+01
 -3.46447E+01 -4.26370E+01 -1.11558E+01 -5.41730E+01 +1.52136E+01 -5.38436E+01 +3.88142E+01 -4.15509E+01
 +5.45320E+01 -1.97461E+01 +5.88749E+01 +7.07467E+00 +5.07211E+01 +3.33079E+01 +3.15698E+01 +5.34167E+01
 +5.24180E+00 +6.30951E+01 -2.29090E+01 +6.01772E+01 -4.71075E+01 +4.51007E+01 -6.23598E+01 +2.08262E+01
 -6.54954E+01 -7.77120E+00 -5.58290E+01 -3.49095E+01 -3.53062E+01 -5.50979E+01 -8.09987E+00 -6.42736E+01
 +2.02548E+01 -6.06407E+01 +4.40082E+01 -4.50358E+01 +5.83850E+01 -2.07469E+01 +6.05671E+01 +7.17735E+00
 +5.02655E+01 +3.29815E+01 +2.97647E+01 +5.13983E+01 +3.43067E+00 +5.87368E+01 -2.32105E+01 +5.36352E+01
 -4.46302E+01 +3.73248E+01 -5.64477E+01 +1.33505E+01 -5.63321E+01 -1.31887E+01 -4.44704E+01 -3.67193E+01
 -2.35040E+01 -5.23633E+01 +2.04819E+00 -5.69545E+01 +2.67563E+01 -4.96869E+01 +4.54308E+01 -3.22635E+01
 +5.42152E+01 -8.51401E+00 +5.13891E+01 +1.64313E+01 +3.77166E+01 +3.72387E+01 +1.62661E+01 +4.95033E+01
 -8.25587E+00 +5.06795E+01 -3.05152E+01 +4.06125E+01 -4.56893E+01 +2.15604E+01 -5.04937E+01 -2.29530E+00
 -4.38792E+01 -2.57466E+01 -2.72525E+01 -4.36718E+01 -4.17571E+00 -5.21288E+01 +2.03928E+01 -4.91958E+01
 +4.11528E+01 -3.53845E+01 +5.35896E+01 -1.35359E+01 +5.49359E+01 +1.17770E+01 +4.47648E+01 +3.52142E+01
 +2.50881E+01 +5.17973E+01 -5.99315E-02 +5.79630E+01 -2.54670E+01 +5.23209E+01 -4.58362E+01 +3.59530E+01
 -5.68992E+01 +1.21947E+01 -5.63153E+01 -1.40591E+01 -4.41657E+01 -3.73754E+01 -2.29415E+01 -5.29191E+01
 +2.97367E+00 -5.74637E+01 +2.82176E+01 -5.00655E+01 +4.75671E+01 -3.22607E+01 +5.70258E+01 -7.74331E+00
 +5.46548E+01 +1.84062E+01 +4.09721E+01 +4.07812E+01 +1.88380E+01 +5.47743E+01 -7.14704E+00 +5.75336E+01
 -3.16068E+01 +4.85484E+01 -4.95110E+01 +2.97457E+01 -5.72213E+01 +5.07641E+00 -5.32411E+01 -2.03191E+01
 -3.85148E+01 -4.11894E+01 -1.62151E+01 -5.32691E+01 +8.93470E+00 -5.41629E+01 +3.16595E+01 -4.38340E+01
 +4.72413E+01 -2.45948E+01 +5.25049E+01 -6.05687E-01 +4.64738E+01 +2.30120E+01 +3.05613E+01 +4.12601E+01
 +8.25695E+00 +5.03157E+01 -1.56226E+01 +4.83305E+01 -3.59581E+01 +3.58101E+01 -4.84120E+01 +1.54950E+01
 -5.03430E+01 -8.22947E+00 -4.13585E+01 -3.02688E+01 -2.33909E+01 -4.59008E+01 -2.80748E-01 -5.17759E+01
 +2.30407E+01 -4.66241E+01 +4.15988E+01 -3.15209E+01 +5.14299E+01 -9.65659E+00 +5.04199E+01 +1.43406E+01
 +3.87511E+01 +3.53850E+01 +1.88640E+01 +4.90091E+01 -5.05818E+00 +5.23080E+01 -2.79724E+01 +4.45535E+01
 -4.50393E+01 +2.73491E+01 -5.26434E+01 +4.29315E+00 -4.91553E+01 -1.97780E+01 -3.52755E+01 -3.98069E+01
