 Created: 16-Jan-2021
 $NMID
 ID='D:\BASISSIMULATI'
 FMTDAT='(8E13.5)'
 VOLUME=   1.00000E+00
 TRAMP=   1.00000E+00
 $END
 +6.55056E+01 +3.02943E-01 +5.63002E+01 +6.15049E+00 +3.27209E+01 +1.47216E+01 +4.21935E+00 +2.58957E+01
 -1.88669E+01 +3.58404E+01 -3.00698E+01 +3.91113E+01 -2.90021E+01 +3.22956E+01 -2.01386E+01 +1.67557E+01
 -9.38657E+00 -1.45050E+00 -8.27456E-01 -1.45815E+01 +4.44532E+00 -1.73565E+01 +7.13451E+00 -9.70319E+00
 +7.60325E+00 +3.51008E+00 +4.73390E+00 +1.54422E+01 -3.20820E+00 +2.09776E+01 -1.63650E+01 +1.88769E+01
 -3.15685E+01 +1.12963E+01 -4.27714E+01 +1.41777E+00 -4.38193E+01 -8.86865E+00 -3.20331E+01 -1.95254E+01
 -1.02923E+01 -3.09166E+01 +1.39079E+01 -4.16983E+01 +3.20848E+01 -4.79948E+01 +3.90061E+01 -4.49315E+01
 +3.50223E+01 -2.98372E+01 +2.51611E+01 -5.02264E+00 +1.56834E+01 +2.19811E+01 +1.03663E+01 +4.13714E+01
 +8.84041E+00 +4.58115E+01 +7.86530E+00 +3.42845E+01 +4.44084E+00 +1.27675E+01 -1.53017E+00 -8.74062E+00
 -6.92756E+00 -2.11594E+01 -7.66997E+00 -2.04524E+01 -1.95236E+00 -8.76721E+00 +7.84072E+00 +7.69024E+00
 +1.59879E+01 +2.23994E+01 +1.66353E+01 +3.14919E+01 +7.34567E+00 +3.43783E+01 -9.27887E+00 +3.22202E+01
 -2.69255E+01 +2.58673E+01 -3.89815E+01 +1.50366E+01 -4.18628E+01 -6.45291E-01 -3.62632E+01 -1.97003E+01
 -2.57886E+01 -3.77632E+01 -1.41856E+01 -4.87201E+01 -3.20361E+00 -4.77231E+01 +7.48649E+00 -3.42912E+01
 +1.84981E+01 -1.33691E+01 +2.86635E+01 +6.64448E+00 +3.45438E+01 +1.79893E+01 +3.22122E+01 +1.74268E+01
 +2.02781E+01 +7.62350E+00 +2.01762E+00 -4.74777E+00 -1.51645E+01 -1.29594E+01 -2.30687E+01 -1.37830E+01
 -1.70813E+01 -8.55847E+00 +9.90327E-01 -1.36967E+00 +2.34316E+01 +4.20816E+00 +4.03180E+01 +7.49238E+00
 +4.43370E+01 +1.06383E+01 +3.40433E+01 +1.63347E+01 +1.38813E+01 +2.50156E+01 -8.71275E+00 +3.36807E+01
 -2.71523E+01 +3.72894E+01 -3.81993E+01 +3.18909E+01 -4.19793E+01 +1.74161E+01 -4.01255E+01 -1.77095E+00
 -3.38084E+01 -1.90062E+01 -2.32131E+01 -2.88255E+01 -8.70948E+00 -2.96387E+01 +7.48601E+00 -2.39771E+01
 +2.08507E+01 -1.63435E+01 +2.61686E+01 -1.02558E+01 +2.05028E+01 -6.50021E+00 +5.61319E+00 -3.64832E+00
 -1.20120E+01 -2.28429E-01 -2.39461E+01 +3.25184E+00 -2.40449E+01 +4.11150E+00 -1.16748E+01 -5.44438E-01
 +7.98605E+00 -1.10349E+01 +2.67722E+01 -2.35753E+01 +3.77898E+01 -3.14142E+01 +3.86005E+01 -2.82984E+01
 +3.15835E+01 -1.22904E+01 +2.15599E+01 +1.24516E+01 +1.24522E+01 +3.71971E+01 +5.21298E+00 +5.27468E+01
 -1.76952E+00 +5.38243E+01 -1.03488E+01 +4.13060E+01 -2.02473E+01 +2.11866E+01 -2.84638E+01 +1.13584E+00
 -3.09765E+01 -1.31728E+01 -2.55883E+01 -1.99017E+01 -1.39003E+01 -2.03873E+01 -9.37140E-01 -1.69775E+01
 +7.47727E+00 -1.11875E+01 +7.96555E+00 -3.47267E+00 +1.39588E+00 +5.49965E+00 -7.88672E+00 +1.34474E+01
 -1.48257E+01 +1.64696E+01 -1.65575E+01 +1.09184E+01 -1.35840E+01 -3.89104E+00 -8.59048E+00 -2.40514E+01
 -3.93293E+00 -4.19727E+01 +2.85718E-01 -4.97319E+01 +6.09425E+00 -4.31128E+01 +1.55405E+01 -2.39715E+01
 +2.81411E+01 +5.55368E-01 +3.98826E+01 +2.16155E+01 +4.47897E+01 +3.29341E+01 +3.83292E+01 +3.33989E+01
 +2.05656E+01 +2.66189E+01 -3.03447E+00 +1.80278E+01 -2.38696E+01 +1.15446E+01 -3.43698E+01 +7.88023E+00
 -3.16870E+01 +5.31331E+00 -1.88242E+01 +2.04137E+00 -2.68158E+00 -1.79161E+00 +9.66334E+00 -3.92875E+00
 +1.41966E+01 -1.80660E+00 +1.10031E+01 +5.03134E+00 +2.91958E+00 +1.37703E+01 -6.86326E+00 +1.94299E+01
 -1.64508E+01 +1.76764E+01 -2.51585E+01 +7.54660E+00 -3.21489E+01 -7.73450E+00 -3.52653E+01 -2.24371E+01
 -3.13829E+01 -3.14649E+01 -1.83861E+01 -3.29536E+01 +2.50750E+00 -2.87209E+01 +2.58976E+01 -2.24203E+01
 +4.38730E+01 -1.67870E+01 +4.96274E+01 -1.19300E+01 +4.10434E+01 -5.83676E+00 +2.20716E+01 +3.33601E+00
 +9.41004E-01 +1.49179E+01 -1.38848E+01 +2.51561E+01 -1.77344E+01 +2.90585E+01 -1.15059E+01 +2.35952E+01
 -3.67272E-01 +1.01620E+01 +9.58710E+00 -5.44211E+00 +1.45634E+01 -1.57424E+01 +1.43106E+01 -1.55083E+01
 +1.09586E+01 -4.55797E+00 +6.63528E+00 +1.21937E+01 +1.73161E+00 +2.74001E+01 -4.95852E+00 +3.50015E+01
 -1.44662E+01 +3.28222E+01 -2.57280E+01 +2.27396E+01 -3.51454E+01 +8.73328E+00 -3.81977E+01 -5.60316E+00
 -3.21753E+01 -1.84012E+01 -1.82083E+01 -2.90675E+01 -1.11993E+00 -3.68199E+01 +1.29624E+01 -3.97291E+01
 +1.98186E+01 -3.53447E+01 +1.91723E+01 -2.26769E+01 +1.43118E+01 -4.09241E+00 +9.63099E+00 +1.45248E+01
 +7.77635E+00 +2.59731E+01 +8.28956E+00 +2.53219E+01 +8.57085E+00 +1.28162E+01 +6.37100E+00 -5.76873E+00
 +1.96204E+00 -2.17526E+01 -1.64098E+00 -2.77878E+01 -6.75774E-01 -2.13522E+01 +6.46027E+00 -5.58449E+00
 +1.74125E+01 +1.28397E+01 +2.65508E+01 +2.73568E+01 +2.79006E+01 +3.44811E+01 +1.85955E+01 +3.45151E+01
 +7.30538E-01 +2.99965E+01 -1.95361E+01 +2.33026E+01 -3.50855E+01 +1.51920E+01 -4.12727E+01 +5.19015E+00
 -3.77197E+01 -6.73079E+00 -2.76343E+01 -1.87003E+01 -1.54102E+01 -2.70818E+01 -4.24096E+00 -2.83485E+01
 +4.76517E+00 -2.15118E+01 +1.17122E+01 -9.36036E+00 +1.63363E+01 +2.54321E+00 +1.72290E+01 +8.69529E+00
 +1.26737E+01 +6.63155E+00 +2.56272E+00 -1.80406E+00 -1.01354E+01 -1.17055E+01 -1.97810E+01 -1.80638E+01
 -2.05660E+01 -1.85505E+01 -9.83638E+00 -1.43943E+01 +9.81043E+00 -8.91560E+00 +3.11406E+01 -4.84929E+00
 +4.55191E+01 -2.36052E+00 +4.70587E+01 +8.61589E-01 +3.53735E+01 +7.51624E+00 +1.54375E+01 +1.81008E+01
 -5.23120E+00 +2.97023E+01 -2.03120E+01 +3.71555E+01 -2.72021E+01 +3.59618E+01 -2.71065E+01 +2.51441E+01
 -2.30962E+01 +8.19147E+00 -1.77309E+01 -8.56363E+00 -1.18844E+01 -1.91746E+01 -5.34776E+00 -2.09704E+01
 +1.59109E+00 -1.54435E+01 +7.09278E+00 -6.79824E+00 +8.29660E+00 +7.05121E-01 +3.23664E+00 +4.83792E+00
 -7.20579E+00 +5.71976E+00 -1.88664E+01 +4.49987E+00 -2.59988E+01 +1.68423E+00 -2.42799E+01 -3.45286E+00
 -1.33116E+01 -1.18534E+01 +2.98962E+00 -2.28567E+01 +1.84392E+01 -3.31323E+01 +2.78559E+01 -3.75298E+01
 +2.95724E+01 -3.17006E+01 +2.57102E+01 -1.50034E+01 +2.02015E+01 +8.22369E+00 +1.59815E+01 +3.00920E+01
 +1.32482E+01 +4.27322E+01 +9.88606E+00 +4.20812E+01 +3.64094E+00 +2.97532E+01 -5.57475E+00 +1.19699E+01
 -1.49466E+01 -3.74949E+00 -2.02069E+01 -1.21781E+01 -1.83656E+01 -1.22764E+01 -9.90521E+00 -6.60073E+00
 +1.07454E+00 +9.99695E-01 +8.95102E+00 +7.69000E+00 +9.64815E+00 +1.25215E+01 +2.79230E+00 +1.56249E+01
 -8.31886E+00 +1.67290E+01 -1.87874E+01 +1.44331E+01 -2.48091E+01 +6.99016E+00 -2.52876E+01 -5.89646E+00
 -2.15221E+01 -2.16752E+01 -1.54851E+01 -3.52443E+01 -8.14064E+00 -4.11403E+01 +8.97679E-01 -3.64580E+01
 +1.21563E+01 -2.26945E+01 +2.45716E+01 -5.25020E+00 +3.47662E+01 +9.25649E+00 +3.82216E+01 +1.63237E+01
 +3.18745E+01 +1.55859E+01 +1.65284E+01 +1.03834E+01 -2.63509E+00 +5.28919E+00 -1.80829E+01 +3.25498E+00
 -2.35482E+01 +4.18604E+00 -1.72225E+01 +5.72495E+00 -2.67375E+00 +5.52029E+00 +1.30404E+01 +3.28932E+00
 +2.29459E+01 +1.19026E+00 +2.33636E+01 +2.23614E+00 +1.50558E+01 +7.86952E+00 +1.95749E+00 +1.64272E+01
 -1.13976E+01 +2.36454E+01 -2.20206E+01 +2.49842E+01 -2.89925E+01 +1.83172E+01 -3.24522E+01 +5.26877E+00
 -3.22082E+01 -9.64198E+00 -2.72829E+01 -2.14680E+01 -1.68500E+01 -2.73242E+01 -1.82689E+00 -2.73797E+01
 +1.42696E+01 -2.39029E+01 +2.62103E+01 -1.92320E+01 +2.94853E+01 -1.42069E+01 +2.29037E+01 -8.16057E+00
 +9.66506E+00 -3.64160E-01 -3.96069E+00 +8.30272E+00 -1.17433E+01 +1.49059E+01 -1.06310E+01 +1.58381E+01
 -2.09423E+00 +9.28140E+00 +9.05859E+00 -2.90418E+00 +1.75799E+01 -1.53239E+01 +2.05709E+01 -2.14529E+01
 +1.85110E+01 -1.70584E+01 +1.40935E+01 -2.65057E+00 +9.87215E+00 +1.65298E+01 +6.42457E+00 +3.30313E+01
 +2.27620E+00 +4.07810E+01 -4.46607E+00 +3.77269E+01 -1.40347E+01 +2.61812E+01 -2.40557E+01 +1.09592E+01
 -3.05207E+01 -3.31332E+00 -3.01191E+01 -1.40453E+01 -2.23979E+01 -2.07887E+01 -1.02888E+01 -2.40059E+01
 +1.39443E+00 -2.37627E+01 +8.55406E+00 -1.94979E+01 +9.85844E+00 -1.10455E+01 +7.00265E+00 +1.08089E-02
 +3.14904E+00 +9.96169E+00 +7.17448E-01 +1.42711E+01 +6.24521E-02 +1.00199E+01 -1.24596E-01 -1.99880E+00
 -1.11842E+00 -1.70197E+01 -2.54252E+00 -2.83199E+01 -2.16196E+00 -3.05182E+01 +2.59930E+00 -2.22944E+01
 +1.23912E+01 -6.94724E+00 +2.45533E+01 +9.50679E+00 +3.37853E+01 +2.15159E+01 +3.47324E+01 +2.65609E+01
 +2.50406E+01 +2.56944E+01 +7.02010E+00 +2.19823E+01 -1.31751E+01 +1.80881E+01 -2.84563E+01 +1.46734E+01
 -3.41499E+01 +1.05888E+01 -2.99179E+01 +4.52126E+00 -1.93053E+01 -3.25037E+00 -7.42476E+00 -1.03796E+01
 +1.67297E+00 -1.36950E+01 +6.40592E+00 -1.13452E+01 +7.29425E+00 -4.34118E+00 +5.50397E+00 +3.65296E+00
 +1.62246E+00 +8.25791E+00 -4.37635E+00 +6.85287E+00 -1.20717E+01 +8.27218E-03 -1.94864E+01 -9.01840E+00
 -2.31134E+01 -1.63434E+01 -1.94667E+01 -1.96844E+01 -7.36070E+00 -1.93068E+01 +1.05949E+01 -1.71632E+01
 +2.84960E+01 -1.49640E+01 +3.96638E+01 -1.26507E+01 +3.98904E+01 -8.43526E+00 +2.95611E+01 -4.32931E-01
 +1.33921E+01 +1.12693E+01 -2.06851E+00 +2.36677E+01 -1.17088E+01 +3.18944E+01 -1.40222E+01 +3.18102E+01
 -1.10639E+01 +2.25839E+01 -6.49325E+00 +7.59978E+00 -3.13364E+00 -6.98733E+00 -1.62915E+00 -1.52865E+01
 -8.91637E-01 -1.45535E+01 +2.48790E-01 -6.29662E+00 +1.57068E+00 +4.90575E+00 +1.33267E+00 +1.40031E+01
 -2.38320E+00 +1.78599E+01 -9.84796E+00 +1.61197E+01 -1.87815E+01 +1.03533E+01 -2.51707E+01 +2.42445E+00
 -2.54239E+01 -6.61026E+00 -1.85123E+01 -1.63343E+01 -6.69169E+00 -2.58842E+01 +5.70532E+00 -3.30675E+01
 +1.46546E+01 -3.47083E+01 +1.84894E+01 -2.83202E+01 +1.83416E+01 -1.41101E+01 +1.67983E+01 +4.13614E+00
 +1.57914E+01 +2.01858E+01 +1.52256E+01 +2.81506E+01 +1.33014E+01 +2.54450E+01 +8.27217E+00 +1.41783E+01
 +3.41249E-01 +1.05170E-01 -7.74591E+00 -1.03053E+01 -1.19948E+01 -1.30121E+01 -9.62050E+00 -8.01309E+00
 -1.09424E+00 +1.33405E+00 +9.62498E+00 +1.06323E+01 +1.69605E+01 +1.68452E+01 +1.66450E+01 +1.93461E+01
 +7.98189E+00 +1.92165E+01 -5.86994E+00 +1.76010E+01 -1.96681E+01 +1.44808E+01 -2.87641E+01 +8.80010E+00
 -3.10820E+01 -2.00949E-01 -2.73788E+01 -1.15409E+01 -1.99518E+01 -2.21712E+01 -1.09233E+01 -2.82303E+01
 -1.34757E+00 -2.71946E+01 +8.37885E+00 -1.95297E+01 +1.73847E+01 -8.68397E+00 +2.36285E+01 +6.87211E-01
