 Created: 16-Jan-2021
 $NMID
 ID='D:\BASISSIMULATI'
 FMTDAT='(8E13.5)'
 VOLUME=   1.00000E+00
 TRAMP=   1.00000E+00
 $END
 +2.89957E+01 +1.33436E-01 +2.70410E+01 +9.64985E+00 +2.17644E+01 +1.76343E+01 +1.41046E+01 +2.29207E+01
 +5.38664E+00 +2.48587E+01 -2.94150E+00 +2.34226E+01 -9.59058E+00 +1.91949E+01 -1.36731E+01 +1.32275E+01
 -1.48589E+01 +6.81402E+00 -1.34128E+01 +1.21919E+00 -1.01105E+01 -2.57661E+00 -6.05131E+00 -4.06658E+00
 -2.40941E+00 -3.30231E+00 -1.76650E-01 -8.58850E-01 +4.96043E-02 +2.31006E+00 -1.81011E+00 +5.09453E+00
 -5.30705E+00 +6.48062E+00 -9.56758E+00 +5.77866E+00 -1.34869E+01 +2.78008E+00 -1.59715E+01 -2.18940E+00
 -1.61789E+01 -8.33054E+00 -1.37052E+01 -1.45315E+01 -8.68025E+00 -1.95949E+01 -1.75329E+00 -2.24832E+01
 +6.02890E+00 -2.25318E+01 +1.34245E+01 -1.95863E+01 +1.92382E+01 -1.40366E+01 +2.25518E+01 -6.74148E+00
 +2.28977E+01 +1.13882E+00 +2.03409E+01 +8.36791E+00 +1.54537E+01 +1.38691E+01 +9.19177E+00 +1.69248E+01
 +2.69698E+00 +1.72994E+01 -2.93024E+00 +1.52630E+01 -6.84310E+00 +1.15140E+01 -8.60208E+00 +7.01768E+00
 -8.24062E+00 +2.79753E+00 -6.23182E+00 -2.77970E-01 -3.36574E+00 -1.66865E+00 -5.65166E-01 -1.26155E+00
 +1.32041E+00 +6.23021E-01 +1.69920E+00 +3.31708E+00 +3.62136E-01 +5.96225E+00 -2.47645E+00 +7.70421E+00
 -6.22904E+00 +7.88289E+00 -1.00640E+01 +6.17882E+00 -1.30849E+01 +2.68579E+00 -1.45225E+01 -2.10410E+00
 -1.38987E+01 -7.39851E+00 -1.11297E+01 -1.22647E+01 -6.54709E+00 -1.58174E+01 -8.34848E-01 -1.73954E+01
 +5.10429E+00 -1.66917E+01 +1.03246E+01 -1.38110E+01 +1.40189E+01 -9.24511E+00 +1.56691E+01 -3.77156E+00
 +1.51367E+01 +1.70089E+00 +1.26758E+01 +6.30859E+00 +8.86891E+00 +9.39487E+00 +4.50044E+00 +1.06255E+01
 +3.94913E-01 +1.00361E+01 -2.74588E+00 +8.00422E+00 -4.47432E+00 +5.15411E+00 -4.67148E+00 +2.21645E+00
 -3.55156E+00 -1.27659E-01 -1.59804E+00 -1.38552E+00 +5.53012E-01 -1.34695E+00 +2.25661E+00 -1.15951E-01
 +2.99898E+00 +1.92440E+00 +2.50547E+00 +4.20441E+00 +7.94889E-01 +6.09663E+00 -1.82929E+00 +7.05328E+00
 -4.84712E+00 +6.72379E+00 -7.63411E+00 +5.02865E+00 -9.59269E+00 +2.17563E+00 -1.02757E+01 -1.38346E+00
 -9.47712E+00 -5.04500E+00 -7.27188E+00 -8.17487E+00 -3.99907E+00 -1.02334E+01 -1.92573E-01 -1.08786E+01
 +3.52493E+00 -1.00282E+01 +6.56233E+00 -7.86852E+00 +8.47051E+00 -4.81077E+00 +9.02121E+00 -1.40540E+00
 +8.24001E+00 +1.76744E+00 +6.38864E+00 +4.20836E+00 +3.90233E+00 +5.58845E+00 +1.29656E+00 +5.80136E+00
 -9.37001E-01 +4.96932E+00 -2.42415E+00 +3.40397E+00 -2.97348E+00 +1.53211E+00 -2.60180E+00 -1.97060E-01
 -1.51650E+00 -1.40396E+00 -6.08532E-02 -1.85141E+00 +1.36507E+00 -1.48468E+00 +2.39069E+00 -4.32499E-01
 +2.75065E+00 +1.02924E+00 +2.33554E+00 +2.54181E+00 +1.20838E+00 +3.74171E+00 -4.14463E-01 +4.33620E+00
 -2.21249E+00 +4.16121E+00 -3.82909E+00 +3.21097E+00 -4.94400E+00 +1.63492E+00 -5.33551E+00 -2.95978E-01
 -4.92083E+00 -2.24534E+00 -3.76776E+00 -3.87781E+00 -2.07683E+00 -4.92232E+00 -1.38996E-01 -5.22025E+00
 +1.72171E+00 -4.74992E+00 +3.20873E+00 -3.62423E+00 +4.10517E+00 -2.06333E+00 +4.30817E+00 -3.49150E-01
 +3.84027E+00 +1.22860E+00 +2.83722E+00 +2.42438E+00 +1.51603E+00 +3.07717E+00 +1.30627E-01 +3.13265E+00
 -1.07575E+00 +2.64460E+00 -1.91266E+00 +1.75678E+00 -2.27173E+00 +6.70183E-01 -2.13899E+00 -3.97241E-01
 -1.58946E+00 -1.25050E+00 -7.66413E-01 -1.75011E+00 +1.49510E-01 -1.83223E+00 +9.75230E-01 -1.51374E+00
 +1.55763E+00 -8.83080E-01 +1.79819E+00 -7.93138E-02 +1.66631E+00 +7.35661E-01 +1.20014E+00 +1.40671E+00
 +4.95829E-01 +1.81173E+00 -3.12056E-01 +1.88067E+00 -1.07517E+00 +1.60480E+00 -1.65680E+00 +1.03558E+00
 -1.95409E+00 +2.73928E-01 -1.91393E+00 -5.47713E-01 -1.54060E+00 -1.28765E+00 -8.94184E-01 -1.81796E+00
 -8.06105E-02 -2.04500E+00 +7.65347E-01 -1.92444E+00 +1.50142E+00 -1.46874E+00 +2.00054E+00 -7.46044E-01
 +2.17165E+00 +1.29664E-01 +1.97537E+00 +1.01570E+00 +1.43210E+00 +1.76302E+00 +6.20906E-01 +2.24042E+00
 -3.31228E-01 +2.35700E+00 -1.26850E+00 +2.07912E+00 -2.03128E+00 +1.43875E+00 -2.48314E+00 +5.31076E-01
 -2.53554E+00 -4.98775E-01 -2.16552E+00 -1.47859E+00 -1.42295E+00 -2.23800E+00 -4.25222E-01 -2.63888E+00
 +6.60680E-01 -2.60155E+00 +1.64607E+00 -2.12198E+00 +2.35411E+00 -1.27581E+00 +2.65287E+00 -2.07906E-01
 +2.48182E+00 +8.91732E-01 +1.86600E+00 +1.82185E+00 +9.14633E-01 +2.40759E+00 -1.96617E-01 +2.53490E+00
 -1.25704E+00 +2.17474E+00 -2.06057E+00 +1.39167E+00 -2.44627E+00 +3.34557E-01 -2.33164E+00 -7.89932E-01
 -1.73165E+00 -1.75638E+00 -7.59104E-01 -2.36502E+00 +3.94707E-01 -2.48281E+00 +1.49593E+00 -2.07256E+00
 +2.31415E+00 -1.20389E+00 +2.66943E+00 -4.28418E-02 +2.47092E+00 +1.17865E+00 +1.73874E+00 +2.20780E+00
 +6.03918E-01 +2.82210E+00 -7.14379E-01 +2.87618E+00 -1.95057E+00 +2.33448E+00 -2.84547E+00 +1.28274E+00
 -3.19972E+00 -8.51099E-02 -2.91683E+00 -1.50267E+00 -2.02670E+00 -2.68299E+00 -6.83996E-01 -3.37639E+00
 +8.59073E-01 -3.42267E+00 +2.30078E+00 -2.78665E+00 +3.34950E+00 -1.56930E+00 +3.78308E+00 +8.60771E-03
 +3.49567E+00 +1.64765E+00 +2.52212E+00 +3.02807E+00 +1.03443E+00 +3.87369E+00 -6.89830E-01 +4.00835E+00
 -2.32122E+00 +3.39335E+00 -3.54373E+00 +2.13761E+00 -4.11848E+00 +4.78013E-01 -3.93287E+00 -1.26660E+00
 -3.02465E+00 -2.75883E+00 -1.57562E+00 -3.71083E+00 +1.24108E-01 -3.94300E+00 +1.73461E+00 -3.42129E+00
 +2.93537E+00 -2.26491E+00 +3.49131E+00 -7.22555E-01 +3.30172E+00 +8.78394E-01 +2.42188E+00 +2.19941E+00
 +1.05250E+00 +2.96143E+00 -5.01298E-01 +3.00377E+00 -1.89321E+00 +2.31901E+00 -2.80832E+00 +1.05630E+00
 -3.03007E+00 -5.08093E-01 -2.48753E+00 -2.02718E+00 -1.27294E+00 -3.15524E+00 +3.74562E-01 -3.62070E+00
 +2.11611E+00 -3.28456E+00 +3.58169E+00 -2.17229E+00 +4.44630E+00 -4.72059E-01 +4.49789E+00 +1.50060E+00
 +3.68311E+00 +3.36495E+00 +2.12103E+00 +4.75133E+00 +8.17941E-02 +5.37608E+00 -2.06574E+00 +5.09976E+00
 -3.92685E+00 +3.95642E+00 -5.15956E+00 +2.14793E+00 -5.54276E+00 +4.23261E-03 -5.02011E+00 -2.08244E+00
 -3.71040E+00 -3.73590E+00 -1.88246E+00 -4.67098E+00 +1.00434E-01 -4.74964E+00 +1.85503E+00 -4.00676E+00
 +3.05621E+00 -2.64048E+00 +3.50264E+00 -9.68903E-01 +3.15625E+00 +6.37532E-01 +2.14773E+00 +1.83407E+00
 +7.46746E-01 +2.37381E+00 -6.96697E-01 +2.15906E+00 -1.82755E+00 +1.26114E+00 -2.36190E+00 -9.53465E-02
 -2.14818E+00 -1.58053E+00 -1.20060E+00 -2.82957E+00 +3.02133E-01 -3.52056E+00 +2.05273E+00 -3.44383E+00
 +3.67830E+00 -2.54819E+00 +4.81743E+00 -9.54477E-01 +5.19556E+00 +1.06642E+00 +4.68284E+00 +3.14672E+00
 +3.32272E+00 +4.89498E+00 +1.32531E+00 +5.97463E+00 -9.73068E-01 +6.17142E+00 -3.17592E+00 +5.43628E+00
 -4.90446E+00 +3.89477E+00 -5.87160E+00 +1.82146E+00 -5.93694E+00 -4.15390E-01 -5.13173E+00 -2.42730E+00
 -3.64904E+00 -3.88208E+00 -1.80159E+00 -4.56776E+00 +4.38643E-02 -4.43115E+00 +1.54176E+00 -3.58332E+00
 +2.43706E+00 -2.27155E+00 +2.61451E+00 -8.23919E-01 +2.11805E+00 +4.21656E-01 +1.13671E+00 +1.18895E+00
 -3.95470E-02 +1.32080E+00 -1.08446E+00 +8.10438E-01 -1.70687E+00 -1.99180E-01 -1.71387E+00 -1.44780E+00
 -1.05281E+00 -2.61477E+00 +1.76694E-01 -3.38841E+00 +1.74276E+00 -3.53328E+00 +3.32895E+00 -2.94144E+00
 +4.59965E+00 -1.65709E+00 +5.26948E+00 +1.30258E-01 +5.16230E+00 +2.12246E+00 +4.24803E+00 +3.97159E+00
 +2.64969E+00 +5.34868E+00 +6.19679E-01 +6.00836E+00 -1.50966E+00 +5.83625E+00 -3.39081E+00 +4.86980E+00
 -4.72793E+00 +3.28868E+00 -5.33223E+00 +1.37730E+00 -5.15503E+00 -5.32668E-01 -4.29221E+00 -2.12756E+00
 -2.95981E+00 -3.17163E+00 -1.44653E+00 -3.54955E+00 -5.31280E-02 -3.28334E+00 +9.68420E-01 -2.52103E+00
 +1.46377E+00 -1.49999E+00 +1.40331E+00 -4.93398E-01 +8.82509E-01 +2.49051E-01 +9.63503E-02 +5.53534E-01
 -7.06469E-01 +3.57111E-01 -1.27936E+00 -2.81529E-01 -1.43201E+00 -1.19725E+00 -1.07160E+00 -2.15582E+00
 -2.22826E-01 -2.90534E+00 +9.76994E-01 -3.23067E+00 +2.30638E+00 -2.99966E+00 +3.50533E+00 -2.19182E+00
 +4.32856E+00 -9.03675E-01 +4.59534E+00 +6.69695E-01 +4.22578E+00 +2.27289E+00 +3.25655E+00 +3.64009E+00
 +1.83329E+00 +4.54628E+00 +1.81646E-01 +4.84959E+00 -1.43673E+00 +4.51648E+00 -2.77404E+00 +3.62513E+00
 -3.64200E+00 +2.34710E+00 -3.94453E+00 +9.11559E-01 -3.69114E+00 -4.40374E-01 -2.98938E+00 -1.50160E+00
 -2.01841E+00 -2.13629E+00 -9.89875E-01 -2.30134E+00 -1.04276E-01 -2.04840E+00 +4.88083E-01 -1.50689E+00
 +7.14045E-01 -8.52276E-01 +5.87464E-01 -2.66702E-01 +2.00762E-01 +9.98369E-02 -2.99323E-01 +1.59761E-01
 -7.46184E-01 -9.61197E-02 -9.90529E-01 -5.99641E-01 -9.32576E-01 -1.22245E+00 -5.42865E-01 -1.80515E+00
 +1.32166E-01 -2.19214E+00 +9.80453E-01 -2.26469E+00 +1.84780E+00 -1.96575E+00 +2.56943E+00 -1.31166E+00
 +3.00298E+00 -3.88863E-01 +3.05630E+00 +6.63196E-01 +2.70479E+00 +1.67918E+00 +1.99512E+00 +2.49924E+00
 +1.03528E+00 +2.99842E+00 -2.67452E-02 +3.10842E+00 -1.03091E+00 +2.82789E+00 -1.83408E+00 +2.21975E+00
 -2.33446E+00 +1.39683E+00 -2.48707E+00 +4.98949E-01 -2.30777E+00 -3.33507E-01 -1.86590E+00 -9.84444E-01
 -1.26751E+00 -1.38070E+00 -6.33054E-01 -1.50137E+00 -7.41231E-02 -1.37666E+00 +3.26291E-01 -1.07734E+00
 +5.26512E-01 -6.97273E-01 +5.29982E-01 -3.33169E-01 +3.80092E-01 -6.53666E-02 +1.47720E-01 +5.65974E-02
 -8.55839E-02 +2.12803E-02 -2.45209E-01 -1.45377E-01 -2.78467E-01 -3.88041E-01 -1.64266E-01 -6.35192E-01
 +8.39907E-02 -8.14680E-01 +4.22359E-01 -8.68505E-01 +7.85961E-01 -7.64119E-01 +1.10210E+00 -5.00373E-01
 +1.30425E+00 -1.07356E-01 +1.34436E+00 +3.59456E-01 +1.20132E+00 +8.29362E-01 +8.84496E-01 +1.22887E+00
 +4.31839E-01 +1.49413E+00 -9.66455E-02 +1.58133E+00 -6.28792E-01 +1.47339E+00 -1.09172E+00 +1.18217E+00
 -1.42295E+00 +7.46088E-01 -1.57948E+00 +2.23729E-01 -1.54362E+00 -3.15261E-01 -1.32479E+00 -8.00617E-01
 -9.57317E-01 -1.17156E+00 -4.94742E-01 -1.38518E+00 -1.47298E-03 -1.42191E+00 +4.56798E-01 -1.28749E+00
 +8.22598E-01 -1.01121E+00 +1.05472E+00 -6.40716E-01 +1.13369E+00 -2.34318E-01 +1.06385E+00 +1.48241E-01
 +8.71755E-01 +4.55022E-01 +6.01190E-01 +6.49826E-01 +3.05356E-01 +7.17531E-01 +3.76162E-02 +6.65940E-01
 -1.57833E-01 +5.23757E-01 -2.53741E-01 +3.34903E-01 -2.44663E-01 +1.50046E-01 -1.47888E-01 +1.67303E-02
