 Created: 16-Jan-2021
 $NMID
 ID='D:\BASISSIMULATI'
 FMTDAT='(8E13.5)'
 VOLUME=   1.00000E+00
 TRAMP=   1.00000E+00
 $END
 +5.62681E+01 +2.59753E-01 +5.11948E+01 +2.31799E+01 +3.72239E+01 +4.20080E+01 +1.68092E+01 +5.34774E+01
 -6.47986E+00 +5.56103E+01 -2.85827E+01 +4.80589E+01 -4.56552E+01 +3.21618E+01 -5.47386E+01 +1.07069E+01
 -5.42720E+01 -1.25577E+01 -4.43605E+01 -3.35782E+01 -2.67530E+01 -4.87017E+01 -4.53337E+00 -5.53108E+01
 +1.84195E+01 -5.22764E+01 +3.81089E+01 -4.01510E+01 +5.11160E+01 -2.10677E+01 +5.51938E+01 +1.63445E+00
 +4.96549E+01 +2.39952E+01 +3.54874E+01 +4.21234E+01 +1.51790E+01 +5.28746E+01 -7.72037E+00 +5.43960E+01
 -2.92185E+01 +4.64460E+01 -4.55772E+01 +3.04320E+01 -5.39622E+01 +9.16158E+00 -5.29340E+01 -1.36500E+01
 -4.26953E+01 -3.40286E+01 -2.50512E+01 -4.84334E+01 -3.09117E+00 -5.43722E+01 +1.93517E+01 -5.08326E+01
 +3.83701E+01 -3.84545E+01 +5.06624E+01 -1.94146E+01 +5.41062E+01 +2.95671E+00 +4.81241E+01 +2.47572E+01
 +3.37811E+01 +4.21940E+01 +1.35945E+01 +5.22432E+01 -8.90757E+00 +5.31743E+01 -2.98028E+01 +4.48481E+01
 -4.54584E+01 +2.87369E+01 -5.31627E+01 +7.66462E+00 -5.15947E+01 -1.46888E+01 -4.10506E+01 -3.44296E+01
 -2.33882E+01 -4.81283E+01 -1.69937E+00 -5.34160E+01 +2.02308E+01 -4.93934E+01 +3.85847E+01 -3.67839E+01
 +5.01769E+01 -1.78039E+01 +5.30068E+01 +4.22721E+00 +4.66037E+01 +2.54673E+01 +3.21054E+01 +4.22215E+01
 +1.20555E+01 +5.15850E+01 -1.00423E+01 +5.19467E+01 -3.03368E+01 +4.32661E+01 -4.53002E+01 +2.70769E+01
 -5.23416E+01 +6.21566E+00 -5.02553E+01 -1.56751E+01 -3.94273E+01 -3.47826E+01 -2.17642E+01 -4.77883E+01
 -3.57418E-01 -5.24439E+01 +2.10579E+01 -4.79599E+01 +3.87543E+01 -3.51397E+01 +4.96611E+01 -1.62357E+01
 +5.18971E+01 +5.44664E+00 +4.50948E+01 +2.61266E+01 +3.04608E+01 +4.22073E+01 +1.05619E+01 +5.09015E+01
 -1.11253E+01 +5.07145E+01 -3.08218E+01 +4.17012E+01 -4.51043E+01 +2.54523E+01 -5.15006E+01 +4.81434E+00
 -4.89171E+01 -1.66098E+01 -3.78262E+01 -3.50892E+01 -2.01794E+01 -4.74150E+01 +9.35225E-01 -5.14573E+01
 +2.18341E+01 -4.65333E+01 +3.88803E+01 -3.35226E+01 +4.91167E+01 -1.47100E+01 +5.07786E+01 +6.61572E+00
 +4.35983E+01 +2.67364E+01 +2.88478E+01 +4.21531E+01 +9.11341E+00 +5.01944E+01 -1.21577E+01 +4.94792E+01
 -3.12593E+01 +4.01540E+01 -4.48723E+01 +2.38634E+01 -5.06412E+01 +3.46024E+00 -4.75815E+01 -1.74939E+01
 -3.62479E+01 -3.53507E+01 -1.86339E+01 -4.70099E+01 +2.17914E+00 -5.04577E+01 +2.25607E+01 -4.51148E+01
 +3.89643E+01 -3.19331E+01 +4.85451E+01 -1.32265E+01 +4.96526E+01 +7.73519E+00 +4.21153E+01 +2.72979E+01
 +2.72668E+01 +4.20604E+01 +7.70974E+00 +4.94652E+01 -1.31401E+01 +4.82420E+01 -3.16505E+01 +3.86254E+01
 -4.46058E+01 +2.23102E+01 -4.97649E+01 +2.15290E+00 -4.62495E+01 -1.83285E+01 -3.46932E+01 -3.55685E+01
 -1.71276E+01 -4.65745E+01 +3.37495E+00 -4.94466E+01 +2.32386E+01 -4.37054E+01 +3.90078E+01 -3.03716E+01
 +4.79481E+01 -1.17852E+01 +4.85206E+01 +8.80580E+00 +4.06467E+01 +2.78125E+01 +2.57180E+01 +4.19307E+01
 +6.35058E+00 +4.87154E+01 -1.40735E+01 +4.70043E+01 -3.19969E+01 +3.71163E+01 -4.43062E+01 +2.07931E+01
 -4.88732E+01 +8.91869E-01 -4.49223E+01 -1.91147E+01 -3.31627E+01 -3.57441E+01 -1.56606E+01 -4.61105E+01
 +4.52326E+00 -4.84254E+01 +2.38692E+01 -4.23061E+01 +3.90121E+01 -2.88388E+01 +4.73270E+01 -1.03859E+01
 +4.73838E+01 +9.82834E+00 +3.91933E+01 +2.82812E+01 +2.42018E+01 +4.17654E+01 +5.03561E+00 +4.79466E+01
 -1.49589E+01 +4.57671E+01 -3.22996E+01 +3.56274E+01 -4.39751E+01 +1.93122E+01 -4.79674E+01 -3.23368E-01
 -4.36010E+01 -1.98533E+01 -3.16569E+01 -3.58788E+01 -1.42328E+01 -4.56193E+01 +5.62475E+00 -4.73954E+01
 +2.44535E+01 -4.09179E+01 +3.89788E+01 -2.73349E+01 +4.66834E+01 -9.02837E+00 +4.62435E+01 +1.08036E+01
 +3.77560E+01 +2.87054E+01 +2.27184E+01 +4.15661E+01 +3.76445E+00 +4.71600E+01 -1.57972E+01 +4.45317E+01
 -3.25602E+01 +3.41592E+01 -4.36140E+01 +1.78674E+01 -4.70491E+01 -1.49333E+00 -4.22867E+01 -2.05456E+01
 -3.01763E+01 -3.59740E+01 -1.28441E+01 -4.51025E+01 +6.68007E+00 -4.63580E+01 +2.49926E+01 -3.95417E+01
 +3.89092E+01 -2.58604E+01 +4.60188E+01 -7.71239E+00 +4.51009E+01 +1.17324E+01 +3.63356E+01 +2.90863E+01
 +2.12681E+01 +4.13343E+01 +2.53669E+00 +4.63573E+01 -1.65892E+01 +4.32992E+01 -3.27797E+01 +3.27126E+01
 -4.32243E+01 +1.64589E+01 -4.61195E+01 -2.61858E+00 -4.09804E+01 -2.11924E+01 -2.87216E+01 -3.60311E+01
 -1.14945E+01 -4.45614E+01 +7.68993E+00 -4.53143E+01 +2.54878E+01 -3.81785E+01 +3.88048E+01 -2.44156E+01
 +4.53345E+01 -6.43769E+00 +4.39573E+01 +1.26155E+01 +3.49328E+01 +2.94252E+01 +1.98510E+01 +4.10712E+01
 +1.35193E+00 +4.55396E+01 -1.73360E+01 +4.20706E+01 -3.29597E+01 +3.12880E+01 -4.28075E+01 +1.50867E+01
 -4.51800E+01 -3.69968E+00 -3.96830E+01 -2.17950E+01 -2.72930E+01 -3.60515E+01 -1.01837E+01 -4.39975E+01
 +8.65503E+00 -4.42658E+01 +2.59401E+01 -3.68289E+01 +3.86670E+01 -2.30007E+01 +4.46319E+01 -5.20397E+00
 +4.28137E+01 +1.34539E+01 +3.35483E+01 +2.97232E+01 +1.84672E+01 +4.07785E+01 +2.09691E-01 +4.47085E+01
 -1.80385E+01 +4.08471E+01 -3.31013E+01 +2.98860E+01 -4.23650E+01 +1.37508E+01 -4.42318E+01 -4.73722E+00
 -3.83955E+01 -2.23543E+01 -2.58911E+01 -3.60365E+01 -8.91170E+00 -4.34121E+01 +9.57611E+00 -4.32134E+01
 +2.63508E+01 -3.54939E+01 +3.84970E+01 -2.16161E+01 +4.39124E+01 -4.01088E+00 +4.16712E+01 +1.42483E+01
 +3.21828E+01 +2.99817E+01 +1.71169E+01 +4.04573E+01 -8.90485E-01 +4.38651E+01 -1.86976E+01 +3.96296E+01
 -3.32058E+01 +2.85072E+01 -4.18981E+01 +1.24511E+01 -4.32762E+01 -5.73182E+00 -3.71186E+01 -2.28715E+01
 -2.45161E+01 -3.59873E+01 -7.67815E+00 -4.28067E+01 +1.04539E+01 -4.21585E+01 +2.67209E+01 -3.41742E+01
 +3.82964E+01 -2.02620E+01 +4.31773E+01 -2.85808E+00 +4.05310E+01 +1.49996E+01 +3.08369E+01 +3.02017E+01
 +1.58000E+01 +4.01091E+01 -1.94910E+00 +4.30107E+01 -1.93144E+01 +3.84190E+01 -3.32745E+01 +2.71520E+01
 -4.14081E+01 +1.11875E+01 -4.23143E+01 -6.68411E+00 -3.58534E+01 -2.33475E+01 -2.31684E+01 -3.59054E+01
 -6.48286E+00 -4.21825E+01 +1.12892E+01 -4.11020E+01 +2.70517E+01 -3.28704E+01 +3.80663E+01 -1.89384E+01
 +4.24279E+01 -1.74518E+00 +3.93940E+01 +1.57087E+01 +2.95111E+01 +3.03846E+01 +1.45167E+01 +3.97353E+01
 -2.96668E+00 +4.21466E+01 -1.98899E+01 +3.72162E+01 -3.33087E+01 +2.58208E+01 -4.08965E+01 +9.95988E+00
 -4.13473E+01 -7.59475E+00 -3.46005E+01 -2.37834E+01 -2.18483E+01 -3.57920E+01 -5.32555E+00 -4.15409E+01
 +1.20827E+01 -4.00451E+01 +2.73442E+01 -3.15833E+01 +3.78082E+01 -1.76456E+01 +4.16654E+01 -6.71773E-01
 +3.82611E+01 +1.63764E+01 +2.82060E+01 +3.05315E+01 +1.32669E+01 +3.93371E+01 -3.94376E+00 +4.12739E+01
 -2.04249E+01 +3.60222E+01 -3.33096E+01 +2.45141E+01 -4.03646E+01 +8.76812E+00 -4.03763E+01 -8.46439E+00
 -3.33606E+01 -2.41804E+01 -2.05561E+01 -3.56484E+01 -4.20595E+00 -4.08830E+01 +1.28352E+01 -3.89888E+01
 +2.75996E+01 -3.03134E+01 +3.75233E+01 -1.63837E+01 +4.08911E+01 +3.62562E-01 +3.71334E+01 +1.70037E+01
 +2.69221E+01 +3.06436E+01 +1.20507E+01 +3.89158E+01 -4.88089E+00 +4.03939E+01 -2.09204E+01 +3.48378E+01
 -3.32785E+01 +2.32321E+01 -3.98135E+01 +7.61201E+00 -3.94025E+01 -9.29372E+00 -3.21346E+01 -2.45394E+01
 -1.92919E+01 -3.54758E+01 -3.12372E+00 -4.02102E+01 +1.35476E+01 -3.79341E+01 +2.78191E+01 -2.90614E+01
 +3.72128E+01 -1.51528E+01 +4.01061E+01 +1.35828E+00 +3.60118E+01 +1.75915E+01 +2.56598E+01 +3.07221E+01
 +1.08678E+01 +3.84726E+01 -5.77867E+00 +3.95076E+01 -2.13775E+01 +3.36636E+01 -3.32165E+01 +2.19752E+01
 -3.92445E+01 +6.49137E+00 -3.84268E+01 -1.00834E+01 -3.09230E+01 -2.48616E+01 -1.80559E+01 -3.52755E+01
 -2.07853E+00 -3.95236E+01 +1.42205E+01 -3.68820E+01 +2.80036E+01 -2.78277E+01 +3.68781E+01 -1.39527E+01
 +3.93117E+01 +2.31586E+00 +3.48970E+01 +1.81406E+01 +2.44195E+01 +3.07682E+01 +9.71821E+00 +3.80089E+01
 -6.63767E+00 +3.86160E+01 -2.17972E+01 +3.25006E+01 -3.31249E+01 +2.07437E+01 -3.86588E+01 +5.40594E+00
 -3.74502E+01 -1.08342E+01 -2.97265E+01 -2.51479E+01 -1.68483E+01 -3.50487E+01 -1.07001E+00 -3.88245E+01
 +1.48549E+01 -3.58333E+01 +2.81544E+01 -2.66129E+01 +3.65203E+01 -1.27837E+01 +3.85088E+01 +3.23578E+00
 +3.37898E+01 +1.86519E+01 +2.32017E+01 +3.07829E+01 +8.60183E+00 +3.75258E+01 -7.45851E+00 +3.77204E+01
 -2.21804E+01 +3.13493E+01 -3.30048E+01 +1.95378E+01 -3.80576E+01 +4.35547E+00 -3.64738E+01 -1.15468E+01
 -2.85457E+01 -2.53995E+01 -1.56692E+01 -3.47966E+01 -9.77688E-02 -3.81138E+01 +1.54516E+01 -3.47890E+01
 +2.82726E+01 -2.54175E+01 +3.61406E+01 -1.16457E+01 +3.76986E+01 +4.11855E+00 +3.26912E+01 +1.91264E+01
 +2.20066E+01 +3.07676E+01 +7.51848E+00 +3.70245E+01 -8.24181E+00 +3.68216E+01 -2.25281E+01 +3.02104E+01
 -3.28574E+01 +1.83578E+01 -3.74421E+01 +3.33968E+00 -3.54984E+01 -1.22220E+01 -2.73812E+01 -2.56173E+01
 -1.45186E+01 -3.45204E+01 +8.38592E-01 -3.73929E+01 +1.60113E+01 -3.37499E+01 +2.83592E+01 -2.42419E+01
 +3.57402E+01 -1.05385E+01 +3.68821E+01 +4.96471E+00 +3.16018E+01 +1.95649E+01 +2.08345E+01 +3.07232E+01
 +6.46799E+00 +3.65061E+01 -8.98820E+00 +3.59207E+01 -2.28412E+01 +2.90847E+01 -3.26839E+01 +1.72037E+01
 -3.68133E+01 +2.35826E+00 -3.45250E+01 -1.28604E+01 -2.62334E+01 -2.58025E+01 -1.33967E+01 -3.42212E+01
 +1.73950E+00 -3.66626E+01 +1.65349E+01 -3.27168E+01 +2.84153E+01 -2.30865E+01 +3.53202E+01 -9.46220E+00
 +3.60604E+01 +5.77478E+00 +3.05223E+01 +1.99684E+01 +1.96858E+01 +3.06509E+01 +5.45015E+00 +3.59719E+01
 -9.69834E+00 +3.50185E+01 -2.31208E+01 +2.79727E+01 -3.24854E+01 +1.60758E+01 -3.61725E+01 +1.41088E+00
 -3.35545E+01 -1.34628E+01 -2.51029E+01 -2.59560E+01 -1.23034E+01 -3.39002E+01 +2.60541E+00 -3.59241E+01
 +1.70233E+01 -3.16904E+01 +2.84421E+01 -2.19516E+01 +3.48819E+01 -8.41660E+00 +3.52344E+01 +6.54934E+00
 +2.94534E+01 +2.03378E+01 +1.85606E+01 +3.05519E+01 +4.46472E+00 +3.54228E+01 -1.03729E+01 +3.41161E+01
 -2.33679E+01 +2.68749E+01 -3.22630E+01 +1.49742E+01 -3.55205E+01 +4.97201E-01 -3.25875E+01 -1.40300E+01
 -2.39900E+01 -2.60789E+01 -1.12387E+01 -3.35584E+01 +3.43678E+00 -3.51784E+01 +1.74772E+01 -3.06715E+01
 +2.84405E+01 -2.08376E+01 +3.44262E+01 -7.40160E+00 +3.44051E+01 +7.28894E+00 +2.83957E+01 +2.06740E+01
