 Created: 16-Jan-2021
 $NMID
 ID='D:\BASISSIMULATI'
 FMTDAT='(8E13.5)'
 VOLUME=   1.00000E+00
 TRAMP=   1.00000E+00
 $END
 +3.46939E+01 +1.60178E-01 +3.15818E+01 +1.43821E+01 +2.28850E+01 +2.60529E+01 +1.01655E+01 +3.30914E+01
 -4.29302E+00 +3.42571E+01 -1.79032E+01 +2.93734E+01 -2.82469E+01 +1.93539E+01 -3.35127E+01 +6.02882E+00
 -3.28205E+01 -8.19608E+00 -2.63701E+01 -2.07818E+01 -1.53921E+01 -2.95183E+01 -1.90959E+00 -3.29204E+01
 +1.16408E+01 -3.04846E+01 +2.28576E+01 -2.27626E+01 +2.98082E+01 -1.12404E+01 +3.13677E+01 +1.95075E+00
 +2.74034E+01 +1.44349E+01 +1.87732E+01 +2.40268E+01 +7.14352E+00 +2.91215E+01 -5.33578E+00 +2.89668E+01
 -1.64343E+01 +2.37726E+01 -2.42468E+01 +1.46403E+01 -2.75251E+01 +3.33291E+00 -2.58795E+01 -8.06824E+00
 -1.98144E+01 -1.75520E+01 -1.06005E+01 -2.35375E+01 -1.12664E-02 -2.51411E+01 +1.00209E+01 -2.23037E+01
 +1.77614E+01 -1.57618E+01 +2.19777E+01 -6.87344E+00 +2.21361E+01 +2.66025E+00 +1.84590E+01 +1.11230E+01
 +1.18413E+01 +1.70959E+01 +3.64648E+00 +1.96969E+01 -4.57128E+00 +1.87078E+01 -1.13633E+01 +1.45701E+01
 -1.56441E+01 +8.25850E+00 -1.68640E+01 +1.06393E+00 -1.50704E+01 -5.66749E+00 -1.08516E+01 -1.07871E+01
 -5.18446E+00 -1.35405E+01 +7.80919E-01 -1.36741E+01 +5.95133E+00 -1.14381E+01 +9.49084E+00 -7.49330E+00
 +1.09543E+01 -2.74594E+00 +1.03331E+01 +1.84938E+00 +8.01148E+00 +5.47875E+00 +4.64885E+00 +7.61198E+00
 +1.01924E+00 +8.07507E+00 -2.15681E+00 +7.04328E+00 -4.35205E+00 +4.96335E+00 -5.31738E+00 +2.42717E+00
 -5.09886E+00 +2.80355E-02 -3.98909E+00 -1.76812E+00 -2.42926E+00 -2.70980E+00 -8.87846E-01 -2.78950E+00
 +2.54780E-01 -2.21385E+00 +7.89866E-01 -1.32576E+00 +7.14643E-01 -5.00239E-01 +2.12636E-01 -4.03701E-02
 -4.12265E-01 -9.84107E-02 -8.29672E-01 -6.40183E-01 -7.80288E-01 -1.45987E+00 -1.52861E-01 -2.24025E+00
 +9.78404E-01 -2.64260E+00 +2.36517E+00 -2.40373E+00 +3.64247E+00 -1.41600E+00 +4.41897E+00 +2.29758E-01
 +4.37844E+00 +2.24984E+00 +3.36834E+00 +4.22183E+00 +1.45365E+00 +5.67621E+00 -1.07795E+00 +6.20502E+00
 -3.76304E+00 +5.56325E+00 -6.05285E+00 +3.73912E+00 -7.42865E+00 +9.76134E-01 -7.51755E+00 -2.26021E+00
 -6.18319E+00 -5.36614E+00 -3.57050E+00 -7.71774E+00 -9.32723E-02 -8.79939E+00 +3.63529E+00 -8.31597E+00
 +6.91638E+00 -6.26436E+00 +9.10170E+00 -2.94827E+00 +9.72460E+00 +1.06866E+00 +8.59928E+00 +5.06351E+00
 +5.86725E+00 +8.28982E+00 +1.98030E+00 +1.01218E+01 -2.37788E+00 +1.01783E+01 -6.41703E+00 +8.40245E+00
 -9.38889E+00 +5.07890E+00 -1.07300E+01 +7.86347E-01 -1.01708E+01 -3.70754E+00 -7.79023E+00 -7.58832E+00
 -4.00370E+00 -1.01471E+01 +5.12194E-01 -1.09134E+01 +4.94483E+00 -9.74398E+00 +8.49625E+00 -6.84917E+00
 +1.05308E+01 -2.75368E+00 +1.06917E+01 +1.80176E+00 +8.96498E+00 +5.99818E+00 +5.67869E+00 +9.08951E+00
 +1.43900E+00 +1.05384E+01 -2.98452E+00 +1.01118E+01 -6.80195E+00 +7.91812E+00 -9.34727E+00 +4.38188E+00
 -1.01969E+01 +1.59636E-01 -9.24113E+00 -3.98421E+00 -6.69632E+00 -7.31861E+00 -3.05701E+00 -9.27723E+00
 +1.00130E+00 -9.55603E+00 +4.74956E+00 -8.16010E+00 +7.53826E+00 -5.39266E+00 +8.91148E+00 -1.79027E+00
 +8.68181E+00 +1.98210E+00 +6.95368E+00 +5.25525E+00 +4.09294E+00 +7.47587E+00 +6.50423E-01 +8.30074E+00
 -2.74462E+00 +7.64887E+00 -5.50047E+00 +5.70405E+00 -7.16673E+00 +2.86956E+00 -7.50762E+00 -3.14478E-01
 -6.53308E+00 -3.27414E+00 -4.48411E+00 -5.50555E+00 -1.77746E+00 -6.66051E+00 +1.07810E+00 -6.59963E+00
 +3.57719E+00 -5.40503E+00 +5.30705E+00 -3.35271E+00 +6.01491E+00 -8.52052E-01 +5.64265E+00 +1.63477E+00
 +4.32468E+00 +3.67761E+00 +2.35171E+00 +4.95203E+00 +1.09225E-01 +5.28926E+00 -1.99662E+00 +4.69532E+00
 -3.61166E+00 +3.33777E+00 -4.49204E+00 +1.50502E+00 -4.53887E+00 -4.52805E-01 -3.80490E+00 -2.18943E+00
 -2.47405E+00 -3.42245E+00 -8.19554E-01 -3.97756E+00 +8.50195E-01 -3.81054E+00 +2.24775E+00 -3.00487E+00
 +3.15458E+00 -1.74731E+00 +3.45323E+00 -2.87643E-01 +3.13950E+00 +1.10921E+00 +2.31410E+00 +2.20979E+00
 +1.15703E+00 +2.84936E+00 -1.09370E-01 +2.95448E+00 -1.26157E+00 +2.54806E+00 -2.11270E+00 +1.73780E+00
 -2.54109E+00 +6.91275E-01 -2.50551E+00 -3.96931E-01 -2.04574E+00 -1.33986E+00 -1.26971E+00 -1.98871E+00
 -3.30358E-01 -2.25462E+00 +6.02969E-01 -2.11888E+00 +1.37360E+00 -1.63088E+00 +1.86233E+00 -8.95237E-01
 +2.00441E+00 -5.08520E-02 +1.79647E+00 +7.53960E-01 +1.29321E+00 +1.38622E+00 +5.95099E-01 +1.74895E+00
 -1.70587E-01 +1.79489E+00 -8.71778E-01 +1.53152E+00 -1.39328E+00 +1.01711E+00 -1.65470E+00 +3.48990E-01
 -1.62206E+00 -3.53986E-01 -1.31154E+00 -9.71584E-01 -7.85078E-01 -1.40193E+00 -1.38821E-01 -1.57763E+00
 +5.13730E-01 -1.47595E+00 +1.06093E+00 -1.12146E+00 +1.41155E+00 -5.80899E-01 +1.50967E+00 +4.87894E-02
 +1.34352E+00 +6.57336E-01 +9.46789E-01 +1.14003E+00 +3.92284E-01 +1.41550E+00 -2.21024E-01 +1.43942E+00
 -7.85390E-01 +1.21175E+00 -1.20311E+00 +7.76284E-01 -1.40347E+00 +2.12557E-01 -1.35493E+00 -3.78488E-01
 -1.07027E+00 -8.92553E-01 -6.03824E-01 -1.24054E+00 -4.13246E-02 -1.36426E+00 +5.15911E-01 -1.24649E+00
 +9.69436E-01 -9.13446E-01 +1.24144E+00 -4.29343E-01 +1.28849E+00 +1.15934E-01 +1.10880E+00 +6.23767E-01
 +7.41547E-01 +1.00505E+00 +2.58696E-01 +1.19635E+00 -2.49245E-01 +1.17087E+00 -6.90566E-01 +9.42291E-01
 -9.89472E-01 +5.60844E-01 -1.09966E+00 +1.02521E-01 -1.01179E+00 -3.46263E-01 -7.53585E-01 -7.05466E-01
 -3.82741E-01 -9.16302E-01 +2.57106E-02 -9.51344E-01 +3.94837E-01 -8.17982E-01 +6.60842E-01 -5.54814E-01
 +7.84663E-01 -2.21998E-01 +7.57901E-01 +1.12194E-01 +6.02128E-01 +3.85641E-01 +3.62054E-01 +5.54443E-01
 +9.43127E-02 +6.00355E-01 -1.45484E-01 +5.32228E-01 -3.14518E-01 +3.81492E-01 -3.90823E-01 +1.93005E-01
 -3.76033E-01 +1.35896E-02 -2.92499E-01 -1.19009E-01 -1.75738E-01 -1.84186E-01 -6.42466E-02 -1.81827E-01
 +1.07427E-02 -1.30347E-01 +3.30525E-02 -6.01315E-02 +5.04334E-03 -4.18267E-03 -5.39748E-02 +1.15994E-02
 -1.13898E-01 -2.40143E-02 -1.42914E-01 -1.04095E-01 -1.17156E-01 -2.05069E-01 -2.83868E-02 -2.92890E-01
 +1.12322E-01 -3.32349E-01 +2.76014E-01 -2.97175E-01 +4.22180E-01 -1.78334E-01 +5.08578E-01 +1.16829E-02
 +5.02203E-01 +2.39891E-01 +3.88690E-01 +4.59142E-01 +1.77717E-01 +6.18476E-01 -9.71284E-02 +6.75134E-01
 -3.84281E-01 +6.05398E-01 -6.24797E-01 +4.11589E-01 -7.65318E-01 +1.23345E-01 -7.70434E-01 -2.07365E-01
 -6.31529E-01 -5.16617E-01 -3.69902E-01 -7.42072E-01 -3.32258E-02 -8.36677E-01 +3.14041E-01 -7.79350E-01
 +6.04274E-01 -5.80113E-01 +7.81289E-01 -2.78347E-01 +8.12595E-01 +6.55699E-02 +6.96433E-01 +3.83446E-01
 +4.61878E-01 +6.14284E-01 +1.61918E-01 +7.17654E-01 -1.38961E-01 +6.82274E-01 -3.79781E-01 +5.27735E-01
 -5.17105E-01 +2.98897E-01 -5.34698E-01 +5.42580E-02 -4.46416E-01 -1.48903E-01 -2.91515E-01 -2.68972E-01
 -1.23456E-01 -2.90370E-01 +5.07703E-03 -2.27126E-01 +5.71540E-02 -1.18521E-01 +2.26430E-02 -1.76638E-02
 -7.78031E-02 +2.42790E-02 -1.97283E-01 -2.57685E-02 -2.75064E-01 -1.70609E-01 -2.54134E-01 -3.78157E-01
 -9.96231E-02 -5.86313E-01 +1.86784E-01 -7.16974E-01 +5.60723E-01 -6.96415E-01 +9.39883E-01 -4.77401E-01
 +1.21968E+00 -5.74740E-02 +1.29723E+00 +5.11772E-01 +1.09857E+00 +1.12794E+00 +6.02788E-01 +1.65442E+00
 -1.43218E-01 +1.94799E+00 -1.02429E+00 +1.89216E+00 -1.87268E+00 +1.42912E+00 -2.49825E+00 +5.82577E-01
 -2.72815E+00 -5.35025E-01 -2.44784E+00 -1.73428E+00 -1.63467E+00 -2.77943E+00 -3.75356E-01 -3.43303E+00
 +1.13809E+00 -3.50657E+00 +2.63570E+00 -2.90652E+00 +3.81653E+00 -1.66556E+00 +4.40755E+00 +4.95404E-02
 +4.22294E+00 +1.95705E+00 +3.21144E+00 +3.70545E+00 +1.48076E+00 +4.93737E+00 -7.08267E-01 +5.36103E+00
 -2.97911E+00 +4.81487E+00 -4.90380E+00 +3.31181E+00 -6.08307E+00 +1.05217E+00 -6.22745E+00 -1.59975E+00
 -5.22305E+00 -4.17356E+00 -3.16773E+00 -6.17625E+00 -3.68157E-01 -7.18631E+00 +2.70427E+00 -6.94063E+00
 +5.49283E+00 -5.39641E+00 +7.45682E+00 -2.75432E+00 +8.17623E+00 +5.64171E-01 +7.43964E+00 +3.98361E+00
 +5.29696E+00 +6.87503E+00 +2.06497E+00 +8.67248E+00 -1.71811E+00 +8.98381E+00 -5.38273E+00 +7.67403E+00
 -8.24782E+00 +4.90372E+00 -9.74847E+00 +1.11306E+00 -9.54747E+00 -3.04811E+00 -7.60851E+00 -6.83294E+00
 -4.21552E+00 -9.53337E+00 +6.77033E-02 -1.06140E+01 +4.49212E+00 -9.81833E+00 +8.25639E+00 -7.22666E+00
 +1.06541E+01 -3.25225E+00 +1.12078E+01 +1.42471E+00 +9.76463E+00 +5.97538E+00 +6.53316E+00 +9.57147E+00
 +2.05456E+00 +1.15384E+01 -2.88945E+00 +1.14836E+01 -7.41542E+00 +9.37508E+00 -1.06988E+01 +5.55457E+00
 -1.21266E+01 +6.81732E-01 -1.14139E+01 -4.38186E+00 -8.66058E+00 -8.72786E+00 -4.33828E+00 -1.15672E+01
 +7.91844E-01 -1.23757E+01 +5.81578E+00 -1.09931E+01 +9.83260E+00 -7.65439E+00 +1.21192E+01 -2.94988E+00
 +1.22632E+01 +2.28161E+00 +1.02384E+01 +7.10507E+00 +6.41041E+00 +1.06598E+01 +1.46894E+00 +1.23161E+01
 -3.69864E+00 +1.17893E+01 -8.16989E+00 +9.18977E+00 -1.11553E+01 +4.99998E+00 -1.21408E+01 -1.63022E-02
 -1.09781E+01 -4.95600E+00 -7.90723E+00 -8.94257E+00 -3.50713E+00 -1.12849E+01 +1.41509E+00 -1.15997E+01
 +5.97494E+00 -9.87555E+00 +9.37280E+00 -6.46718E+00 +1.10372E+01 -2.02290E+00 +1.07231E+01 +2.64052E+00
 +8.54731E+00 +6.69070E+00 +4.95730E+00 +9.43140E+00 +6.39001E-01 +1.04249E+01 -3.61576E+00 +9.56278E+00
 -7.05722E+00 +7.07411E+00 -9.11272E+00 +3.47050E+00 -9.48390E+00 -5.58570E-01 -8.18928E+00 -4.27946E+00
 -5.54628E+00 -7.05053E+00 -2.09854E+00 -8.43516E+00 +1.49553E+00 -8.27137E+00 +4.59014E+00 -6.68661E+00
 +6.67048E+00 -4.05765E+00 +7.44001E+00 -9.25729E-01 +6.86155E+00 +2.11441E+00 +5.14683E+00 +4.52899E+00
 +2.69913E+00 +5.94080E+00 +2.31834E-02 +6.18862E+00 -2.37845E+00 +5.34086E+00 -4.10106E+00 +3.66365E+00
 -4.90731E+00 +1.55257E+00 -4.75817E+00 -5.55854E-01 -3.80195E+00 -2.27385E+00 -2.32623E+00 -3.33480E+00
 -6.85397E-01 -3.63473E+00 +7.79397E-01 -3.23635E+00 +1.81051E+00 -2.33749E+00 +2.27980E+00 -1.21328E+00
 +2.20212E+00 -1.46355E-01 +1.71538E+00 +6.38501E-01 +1.03404E+00 +1.02093E+00 +3.88078E-01 +1.00321E+00
 -3.73589E-02 +6.97386E-01 -1.47406E-01 +2.85964E-01 +4.23326E-02 -3.34346E-02 +4.15051E-01 -1.05322E-01
 +7.88584E-01 +1.38629E-01 +9.68646E-01 +6.57949E-01 +8.06177E-01 +1.31061E+00 +2.44438E-01 +1.88776E+00
