 Created: 16-Jan-2021
 $NMID
 ID='D:\BASISSIMULATI'
 FMTDAT='(8E13.5)'
 VOLUME=   1.00000E+00
 TRAMP=   1.00000E+00
 $END
 +3.80675E+01 +4.05466E-02 +2.45790E+01 +2.47423E+01 -1.74456E+00 +2.66727E+01 -1.49268E+01 +6.88185E+00
 -3.56472E+00 -1.16332E+01 +1.76699E+01 -8.16042E+00 +2.37385E+01 +1.41299E+01 +5.61240E+00 +3.16447E+01
 -2.01869E+01 +2.51091E+01 -2.86985E+01 -2.73625E-01 -1.23396E+01 -2.01655E+01 +1.14249E+01 -1.62235E+01
 +1.83754E+01 +5.19441E+00 +2.60200E+00 +2.00819E+01 -1.77184E+01 +1.20369E+01 -1.96435E+01 -1.06716E+01
 +4.11600E-01 -2.38813E+01 +2.28618E+01 -1.28252E+01 +2.52593E+01 +1.24648E+01 +5.46192E+00 +2.75601E+01
 -1.63889E+01 +1.88442E+01 -1.89336E+01 -2.73140E+00 -1.63630E+00 -1.34797E+01 +1.50587E+01 -1.85325E+00
 +1.13862E+01 +1.95916E+01 -1.09748E+01 +2.74395E+01 -3.05939E+01 +1.18855E+01 -2.84911E+01 -1.30733E+01
 -7.63682E+00 -2.41708E+01 +1.04289E+01 -1.28266E+01 +8.10531E+00 +6.38744E+00 -1.01746E+01 +1.13547E+01
 -2.29665E+01 -4.37741E+00 -1.44724E+01 -2.49559E+01 +8.88065E+00 -2.88669E+01 +2.50947E+01 -1.13497E+01
 +1.93514E+01 +1.07304E+01 -8.85010E-01 +1.64136E+01 -1.39594E+01 +2.17201E+00 -6.64037E+00 -1.49021E+01
 +1.23548E+01 -1.52978E+01 +2.18202E+01 +2.47471E+00 +1.03972E+01 +2.04387E+01 -1.15473E+01 +1.99720E+01
 -2.27016E+01 +1.13787E+00 -1.28153E+01 -1.75136E+01 +6.99072E+00 -1.82265E+01 +1.61173E+01 -2.19736E+00
 +5.95486E+00 +1.21583E+01 -1.14419E+01 +8.73514E+00 -1.62703E+01 -9.43681E+00 -1.78939E+00 -2.34796E+01
 +1.86634E+01 -1.83909E+01 +2.55420E+01 +1.45063E+00 +1.32107E+01 +1.69977E+01 -4.58897E+00 +1.42991E+01
 -9.34650E+00 -1.35245E+00 +2.97417E+00 -1.14248E+01 +1.80473E+01 -3.75215E+00 +1.84320E+01 +1.47903E+01
 +1.85465E+00 +2.55733E+01 -1.64675E+01 +1.76166E+01 -1.96319E+01 -1.16475E+00 -6.35697E+00 -1.23764E+01
 +8.12099E+00 -6.19920E+00 +8.19331E+00 +8.79617E+00 -5.93926E+00 +1.50471E+01 -1.87932E+01 +4.53022E+00
 -1.59933E+01 -1.29303E+01 +7.24263E-01 -2.00097E+01 +1.54091E+01 -9.85972E+00 +1.44458E+01 +7.00850E+00
 +3.93556E-01 +1.38501E+01 -1.11228E+01 +4.98693E+00 -7.91538E+00 -8.70813E+00 +6.20191E+00 -1.15646E+01
 +1.57042E+01 +4.05846E-01 +9.72616E+00 +1.54568E+01 -6.66407E+00 +1.84391E+01 -1.78537E+01 +6.45375E+00
 -1.38464E+01 -8.41527E+00 -2.90227E-01 -1.18420E+01 +7.84078E+00 -1.98723E+00 +2.01324E+00 +9.03364E+00
 -1.11573E+01 +8.15258E+00 -1.71022E+01 -4.95327E+00 -8.60635E+00 -1.76555E+01 +6.78073E+00 -1.75866E+01
 +1.47197E+01 -5.32745E+00 +8.86553E+00 +6.51519E+00 -2.94924E+00 +6.56529E+00 -7.29170E+00 -3.71185E+00
 +7.66616E-01 -1.19825E+01 +1.27291E+01 -8.21154E+00 +1.57931E+01 +4.87112E+00 +6.23494E+00 +1.47632E+01
 -6.87780E+00 +1.22212E+01 -1.12380E+01 +6.29232E-01 -3.92045E+00 -7.86081E+00 +6.01750E+00 -5.07405E+00
 +7.34903E+00 +4.94849E+00 -1.58420E+00 +1.05849E+01 -1.13870E+01 +4.97911E+00 -1.16218E+01 -6.87942E+00
 -1.64971E+00 -1.35128E+01 +8.91453E+00 -8.86883E+00 +1.03033E+01 +1.68275E+00 +2.52593E+00 +7.27014E+00
 -5.09427E+00 +2.87661E+00 -3.95384E+00 -5.74828E+00 +4.89690E+00 -8.47355E+00 +1.21086E+01 -1.50129E+00
 +9.94383E+00 +8.79876E+00 +2.34012E-01 +1.26742E+01 -7.76293E+00 +7.04880E+00 -7.05399E+00 -1.62192E+00
 +9.77383E-02 -4.37975E+00 +4.97958E+00 +9.29813E-01 +1.76491E+00 +7.75293E+00 -6.50678E+00 +8.00513E+00
 -1.13554E+01 +5.72684E-01 -7.79992E+00 -7.69598E+00 +6.25826E-01 -9.24993E+00 +5.80200E+00 -3.54028E+00
 +3.48608E+00 +2.78529E+00 -2.59772E+00 +3.07826E+00 -5.06340E+00 -2.46563E+00 -7.43475E-01 -7.35886E+00
 +6.15794E+00 -5.86954E+00 +8.69044E+00 +1.01278E+00 +4.43328E+00 +6.81439E+00 -2.21461E+00 +6.41494E+00
 -4.86118E+00 +1.16702E+00 -1.73723E+00 -2.89828E+00 +2.81563E+00 -1.57431E+00 +3.25208E+00 +3.27646E+00
 -1.29460E+00 +6.00916E+00 -6.30530E+00 +3.29732E+00 -6.80363E+00 -2.48406E+00 -2.50737E+00 -5.95887E+00
 +2.15098E+00 -4.40195E+00 +2.86368E+00 -3.17088E-01 -1.60003E-01 +1.54849E+00 -2.78182E+00 -6.91034E-01
 -1.57734E+00 -4.28366E+00 +2.56927E+00 -5.03680E+00 +5.61532E+00 -1.83126E+00 +4.75343E+00 +2.36119E+00
 +1.23614E+00 +3.80291E+00 -1.23023E+00 +1.88605E+00 -5.34600E-01 -5.33042E-01 +1.78423E+00 -4.63815E-01
 +2.51030E+00 +2.00814E+00 +3.68500E-01 +4.03756E+00 -2.69460E+00 +3.28231E+00 -3.78710E+00 +4.11164E-01
 -2.21883E+00 -1.79754E+00 -5.88390E-02 -1.56952E+00 +3.33440E-01 +6.51119E-02 -1.08915E+00 +6.67230E-01
 -2.19958E+00 -7.54802E-01 -1.26581E+00 -2.68507E+00 +1.05079E+00 -2.93515E+00 +2.50140E+00 -1.17943E+00
 +1.84736E+00 +7.14994E-01 +2.32464E-01 +8.79775E-01 -2.20292E-01 -4.11753E-01 +1.07189E+00 -1.12524E+00
 +2.45124E+00 +8.48461E-02 +1.96856E+00 +2.21038E+00 -2.62906E-01 +2.97991E+00 -2.06899E+00 +1.49685E+00
 -1.65518E+00 -6.23018E-01 +2.76808E-01 -1.01501E+00 +1.23297E+00 +6.99301E-01 -2.25665E-01 +2.35502E+00
 -2.69741E+00 +1.63852E+00 -3.36191E+00 -1.17835E+00 -1.16454E+00 -3.31992E+00 +1.80425E+00 -2.49972E+00
 +2.44787E+00 +4.23533E-01 +1.10930E-01 +2.19568E+00 -2.51115E+00 +6.99913E-01 -2.20687E+00 -2.55649E+00
 +1.13313E+00 -3.89050E+00 +4.14993E+00 -1.45437E+00 +3.53162E+00 +2.53679E+00 -2.78836E-01 +3.97888E+00
 -3.31742E+00 +1.30875E+00 -2.26457E+00 -2.60423E+00 +1.84317E+00 -3.36430E+00 +4.49615E+00 +1.77449E-01
 +2.48523E+00 +4.44961E+00 -2.47434E+00 +4.80369E+00 -5.32247E+00 +5.55125E-01 -2.99222E+00 -4.03591E+00
 +2.13924E+00 -4.13899E+00 +4.56009E+00 +4.17688E-01 +1.46962E+00 +4.72779E+00 -4.03281E+00 +3.89611E+00
 -6.01677E+00 -1.63006E+00 -2.01513E+00 -6.26835E+00 +4.13188E+00 -5.08380E+00 +6.12211E+00 +8.60109E-01
 +1.86653E+00 +5.38844E+00 -4.09333E+00 +3.65295E+00 -5.21467E+00 -2.59027E+00 +6.82410E-02 -6.60167E+00
 +6.43712E+00 -3.71406E+00 +7.11010E+00 +3.55019E+00 +1.05283E+00 +7.87682E+00 -5.69182E+00 +4.78719E+00
 -6.20038E+00 -2.48806E+00 -2.55202E-02 -6.20968E+00 +6.12248E+00 -2.26267E+00 +5.32959E+00 +5.31146E+00
 -2.11020E+00 +8.35403E+00 -8.73302E+00 +3.17183E+00 -7.60070E+00 -5.35269E+00 +3.08153E-01 -8.65523E+00
 +6.89998E+00 -3.45508E+00 +5.35687E+00 +4.63270E+00 -2.59192E+00 +6.84247E+00 -8.28974E+00 +5.16696E-01
 -5.19486E+00 -7.87452E+00 +4.06360E+00 -9.34417E+00 +1.01759E+01 -1.87248E+00 +6.80850E+00 +7.23264E+00
 -2.62883E+00 +8.79827E+00 -8.35994E+00 +1.41360E+00 -4.43847E+00 -6.93005E+00 +4.87690E+00 -7.12102E+00
 +9.41907E+00 +1.40837E+00 +3.78403E+00 +9.84675E+00 -6.77902E+00 +9.09662E+00 -1.16132E+01 -5.97550E-01
 -5.74604E+00 -9.66402E+00 +4.76868E+00 -9.06544E+00 +9.03082E+00 +1.99944E-01 +2.70750E+00 +8.00445E+00
 -7.27291E+00 +5.66048E+00 -9.84525E+00 -4.82048E+00 -1.46322E+00 -1.25934E+01 +9.93677E+00 -9.22929E+00
 +1.30083E+01 +2.33873E+00 +4.82638E+00 +1.06589E+01 -5.92598E+00 +7.62129E+00 -7.93219E+00 -3.00163E+00
 +8.68241E-01 -9.39433E+00 +1.09593E+01 -4.08384E+00 +1.11116E+01 +8.04081E+00 +2.43443E-01 +1.46108E+01
 -1.11894E+01 +8.64488E+00 -1.19234E+01 -4.01389E+00 -1.64692E+00 -1.06113E+01 +8.56553E+00 -4.73812E+00
 +7.77166E+00 +6.90144E+00 -3.30784E+00 +1.14259E+01 -1.28818E+01 +3.31768E+00 -1.03625E+01 -9.58543E+00
 +2.42020E+00 -1.40726E+01 +1.28794E+01 -5.33128E+00 +1.06533E+01 +7.88274E+00 -1.56854E+00 +1.22299E+01
 -1.07700E+01 +3.67997E+00 -7.19584E+00 -8.21224E+00 +5.33884E+00 -1.02597E+01 +1.32912E+01 +4.58025E-01
 +7.53022E+00 +1.33080E+01 -6.95051E+00 +1.50245E+01 -1.60060E+01 +3.55444E+00 -1.09665E+01 -9.66431E+00
 +2.30906E+00 -1.15191E+01 +9.50527E+00 -8.96337E-01 +2.83770E+00 +1.01061E+01 -1.06775E+01 +8.82976E+00
 -1.64244E+01 -4.56190E+00 -7.47298E+00 -1.70104E+01 +8.00077E+00 -1.60277E+01 +1.50284E+01 -2.73164E+00
 +7.35131E+00 +9.21391E+00 -6.05519E+00 +7.77705E+00 -1.03472E+01 -4.87624E+00 -3.90139E-01 -1.46071E+01
 +1.37259E+01 -1.01160E+01 +1.71100E+01 +5.07636E+00 +5.65590E+00 +1.60692E+01 -9.49477E+00 +1.19880E+01
 -1.33892E+01 -2.66523E+00 -2.76684E+00 -1.26295E+01 +1.05558E+01 -7.76037E+00 +1.20455E+01 +6.36549E+00
 -2.72980E-01 +1.42551E+01 -1.36049E+01 +6.75040E+00 -1.36559E+01 -9.21776E+00 +3.89774E-01 -1.76433E+01
 +1.48458E+01 -1.00203E+01 +1.56321E+01 +5.78193E+00 +2.86928E+00 +1.36730E+01 -9.28952E+00 +6.10129E+00
 -7.49290E+00 -8.05437E+00 +6.74659E+00 -1.27652E+01 +1.84843E+01 -1.69349E+00 +1.48728E+01 +1.49840E+01
 -1.36439E+00 +2.09800E+01 -1.46150E+01 +1.07632E+01 -1.25098E+01 -4.69448E+00 +1.27522E+00 -9.34586E+00
 +1.09282E+01 +1.19042E+00 +5.10342E+00 +1.50454E+01 -1.10880E+01 +1.65162E+01 -2.12620E+01 +2.57986E+00
 -1.47931E+01 -1.37471E+01 +2.04614E+00 -1.67862E+01 +1.25000E+01 -4.42506E+00 +6.67752E+00 +9.72615E+00
 -8.22886E+00 +1.05472E+01 -1.55376E+01 -2.79961E+00 -6.60197E+00 -1.59840E+01 +1.00162E+01 -1.45010E+01
 +1.73448E+01 +1.06792E+00 +7.65239E+00 +1.54723E+01 -9.44042E+00 +1.45177E+01 -1.68862E+01 -2.52169E-01
 -7.87090E+00 -1.32277E+01 +7.18891E+00 -1.10446E+01 +1.16249E+01 +3.45849E+00 +3.93598E-02 +1.42091E+01
 -1.59146E+01 +8.73140E+00 -1.95660E+01 -8.70122E+00 -6.56611E+00 -2.13363E+01 +1.05390E+01 -1.72304E+01
 +1.52950E+01 -1.56294E+00 +4.37504E+00 +8.85865E+00 -9.08521E+00 +3.18284E+00 -9.33232E+00 -1.21445E+01
 +5.41670E+00 -2.01184E+01 +2.09557E+01 -1.09824E+01 +2.17763E+01 +7.46112E+00 +7.17264E+00 +1.78103E+01
 -8.01753E+00 +1.10228E+01 -8.81627E+00 -4.32047E+00 +4.39141E+00 -1.10892E+01 +1.64003E+01 -1.54555E+00
 +1.31941E+01 +1.45534E+01 -3.28265E+00 +2.01431E+01 -1.70036E+01 +8.70539E+00 -1.44455E+01 -8.82494E+00
 +1.39440E+00 -1.53079E+01 +1.41424E+01 -5.08978E+00 +1.10661E+01 +1.02757E+01 -3.76634E+00 +1.42088E+01
 -1.38782E+01 +2.46576E+00 -7.71808E+00 -1.24184E+01 +9.15295E+00 -1.42248E+01 +1.97259E+01 -1.92381E-02
 +1.31549E+01 +1.66873E+01 -4.02779E+00 +1.98733E+01 -1.47499E+01 +7.51607E+00 -9.13918E+00 -6.49714E+00
 +5.32259E+00 -6.99854E+00 +1.17734E+01 +6.57141E+00 +1.71773E+00 +1.95702E+01 -1.59695E+01 +1.74446E+01
 -2.41533E+01 +9.51881E-01 -1.51564E+01 -1.45394E+01 +1.36365E+00 -1.49143E+01 +8.53871E+00 -1.80739E+00
 -1.76726E-01 +9.32975E+00 -1.43239E+01 +5.50780E+00 -1.75182E+01 -1.01752E+01 -4.68689E+00 -2.17445E+01
 +1.25092E+01 -1.70053E+01 +1.76894E+01 -2.68530E-01 +6.66119E+00 +1.20831E+01 -8.36606E+00 +8.52568E+00
