 Created: 16-Jan-2021
 $NMID
 ID='D:\BASISSIMULATI'
 FMTDAT='(8E13.5)'
 VOLUME=   1.00000E+00
 TRAMP=   1.00000E+00
 $END
 +5.24630E+01 +6.13777E-01 +3.80138E+01 -2.18911E+01 +5.43791E+00 -2.48033E+01 -2.28690E+01 -3.78471E+00
 -2.89148E+01 +2.69955E+01 -1.19015E+01 +4.56753E+01 +1.22335E+01 +3.90294E+01 +2.35973E+01 +1.18849E+01
 +1.32896E+01 -1.70859E+01 -1.07043E+01 -2.93702E+01 -3.04413E+01 -1.95425E+01 -3.17443E+01 +2.20177E+00
 -1.41505E+01 +1.88336E+01 +9.80130E+00 +1.91807E+01 +2.43919E+01 +5.02022E+00 +2.16907E+01 -1.18124E+01
 +5.83806E+00 -1.89783E+01 -1.14108E+01 -1.22317E+01 -1.95029E+01 +2.76942E+00 -1.55777E+01 +1.55890E+01
 -4.74854E+00 +1.84179E+01 +4.73642E+00 +1.04559E+01 +7.20634E+00 -2.88330E+00 +2.38080E+00 -1.42331E+01
 -5.62463E+00 -1.85843E+01 -1.14274E+01 -1.52516E+01 -1.13432E+01 -7.25457E+00 -4.89300E+00 +7.30329E-01
 +5.24344E+00 +4.63485E+00 +1.44544E+01 +2.79109E+00 +1.82557E+01 -3.20990E+00 +1.46217E+01 -9.11380E+00
 +5.47448E+00 -1.02347E+01 -3.91134E+00 -4.45923E+00 -7.83747E+00 +5.86342E+00 -3.92952E+00 +1.48463E+01
 +4.90602E+00 +1.67328E+01 +1.20987E+01 +1.00188E+01 +1.18837E+01 -1.04853E+00 +3.55855E+00 -9.06018E+00
 -7.71779E+00 -8.55917E+00 -1.44281E+01 -1.42993E-02 -1.20890E+01 +1.03847E+01 -2.56016E+00 +1.51074E+01
 +7.24147E+00 +1.06765E+01 +1.03082E+01 +1.06819E-01 +4.52687E+00 -9.36867E+00 -5.94707E+00 -1.15371E+01
 -1.38143E+01 -5.53246E+00 -1.38388E+01 +3.80842E+00 -6.34420E+00 +9.60463E+00 +3.34269E+00 +7.78871E+00
 +8.82969E+00 -2.94770E-01 +7.01413E+00 -9.15362E+00 -1.18727E-01 -1.30888E+01 -7.20909E+00 -9.94261E+00
 -9.28075E+00 -2.22075E+00 -4.92175E+00 +4.86920E+00 +3.06072E+00 +6.91626E+00 +9.67088E+00 +3.02606E+00
 +1.09629E+01 -3.82465E+00 +6.44811E+00 -8.83100E+00 -7.15482E-01 -8.44134E+00 -5.78247E+00 -2.59913E+00
 -5.45704E+00 +5.19752E+00 -5.18143E-02 +1.00870E+01 +6.62833E+00 +8.99008E+00 +9.73287E+00 +2.72644E+00
 +6.67213E+00 -4.38467E+00 -9.22945E-01 -7.36324E+00 -8.08882E+00 -4.05412E+00 -9.88043E+00 +3.19178E+00
 -4.94958E+00 +9.02121E+00 +3.27972E+00 +8.90431E+00 +8.90108E+00 +2.58113E+00 +7.79266E+00 -5.51490E+00
 +7.41841E-01 -9.37982E+00 -7.02095E+00 -5.92392E+00 -9.69053E+00 +2.56049E+00 -5.31231E+00 +9.94326E+00
 +2.64067E+00 +1.07771E+01 +7.84795E+00 +4.40255E+00 +5.98082E+00 -4.53463E+00 -1.90892E+00 -9.60472E+00
 -1.00972E+01 -7.47440E+00 -1.24835E+01 -3.88413E-01 -7.17998E+00 +5.65024E+00 +2.12052E+00 +5.56445E+00
 +8.99877E+00 -8.85107E-01 +9.13307E+00 -8.94630E+00 +3.38878E+00 -1.25199E+01 -3.09570E+00 -8.74117E+00
 -4.97660E+00 -2.20085E-02 -7.33907E-01 +7.86993E+00 +6.34284E+00 +1.00867E+01 +1.07810E+01 +6.06450E+00
 +9.02417E+00 -4.10182E-01 +1.93019E+00 -4.24332E+00 -6.01851E+00 -2.76254E+00 -9.98626E+00 +2.57148E+00
 -8.05371E+00 +7.49743E+00 -2.24421E+00 +8.12911E+00 +3.16696E+00 +3.63213E+00 +4.66114E+00 -3.34934E+00
 +1.70241E+00 -8.58495E+00 -3.16441E+00 -9.03767E+00 -6.19401E+00 -4.70548E+00 -4.95575E+00 +1.52680E+00
 +1.02686E-01 +5.78996E+00 +5.94026E+00 +5.65044E+00 +8.83127E+00 +1.58687E+00 +6.73693E+00 -3.35257E+00
 +6.92571E-01 -5.52704E+00 -5.70851E+00 -3.13449E+00 -8.53164E+00 +2.45057E+00 -6.09096E+00 +7.41394E+00
 -1.90922E-01 +7.99825E+00 +4.96514E+00 +3.18093E+00 +5.63687E+00 -4.35981E+00 +1.27083E+00 -9.85512E+00
 -4.91812E+00 -9.68988E+00 -8.10759E+00 -4.03031E+00 -5.36194E+00 +3.15141E+00 +2.06594E+00 +6.83545E+00
 +9.42069E+00 +4.58595E+00 +1.17541E+01 -1.61907E+00 +7.49049E+00 -6.79107E+00 -3.98980E-01 -6.60245E+00
 -6.52716E+00 -6.24193E-01 -6.97341E+00 +7.28818E+00 -2.05062E+00 +1.17546E+01 +4.05940E+00 +9.72461E+00
 +6.46387E+00 +2.59428E+00 +3.12584E+00 -4.89639E+00 -3.75341E+00 -8.06931E+00 -9.42385E+00 -5.48550E+00
 -9.98293E+00 +3.19752E-01 -5.00069E+00 +4.87372E+00 +2.36766E+00 +4.94852E+00 +7.64381E+00 +6.34595E-01
 +7.95065E+00 -4.96104E+00 +3.65589E+00 -7.94810E+00 -2.14426E+00 -6.19621E+00 -5.73432E+00 -5.92355E-01
 -5.05646E+00 +5.60011E+00 -8.37020E-01 +8.73598E+00 +3.96564E+00 +6.92679E+00 +5.99632E+00 +1.15223E+00
 +3.59093E+00 -5.25131E+00 -2.05597E+00 -8.49688E+00 -7.40959E+00 -6.65077E+00 -8.68336E+00 -9.75604E-01
 -4.37160E+00 +4.67580E+00 +3.41977E+00 +6.29058E+00 +9.97673E+00 +2.52183E+00 +1.09693E+01 -4.07311E+00
 +5.54133E+00 -8.52882E+00 -2.78146E+00 -6.95252E+00 -8.31713E+00 +4.06960E-01 -7.24480E+00 +8.90885E+00
 -5.23420E-01 +1.25901E+01 +6.61950E+00 +8.51101E+00 +8.48589E+00 -8.64443E-01 +3.26016E+00 -9.22171E+00
 -5.42973E+00 -1.09141E+01 -1.10837E+01 -5.11165E+00 -9.19442E+00 +3.60468E+00 -7.10711E-01 +8.71689E+00
 +8.58805E+00 +6.67702E+00 +1.23496E+01 -5.14964E-01 +8.27384E+00 -6.99988E+00 -3.98900E-01 -7.62185E+00
 -7.54115E+00 -1.78960E+00 -8.73403E+00 +6.26574E+00 -4.24529E+00 +1.08342E+01 +1.69695E+00 +8.92180E+00
 +4.43891E+00 +2.11045E+00 +2.31000E+00 -5.04387E+00 -2.59812E+00 -8.47842E+00 -6.47358E+00 -7.17867E+00
 -6.68801E+00 -3.15821E+00 -3.30237E+00 +5.79354E-01 +1.57485E+00 +2.15871E+00 +5.53826E+00 +1.52364E+00
 +7.17231E+00 -2.72234E-01 +6.21033E+00 -2.05740E+00 +3.11050E+00 -2.93311E+00 -1.13171E+00 -2.20905E+00
 -4.87801E+00 +4.01381E-01 -6.15443E+00 +4.13847E+00 -3.81660E+00 +6.88436E+00 +1.11851E+00 +6.11708E+00
 +5.42384E+00 +9.49559E-01 +5.63456E+00 -6.35153E+00 +9.30045E-01 -1.11355E+01 -5.49937E+00 -9.52155E+00
 -8.28459E+00 -1.75167E+00 -4.02994E+00 +7.20181E+00 +5.40576E+00 +1.08853E+01 +1.35277E+01 +6.36619E+00
 +1.38340E+01 -2.99784E+00 +5.10101E+00 -9.66040E+00 -7.03512E+00 -7.66562E+00 -1.39257E+01 +2.33585E+00
 -1.05215E+01 +1.30678E+01 +4.47212E-01 +1.60250E+01 +1.02944E+01 +8.23445E+00 +1.10541E+01 -5.05806E+00
 +1.82467E+00 -1.41666E+01 -1.03524E+01 -1.24220E+01 -1.59381E+01 -1.42903E+00 -1.04193E+01 +1.01309E+01
 +2.09046E+00 +1.32776E+01 +1.20729E+01 +5.72011E+00 +1.20762E+01 -6.48839E+00 +2.46738E+00 -1.38745E+01
 -9.05595E+00 -1.10237E+01 -1.36589E+01 -6.41044E-01 -8.21264E+00 +8.89499E+00 +2.60951E+00 +1.02997E+01
 +1.03989E+01 +2.94887E+00 +9.71550E+00 -7.05828E+00 +2.02192E+00 -1.20542E+01 -6.02729E+00 -8.78742E+00
 -8.16211E+00 -5.01498E-01 -3.25301E+00 +6.18036E+00 +4.38598E+00 +6.65351E+00 +8.92479E+00 +1.57779E+00
 +7.63861E+00 -4.31237E+00 +2.53131E+00 -6.36516E+00 -1.91536E+00 -3.50339E+00 -2.55734E+00 +1.57692E+00
 +2.63620E-01 +5.13966E+00 +3.65380E+00 +5.42384E+00 +4.89183E+00 +3.49857E+00 +3.42494E+00 +1.70071E+00
 +6.86566E-01 +1.44129E+00 -1.60586E+00 +2.34771E+00 -2.85143E+00 +3.15584E+00 -3.50847E+00 +3.12276E+00
 -4.03219E+00 +2.50405E+00 -4.16624E+00 +1.84059E+00 -3.35861E+00 +1.08334E+00 -1.72801E+00 -3.45011E-01
 -3.51691E-01 -2.58851E+00 -3.62523E-01 -4.63602E+00 -1.68612E+00 -4.85475E+00 -2.80352E+00 -2.50943E+00
 -2.03314E+00 +1.16790E+00 +7.15869E-01 +3.59518E+00 +3.43545E+00 +2.87253E+00 +3.49384E+00 -4.87382E-01
 -1.37493E-03 -3.79317E+00 -5.04487E+00 -4.38361E+00 -8.00024E+00 -1.99533E+00 -6.42691E+00 +8.34889E-01
 -1.13150E+00 +8.50387E-01 +4.37140E+00 -3.02803E+00 +6.64846E+00 -8.47869E+00 +5.09514E+00 -1.13903E+01
 +2.32505E+00 -9.07339E+00 +1.85448E+00 -2.43943E+00 +5.02548E+00 +4.66192E+00 +9.75411E+00 +8.39590E+00
 +1.21423E+01 +7.75805E+00 +9.59410E+00 +5.00574E+00 +2.87359E+00 +3.49801E+00 -4.49850E+00 +4.85380E+00
 -8.88201E+00 +7.76508E+00 -8.98938E+00 +9.27946E+00 -6.33066E+00 +7.30089E+00 -3.57798E+00 +2.20531E+00
 -2.43277E+00 -3.57728E+00 -2.70880E+00 -7.39734E+00 -3.05898E+00 -8.01744E+00 -2.36823E+00 -5.91396E+00
 -5.35265E-01 -2.44092E+00 +1.76476E+00 +1.10821E+00 +3.72432E+00 +3.80682E+00 +4.68419E+00 +4.95878E+00
 +3.99688E+00 +4.17437E+00 +1.08633E+00 +1.84011E+00 -3.89694E+00 -6.40716E-01 -9.34046E+00 -1.56066E+00
 -1.24220E+01 -3.79963E-01 -1.07795E+01 +1.31513E+00 -4.58045E+00 +6.30768E-01 +2.88759E+00 -4.20006E+00
 +7.14841E+00 -1.16356E+01 +5.91726E+00 -1.70643E+01 +1.24520E+00 -1.58930E+01 -1.69660E+00 -7.37154E+00
 +1.29672E+00 +4.05170E+00 +9.61224E+00 +1.14444E+01 +1.75628E+01 +1.04922E+01 +1.84266E+01 +3.03745E+00
 +9.89149E+00 -4.03811E+00 -3.49925E+00 -4.08763E+00 -1.32159E+01 +3.87160E+00 -1.30338E+01 +1.40106E+01
 -3.90028E+00 +1.80265E+01 +6.60497E+00 +1.17389E+01 +1.00140E+01 -1.28683E+00 +3.52248E+00 -1.21311E+01
 -7.82117E+00 -1.32219E+01 -1.50758E+01 -4.14351E+00 -1.24272E+01 +8.02690E+00 -1.74008E+00 +1.41372E+01
 +8.91616E+00 +9.88453E+00 +1.15392E+01 -1.13319E+00 +4.29076E+00 -1.04848E+01 -7.29105E+00 -1.15119E+01
 -1.47205E+01 -4.24652E+00 -1.29909E+01 +5.03750E+00 -4.00484E+00 +8.97589E+00 +5.38367E+00 +4.72277E+00
 +8.82003E+00 -4.28005E+00 +4.99017E+00 -1.13902E+01 -2.05267E+00 -1.19278E+01 -6.54328E+00 -6.32807E+00
 -5.41871E+00 +8.30306E-01 -9.97657E-02 +4.65890E+00 +5.28986E+00 +3.40740E+00 +7.35651E+00 -9.42586E-01
 +5.67352E+00 -4.84233E+00 +2.40026E+00 -5.93944E+00 +1.44809E-01 -4.27099E+00 +9.53642E-02 -1.41893E+00
 +1.74288E+00 +1.12694E+00 +3.89005E+00 +2.85680E+00 +5.66353E+00 +3.93049E+00 +6.65452E+00 +4.45143E+00
 +6.46142E+00 +4.30022E+00 +4.53959E+00 +3.63409E+00 +7.75983E-01 +3.25988E+00 -3.80562E+00 +4.14927E+00
 -7.20186E+00 +6.34151E+00 -7.71355E+00 +8.34402E+00 -5.41775E+00 +7.91815E+00 -2.42965E+00 +3.89867E+00
 -1.42838E+00 -2.43812E+00 -3.46041E+00 -7.82575E+00 -6.85477E+00 -9.21720E+00 -8.33782E+00 -6.12165E+00
 -5.63751E+00 -1.13438E+00 +4.77592E-01 +1.92636E+00 +6.46527E+00 +9.15135E-01 +8.52084E+00 -2.99180E+00
 +5.43242E+00 -6.24451E+00 -4.63087E-01 -5.75318E+00 -4.99960E+00 -1.37714E+00 -5.25181E+00 +3.89527E+00
 -1.58863E+00 +6.20835E+00 +2.81978E+00 +3.76184E+00 +4.56366E+00 -1.85829E+00 +2.58357E+00 -6.89910E+00
 -1.16897E+00 -8.19020E+00 -3.38072E+00 -5.30768E+00 -1.95188E+00 -6.11318E-01 +2.47947E+00 +2.69768E+00
 +7.10587E+00 +2.91362E+00 +9.03045E+00 +8.40476E-01 +7.24011E+00 -1.09791E+00 +3.10003E+00 -8.03584E-01
 -8.05487E-01 +1.98866E+00 -2.49629E+00 +5.64331E+00 -1.77776E+00 +7.87307E+00 -9.08983E-02 +7.30899E+00
 +6.82384E-01 +4.32295E+00 -4.53544E-01 +6.65857E-01 -3.00569E+00 -1.71410E+00 -5.40571E+00 -1.86291E+00
 -6.08639E+00 -3.09022E-01 -4.51807E+00 +1.38357E+00 -1.57487E+00 +1.67843E+00 +9.90682E-01 +8.59208E-02
