 Created: 16-Jan-2021
 $NMID
 ID='D:\BASISSIMULATI'
 FMTDAT='(8E13.5)'
 VOLUME=   1.00000E+00
 TRAMP=   1.00000E+00
 $END
 +5.30533E+01 +2.82870E-01 +4.25520E+01 -1.14451E+01 +1.62457E+01 -1.33331E+01 -1.29416E+01 -1.78842E+00
 -3.14521E+01 +1.79960E+01 -3.22246E+01 +3.48960E+01 -1.79536E+01 +3.83728E+01 +1.18310E+00 +2.47958E+01
 +1.37767E+01 -1.59026E-01 +1.36592E+01 -2.44407E+01 +2.89021E+00 -3.61727E+01 -1.02429E+01 -3.00490E+01
 -1.67304E+01 -9.98286E+00 -1.24029E+01 +1.33408E+01 -2.53044E-01 +2.84211E+01 +1.16905E+01 +2.89249E+01
 +1.54498E+01 +1.64155E+01 +7.97836E+00 -1.40049E+00 -7.04827E+00 -1.55157E+01 -2.14447E+01 -2.05408E+01
 -2.72462E+01 -1.69383E+01 -2.10944E+01 -9.63682E+00 -5.80183E+00 -4.29326E+00 +1.15673E+01 -3.71414E+00
 +2.37143E+01 -6.56589E+00 +2.67639E+01 -8.88138E+00 +2.15824E+01 -7.09669E+00 +1.23595E+01 -5.32510E-01
 +3.70062E+00 +8.20996E+00 -1.83016E+00 +1.50051E+01 -4.35326E+00 +1.68037E+01 -5.48677E+00 +1.33523E+01
 -6.49778E+00 +7.02686E+00 -7.22526E+00 +1.08764E+00 -6.47109E+00 -2.34330E+00 -3.40132E+00 -3.22882E+00
 +1.24587E+00 -2.99464E+00 +5.18122E+00 -2.97911E+00 +5.91804E+00 -3.20964E+00 +2.54138E+00 -2.45072E+00
 -3.40123E+00 +5.20762E-01 -8.63443E+00 +5.41320E+00 -1.01505E+01 +9.92917E+00 -7.18530E+00 +1.08533E+01
 -1.82030E+00 +6.15456E+00 +2.29220E+00 -3.27922E+00 +2.33794E+00 -1.35622E+01 -1.66579E+00 -1.96817E+01
 -6.65741E+00 -1.83314E+01 -8.36147E+00 -9.99562E+00 -4.09312E+00 +1.08512E+00 +5.23355E+00 +9.19260E+00
 +1.52517E+01 +1.03831E+01 +2.04974E+01 +4.78436E+00 +1.76332E+01 -3.47919E+00 +7.59208E+00 -8.74201E+00
 -4.72161E+00 -7.19973E+00 -1.30879E+01 +7.74526E-01 -1.34685E+01 +1.07992E+01 -6.29219E+00 +1.70529E+01
 +3.82589E+00 +1.57169E+01 +1.07739E+01 +7.24438E+00 +1.04599E+01 -3.88283E+00 +3.10258E+00 -1.17446E+01
 -7.01117E+00 -1.23714E+01 -1.41010E+01 -5.93992E+00 -1.42464E+01 +3.47013E+00 -7.55637E+00 +1.03398E+01
 +2.04786E+00 +1.08912E+01 +9.21143E+00 +5.12025E+00 +1.02194E+01 -3.43187E+00 +4.97253E+00 -9.91494E+00
 -3.19347E+00 -1.10097E+01 -9.59999E+00 -6.69875E+00 -1.09015E+01 -2.20240E-02 -6.78437E+00 +4.90046E+00
 +1.86439E-01 +5.31030E+00 +6.30393E+00 +1.27845E+00 +8.88654E+00 -4.56061E+00 +7.58958E+00 -8.70203E+00
 +4.20959E+00 -8.79084E+00 +1.28399E+00 -4.79130E+00 +4.63627E-01 +1.25619E+00 +1.65427E+00 +6.57539E+00
 +3.34289E+00 +9.18613E+00 +3.75855E+00 +8.73793E+00 +2.05271E+00 +6.29592E+00 -1.22779E+00 +3.40276E+00
 -4.57786E+00 +1.11775E+00 -6.49793E+00 -3.78686E-01 -6.32716E+00 -1.49326E+00 -4.46192E+00 -2.59271E+00
 -1.93082E+00 -3.56376E+00 +2.92612E-01 -3.87341E+00 +1.75535E+00 -3.03854E+00 +2.51788E+00 -1.11317E+00
 +2.79576E+00 +1.19404E+00 +2.60721E+00 +2.87486E+00 +1.73123E+00 +3.20573E+00 +1.94381E-03 +2.15766E+00
 -2.32110E+00 +3.59361E-01 -4.44480E+00 -1.34089E+00 -5.35025E+00 -2.39574E+00 -4.35884E+00 -2.80364E+00
 -1.59052E+00 -2.93513E+00 +2.00688E+00 -3.10500E+00 +5.10494E+00 -3.23300E+00 +6.65430E+00 -2.86049E+00
 +6.35678E+00 -1.51961E+00 +4.68216E+00 +8.16413E-01 +2.46669E+00 +3.54506E+00 +3.96163E-01 +5.67392E+00
 -1.27866E+00 +6.35169E+00 -2.64402E+00 +5.34430E+00 -3.78351E+00 +3.14132E+00 -4.51032E+00 +6.30959E-01
 -4.41377E+00 -1.42217E+00 -3.20271E+00 -2.73451E+00 -1.07434E+00 -3.46725E+00 +1.21573E+00 -3.86574E+00
 +2.70587E+00 -3.89126E+00 +2.80816E+00 -3.17130E+00 +1.71655E+00 -1.34893E+00 +3.19709E-01 +1.41748E+00
 -3.79219E-01 +4.22034E+00 +2.72389E-02 +5.71297E+00 +1.01082E+00 +4.86762E+00 +1.42731E+00 +1.72554E+00
 +3.44527E-01 -2.39715E+00 -2.15638E+00 -5.49075E+00 -4.78984E+00 -5.95958E+00 -5.71411E+00 -3.60471E+00
 -3.69459E+00 +1.64758E-01 +9.35738E-01 +3.10289E+00 +6.18866E+00 +3.47443E+00 +9.37643E+00 +1.16626E+00
 +8.62168E+00 -2.16158E+00 +4.03125E+00 -4.04738E+00 -2.21929E+00 -2.77878E+00 -7.01826E+00 +1.42326E+00
 -8.05118E+00 +6.36029E+00 -5.11781E+00 +9.05219E+00 -2.29687E-01 +7.50377E+00 +3.59711E+00 +1.98581E+00
 +4.14653E+00 -4.97157E+00 +1.32021E+00 -9.91810E+00 -2.83319E+00 -1.03942E+01 -5.39912E+00 -6.29528E+00
 -4.41072E+00 +1.11460E-01 -8.94996E-02 +5.51357E+00 +5.24211E+00 +7.42229E+00 +8.52015E+00 +5.47617E+00
 +7.74270E+00 +1.44197E+00 +3.13308E+00 -2.01796E+00 -3.01387E+00 -3.00352E+00 -7.66904E+00 -1.43402E+00
 -8.75372E+00 +1.09927E+00 -6.16879E+00 +2.51154E+00 -1.61832E+00 +1.62742E+00 +2.55829E+00 -1.09352E+00
 +4.74775E+00 -3.92963E+00 +4.77510E+00 -5.06311E+00 +3.61626E+00 -3.74043E+00 +2.44086E+00 -6.77903E-01
 +1.72645E+00 +2.49787E+00 +1.06618E+00 +4.33467E+00 -2.52635E-01 +4.39998E+00 -2.39904E+00 +3.33448E+00
 -4.58012E+00 +2.14830E+00 -5.43727E+00 +1.33966E+00 -4.02510E+00 +5.32345E-01 -6.66946E-01 -1.06938E+00
 +2.99802E+00 -3.74565E+00 +4.92977E+00 -6.59752E+00 +4.02449E+00 -7.78118E+00 +9.63959E-01 -5.64831E+00
 -2.08679E+00 -1.00267E-01 -2.85517E+00 +6.82073E+00 -5.68305E-01 +1.16960E+01 +3.30585E+00 +1.15847E+01
 +5.80425E+00 +5.91213E+00 +4.36980E+00 -2.83829E+00 -1.25025E+00 -1.02338E+01 -8.39885E+00 -1.23129E+01
 -1.27715E+01 -7.94150E+00 -1.09527E+01 +3.57352E-01 -2.73801E+00 +7.72867E+00 +8.26803E+00 +9.79702E+00
 +1.63396E+01 +5.32849E+00 +1.67869E+01 -2.90049E+00 +8.78515E+00 -9.65572E+00 -3.85560E+00 -1.03856E+01
 -1.45793E+01 -4.09413E+00 -1.76640E+01 +5.83498E+00 -1.14685E+01 +1.34687E+01 +5.66681E-01 +1.38176E+01
 +1.18100E+01 +5.94182E+00 +1.61786E+01 -6.22982E+00 +1.15756E+01 -1.59560E+01 +1.02116E+00 -1.74976E+01
 -9.18299E+00 -9.49019E+00 -1.31737E+01 +4.12146E+00 -8.93663E+00 +1.61821E+01 +5.95466E-01 +2.02851E+01
 +9.37976E+00 +1.43246E+01 +1.19148E+01 +1.60872E+00 +6.52264E+00 -1.10730E+01 -3.67716E+00 -1.72721E+01
 -1.26466E+01 -1.43746E+01 -1.50087E+01 -4.79792E+00 -9.19215E+00 +5.68376E+00 +1.69363E+00 +1.13855E+01
 +1.17082E+01 +9.85860E+00 +1.55019E+01 +2.95403E+00 +1.12816E+01 -4.66431E+00 +1.63794E+00 -8.50094E+00
 -8.12359E+00 -6.83976E+00 -1.30468E+01 -1.46945E+00 -1.11452E+01 +3.75686E+00 -4.13472E+00 +5.48372E+00
 +3.95162E+00 +2.89059E+00 +9.24281E+00 -2.00036E+00 +1.00438E+01 -5.79884E+00 +7.27808E+00 -5.95222E+00
 +3.33476E+00 -2.25796E+00 +2.84398E-01 +3.19686E+00 -1.29982E+00 +7.49029E+00 -2.23060E+00 +8.66990E+00
 -3.57684E+00 +6.73351E+00 -5.47951E+00 +3.25639E+00 -6.84923E+00 +7.97918E-02 -6.18454E+00 -1.92722E+00
 -2.89272E+00 -3.15965E+00 +1.91263E+00 -4.49719E+00 +5.82539E+00 -6.14420E+00 +6.60270E+00 -7.07688E+00
 +3.70977E+00 -5.64471E+00 -1.14729E+00 -9.91979E-01 -4.97617E+00 +5.73361E+00 -5.40953E+00 +1.14109E+01
 -2.33151E+00 +1.24739E+01 +1.92612E+00 +7.14770E+00 +4.07193E+00 -3.02204E+00 +2.14678E+00 -1.34863E+01
 -2.88664E+00 -1.89214E+01 -7.42226E+00 -1.62007E+01 -7.37152E+00 -6.35015E+00 -9.62403E-01 +5.79326E+00
 +9.61370E+00 +1.41710E+01 +1.89214E+01 +1.49082E+01 +2.11736E+01 +8.52624E+00 +1.37075E+01 -4.09584E-01
 -1.04735E+00 -6.06550E+00 -1.64320E+01 -4.91458E+00 -2.49489E+01 +2.05362E+00 -2.23405E+01 +9.88113E+00
 -1.00199E+01 +1.26890E+01 +5.60435E+00 +7.42267E+00 +1.65928E+01 -3.99062E+00 +1.77860E+01 -1.54626E+01
 +9.50853E+00 -2.01646E+01 -2.85824E+00 -1.45874E+01 -1.21390E+01 -8.34694E-01 -1.35212E+01 +1.42622E+01
 -7.17708E+00 +2.27797E+01 +2.13422E+00 +2.00429E+01 +8.16075E+00 +7.20365E+00 +7.04146E+00 -9.39940E+00
 -3.55451E-01 -2.17005E+01 -9.00692E+00 -2.41961E+01 -1.28300E+01 -1.66571E+01 -8.41341E+00 -3.83443E+00
 +2.84011E+00 +7.50627E+00 +1.54079E+01 +1.23927E+01 +2.27307E+01 +1.00997E+01 +2.08595E+01 +3.97113E+00
 +1.05691E+01 -1.06032E+00 -3.19692E+00 -1.61361E+00 -1.41110E+01 +2.24503E+00 -1.77970E+01 +7.37529E+00
 -1.38402E+01 +9.79922E+00 -5.48685E+00 +7.30579E+00 +2.55367E+00 +8.11499E-01 +6.76335E+00 -6.27150E+00
 +6.38245E+00 -1.01508E+01 +3.16549E+00 -8.88286E+00 -2.39858E-01 -3.37653E+00 -2.09047E+00 +3.32386E+00
 -2.38100E+00 +7.89684E+00 -2.33866E+00 +8.53218E+00 -3.12839E+00 +5.60990E+00 -4.78519E+00 +1.02839E+00
 -6.13457E+00 -3.19256E+00 -5.70486E+00 -6.03331E+00 -2.91943E+00 -7.63951E+00 +1.32789E+00 -8.59609E+00
 +5.15586E+00 -9.01075E+00 +6.91450E+00 -8.19660E+00 +6.28071E+00 -5.24431E+00 +4.44035E+00 -5.63463E-02
 +3.19726E+00 +5.99895E+00 +3.61239E+00 +1.04532E+01 +5.14002E+00 +1.10626E+01 +5.92490E+00 +7.30070E+00
 +4.13669E+00 +9.96748E-01 -5.31637E-01 -4.44908E+00 -6.26736E+00 -5.94090E+00 -9.97899E+00 -2.56613E+00
 -9.17066E+00 +3.71433E+00 -3.70251E+00 +9.09247E+00 +3.74855E+00 +1.01330E+01 +8.97358E+00 +5.87948E+00
 +8.62069E+00 -1.46027E+00 +2.29238E+00 -7.73935E+00 -6.96721E+00 -9.33206E+00 -1.42050E+01 -5.36620E+00
 -1.53108E+01 +1.64986E+00 -9.40802E+00 +7.24318E+00 +5.42798E-01 +7.63670E+00 +9.34009E+00 +2.07463E+00
 +1.24532E+01 -6.60384E+00 +8.57679E+00 -1.35322E+01 +3.42685E-01 -1.46343E+01 -7.22383E+00 -9.03642E+00
 -9.60114E+00 +3.60795E-01 -5.33518E+00 +8.50840E+00 +3.20330E+00 +1.10933E+01 +1.12674E+01 +7.00131E+00
 +1.44982E+01 -1.06836E+00 +1.13715E+01 -8.17730E+00 +3.92647E+00 -9.97704E+00 -3.58026E+00 -5.15266E+00
 -7.23004E+00 +3.89915E+00 -5.67155E+00 +1.24864E+01 -7.40657E-01 +1.62555E+01 +3.81610E+00 +1.35122E+01
 +4.67885E+00 +5.95237E+00 +9.33998E-01 -2.50027E+00 -5.44667E+00 -7.96461E+00 -1.08378E+01 -8.62553E+00
 -1.21065E+01 -5.40586E+00 -8.38717E+00 -1.04896E+00 -1.49096E+00 +1.69220E+00 +5.19856E+00 +1.61648E+00
 +8.61486E+00 -4.93109E-01 +7.56783E+00 -2.68622E+00 +3.14521E+00 -3.27149E+00 -2.13341E+00 -1.90903E+00
 -5.78553E+00 +2.76768E-01 -6.56107E+00 +1.54455E+00 -4.75225E+00 +7.29518E-01 -1.61567E+00 -1.99372E+00
 +1.57019E+00 -5.22307E+00 +4.15975E+00 -7.18025E+00 +6.15763E+00 -6.72246E+00 +7.73705E+00 -3.89443E+00
 +8.73101E+00 +2.49125E-01 +8.53599E+00 +4.33722E+00 +6.52084E+00 +7.38665E+00 +2.63358E+00 +9.08096E+00
 -2.26981E+00 +9.54243E+00 -6.67239E+00 +8.88662E+00 -9.11900E+00 +6.97854E+00 -8.97476E+00 +3.61702E+00
 -6.73365E+00 -9.91549E-01 -3.67496E+00 -5.87722E+00 -1.08958E+00 -9.44419E+00 +4.21727E-01 -1.01547E+01
 +1.12982E+00 -7.40940E+00 +1.74460E+00 -2.07442E+00 +2.69391E+00 +3.74220E+00 +3.64251E+00 +7.62669E+00
 +3.62479E+00 +8.02767E+00 +1.74691E+00 +5.00428E+00 -1.99397E+00 +1.26184E-01 -6.35044E+00 -4.41290E+00
