 Created: 16-Jan-2021
 $NMID
 ID='D:\BASISSIMULATI'
 FMTDAT='(8E13.5)'
 VOLUME=   1.00000E+00
 TRAMP=   1.00000E+00
 $END
 +5.70673E+01 +6.51593E-01 +2.76963E+01 +4.64658E+01 -2.39297E+01 +4.04805E+01 -3.84367E+01 -5.70369E+00
 -3.21380E+00 -3.41665E+01 +3.43598E+01 -1.14885E+01 +2.62219E+01 +3.20107E+01 -1.80306E+01 +4.12439E+01
 -4.44756E+01 +4.32038E+00 -2.19574E+01 -3.38720E+01 +2.00890E+01 -2.78913E+01 +2.88306E+01 +1.22839E+01
 -6.44339E+00 +3.41258E+01 -4.11407E+01 +7.68707E+00 -3.01875E+01 -3.72814E+01 +1.67061E+01 -4.73716E+01
 +4.66670E+01 -1.01860E+01 +2.73404E+01 +3.11453E+01 -1.51056E+01 +3.04153E+01 -2.89739E+01 -6.74037E+00
 +3.40999E-01 -3.16275E+01 +3.43068E+01 -1.27087E+01 +2.98082E+01 +2.68523E+01 -8.28277E+00 +3.90597E+01
 -3.43744E+01 +1.02472E+01 -1.88311E+01 -2.31610E+01 +1.61939E+01 -2.04246E+01 +2.50248E+01 +1.34117E+01
 -4.94253E+00 +3.43461E+01 -3.78942E+01 +1.38500E+01 -3.35402E+01 -2.62106E+01 +4.03176E+00 -4.02967E+01
 +3.18659E+01 -1.40907E+01 +2.02267E+01 +1.93100E+01 -1.26165E+01 +2.04476E+01 -2.42555E+01 -9.19879E+00
 -1.11285E-01 -3.07647E+01 +3.00198E+01 -1.64403E+01 +2.96161E+01 +1.71671E+01 -5.12084E-02 +3.05869E+01
 -2.26828E+01 +1.00682E+01 -1.21740E+01 -1.65872E+01 +1.58890E+01 -1.52075E+01 +2.43603E+01 +1.27416E+01
 +4.66183E-01 +3.25611E+01 -2.88853E+01 +1.90939E+01 -3.01921E+01 -1.29773E+01 -3.57487E+00 -2.75860E+01
 +1.85403E+01 -1.08235E+01 +1.13275E+01 +1.35976E+01 -1.32581E+01 +1.45143E+01 -2.26658E+01 -8.88304E+00
 -4.02130E+00 -2.73890E+01 +2.09992E+01 -1.83229E+01 +2.36311E+01 +7.25932E+00 +2.98653E+00 +1.91887E+01
 -1.40374E+01 +5.35113E+00 -6.47004E+00 -1.44141E+01 +1.54404E+01 -1.36388E+01 +2.36466E+01 +8.28847E+00
 +6.82353E+00 +2.59959E+01 -1.64219E+01 +1.93353E+01 -2.07341E+01 -2.82344E+00 -4.26718E+00 -1.44654E+01
 +1.05493E+01 -4.15926E+00 +5.24947E+00 +1.23027E+01 -1.27195E+01 +1.25526E+01 -2.03751E+01 -4.89451E+00
 -7.79418E+00 -1.97498E+01 +1.04280E+01 -1.53875E+01 +1.38348E+01 +1.34168E+00 +9.27867E-01 +9.53794E+00
 -1.00693E+01 +1.38921E-01 -4.25425E+00 -1.37291E+01 +1.20173E+01 -1.36405E+01 +1.96160E+01 +1.65851E+00
 +1.00167E+01 +1.54447E+01 -5.20845E+00 +1.36750E+01 -9.30814E+00 +1.20677E+00 -3.80309E-01 -5.47569E+00
 +7.71035E+00 +1.19530E+00 +3.31683E+00 +1.15129E+01 -8.95752E+00 +1.15060E+01 -1.47841E+01 +2.34959E-01
 -7.98125E+00 -9.74556E+00 +2.54466E+00 -8.23223E+00 +4.45287E+00 +6.15727E-01 -3.01745E+00 +4.31227E+00
 -8.94963E+00 -2.31993E+00 -4.68051E+00 -1.13352E+01 +5.90609E+00 -1.19537E+01 +1.17501E+01 -3.48882E+00
 +8.03010E+00 +4.67836E+00 +1.01799E+00 +4.94049E+00 -5.88843E-01 -1.09783E-02 +3.77398E+00 -1.77971E+00
 +6.89131E+00 +2.84540E+00 +3.49846E+00 +8.43981E+00 -3.31964E+00 +8.37329E+00 -6.52755E+00 +3.04412E+00
 -3.97277E+00 -1.19920E+00 -4.67592E-01 -2.80665E-01 -1.20259E+00 +2.92739E+00 -5.33845E+00 +2.84226E+00
 -7.56342E+00 -1.70287E+00 -4.91537E+00 -6.39783E+00 -3.09546E-02 -7.08489E+00 +2.67683E+00 -4.47733E+00
 +2.35549E+00 -2.38274E+00 +1.84651E+00 -2.53099E+00 +3.23433E+00 -2.91739E+00 +5.12706E+00 -1.24175E+00
 +4.98227E+00 +1.71615E+00 +2.81473E+00 +3.29348E+00 +1.11343E+00 +2.70372E+00 +1.30315E+00 +2.01908E+00
 +1.80013E+00 +3.11824E+00 +3.36309E-01 +4.94629E+00 -2.73335E+00 +4.90791E+00 -4.74956E+00 +2.45001E+00
 -4.26422E+00 -1.34239E-01 -2.89219E+00 -8.06672E-01 -2.91363E+00 -4.99117E-01 -3.93589E+00 -1.62101E+00
 -3.34203E+00 -4.34807E+00 -1.05450E-01 -5.91126E+00 +3.25399E+00 -4.17348E+00 +3.57152E+00 -8.12694E-01
 +1.23733E+00 +4.24260E-01 +1.36147E-02 -1.49772E+00 +2.28901E+00 -3.30392E+00 +5.74510E+00 -1.42334E+00
 +5.97604E+00 +3.27424E+00 +2.03316E+00 +6.19730E+00 -2.15585E+00 +4.59914E+00 -2.53440E+00 +1.02984E+00
 +4.04413E-02 +1.41084E-01 +9.46507E-01 +2.74062E+00 -2.15929E+00 +4.69438E+00 -6.08537E+00 +2.25716E+00
 -5.97789E+00 -2.86928E+00 -1.57563E+00 -5.34596E+00 +2.16684E+00 -2.82680E+00 +1.13801E+00 +9.44308E-01
 -2.69663E+00 +6.93627E-01 -3.60553E+00 -3.70057E+00 +7.29383E-01 -6.82772E+00 +6.09654E+00 -4.34304E+00
 +6.72823E+00 +1.57285E+00 +2.30427E+00 +4.74199E+00 -1.70204E+00 +2.45458E+00 -7.89111E-01 -1.36652E+00
 +3.10334E+00 -1.20980E+00 +4.20229E+00 +3.09866E+00 +2.62682E-01 +6.23583E+00 -4.56749E+00 +4.13203E+00
 -4.94373E+00 -8.84180E-01 -1.01504E+00 -3.00488E+00 +1.80977E+00 -2.28555E-01 -2.90375E-01 +3.15679E+00
 -4.69862E+00 +2.00588E+00 -5.58760E+00 -3.15463E+00 -1.18040E+00 -6.66075E+00 +3.99807E+00 -4.61735E+00
 +4.61529E+00 +4.15656E-01 +8.92960E-01 +2.67470E+00 -1.96349E+00 +2.01646E-01 -3.31876E-01 -3.07185E+00
 +3.53436E+00 -2.50458E+00 +4.64227E+00 +1.49630E+00 +1.59719E+00 +4.25862E+00 -1.86500E+00 +2.87536E+00
 -1.82640E+00 -2.83787E-01 +8.81383E-01 -8.61980E-01 +1.97215E+00 +1.82519E+00 -6.46164E-01 +4.00599E+00
 -4.16944E+00 +2.37559E+00 -4.47093E+00 -1.67681E+00 -1.25277E+00 -3.83968E+00 +1.72997E+00 -2.21373E+00
 +1.42722E+00 +5.87409E-01 -9.42392E-01 +9.88620E-01 -1.85346E+00 -1.12751E+00 -8.96295E-02 -2.69893E+00
 +2.00697E+00 -1.71525E+00 +1.95618E+00 +3.24468E-01 +4.17994E-01 +7.69347E-01 +2.89518E-03 -4.67245E-01
 +1.45802E+00 -9.22755E-01 +2.55519E+00 +8.03213E-01 +1.21381E+00 +2.89646E+00 -1.45320E+00 +2.67363E+00
 -2.43444E+00 +2.77504E-01 -8.10075E-01 -1.36759E+00 +9.78408E-01 -4.09640E-01 +4.10998E-01 +1.44779E+00
 -1.65940E+00 +1.29176E+00 -2.16042E+00 -9.17805E-01 -1.33917E-01 -2.16466E+00 +1.69584E+00 -5.65093E-01
 +5.55855E-01 +1.72013E+00 -2.26529E+00 +1.13896E+00 -2.66778E+00 -2.22725E+00 +7.77554E-01 -4.14487E+00
 +4.31918E+00 -1.53057E+00 +3.38180E+00 +3.07392E+00 -1.34836E+00 +4.13209E+00 -4.19241E+00 +1.14650E-01
 -1.44122E+00 -4.07863E+00 +3.61386E+00 -2.97625E+00 +4.44479E+00 +2.33947E+00 -3.75062E-01 +5.16331E+00
 -4.90411E+00 +1.59098E+00 -3.12505E+00 -4.09219E+00 +3.07127E+00 -4.42750E+00 +5.71003E+00 +1.57532E+00
 +7.73411E-01 +6.52582E+00 -6.09354E+00 +3.65056E+00 -6.09648E+00 -4.20753E+00 +1.47298E+00 -7.39837E+00
 +7.56745E+00 -1.41264E+00 +4.24563E+00 +6.82798E+00 -5.01136E+00 +6.94366E+00 -8.88697E+00 -1.87021E+00
 -2.11304E+00 -9.14320E+00 +7.44360E+00 -5.71658E+00 +7.99129E+00 +4.55730E+00 -1.44175E+00 +8.99102E+00
 -9.20683E+00 +1.71247E+00 -5.19909E+00 -8.51173E+00 +6.18866E+00 -8.67631E+00 +1.08937E+01 +2.11030E+00
 +2.59021E+00 +1.08409E+01 -8.83548E+00 +6.44227E+00 -9.01617E+00 -6.00641E+00 +2.81782E+00 -1.08661E+01
 +1.20833E+01 -1.28897E+00 +6.52497E+00 +1.15367E+01 -8.07348E+00 +1.15276E+01 -1.41590E+01 -2.23424E+00
 -3.86393E+00 -1.35275E+01 +1.06638E+01 -8.48274E+00 +1.15708E+01 +6.98254E+00 -2.63853E+00 +1.37708E+01
 -1.46342E+01 +2.96001E+00 -9.24113E+00 -1.27042E+01 +7.54649E+00 -1.40082E+01 +1.54020E+01 +9.36570E-01
 +4.66815E+00 +1.38344E+01 -1.12273E+01 +8.57178E+00 -1.19667E+01 -8.42103E+00 +4.21058E+00 -1.54905E+01
 +1.74967E+01 -2.56615E+00 +1.05900E+01 +1.55445E+01 -9.35778E+00 +1.66268E+01 -1.85671E+01 -1.42116E+00
 -5.58576E+00 -1.71063E+01 +1.40194E+01 -1.11493E+01 +1.60498E+01 +9.56023E+00 -2.65811E+00 +1.97154E+01
 -1.97881E+01 +6.36010E+00 -1.45042E+01 -1.48734E+01 +6.85357E+00 -1.85361E+01 +1.82335E+01 -6.31287E-01
 +5.91773E+00 +1.61874E+01 -1.42095E+01 +1.04946E+01 -1.60235E+01 -1.09911E+01 +4.16877E+00 -2.11066E+01
 +2.21748E+01 -5.83794E+00 +1.52911E+01 +1.74984E+01 -9.17482E+00 +2.06941E+01 -2.18678E+01 -6.09060E-01
 -7.03035E+00 -2.07010E+01 +1.76319E+01 -1.46537E+01 +2.18806E+01 +1.09803E+01 -2.27548E-01 +2.55413E+01
 -2.26961E+01 +1.13833E+01 -1.90295E+01 -1.44702E+01 +5.41013E+00 -2.10099E+01 +1.99945E+01 -1.27211E+00
 +6.65286E+00 +1.90585E+01 -1.75490E+01 +1.34610E+01 -2.13164E+01 -1.21581E+01 +1.80205E+00 -2.61335E+01
 +2.45324E+01 -1.01023E+01 +1.89257E+01 +1.75273E+01 -8.81748E+00 +2.32990E+01 -2.49794E+01 -2.65459E-01
 -9.18042E+00 -2.47175E+01 +2.02627E+01 -1.97767E+01 +2.79978E+01 +9.67524E+00 +4.44888E+00 +2.90942E+01
 -2.24507E+01 +1.60261E+01 -2.12277E+01 -1.27236E+01 +4.84057E+00 -2.18706E+01 +2.20943E+01 -1.03940E+00
 +8.27855E+00 +2.25657E+01 -1.96780E+01 +1.79959E+01 -2.64059E+01 -1.06727E+01 -2.12792E+00 -2.87214E+01
 +2.44207E+01 -1.34876E+01 +2.07678E+01 +1.70288E+01 -9.08638E+00 +2.54054E+01 -2.86860E+01 +5.35510E-01
 -1.31902E+01 -2.81265E+01 +2.00639E+01 -2.58141E+01 +3.21270E+01 +5.40055E+00 +9.41928E+00 +2.90124E+01
 -2.00856E+01 +1.82966E+01 -2.12275E+01 -1.15807E+01 +5.50277E+00 -2.27385E+01 +2.51257E+01 -1.39438E+00
 +1.17860E+01 +2.52653E+01 -1.89697E+01 +2.29390E+01 -2.91966E+01 -6.92881E+00 -5.62749E+00 -2.83248E+01
 +2.32603E+01 -1.48608E+01 +2.17006E+01 +1.72254E+01 -9.27560E+00 +2.82130E+01 -3.23383E+01 +3.29136E+00
 -1.88618E+01 -2.88918E+01 +1.62398E+01 -3.05053E+01 +3.23983E+01 -1.02267E-01 +1.22872E+01 +2.59610E+01
 -1.78093E+01 +1.78393E+01 -2.07345E+01 -1.19520E+01 +6.05111E+00 -2.47619E+01 +2.79513E+01 -3.80317E+00
 +1.64562E+01 +2.52040E+01 -1.53178E+01 +2.60384E+01 -2.86404E+01 -2.92399E+00 -7.08136E+00 -2.62361E+01
 +2.27202E+01 -1.48418E+01 +2.32937E+01 +1.78219E+01 -7.66221E+00 +3.16163E+01 -3.38804E+01 +8.41916E+00
 -2.41416E+01 -2.56221E+01 +1.01237E+01 -3.14911E+01 +2.89210E+01 -4.11669E+00 +1.20605E+01 +2.22593E+01
 -1.71725E+01 +1.62419E+01 -2.14541E+01 -1.28274E+01 +4.62129E+00 -2.73059E+01 +2.84202E+01 -8.13757E+00
 +2.00390E+01 +2.16738E+01 -1.05444E+01 +2.56861E+01 -2.57027E+01 -7.60361E-01 -6.64352E+00 -2.45060E+01
 +2.30901E+01 -1.52303E+01 +2.60980E+01 +1.70673E+01 -3.17823E+00 +3.37631E+01 -3.13651E+01 +1.42938E+01
 -2.62906E+01 -1.90427E+01 +4.57700E+00 -2.81669E+01 +2.38961E+01 -4.92477E+00 +9.95840E+00 +2.00946E+01
 -1.77285E+01 +1.56697E+01 -2.34235E+01 -1.21110E+01 +6.51337E-01 -2.82225E+01 +2.51864E+01 -1.23608E+01
 +2.03887E+01 +1.61062E+01 -7.15024E+00 +2.23117E+01 -2.26552E+01 -9.27648E-01 -6.12226E+00 -2.41229E+01
 +2.28416E+01 -1.72610E+01 +2.87085E+01 +1.33030E+01 +3.18987E+00 +3.22864E+01 -2.47507E+01 +1.79961E+01
 -2.39042E+01 -1.19094E+01 +2.03415E+00 -2.23417E+01 +2.00347E+01 -3.12297E+00 +8.40883E+00 +1.97729E+01
 -1.73899E+01 +1.69331E+01 -2.47441E+01 -8.53253E+00 -4.26942E+00 -2.55799E+01 +1.90780E+01 -1.39062E+01
