 Created: 19-Jan-2021
 $NMID
 ID='D:\BASISSIMULATI'
 FMTDAT='(8E13.5)'
 VOLUME=   1.00000E+00
 TRAMP=   1.00000E+00
 $END
 +4.52704E+01 +3.16681E+00 +3.94574E+01 +2.17244E+01 +2.57606E+01 +3.53996E+01 +7.48360E+00 +4.10346E+01
 -1.09621E+01 +3.74622E+01 -2.51639E+01 +2.57898E+01 -3.18101E+01 +9.10675E+00 -2.95060E+01 -8.30523E+00
 -1.90995E+01 -2.20552E+01 -3.43710E+00 -2.87397E+01 +1.33779E+01 -2.67756E+01 +2.70306E+01 -1.67605E+01
 +3.40729E+01 -1.28064E+00 +3.27595E+01 +1.57769E+01 +2.34392E+01 +3.02192E+01 +8.41141E+00 +3.85928E+01
 -8.69941E+00 +3.90130E+01 -2.38788E+01 +3.15759E+01 -3.37214E+01 +1.82631E+01 -3.62409E+01 +2.38229E+00
 -3.12944E+01 -1.22990E+01 -2.05313E+01 -2.24942E+01 -6.90141E+00 -2.61753E+01 +6.13408E+00 -2.30003E+01
 +1.54751E+01 -1.43005E+01 +1.91170E+01 -2.65606E+00 +1.65694E+01 +8.81138E+00 +8.87620E+00 +1.72346E+01
 -1.74452E+00 +2.06802E+01 -1.25239E+01 +1.85510E+01 -2.08548E+01 +1.16285E+01 -2.49082E+01 +1.77476E+00
 -2.40080E+01 -8.60718E+00 -1.86903E+01 -1.71980E+01 -1.04595E+01 -2.23084E+01 -1.33244E+00 -2.32174E+01
 +6.69701E+00 -2.02390E+01 +1.21274E+01 -1.45274E+01 +1.42442E+01 -7.69926E+00 +1.31843E+01 -1.39005E+00
 +9.78233E+00 +3.13612E+00 +5.26679E+00 +5.22938E+00 +9.04052E-01 +4.90802E+00 -2.30914E+00 +2.73707E+00
 -3.83202E+00 -4.09563E-01 -3.61519E+00 -3.62078E+00 -2.00212E+00 -6.17418E+00 +4.50881E-01 -7.66206E+00
 +3.16820E+00 -8.00138E+00 +5.70145E+00 -7.34925E+00 +7.79328E+00 -5.97179E+00 +9.35604E+00 -4.12133E+00
 +1.03928E+01 -1.96541E+00 +1.09055E+01 +4.14452E-01 +1.08348E+01 +2.96543E+00 +1.00585E+01 +5.58180E+00
 +8.45248E+00 +8.04251E+00 +5.98720E+00 +1.00037E+01 +2.81943E+00 +1.10609E+01 -6.64658E-01 +1.08676E+01
 -3.88465E+00 +9.27408E+00 -6.18275E+00 +6.43519E+00 -6.99662E+00 +2.84391E+00 -6.03940E+00 -7.35967E-01
 -3.42977E+00 -3.43213E+00 +2.76175E-01 -4.48462E+00 +4.17376E+00 -3.46629E+00 +7.20786E+00 -4.38029E-01
 +8.43489E+00 +4.01300E+00 +7.28125E+00 +8.87417E+00 +3.72592E+00 +1.29315E+01 -1.64839E+00 +1.50653E+01
 -7.75880E+00 +1.45430E+01 -1.32626E+01 +1.12303E+01 -1.68784E+01 +5.66049E+00 -1.77089E+01 -1.06307E+00
 -1.54799E+01 -7.51404E+00 -1.06326E+01 -1.22813E+01 -4.23883E+00 -1.43153E+01 +2.24277E+00 -1.31943E+01
 +7.31385E+00 -9.24098E+00 +9.79970E+00 -3.45807E+00 +9.13929E+00 +2.70572E+00 +5.52826E+00 +7.70191E+00
 -1.21949E-01 +1.02564E+01 -6.39994E+00 +9.67950E+00 -1.17328E+01 +6.03441E+00 -1.47641E+01 +1.24007E-01
 -1.46790E+01 -6.70163E+00 -1.13978E+01 -1.28686E+01 -5.59141E+00 -1.69543E+01 +1.48220E+00 -1.80227E+01
 +8.28043E+00 -1.58407E+01 +1.33415E+01 -1.09234E+01 +1.56249E+01 -4.40226E+00 +1.47465E+01 +2.25028E+00
 +1.10536E+01 +7.57047E+00 +5.52694E+00 +1.04432E+01 -4.63113E-01 +1.03515E+01 -5.48553E+00 +7.47995E+00
 -8.38176E+00 +2.65114E+00 -8.52566E+00 -2.88434E+00 -5.95145E+00 -7.75049E+00 -1.32455E+00 -1.07676E+01
 +4.23256E+00 -1.12174E+01 +9.41349E+00 -8.99251E+00 +1.30332E+01 -4.59973E+00 +1.42939E+01 +9.77496E-01
 +1.29512E+01 +6.51999E+00 +9.34845E+00 +1.08576E+01 +4.31475E+00 +1.31304E+01 -1.04138E+00 +1.29686E+01
 -5.59266E+00 +1.05526E+01 -8.44537E+00 +6.54733E+00 -9.12692E+00 +1.93013E+00 -7.66957E+00 -2.24253E+00
 -4.57693E+00 -5.07397E+00 -6.86936E-01 -6.01803E+00 +3.03227E+00 -4.98140E+00 +5.70422E+00 -2.31964E+00
 +6.73330E+00 +1.26610E+00 +5.92103E+00 +4.90310E+00 +3.48799E+00 +7.74888E+00 +2.22439E-03 +9.17463E+00
 -3.76438E+00 +8.89077E+00 -7.01564E+00 +6.99088E+00 -9.10488E+00 +3.90924E+00 -9.66543E+00 +3.07192E-01
 -8.67218E+00 -3.08253E+00 -6.42547E+00 -5.61665E+00 -3.46617E+00 -6.87235E+00 -4.44948E-01 -6.72214E+00
 +2.02283E+00 -5.34062E+00 +3.48449E+00 -3.14646E+00 +3.73392E+00 -6.96797E-01 +2.83723E+00 +1.43998E+00
 +1.09924E+00 +2.80453E+00 -1.01765E+00 +3.13503E+00 -3.00141E+00 +2.40793E+00 -4.40070E+00 +8.25938E-01
 -4.91423E+00 -1.23980E+00 -4.44255E+00 -3.33791E+00 -3.09464E+00 -5.03480E+00 -1.15150E+00 -6.00156E+00
 +1.00213E+00 -6.07326E+00 +2.96191E+00 -5.27076E+00 +4.38546E+00 -3.78390E+00 +5.05561E+00 -1.92240E+00
 +4.91427E+00 -4.69160E-02 +4.06271E+00 +1.50479E+00 +2.73080E+00 +2.48188E+00 +1.22362E+00 +2.76297E+00
 -1.42670E-01 +2.37085E+00 -1.10269E+00 +1.45849E+00 -1.48993E+00 +2.71102E-01 -1.26296E+00 -9.06950E-01
 -5.06287E-01 -1.80955E+00 +5.92786E-01 -2.23952E+00 +1.78562E+00 -2.10351E+00 +2.81331E+00 -1.42554E+00
 +3.45745E+00 -3.37482E-01 +3.58111E+00 +9.50474E-01 +3.15267E+00 +2.19335E+00 +2.24878E+00 +3.16002E+00
 +1.03628E+00 +3.67774E+00 -2.62645E-01 +3.66417E+00 -1.41530E+00 +3.14097E+00 -2.22419E+00 +2.22694E+00
 -2.56489E+00 +1.11207E+00 -2.40872E+00 +1.82634E-02 -1.82585E+00 -8.45665E-01 -9.68732E-01 -1.32542E+00
 -3.90861E-02 -1.35096E+00 +7.54415E-01 -9.48591E-01 +1.23919E+00 -2.33116E-01 +1.31360E+00 +6.18031E-01
 +9.66540E-01 +1.40324E+00 +2.77786E-01 +1.93954E+00 -6.00654E-01 +2.10079E+00 -1.47811E+00 +1.84330E+00
 -2.16638E+00 +1.21351E+00 -2.51971E+00 +3.36504E-01 -2.46491E+00 -6.12042E-01 -2.01553E+00 -1.44420E+00
 -1.26715E+00 -2.00000E+00 -3.75224E-01 -2.18079E+00 +4.79534E-01 -1.96876E+00 +1.13033E+00 -1.42856E+00
 +1.45959E+00 -6.91052E-01 +1.42261E+00 +7.68323E-02 +1.05482E+00 +7.09261E-01 +4.61271E-01 +1.07738E+00
 -2.08658E-01 +1.11607E+00 -7.95634E-01 +8.35826E-01 -1.16578E+00 +3.17759E-01 -1.23937E+00 -3.06974E-01
 -1.00659E+00 -8.88093E-01 -5.27229E-01 -1.29036E+00 +8.50927E-02 -1.42330E+00 +6.90243E-01 -1.25984E+00
 +1.15386E+00 -8.40209E-01 +1.37725E+00 -2.60561E-01 +1.31817E+00 +3.50588E-01 +9.98193E-01 +8.62297E-01
 +4.95393E-01 +1.17060E+00 -7.54441E-02 +1.22064E+00 -5.90115E-01 +1.01690E+00 -9.43308E-01 +6.19460E-01
 -1.07144E+00 +1.27865E-01 -9.64999E-01 -3.43333E-01 -6.67978E-01 -6.91388E-01 -2.65071E-01 -8.48273E-01
 +1.39933E-01 -7.94552E-01 +4.49194E-01 -5.61402E-01 +5.93336E-01 -2.20788E-01 +5.46320E-01 +1.33401E-01
 +3.29536E-01 +4.08493E-01 +4.59566E-03 +5.34855E-01 -3.42967E-01 +4.81347E-01 -6.24913E-01 +2.61068E-01
 -7.71233E-01 -7.35338E-02 -7.45897E-01 -4.44598E-01 -5.53956E-01 -7.68170E-01 -2.38676E-01 -9.74139E-01
 +1.30204E-01 -1.02208E+00 +4.73962E-01 -9.09452E-01 +7.23772E-01 -6.70489E-01 +8.36477E-01 -3.66473E-01
 +8.03635E-01 -6.99754E-02 +6.51965E-01 +1.52959E-01 +4.35409E-01 +2.58394E-01 +2.20982E-01 +2.34249E-01
 +7.19722E-02 +1.02096E-01 +3.25641E-02 -8.91550E-02 +1.17462E-01 -2.75940E-01 +3.08840E-01 -3.95920E-01
 +5.61137E-01 -4.03229E-01 +8.12401E-01 -2.79484E-01 +9.99347E-01 -3.80857E-02 +1.07254E+00 +2.79121E-01
 +1.00811E+00 +6.11882E-01 +8.13282E-01 +8.95840E-01 +5.24536E-01 +1.07767E+00 +1.98851E-01 +1.12753E+00
 -9.98207E-02 +1.04582E+00 -3.15657E-01 +8.62880E-01 -4.14094E-01 +6.31493E-01 -3.89908E-01 +4.14198E-01
 -2.68341E-01 +2.68220E-01 -9.90105E-02 +2.31642E-01 +5.60246E-02 +3.14034E-01 +1.37262E-01 +4.93793E-01
 +1.02322E-01 +7.22878E-01 -6.33567E-02 +9.37913E-01 -3.42270E-01 +1.07512E+00 -6.88141E-01 +1.08561E+00
 -1.03611E+00 +9.47472E-01 -1.31751E+00 +6.71649E-01 -1.47585E+00 +3.00233E-01 -1.48023E+00 -1.02672E-01
 -1.33299E+00 -4.65416E-01 -1.06960E+00 -7.25335E-01 -7.50840E-01 -8.43446E-01 -4.48741E-01 -8.13795E-01
 -2.29712E-01 -6.65152E-01 -1.38644E-01 -4.54468E-01 -1.87888E-01 -2.53506E-01 -3.53789E-01 -1.31672E-01
 -5.81787E-01 -1.39067E-01 -7.99036E-01 -2.93828E-01 -9.31689E-01 -5.76855E-01 -9.22816E-01 -9.35367E-01
 -7.46674E-01 -1.29461E+00 -4.15841E-01 -1.57509E+00 +2.06330E-02 -1.71136E+00 +4.87829E-01 -1.66784E+00
 +9.01939E-01 -1.44788E+00 +1.18972E+00 -1.09379E+00 +1.30584E+00 -6.77535E-01 +1.24384E+00 -2.84234E-01
 +1.03818E+00 +7.77270E-03 +7.56383E-01 +1.45634E-01 +4.83254E-01 +1.14939E-01 +3.00592E-01 -5.63015E-02
 +2.67220E-01 -3.03775E-01 +4.04101E-01 -5.41859E-01 +6.88232E-01 -6.84092E-01 +1.05695E+00 -6.64374E-01
 +1.42191E+00 -4.53841E-01 +1.68966E+00 -6.92810E-02 +1.78404E+00 +4.29144E-01 +1.66516E+00 +9.50649E-01
 +1.34042E+00 +1.39432E+00 +8.64467E-01 +1.67275E+00 +3.27995E-01 +1.73329E+00 -1.62539E-01 +1.57175E+00
 -5.09717E-01 +1.23510E+00 -6.48782E-01 +8.11974E-01 -5.64398E-01 +4.12839E-01 -2.96268E-01 +1.44010E-01
 +6.82713E-02 +8.15007E-02 +4.13526E-01 +2.50911E-01 +6.22600E-01 +6.18491E-01 +6.06347E-01 +1.09614E+00
 +3.27239E-01 +1.55996E+00 -1.87890E-01 +1.87864E+00 -8.50029E-01 +1.94551E+00 -1.52554E+00 +1.70672E+00
 -2.06588E+00 +1.17833E+00 -2.34305E+00 +4.47498E-01 -2.28253E+00 -3.43773E-01 -1.88551E+00 -1.02958E+00
 -1.23397E+00 -1.45929E+00 -4.76162E-01 -1.53581E+00 +2.05506E-01 -1.24353E+00 +6.37535E-01 -6.57965E-01
 +6.99515E-01 +6.65563E-02 +3.58418E-01 +7.30047E-01 -3.16436E-01 +1.13408E+00 -1.16309E+00 +1.13240E+00
 -1.96091E+00 +6.72298E-01 -2.48216E+00 -1.84359E-01 -2.54958E+00 -1.26763E+00 -2.08563E+00 -2.33402E+00
 -1.14036E+00 -3.12249E+00 +1.11148E-01 -3.41944E+00 +1.40347E+00 -3.11662E+00 +2.44120E+00 -2.24657E+00
 +2.97167E+00 -9.84853E-01 +2.85206E+00 +3.84228E-01 +2.09334E+00 +1.53218E+00 +8.67947E-01 +2.16684E+00
 -5.23372E-01 +2.10922E+00 -1.71994E+00 +1.34656E+00 -2.38947E+00 +4.63054E-02 -2.31489E+00 -1.47530E+00
 -1.45716E+00 -2.82483E+00 +2.37133E-02 -3.62763E+00 +1.79749E+00 -3.62477E+00 +3.43792E+00 -2.74614E+00
 +4.52589E+00 -1.13923E+00 +4.75649E+00 +8.56206E-01 +4.02261E+00 +2.78404E+00 +2.45230E+00 +4.18148E+00
 +3.87882E-01 +4.69582E+00 -1.69064E+00 +4.17880E+00 -3.28078E+00 +2.73297E+00 -3.98344E+00 +6.96255E-01
 -3.60774E+00 -1.43407E+00 -2.22690E+00 -3.12091E+00 -1.69061E-01 -3.92144E+00 +2.05685E+00 -3.60188E+00
 +3.88362E+00 -2.20304E+00 +4.82677E+00 -3.83194E-02 +4.60861E+00 +2.37732E+00 +3.23342E+00 +4.45118E+00
 +9.93277E-01 +5.65931E+00 -1.59841E+00 +5.67887E+00 -3.93036E+00 +4.47260E+00 -5.44360E+00 +2.30319E+00
 -5.77085E+00 -3.27404E-01 -4.82971E+00 -2.79905E+00 -2.84586E+00 -4.52541E+00 -2.99644E-01 -5.09859E+00
 +2.19089E+00 -4.39029E+00 +4.02141E+00 -2.58388E+00 +4.74943E+00 -1.29340E-01 +4.20206E+00 +2.36754E+00
 +2.51687E+00 +4.29382E+00 +1.06095E-01 +5.17875E+00 -2.44619E+00 +4.80675E+00 -4.52761E+00 +3.26649E+00
 -5.64573E+00 +9.25049E-01 -5.54443E+00 -1.66521E+00 -4.26052E+00 -3.90273E+00 -2.10817E+00 -5.28144E+00
