 Created: 19-Jan-2021
 $NMID
 ID='D:\BASISSIMULATI'
 FMTDAT='(8E13.5)'
 VOLUME=   1.00000E+00
 TRAMP=   1.00000E+00
 $END
 +2.96575E+01 +1.58007E+00 +2.47430E+01 +1.63849E+01 +1.30104E+01 +2.66464E+01 -2.29299E+00 +2.95408E+01
 -1.69398E+01 +2.42814E+01 -2.68904E+01 +1.23317E+01 -2.94072E+01 -3.00119E+00 -2.38075E+01 -1.74820E+01
 -1.16488E+01 -2.71174E+01 +3.70429E+00 -2.92568E+01 +1.80114E+01 -2.33218E+01 +2.73273E+01 -1.09623E+01
 +2.90898E+01 +4.40189E+00 +2.28246E+01 +1.85277E+01 +1.02726E+01 +2.75201E+01 -5.09360E+00 +2.89064E+01
 -1.90305E+01 +2.23162E+01 -2.76956E+01 +9.57999E+00 -2.87067E+01 -5.77905E+00 -2.17970E+01 -1.95197E+01
 -8.88498E+00 -2.78539E+01 +6.45786E+00 -2.84910E+01 +1.99951E+01 -2.12673E+01 +2.79951E+01 -8.18798E+00
 +2.82595E+01 +7.12966E+00 +2.07276E+01 +2.04564E+01 +7.48942E+00 +2.81189E+01 -7.79408E+00 +2.80123E+01
 -2.09034E+01 +2.01781E+01 -2.82256E+01 +6.78971E+00 -2.77497E+01 -8.45077E+00 -1.96193E+01 -2.13360E+01
 -6.08927E+00 -2.83151E+01 +9.09937E+00 -2.74720E+01 +2.17539E+01 -1.90515E+01 +2.83874E+01 -5.38852E+00
 +2.71792E+01 +9.73953E+00 +1.84751E+01 +2.21570E+01 +4.68788E+00 +2.84426E+01 -1.03709E+01 +2.68718E+01
 -2.25451E+01 +1.78904E+01 -2.84806E+01 +3.98775E+00 -2.65499E+01 -1.09932E+01 -1.72980E+01 -2.29180E+01
 -3.28856E+00 -2.85017E+01 +1.16061E+01 -2.62139E+01 +2.32756E+01 -1.66981E+01 +2.85058E+01 -2.59072E+00
 +2.58639E+01 +1.22092E+01 +1.60911E+01 +2.36177E+01 +1.89462E+00 +2.84930E+01 -1.28022E+01 +2.55002E+01
 -2.39443E+01 +1.54775E+01 -2.84634E+01 +1.20067E+00 -2.51232E+01 -1.33849E+01 -1.48575E+01 -2.42552E+01
 -5.09271E-01 -2.84171E+01 +1.39570E+01 -2.47331E+01 +2.45502E+01 -1.42318E+01 +2.83542E+01 +1.79177E-01
 +2.43301E+01 +1.45181E+01 +1.36005E+01 +2.48293E+01 -8.64281E-01 +2.82748E+01 -1.50679E+01 +2.39147E+01
 -2.50925E+01 +1.29641E+01 -2.81791E+01 -1.54565E+00 -2.34871E+01 -1.56063E+01 -1.23231E+01 -2.53395E+01
 +2.22291E+00 -2.80671E+01 +1.61329E+01 -2.30476E+01 +2.55704E+01 -1.16778E+01 +2.79391E+01 +2.89566E+00
 +2.25965E+01 +1.66474E+01 +1.10286E+01 +2.57851E+01 -3.56354E+00 +2.77952E+01 -1.71498E+01 +2.21342E+01
 -2.59836E+01 +1.03760E+01 -2.76354E+01 -4.22617E+00 -2.16610E+01 -1.76396E+01 -9.72027E+00 -2.61657E+01
 +4.88319E+00 -2.74601E+01 +1.81166E+01 -2.11771E+01 +2.63315E+01 -9.06189E+00 +2.72694E+01 +5.53423E+00
 +2.06830E+01 +1.85807E+01 +8.40123E+00 +2.64809E+01 -6.17893E+00 +2.70634E+01 -1.90316E+01 +2.01790E+01
 -2.66139E+01 +7.73872E+00 -2.68424E+01 -6.81695E+00 -1.96655E+01 -1.94692E+01 -7.07474E+00 -2.67306E+01
 +7.44793E+00 -2.66065E+01 +1.98931E+01 -1.91427E+01 +2.68309E+01 -6.40969E+00 +2.63560E+01 +8.07154E+00
 +1.86110E+01 +2.03034E+01 +5.74398E+00 +2.69149E+01 -8.68744E+00 +2.60911E+01 -2.06996E+01 +1.80708E+01
 -2.69826E+01 +5.07800E+00 -2.58120E+01 -9.29531E+00 -1.75225E+01 -2.10818E+01 -4.41215E+00 -2.70339E+01
 +9.89482E+00 -2.55189E+01 +2.14497E+01 -1.69664E+01 +2.70691E+01 -3.74681E+00 +2.52121E+01 +1.04857E+01
 +1.64029E+01 +2.18031E+01 +3.08239E+00 +2.70880E+01 -1.10675E+01 +2.48919E+01 -2.21420E+01 +1.58323E+01
 -2.70909E+01 +2.41927E+00 -2.45584E+01 -1.16401E+01 -1.52550E+01 -2.24662E+01 -1.75783E+00 -2.70777E+01
 +1.22031E+01 -2.42120E+01 +2.27756E+01 -1.46714E+01 +2.70485E+01 -1.09847E+00 +2.38528E+01 +1.27562E+01
 +1.40819E+01 +2.30701E+01 +4.41553E-01 +2.70035E+01 -1.32992E+01 +2.34813E+01 -2.33495E+01 +1.34868E+01
 -2.69427E+01 -2.12536E-01 -2.30976E+01 -1.38318E+01 -1.28866E+01 -2.36139E+01 +8.63424E-01 -2.68663E+01
 +1.43536E+01 -2.27020E+01 +2.38629E+01 -1.22815E+01 +2.67743E+01 +1.51074E+00 +2.22949E+01 +1.48646E+01
 +1.16720E+01 +2.40967E+01 -2.15412E+00 +2.66669E+01 -1.53643E+01 +2.18764E+01 -2.43152E+01 +1.10585E+01
 -2.65442E+01 -2.79320E+00 -2.14471E+01 -1.58526E+01 -1.04413E+01 -2.45182E+01 +3.42763E+00 -2.64065E+01
 +1.63292E+01 -2.10070E+01 +2.47058E+01 -9.82083E+00 +2.62537E+01 +4.05704E+00 +2.05566E+01 +1.67939E+01
 +9.19747E+00 +2.48779E+01 -4.68109E+00 +2.60861E+01 -1.72465E+01 +2.00961E+01 -2.50344E+01 +8.57161E+00
 -2.59039E+01 -5.29944E+00 -1.96259E+01 -1.76868E+01 -7.94361E+00 -2.51754E+01 +5.91175E+00 -2.57072E+01
 +1.81145E+01 -1.91463E+01 +2.53009E+01 -7.31387E+00 +2.54962E+01 +6.51768E+00 +1.86577E+01 +1.85295E+01
 +6.68276E+00 +2.54108E+01 -7.11691E+00 +2.52712E+01 -1.89316E+01 +1.81603E+01 -2.55051E+01 +6.05067E+00
 -2.50322E+01 -7.70911E+00 -1.76545E+01 -1.93206E+01 -5.41797E+00 -2.55839E+01 +8.29397E+00 -2.47796E+01
 +1.96963E+01 -1.71406E+01 +2.56472E+01 -4.78503E+00 +2.45134E+01 +8.87116E+00 +1.66190E+01 +2.00586E+01
 +4.15224E+00 +2.56950E+01 -9.44040E+00 +2.42341E+01 -2.04074E+01 +1.60900E+01 -2.57274E+01 +3.51997E+00
 -2.39417E+01 -1.00014E+01 -1.55540E+01 -2.07424E+01 -2.88859E+00 -2.57444E+01 +1.05538E+01 -2.36365E+01
 +2.10636E+01 -1.50113E+01 +2.57461E+01 -2.25847E+00 +2.33188E+01 +1.10974E+01 +1.44623E+01 +2.13708E+01
 +1.62997E+00 +2.57326E+01 -1.16318E+01 +2.29887E+01 -2.16640E+01 +1.39073E+01 -2.57039E+01 +1.00347E+00
 -2.26466E+01 -1.21569E+01 -1.33466E+01 -2.19429E+01 -3.79313E-01 -2.56602E+01 +1.26723E+01 -2.22928E+01
 +2.22075E+01 -1.27808E+01 +2.56014E+01 +2.42131E-01 +2.19274E+01 +1.31778E+01 +1.22100E+01 +2.24578E+01
 -8.60510E-01 +2.55278E+01 -1.36731E+01 +2.15507E+01 -2.26936E+01 +1.16346E+01 -2.54395E+01 -1.47547E+00
 -2.11631E+01 -1.41580E+01 -1.10551E+01 -2.29148E+01 +2.08667E+00 -2.53365E+01 +1.46322E+01 -2.07647E+01
 +2.31215E+01 -1.04718E+01 +2.52189E+01 +2.69376E+00 +2.03560E+01 +1.50956E+01 +9.88506E+00 +2.33135E+01
 -3.29640E+00 +2.50871E+01 -1.55478E+01 +1.99371E+01 -2.34908E+01 +9.29520E+00 -2.49410E+01 -3.89426E+00
 -1.95084E+01 -1.59887E+01 -8.70261E+00 -2.36534E+01 +4.48701E+00 -2.47808E+01 +1.64181E+01 -1.90702E+01
 +2.38012E+01 -8.10766E+00 +2.46067E+01 +5.07431E+00 +1.86227E+01 +1.68358E+01 +7.51072E+00 +2.39343E+01
 -5.65585E+00 +2.44189E+01 -1.72415E+01 +1.81664E+01 -2.40525E+01 +6.91213E+00 -2.42175E+01 -6.23131E+00
 -1.77014E+01 -1.76351E+01 -6.31227E+00 -2.41560E+01 +6.80038E+00 -2.40028E+01 +1.80164E+01 -1.72282E+01
 +2.42447E+01 -5.71149E+00 +2.37748E+01 +7.36275E+00 +1.67470E+01 +1.83853E+01 +5.11016E+00 +2.43186E+01
 -7.91812E+00 +2.35339E+01 -1.87416E+01 +1.62581E+01 -2.43778E+01 +4.50863E+00 -2.32802E+01 -8.46619E+00
 -1.57619E+01 -1.90851E+01 -3.90727E+00 -2.44223E+01 +9.00668E+00 -2.30138E+01 +1.94157E+01 -1.52588E+01
 +2.44522E+01 -3.30642E+00 +2.27352E+01 +9.53930E+00 +1.47489E+01 +1.97333E+01 +2.70644E+00 +2.44674E+01
 -1.00638E+01 +2.24443E+01 -2.00376E+01 +1.42328E+01 -2.44681E+01 +2.10767E+00 -2.21416E+01 -1.05798E+01
 -1.37106E+01 -2.03287E+01 -1.51048E+00 -2.44543E+01 +1.10872E+01 -2.18272E+01 +2.06065E+01 -1.31828E+01
 +2.44261E+01 -9.15197E-01 +2.15014E+01 +1.15856E+01 +1.26496E+01 +2.08707E+01 +3.22173E-01 +2.43836E+01
 -1.20748E+01 +2.11643E+01 -2.11213E+01 +1.21115E+01 -2.43269E+01 -2.68253E-01 -2.08164E+01 -1.25546E+01
 -1.15688E+01 -2.13582E+01 +8.55745E-01 -2.42560E+01 +1.30247E+01 -2.04577E+01 +2.15814E+01 -1.10217E+01
 +2.41711E+01 +1.43997E+00 +2.00886E+01 +1.34849E+01 +1.04708E+01 +2.17908E+01 -2.02059E+00 +2.40723E+01
 -1.39349E+01 +1.97094E+01 -2.19863E+01 +9.91616E+00 -2.39598E+01 -2.59729E+00 -1.93203E+01 -1.43746E+01
 -9.35831E+00 -2.21679E+01 +3.16975E+00 -2.38336E+01 +1.48037E+01 -1.89216E+01 +2.23355E+01 -8.79754E+00
 +2.36938E+01 +3.73763E+00 +1.85136E+01 +1.52220E+01 +8.23421E+00 +2.24891E+01 -4.30063E+00 +2.35408E+01
 -1.56294E+01 +1.80966E+01 -2.26287E+01 +7.66865E+00 -2.33745E+01 -4.85845E+00 -1.76708E+01 -1.60256E+01
 -7.10121E+00 -2.27542E+01 +5.41076E+00 -2.31951E+01 +1.64104E+01 -1.72365E+01 +2.28657E+01 -6.53224E+00
 +2.30029E+01 +5.95728E+00 +1.67941E+01 +1.67838E+01 +5.96208E+00 +2.29632E+01 -6.49771E+00 +2.27980E+01
 -1.71454E+01 +1.63439E+01 -2.30465E+01 +5.39108E+00 -2.25806E+01 -7.03175E+00 -1.58860E+01 -1.74952E+01
 -4.81956E+00 -2.31159E+01 +7.55911E+00 -2.23508E+01 +1.78330E+01 -1.54210E+01 +2.31713E+01 -4.24789E+00
 +2.21089E+01 +8.07953E+00 +1.49490E+01 +1.81587E+01 +3.67639E+00 +2.32126E+01 -8.59272E+00 +2.18550E+01
 -1.84721E+01 +1.44704E+01 -2.32401E+01 +3.10539E+00 -2.15894E+01 -9.09842E+00 -1.39854E+01 -1.87731E+01
 -2.53525E+00 -2.32537E+01 +9.59635E+00 -2.13123E+01 +1.90616E+01 -1.34945E+01 +2.32534E+01 -1.96629E+00
 +2.10238E+01 +1.00863E+01 +1.29979E+01 +1.93374E+01 +1.39884E+00 +2.32394E+01 -1.05679E+01 +2.07243E+01
 -1.96005E+01 +1.24959E+01 -2.32118E+01 +8.33226E-01 -2.04139E+01 -1.10410E+01 -1.19889E+01 -1.98508E+01
 -2.69781E-01 -2.31705E+01 +1.15054E+01 -2.00930E+01 +2.00881E+01 -1.14772E+01 +2.31157E+01 +2.91174E-01
 +1.97616E+01 +1.19608E+01 +1.09612E+01 +2.03125E+01 -8.49320E-01 +2.30475E+01 -1.24070E+01 +1.94201E+01
 -2.05238E+01 +1.04410E+01 -2.29659E+01 -1.40434E+00 -1.90687E+01 -1.28437E+01 -9.91713E+00 -2.07219E+01
 +1.95592E+00 -2.28712E+01 +1.32708E+01 -1.87077E+01 +2.09068E+01 -9.38985E+00 +2.27634E+01 +2.50375E+00
 +1.83373E+01 +1.36880E+01 +8.85949E+00 +2.10785E+01 -3.04752E+00 +2.26426E+01 -1.40951E+01 +1.79578E+01
 -2.12370E+01 +8.32638E+00 -2.25090E+01 -3.58693E+00 -1.75695E+01 -1.44920E+01 -7.79085E+00 -2.13821E+01
 +4.12169E+00 -2.23627E+01 +1.48785E+01 -1.71726E+01 +2.15139E+01 -7.25323E+00 +2.22039E+01 +4.65149E+00
 +1.67674E+01 +1.52543E+01 +6.71385E+00 +2.16323E+01 -5.17605E+00 +2.20326E+01 -1.56194E+01 +1.63542E+01
 -2.17374E+01 +6.17303E+00 -2.18492E+01 -5.69508E+00 -1.59332E+01 -1.59735E+01 -5.63111E+00 -2.18291E+01
 +6.20830E+00 -2.16536E+01 +1.63165E+01 -1.55048E+01 +2.19075E+01 -5.08839E+00 +2.14462E+01 +6.71544E+00
 +1.50693E+01 +1.66482E+01 +4.54522E+00 +2.19726E+01 -7.21622E+00 +2.12271E+01 -1.69685E+01 +1.46269E+01
 -2.20243E+01 +4.00192E+00 -2.09964E+01 -7.71037E+00 -1.41779E+01 -1.72772E+01 -3.45880E+00 -2.20628E+01
 +8.19764E+00 -2.07544E+01 +1.75743E+01 -1.37226E+01 +2.20881E+01 -2.91618E+00 +2.05013E+01 +8.67777E+00
 +1.32614E+01 +1.78596E+01 +2.37440E+00 +2.21001E+01 -9.15051E+00 +2.02372E+01 -1.81330E+01 +1.27944E+01
 -2.20990E+01 +1.83375E+00 -1.99624E+01 -9.61561E+00 -1.23221E+01 -1.83944E+01 -1.29457E+00 -2.20849E+01
