 Created: 19-Jan-2021
 $NMID
 ID='D:\BASISSIMULATI'
 FMTDAT='(8E13.5)'
 VOLUME=   1.00000E+00
 TRAMP=   1.00000E+00
 $END
 +3.31838E+01 +1.76396E+00 +2.72067E+01 +1.79989E+01 +1.33861E+01 +2.80221E+01 -3.28588E+00 +2.85338E+01
 -1.68576E+01 +1.97182E+01 -2.26029E+01 +5.14306E+00 -1.87404E+01 -9.57971E+00 -7.05836E+00 -1.88745E+01
 +7.77669E+00 -1.92522E+01 +1.99628E+01 -1.05784E+01 +2.47108E+01 +3.90091E+00 +2.00038E+01 +1.87769E+01
 +7.32723E+00 +2.84815E+01 -8.89470E+00 +2.93367E+01 -2.29368E+01 +2.08959E+01 -2.98778E+01 +6.08965E+00
 -2.73950E+01 -9.86771E+00 -1.65929E+01 -2.14016E+01 -1.56851E+00 -2.46171E+01 +1.21167E+01 -1.87059E+01
 +1.94888E+01 -6.20920E+00 +1.79792E+01 +7.95008E+00 +8.34413E+00 +1.83014E+01 -5.64554E+00 +2.08451E+01
 -1.86187E+01 +1.45137E+01 -2.55950E+01 +1.54317E+00 -2.38156E+01 -1.33715E+01 -1.37442E+01 -2.48179E+01
 +1.12348E+00 -2.86569E+01 +1.55608E+01 -2.35304E+01 +2.45352E+01 -1.13365E+01 +2.50457E+01 +3.49330E+00
 +1.71985E+01 +1.56381E+01 +4.13420E+00 +2.08428E+01 -9.15680E+00 +1.74628E+01 -1.76854E+01 +7.03629E+00
 -1.82957E+01 -6.31682E+00 -1.08054E+01 -1.74375E+01 +1.95600E+00 -2.20363E+01 +1.52154E+01 -1.82644E+01
 +2.40281E+01 -7.37362E+00 +2.50956E+01 +6.76745E+00 +1.79629E+01 +1.91133E+01 +5.16145E+00 +2.52992E+01
 -8.74389E+00 +2.32314E+01 -1.88438E+01 +1.38291E+01 -2.16817E+01 +6.54752E-01 -1.64995E+01 -1.14194E+01
 -5.48083E+00 -1.80108E+01 +7.08669E+00 -1.68254E+01 +1.64107E+01 -8.47280E+00 +1.89606E+01 +3.79226E+00
 +1.37508E+01 +1.52967E+01 +2.67658E+00 +2.16819E+01 -1.02114E+01 +2.05026E+01 -2.02150E+01 +1.21060E+01
 -2.37170E+01 -5.22364E-01 -1.94953E+01 -1.28780E+01 -9.14381E+00 -2.06015E+01 +3.54268E+00 -2.10696E+01
 +1.39822E+01 -1.43314E+01 +1.84906E+01 -3.05550E+00 +1.56158E+01 +8.48291E+00 +6.63856E+00 +1.59894E+01
 -4.93565E+00 +1.67244E+01 -1.46928E+01 +1.04878E+01 -1.89428E+01 -3.41404E-01 -1.60657E+01 -1.17101E+01
 -7.08141E+00 -1.93994E+01 +4.75469E+00 -2.05739E+01 +1.51711E+01 -1.48045E+01 +2.04556E+01 -4.19694E+00
 +1.88056E+01 +7.41033E+00 +1.09613E+01 +1.58717E+01 -1.00558E-01 +1.82527E+01 -1.02877E+01 +1.38845E+01
 -1.59047E+01 +4.57316E+00 -1.49992E+01 -6.09966E+00 -8.04948E+00 -1.41158E+01 +2.24841E+00 -1.64999E+01
 +1.20021E+01 -1.23950E+01 +1.75680E+01 -3.34608E+00 +1.68839E+01 +7.30058E+00 +1.02027E+01 +1.56487E+01
 -3.27223E-02 +1.86866E+01 -1.01144E+01 +1.53762E+01 -1.64434E+01 +7.00329E+00 -1.68425E+01 -3.32783E+00
 -1.13288E+01 -1.18574E+01 -2.07075E+00 -1.55543E+01 +7.44150E+00 -1.32107E+01 +1.36947E+01 -5.85205E+00
 +1.44384E+01 +3.67758E+00 +9.48663E+00 +1.17883E+01 +7.50303E-01 +1.54721E+01 -8.49814E+00 +1.33944E+01
 -1.48462E+01 +6.35534E+00 -1.59929E+01 -3.03906E+00 -1.15720E+01 -1.13605E+01 -3.25300E+00 -1.56258E+01
 +5.90416E+00 -1.43789E+01 +1.25917E+01 -8.19549E+00 +1.44661E+01 +5.65120E-01 +1.09852E+01 +8.65531E+00
 +3.57109E+00 +1.31424E+01 -4.94875E+00 +1.24737E+01 -1.14028E+01 +7.01630E+00 -1.34419E+01 -1.11594E+00
 -1.03822E+01 -8.87032E+00 -3.42206E+00 -1.33908E+01 +4.83414E+00 -1.30589E+01 +1.13559E+01 -8.06028E+00
 +1.38029E+01 -2.81463E-01 +1.13662E+01 +7.41455E+00 +5.03151E+00 +1.22537E+01 -2.81835E+00 +1.25616E+01
 -9.30350E+00 +8.35066E+00 -1.21089E+01 +1.27800E+00 -1.03162E+01 -5.99648E+00 -4.70687E+00 -1.08042E+01
 +2.56284E+00 -1.14421E+01 +8.78170E+00 -7.77223E+00 +1.16868E+01 -1.23463E+00 +1.02796E+01 +5.71585E+00
 +5.16018E+00 +1.05306E+01 -1.73017E+00 +1.15002E+01 -7.85034E+00 +8.35797E+00 -1.10017E+01 +2.34211E+00
 -1.01217E+01 -4.29406E+00 -5.64251E+00 -9.12981E+00 +7.05271E-01 -1.04642E+01 +6.55836E+00 -7.91743E+00
 +9.79948E+00 -2.53344E+00 +9.32272E+00 +3.63958E+00 +5.40870E+00 +8.32422E+00 -4.16897E-01 +9.85089E+00
 -5.97536E+00 +7.74935E+00 -9.24845E+00 +2.88564E+00 -9.10980E+00 -2.89293E+00 -5.70930E+00 -7.46050E+00
 -3.80138E-01 -9.19626E+00 +4.88336E+00 -7.56003E+00 +8.17324E+00 -3.25575E+00 +8.36070E+00 +2.06423E+00
 +5.48257E+00 +6.43185E+00 +6.89872E-01 +8.29077E+00 -4.20861E+00 +7.04989E+00 -7.42757E+00 +3.26602E+00
 -7.85482E+00 -1.59843E+00 -5.43283E+00 -5.73997E+00 -1.14209E+00 -7.68313E+00 +3.39379E+00 -6.80601E+00
 +6.52324E+00 -3.53523E+00 +7.16944E+00 +8.48951E-01 +5.20053E+00 +4.71177E+00 +1.44075E+00 +6.67337E+00
 -2.66786E+00 +6.10142E+00 -5.61598E+00 +3.31122E+00 -6.37967E+00 -5.88336E-01 -4.77305E+00 -4.13219E+00
 -1.47993E+00 -6.04816E+00 +2.23343E+00 -5.71192E+00 +5.00566E+00 -3.34524E+00 +5.88049E+00 +1.03650E-01
 +4.63583E+00 +3.33959E+00 +1.82922E+00 +5.20887E+00 -1.44380E+00 +5.11248E+00 -3.97616E+00 +3.19611E+00
 -4.89491E+00 +2.58405E-01 -3.96177E+00 -2.57507E+00 -1.62534E+00 -4.28024E+00 +1.18098E+00 -4.30263E+00
 +3.40763E+00 -2.73284E+00 +4.27905E+00 -2.35510E-01 +3.56047E+00 +2.22815E+00 +1.61010E+00 +3.77012E+00
 -7.89782E-01 +3.89552E+00 -2.74704E+00 +2.65757E+00 -3.59359E+00 +6.00669E-01 -3.11426E+00 -1.47376E+00
 -1.59250E+00 -2.81994E+00 +3.31563E-01 -3.01735E+00 +1.92463E+00 -2.09991E+00 +2.63821E+00 -5.06404E-01
 +2.29575E+00 +1.11581E+00 +1.12555E+00 +2.16903E+00 -3.60806E-01 +2.32291E+00 -1.58603E+00 +1.61261E+00
 -2.12980E+00 +3.89795E-01 -1.87091E+00 -8.41966E-01 -1.00130E+00 -1.63385E+00 +8.18686E-02 -1.75663E+00
 +9.52549E-01 -1.26309E+00 +1.32451E+00 -4.33268E-01 +1.14593E+00 +3.64336E-01 +5.89094E-01 +8.31408E-01
 -5.03217E-02 +8.51398E-01 -4.93527E-01 +5.12433E-01 -5.95387E-01 +4.04633E-02 -3.89564E-01 -3.20105E-01
 -4.85324E-02 -4.21060E-01 +2.16590E-01 -2.69120E-01 +2.65997E-01 -5.67287E-03 +9.85836E-02 +1.78375E-01
 -1.53846E-01 +1.49006E-01 -3.01061E-01 -9.57553E-02 -2.00520E-01 -4.19118E-01 +1.57277E-01 -6.11867E-01
 +6.27729E-01 -5.01417E-01 +9.69521E-01 -5.16111E-02 +9.57768E-01 +5.96790E-01 +5.02283E-01 +1.16977E+00
 -2.85614E-01 +1.37473E+00 -1.11465E+00 +1.03879E+00 -1.62265E+00 +2.08557E-01 -1.53219E+00 -8.38727E-01
 -7.87240E-01 -1.68709E+00 +3.92292E-01 -1.94664E+00 +1.57062E+00 -1.42622E+00 +2.25639E+00 -2.39565E-01
 +2.10406E+00 +1.20739E+00 +1.07474E+00 +2.35396E+00 -5.15223E-01 +2.70080E+00 -2.08838E+00 +2.02135E+00
 -3.01646E+00 +4.80577E-01 -2.87012E+00 -1.39562E+00 -1.60946E+00 -2.90019E+00 +3.66974E-01 -3.41262E+00
 +2.34530E+00 -2.65325E+00 +3.55480E+00 -8.20865E-01 +3.46819E+00 +1.44979E+00 +2.02696E+00 +3.30631E+00
 -3.02781E-01 +3.99790E+00 -2.67713E+00 +3.17615E+00 -4.17889E+00 +1.05734E+00 -4.16988E+00 -1.62578E+00
 -2.55583E+00 -3.87662E+00 +1.44643E-01 -4.80491E+00 +2.96497E+00 -3.97684E+00 +4.83820E+00 -1.60780E+00
 +5.00208E+00 +1.48520E+00 +3.30797E+00 +4.16579E+00 +3.09119E-01 +5.39780E+00 -2.91638E+00 +4.64716E+00
 -5.15280E+00 +2.11055E+00 -5.50493E+00 -1.32536E+00 -3.75470E+00 -4.39065E+00 -4.74868E-01 -5.89933E+00
 +3.15434E+00 -5.20485E+00 +5.76815E+00 -2.46953E+00 +6.32821E+00 +1.36301E+00 +4.53032E+00 +4.89385E+00
 +9.49306E-01 +6.78095E+00 -3.14422E+00 +6.24970E+00 -6.23819E+00 +3.40778E+00 -7.14181E+00 -7.62874E-01
 -5.44723E+00 -4.74543E+00 -1.71119E+00 -7.04223E+00 +2.72179E+00 -6.74094E+00 +6.20025E+00 -3.87878E+00
 +7.37872E+00 +5.39762E-01 +5.73532E+00 +4.88995E+00 +1.79543E+00 +7.51923E+00 -3.03267E+00 +7.36899E+00
 -6.96002E+00 +4.39196E+00 -8.47814E+00 -3.98504E-01 -6.93449E+00 -5.27698E+00 -2.80299E+00 -8.43273E+00
 +2.46119E+00 -8.64668E+00 +6.93979E+00 -5.76530E+00 +8.95790E+00 -7.87323E-01 +7.71841E+00 +4.47980E+00
 +3.62375E+00 +8.07635E+00 -1.84397E+00 +8.62113E+00 -6.65116E+00 +5.84419E+00 -8.96128E+00 +7.16298E-01
 -7.82838E+00 -4.88361E+00 -3.57408E+00 -8.84970E+00 +2.30113E+00 -9.63229E+00 +7.65029E+00 -6.83155E+00
 +1.04671E+01 -1.37503E+00 +9.63866E+00 +4.79748E+00 +5.38182E+00 +9.43483E+00 -8.08410E-01 +1.08075E+01
 -6.68891E+00 +8.36424E+00 -1.00896E+01 +2.96209E+00 -9.72486E+00 -3.42431E+00 -5.69119E+00 -8.41751E+00
 +5.40865E-01 -1.01171E+01 +6.64856E+00 -7.81918E+00 +1.03074E+01 -2.30397E+00 +1.00597E+01 +4.42568E+00
 +5.87613E+00 +9.86683E+00 -8.03781E-01 +1.19401E+01 -7.57901E+00 +9.77317E+00 -1.19622E+01 +4.04921E+00
 -1.23033E+01 -3.21796E+00 -8.41869E+00 -9.40851E+00 -1.68438E+00 -1.22600E+01 +5.44914E+00 -1.07146E+01
 +1.03511E+01 -5.33203E+00 +1.11866E+01 +1.89289E+00 +7.61304E+00 +8.25015E+00 +9.31815E-01 +1.13131E+01
 -6.36964E+00 +9.84756E+00 -1.15251E+01 +4.29241E+00 -1.25154E+01 -3.37568E+00 -8.83309E+00 -1.03515E+01
 -1.69688E+00 -1.40307E+01 +6.37277E+00 -1.29804E+01 +1.24683E+01 -7.48957E+00 +1.43674E+01 +5.12225E-01
 +1.13669E+01 +8.14694E+00 +4.56369E+00 +1.26425E+01 -3.52865E+00 +1.23627E+01 -9.89558E+00 +7.42922E+00
 -1.21356E+01 -3.01175E-01 -9.36152E+00 -7.90466E+00 -2.55171E+00 -1.24643E+01 +5.78833E+00 -1.21559E+01
 +1.25358E+01 -6.94268E+00 +1.51026E+01 +1.38452E+00 +1.24042E+01 +9.84582E+00 +5.28316E+00 +1.53602E+01
 -3.77688E+00 +1.58856E+01 -1.15496E+01 +1.11875E+01 -1.52509E+01 +2.94684E+00 -1.35738E+01 -5.84083E+00
 -7.18763E+00 -1.19614E+01 +1.49055E+00 -1.31710E+01 +9.17510E+00 -9.03883E+00 +1.29235E+01 -1.12604E+00
 +1.12343E+01 +7.57262E+00 +4.62241E+00 +1.37255E+01 -4.54722E+00 +1.48987E+01 -1.29143E+01 +1.04711E+01
 -1.73571E+01 +1.88847E+00 -1.61511E+01 -7.84673E+00 -9.62383E+00 -1.52674E+01 -5.51181E-02 -1.77179E+01
 +9.14544E+00 -1.43423E+01 +1.46881E+01 -6.41626E+00 +1.46196E+01 +3.10721E+00 +9.05668E+00 +1.06779E+01
 +1.58528E-01 +1.34596E+01 -8.65748E+00 +1.03881E+01 -1.39740E+01 +2.58312E+00 -1.36439E+01 -7.04666E+00
 -7.60132E+00 -1.48651E+01 +2.09046E+00 -1.78501E+01 +1.19797E+01 -1.47206E+01 +1.84884E+01 -6.42965E+00
 +1.92321E+01 +4.16481E+00 +1.39111E+01 +1.33370E+01 +4.43715E+00 +1.78601E+01 -5.75604E+00 +1.61990E+01
 -1.29707E+01 +9.08781E+00 -1.46102E+01 -7.29063E-01 -1.01461E+01 -9.50101E+00 -1.32795E+00 -1.38556E+01
 +8.45072E+00 -1.20532E+01 +1.53990E+01 -4.64671E+00 +1.67328E+01 +5.70298E+00 +1.17182E+01 +1.51935E+01
 +1.96292E+00 +2.02780E+01 -9.15442E+00 +1.89790E+01 -1.77157E+01 +1.16319E+01 -2.07028E+01 +7.79901E-01
 -1.71143E+01 -9.74828E+00 -8.34540E+00 -1.62410E+01 +2.31592E+00 -1.64723E+01 +1.08950E+01 -1.05288E+01
 +1.41973E+01 -7.87531E-01 +1.09959E+01 +8.95481E+00 +2.49715E+00 +1.48824E+01 -8.09081E+00 +1.45773E+01
