 Created: 19-Jan-2021
 $NMID
 ID='D:\BASISSIMULATI'
 FMTDAT='(8E13.5)'
 VOLUME=   1.00000E+00
 TRAMP=   1.00000E+00
 $END
 +3.67155E+01 +4.10292E+00 +3.58466E+01 +8.77824E+00 +3.42597E+01 +1.32567E+01 +3.19979E+01 +1.74225E+01
 +2.91230E+01 +2.11688E+01 +2.57141E+01 +2.44009E+01 +2.18649E+01 +2.70389E+01 +1.76810E+01 +2.90204E+01
 +1.32772E+01 +3.03015E+01 +8.77317E+00 +3.08587E+01 +4.29086E+00 +3.06891E+01 -4.96698E-02 +2.98105E+01
 -4.13353E+00 +2.82607E+01 -7.85441E+00 +2.60962E+01 -1.11176E+01 +2.33903E+01 -1.38427E+01 +2.02313E+01
 -1.59658E+01 +1.67189E+01 -1.74413E+01 +1.29620E+01 -1.82430E+01 +9.07489E+00 -1.83647E+01 +5.17379E+00
 -1.78201E+01 +1.37361E+00 -1.66423E+01 -2.21557E+00 -1.48822E+01 -5.49173E+00 -1.26071E+01 -8.36384E+00
 -9.89842E+00 -1.07544E+01 -6.84892E+00 -1.26018E+01 -3.55978E+00 -1.38614E+01 -1.37418E-01 -1.45072E+01
 +3.30978E+00 -1.45323E+01 +6.67481E+00 -1.39481E+01 +9.85530E+00 -1.27847E+01 +1.27565E+01 -1.10889E+01
 +1.52943E+01 -8.92251E+00 +1.73971E+01 -6.36077E+00 +1.90084E+01 -3.48918E+00 +2.00879E+01 -4.00930E-01
 +2.06126E+01 +2.80617E+00 +2.05771E+01 +6.03284E+00 +1.99937E+01 +9.18145E+00 +1.88912E+01 +1.21591E+01
 +1.73140E+01 +1.48804E+01 +1.53205E+01 +1.72701E+01 +1.29806E+01 +1.92651E+01 +1.03736E+01 +2.08167E+01
 +7.58523E+00 +2.18912E+01 +4.70482E+00 +2.24713E+01 +1.82242E+00 +2.25559E+01 -9.74266E-01 +2.21601E+01
 -3.60259E+00 +2.13144E+01 -5.98767E+00 +2.00630E+01 -8.06462E+00 +1.84627E+01 -9.78060E+00 +1.65803E+01
 -1.10963E+01 +1.44903E+01 -1.19870E+01 +1.22725E+01 -1.24432E+01 +1.00089E+01 -1.24707E+01 +7.78120E+00
 -1.20900E+01 +5.66771E+00 -1.13355E+01 +3.74104E+00 -1.02541E+01 +2.06558E+00 -8.90355E+00 +6.95403E-01
 -7.34993E+00 -3.27423E-01 -5.66570E+00 -9.74148E-01 -3.92689E+00 -1.23017E+00 -2.21049E+00 -1.09541E+00
 -5.91763E-01 -5.84130E-01 +8.58345E-01 +2.75636E-01 +2.07565E+00 +1.44319E+00 +3.00491E+00 +2.86667E+00
 +3.60168E+00 +4.48490E+00 +3.83387E+00 +6.22957E+00 +3.68272E+00 +8.02765E+00 +3.14351E+00 +9.80389E+00
 +2.22563E+00 +1.14835E+01 +9.52312E-01 +1.29946E+01 -6.40237E-01 +1.42710E+01 -2.50401E+00 +1.52541E+01
 -4.58087E+00 +1.58951E+01 -6.80446E+00 +1.61567E+01 -9.10250E+00 +1.60146E+01 -1.13992E+01 +1.54579E+01
 -1.36177E+01 +1.44899E+01 -1.56828E+01 +1.31280E+01 -1.75236E+01 +1.14030E+01 -1.90754E+01 +9.35847E+00
 -2.02824E+01 +7.04911E+00 -2.10995E+01 +4.53909E+00 -2.14936E+01 +1.90000E+00 -2.14450E+01 -7.91440E-01
 -2.09481E+01 -3.45588E+00 -2.00114E+01 -6.01387E+00 -1.86579E+01 -8.38845E+00 -1.69237E+01 -1.05077E+01
 -1.48576E+01 -1.23068E+01 -1.25193E+01 -1.37308E+01 -9.97747E+00 -1.47355E+01 -7.30779E+00 -1.52896E+01
 -4.59062E+00 -1.53758E+01 -1.90837E+00 -1.49909E+01 +6.56973E-01 -1.41462E+01 +3.02646E+00 -1.28676E+01
 +5.12663E+00 -1.11942E+01 +6.89183E+00 -9.17754E+00 +8.26625E+00 -6.88016E+00 +9.20570E+00 -4.37337E+00
 +9.67900E+00 -1.73528E+00 +9.66896E+00 +9.51591E-01 +9.17295E+00 +3.60286E+00 +8.20300E+00 +6.13481E+00
 +6.78550E+00 +8.46697E+00 +4.96033E+00 +1.05245E+01 +2.77976E+00 +1.22406E+01 +3.06823E-01 +1.35584E+01
 -2.38657E+00 +1.44325E+01 -5.22178E+00 +1.48308E+01 -8.11581E+00 +1.47350E+01 -1.09838E+01 +1.41414E+01
 -1.37416E+01 +1.30608E+01 -1.63080E+01 +1.15182E+01 -1.86077E+01 +9.55213E+00 -2.05729E+01 +7.21333E+00
 -2.21456E+01 +4.56321E+00 -2.32793E+01 +1.67203E+00 -2.39402E+01 -1.38321E+00 -2.41081E+01 -4.52112E+00
 -2.37769E+01 -7.65832E+00 -2.29549E+01 -1.07119E+01 -2.16642E+01 -1.36018E+01 -1.99401E+01 -1.62532E+01
 -1.78296E+01 -1.85988E+01 -1.53906E+01 -2.05803E+01 -1.26894E+01 -2.21505E+01 -9.79911E+00 -2.32743E+01
 -6.79725E+00 -2.39296E+01 -3.76344E+00 -2.41079E+01 -7.77106E-01 -2.38142E+01 +2.08488E+00 -2.30670E+01
 +4.75042E+00 -2.18972E+01 +7.15422E+00 -2.03473E+01 +9.23964E+00 -1.84699E+01 +1.09602E+01 -1.63260E+01
 +1.22807E+01 -1.39829E+01 +1.31784E+01 -1.15124E+01 +1.36430E+01 -8.98851E+00 +1.36771E+01 -6.48522E+00
 +1.32958E+01 -4.07424E+00 +1.25260E+01 -1.82299E+00 +1.14054E+01 +2.07330E-01 +9.98112E+00 +1.96345E+00
 +8.30820E+00 +3.40146E+00 +6.44780E+00 +4.48794E+00 +4.46522E+00 +5.20077E+00 +2.42785E+00 +5.52952E+00
 +4.03141E-01 +5.47559E+00 -1.54346E+00 +5.05185E+00 -3.35040E+00 +4.28208E+00 -4.96183E+00 +3.19997E+00
 -6.32917E+00 +1.84794E+00 -7.41239E+00 +2.75598E-01 -8.18108E+00 -1.46184E+00 -8.61513E+00 -3.30543E+00
 -8.70515E+00 -5.19431E+00 -8.45248E+00 -7.06765E+00 -7.86894E+00 -8.86649E+00 -6.97620E+00 -1.05355E+01
 -5.80494E+00 -1.20246E+01 -4.39364E+00 -1.32905E+01 -2.78725E+00 -1.42975E+01 -1.03568E+00 -1.50189E+01
 +8.07932E-01 -1.54372E+01 +2.68886E+00 -1.55449E+01 +4.55257E+00 -1.53440E+01 +6.34640E+00 -1.48459E+01
 +8.02115E+00 -1.40709E+01 +9.53255E+00 -1.30474E+01 +1.08425E+01 -1.18107E+01 +1.19201E+01 -1.04016E+01
 +1.27425E+01 -8.86537E+00 +1.32955E+01 -7.24981E+00 +1.35734E+01 -5.60398E+00 +1.35796E+01 -3.97650E+00
 +1.33258E+01 -2.41402E+00 +1.28315E+01 -9.59829E-01 +1.21233E+01 +3.47473E-01 +1.12340E+01 +1.47507E+00
 +1.02011E+01 +2.39685E+00 +9.06566E+00 +3.09408E+00 +7.87100E+00 +3.55582E+00 +6.66110E+00 +3.77913E+00
 +5.47925E+00 +3.76893E+00 +4.36665E+00 +3.53771E+00 +3.36115E+00 +3.10496E+00 +2.49609E+00 +2.49635E+00
 +1.79934E+00 +1.74281E+00 +1.29248E+00 +8.79393E-01 +9.90287E-01 -5.59233E-02 +9.00344E-01 -1.02353E+00
 +1.02298E+00 -1.98350E+00 +1.35137E+00 -2.89688E+00 +1.87192E+00 -3.72693E+00 +2.56482E+00 -4.44028E+00
 +3.40480E+00 -5.00792E+00 +4.36205E+00 -5.40605E+00 +5.40323E+00 -5.61679E+00 +6.49267E+00 -5.62863E+00
 +7.59347E+00 -5.43664E+00 +8.66875E+00 -5.04262E+00 +9.68283E+00 -4.45481E+00 +1.06023E+01 -3.68760E+00
 +1.13972E+01 -2.76094E+00 +1.20416E+01 -1.69962E+00 +1.25147E+01 -5.32403E-01 +1.28011E+01 +7.08952E-01
 +1.28914E+01 +1.99073E+00 +1.27825E+01 +3.27836E+00 +1.24771E+01 +4.53750E+00 +1.19841E+01 +5.73513E+00
 +1.13178E+01 +6.84051E+00 +1.04976E+01 +7.82615E+00 +9.54725E+00 +8.66858E+00 +8.49383E+00 +9.34899E+00
 +7.36722E+00 +9.85375E+00 +6.19887E+00 +1.01747E+01 +5.02087E+00 +1.03094E+01 +3.86497E+00 +1.02610E+01
 +2.76160E+00 +1.00379E+01 +1.73896E+00 +9.65370E+00 +8.22204E-01 +9.12656E+00 +3.27422E-02 +8.47842E+00
 -6.12341E-01 +7.73438E+00 -1.10072E+00 +6.92187E+00 -1.42508E+00 +6.06973E+00 -1.58329E+00 +5.20731E+00
 -1.57827E+00 +4.36360E+00 -1.41788E+00 +3.56631E+00 -1.11452E+00 +2.84114E+00 -6.84677E-01 +2.21096E+00
 -1.48325E-01 +1.69525E+00 +4.71731E-01 +1.30956E+00 +1.15062E+00 +1.06515E+00 +1.86219E+00 +9.68728E-01
 +2.57980E+00 +1.02238E+00 +3.27718E+00 +1.22361E+00 +3.92911E+00 +1.56550E+00 +4.51221E+00 +2.03705E+00
 +5.00559E+00 +2.62356E+00 +5.39135E+00 +3.30720E+00 +5.65506E+00 +4.06755E+00 +5.78610E+00 +4.88230E+00
 +5.77788E+00 +5.72795E+00 +5.62791E+00 +6.58047E+00 +5.33777E+00 +7.41605E+00 +4.91297E+00 +8.21176E+00
 +4.36268E+00 +8.94618E+00 +3.69940E+00 +9.59997E+00 +2.93845E+00 +1.01564E+01 +2.09756E+00 +1.06015E+01
 +1.19620E+00 +1.09250E+01 +2.55091E-01 +1.11197E+01 -7.04486E-01 +1.11820E+01 -1.66125E+00 +1.11122E+01
 -2.59450E+00 +1.09136E+01 -3.48469E+00 +1.05931E+01 -4.31390E+00 +1.01603E+01 -5.06627E+00 +9.62770E+00
 -5.72836E+00 +9.00968E+00 -6.28944E+00 +8.32255E+00 -6.74166E+00 +7.58381E+00 -7.08019E+00 +6.81172E+00
 -7.30323E+00 +6.02477E+00 -7.41194E+00 +5.24121E+00 -7.41034E+00 +4.47857E+00 -7.30509E+00 +3.75325E+00
 -7.10520E+00 +3.08015E+00 -6.82180E+00 +2.47229E+00 -6.46769E+00 +1.94062E+00 -6.05702E+00 +1.49376E+00
 -5.60490E+00 +1.13792E+00 -5.12695E+00 +8.76767E-01 -4.63895E+00 +7.11478E-01 -4.15641E+00 +6.40760E-01
 -3.69425E+00 +6.60975E-01 -3.26643E+00 +7.66296E-01 -2.88567E+00 +9.48915E-01 -2.56319E+00 +1.19928E+00
 -2.30848E+00 +1.50637E+00 -2.12916E+00 +1.85799E+00 -2.03083E+00 +2.24105E+00 -2.01701E+00 +2.64191E+00
 -2.08910E+00 +3.04669E+00 -2.24640E+00 +3.44156E+00 -2.48618E+00 +3.81304E+00 -2.80372E+00 +4.14831E+00
 -3.19251E+00 +4.43544E+00 -3.64438E+00 +4.66364E+00 -4.14965E+00 +4.82348E+00 -4.69741E+00 +4.90706E+00
 -5.27569E+00 +4.90819E+00 -5.87177E+00 +4.82247E+00 -6.47237E+00 +4.64744E+00 -7.06397E+00 +4.38257E+00
 -7.63308E+00 +4.02933E+00 -8.16650E+00 +3.59115E+00 -8.65158E+00 +3.07338E+00 -9.07655E+00 +2.48320E+00
 -9.43070E+00 +1.82947E+00 -9.70466E+00 +1.12265E+00 -9.89062E+00 +3.74534E-01 -9.98253E+00 -4.01950E-01
 -9.97625E+00 -1.19296E+00 -9.86973E+00 -1.98407E+00 -9.66303E+00 -2.76050E+00 -9.35848E+00 -3.50749E+00
 -8.96060E+00 -4.21062E+00 -8.47612E+00 -4.85613E+00 -7.91388E+00 -5.43124E+00 -7.28468E+00 -5.92452E+00
 -6.60111E+00 -6.32618E+00 -5.87729E+00 -6.62833E+00 -5.12862E+00 -6.82528E+00 -4.37139E+00 -6.91371E+00
 -3.62249E+00 -6.89288E+00 -2.89895E+00 -6.76468E+00 -2.21752E+00 -6.53372E+00 -1.59429E+00 -6.20728E+00
 -1.04420E+00 -5.79526E+00 -5.80642E-01 -5.30996E+00 -2.15054E-01 -4.76588E+00 +4.34612E-02 -4.17942E+00
 +1.88450E-01 -3.56848E+00 +2.16375E-01 -2.95207E+00 +1.26815E-01 -2.34983E+00 -7.74172E-02 -1.78150E+00
 -3.90236E-01 -1.26640E+00 -8.02336E-01 -8.22879E-01 -1.30134E+00 -4.67778E-01 -1.87203E+00 -2.15909E-01
 -2.49669E+00 -7.95656E-02 -3.15551E+00 -6.80978E-02 -3.82704E+00 -1.87544E-01 -4.48881E+00 -4.40347E-01
 -5.11789E+00 -8.25167E-01 -5.69152E+00 -1.33679E+00 -6.18780E+00 -1.96615E+00 -6.58632E+00 -2.70047E+00
 -6.86881E+00 -3.52348E+00 -7.01973E+00 -4.41581E+00 -7.02680E+00 -5.35544E+00 -6.88148E+00 -6.31824E+00
 -6.57931E+00 -7.27860E+00 -6.12017E+00 -8.21015E+00 -5.50842E+00 -9.08651E+00 -4.75289E+00 -9.88201E+00
 -3.86680E+00 -1.05725E+01 -2.86744E+00 -1.11361E+01 -1.77581E+00 -1.15539E+01 -6.16121E-01 -1.18104E+01
 +5.84851E-01 -1.18946E+01 +1.79846E+00 -1.17998E+01 +2.99500E+00 -1.15242E+01 +4.14454E+00 -1.10712E+01
 +5.21777E+00 -1.04492E+01 +6.18694E+00 -9.67158E+00 +7.02665E+00 -8.75640E+00 +7.71469E+00 -7.72604E+00
 +8.23275E+00 -6.60654E+00 +8.56707E+00 -5.42698E+00 +8.70890E+00 -4.21867E+00 +8.65491E+00 -3.01424E+00
 +8.40739E+00 -1.84674E+00 +7.97426E+00 -7.48659E-01 +7.36901E+00 +2.49070E-01 +6.61034E+00 +1.11801E+00
 +5.72174E+00 +1.83311E+00 +4.73085E+00 +2.37352E+00 +3.66873E+00 +2.72329E+00 +2.56901E+00 +2.87195E+00
