 Created: 19-Jan-2021
 $NMID
 ID='D:\BASISSIMULATI'
 FMTDAT='(8E13.5)'
 VOLUME=   1.00000E+00
 TRAMP=   1.00000E+00
 $END
 +2.64043E+01 +2.29165E+00 +2.45565E+01 +1.00416E+01 +2.02533E+01 +1.67230E+01 +1.40315E+01 +2.15489E+01
 +6.67281E+00 +2.39796E+01 -9.03537E-01 +2.37939E+01 -7.76586E+00 +2.11163E+01 -1.30964E+01 +1.63961E+01
 -1.63009E+01 +1.03430E+01 -1.70865E+01 +3.82611E+00 -1.54976E+01 -2.24732E+00 -1.19039E+01 -7.05724E+00
 -6.94498E+00 -9.98308E+00 -1.43633E+00 -1.06869E+01 +3.74657E+00 -9.15639E+00 +7.79211E+00 -5.70237E+00
 +1.00659E+01 -9.10881E-01 +1.01983E+01 +4.44230E+00 +8.13409E+00 +9.50283E+00 +4.13786E+00 +1.34588E+01
 -1.24521E+00 +1.56547E+01 -7.26727E+00 +1.56826E+01 -1.30831E+01 +1.34379E+01 -1.78682E+01 +9.13279E+00
 -2.09322E+01 +3.26542E+00 -2.18136E+01 -3.44975E+00 -2.03412E+01 -1.01809E+01 -1.66552E+01 -1.60926E+01
 -1.11859E+01 -2.04589E+01 -4.59197E+00 -2.27595E+01 +2.33013E+00 -2.27472E+01 +8.75538E+00 -2.04763E+01
 +1.39406E+01 -1.62903E+01 +1.73223E+01 -1.07699E+01 +1.85874E+01 -4.64989E+00 +1.77096E+01 +1.28264E+00
 +1.49449E+01 +6.29581E+00 +1.07893E+01 +9.80994E+00 +5.90465E+00 +1.14717E+01 +1.02373E+00 +1.11958E+01
 -3.15236E+00 +9.16819E+00 -6.04964E+00 +5.81317E+00 -7.29704E+00 +1.72754E+00 -6.77240E+00 -2.40681E+00
 -4.61309E+00 -5.92009E+00 -1.19058E+00 -8.24774E+00 +2.94653E+00 -9.00698E+00 +7.15274E+00 -8.04647E+00
 +1.07772E+01 -5.46310E+00 +1.32543E+01 -1.58422E+00 +1.41801E+01 +3.08128E+00 +1.33656E+01 +7.91570E+00
 +1.08588E+01 +1.22785E+01 +6.93482E+00 +1.55935E+01 +2.05496E+00 +1.74254E+01 -3.19853E+00 +1.75356E+01
 -8.20208E+00 +1.59097E+01 -1.23743E+01 +1.27552E+01 -1.52515E+01 +8.46841E+00 -1.65456E+01 +3.57744E+00
 -1.61768E+01 -1.33054E+00 -1.42778E+01 -5.68825E+00 -1.11688E+01 -9.02200E+00 -7.30942E+00 -1.10106E+01
 -3.23241E+00 -1.15222E+01 +5.29442E-01 -1.06241E+01 +3.51433E+00 -8.56617E+00 +5.39041E+00 -5.74021E+00
 +5.99529E+00 -2.62118E+00 +5.35143E+00 +3.00170E-01 +3.65600E+00 +2.58489E+00 +1.24758E+00 +3.90401E+00
 -1.44525E+00 +4.08005E+00 -3.96583E+00 +3.10665E+00 -5.89330E+00 +1.14447E+00 -6.89966E+00 -1.50541E+00
 -6.79268E+00 -4.44629E+00 -5.53933E+00 -7.24235E+00 -3.26708E+00 -9.47884E+00 -2.43658E-01 -1.08179E+01
 +3.16146E+00 -1.10427E+01 +6.52813E+00 -1.00844E+01 +9.44215E+00 -8.02814E+00 +1.15496E+01 -5.09983E+00
 +1.26017E+01 -1.63324E+00 +1.24851E+01 +1.97535E+00 +1.12333E+01 +5.31973E+00 +9.01849E+00 +8.03630E+00
 +6.12577E+00 +9.84947E+00 +2.91324E+00 +1.06044E+01 -2.36205E-01 +1.02828E+01 -2.96493E+00 +9.00113E+00
 -4.98571E+00 +6.99020E+00 -6.11639E+00 +4.56156E+00 -6.29966E+00 +2.06372E+00 -5.60588E+00 -1.64951E-01
 -4.21905E+00 -1.84049E+00 -2.40820E+00 -2.76921E+00 -4.88388E-01 -2.87051E+00 +1.22328E+00 -2.18407E+00
 +2.45075E+00 -8.60973E-01 +2.99556E+00 +8.59936E-01 +2.76215E+00 +2.68668E+00 +1.76887E+00 +4.31515E+00
 +1.43642E-01 +5.47090E+00 -1.89498E+00 +5.94618E+00 -4.06846E+00 +5.62742E+00 -6.07640E+00 +4.50983E+00
 -7.63702E+00 +2.69728E+00 -8.52462E+00 +3.87861E-01 -8.59913E+00 -2.15281E+00 -7.82412E+00 -4.62685E+00
 -6.27085E+00 -6.74311E+00 -4.10835E+00 -8.25495E+00 -1.58075E+00 -8.99159E+00 +1.02481E+00 -8.87928E+00
 +3.41550E+00 -7.94959E+00 +5.33031E+00 -6.33385E+00 +6.57289E+00 -4.24474E+00 +7.03556E+00 -1.94762E+00
 +6.71139E+00 +2.74574E-01 +5.69295E+00 +2.15823E+00 +4.15814E+00 +3.49272E+00 +2.34510E+00 +4.14670E+00
 +5.19594E-01 +4.08352E+00 -1.06071E+00 +3.36399E+00 -2.18030E+00 +2.13618E+00 -2.69382E+00 +6.13906E-01
 -2.54435E+00 -9.53257E-01 -1.76971E+00 -2.31425E+00 -4.96025E-01 -3.25061E+00 +1.08037E+00 -3.60584E+00
 +2.72024E+00 -3.30615E+00 +4.17422E+00 -2.36999E+00 +5.21667E+00 -9.05224E-01 +5.67615E+00 +9.05617E-01
 +5.45845E+00 +2.82995E+00 +4.55924E+00 +4.61623E+00 +3.06477E+00 +6.02737E+00 +1.14057E+00 +6.87216E+00
 -9.90248E-01 +7.03037E+00 -3.07612E+00 +6.46852E+00 -4.86973E+00 +5.24409E+00 -6.15997E+00 +3.49789E+00
 -6.79897E+00 +1.43560E+00 -6.72067E+00 -6.98986E-01 -5.94872E+00 -2.65542E+00 -4.59254E+00 -4.20866E+00
 -2.83253E+00 -5.18756E+00 -8.96044E-01 -5.49597E+00 +9.72212E-01 -5.12406E+00 +2.54181E+00 -4.14829E+00
 +3.62591E+00 -2.72023E+00 +4.10458E+00 -1.04589E+00 +3.93913E+00 +6.41715E-01 +3.17586E+00 +2.11313E+00
 +1.93864E+00 +3.17207E+00 +4.11752E-01 +3.68045E+00 -1.18498E+00 +3.57546E+00 -2.62520E+00 +2.87674E+00
 -3.70558E+00 +1.68293E+00 -4.27199E+00 +1.57918E-01 -4.23907E+00 -1.49095E+00 -3.60074E+00 -3.04013E+00
 -2.43053E+00 -4.27882E+00 -8.71594E-01 -5.03608E+00 +8.81888E-01 -5.20254E+00 +2.60971E+00 -4.74417E+00
 +4.09370E+00 -3.70637E+00 +5.14531E+00 -2.20801E+00 +5.62926E+00 -4.26335E-01 +5.48037E+00 +1.42535E+00
 +4.71156E+00 +3.12437E+00 +3.41208E+00 +4.46632E+00 +1.73627E+00 +5.29029E+00 -1.15578E-01 +5.49858E+00
 -1.92194E+00 +5.06855E+00 -3.46726E+00 +4.05516E+00 -4.56829E+00 +2.58405E+00 -5.09635E+00 +8.35959E-01
 -4.99284E+00 -9.75424E-01 -4.27618E+00 -2.62961E+00 -3.03942E+00 -3.92619E+00 -1.43867E+00 -4.70919E+00
 +3.25983E-01 -4.88602E+00 +2.03497E+00 -4.43870E+00 +3.47607E+00 -3.42607E+00 +4.47036E+00 -1.97657E+00
 +4.89424E+00 -2.72669E-01 +4.69475E+00 +1.47147E+00 +3.89636E+00 +3.03619E+00 +2.59831E+00 +4.22343E+00
 +9.62869E-01 +4.88138E+00 -8.04346E-01 +4.92362E+00 -2.47951E+00 +4.34048E+00 -3.84830E+00 +3.20102E+00
 -4.73274E+00 +1.64536E+00 -5.01399E+00 -1.31908E-01 -4.64809E+00 -1.90540E+00 -3.67267E+00 -3.44675E+00
 -2.20359E+00 -4.55332E+00 -4.21747E-01 -5.07426E+00 +1.44861E+00 -4.93056E+00 +3.16736E+00 -4.12649E+00
 +4.50866E+00 -2.75079E+00 +5.28997E+00 -9.67190E-01 +5.39615E+00 +1.00477E+00 +4.79567E+00 +2.91645E+00
 +3.54651E+00 +4.52118E+00 +1.79074E+00 +5.60574E+00 -2.61722E-01 +6.01845E+00 -2.35848E+00 +5.68986E+00
 -4.23605E+00 +4.64349E+00 -5.65349E+00 +2.99483E+00 -6.42379E+00 +9.38370E-01 -6.43907E+00 -1.27584E+00
 -5.68611E+00 -3.37335E+00 -4.24974E+00 -5.09043E+00 -2.30371E+00 -6.20842E+00 -8.95543E-02 -6.58301E+00
 +2.11381E+00 -6.16429E+00 +4.02601E+00 -5.00482E+00 +5.40207E+00 -3.25426E+00 +6.06527E+00 -1.14108E+00
 +5.93156E+00 +1.05659E+00 +5.02203E+00 +3.04725E+00 +3.46157E+00 +4.56477E+00 +1.46356E+00 +5.40443E+00
 -6.97579E-01 +5.45128E+00 -2.72260E+00 +4.69695E+00 -4.32755E+00 +3.24225E+00 -5.28252E+00 +1.28511E+00
 -5.44369E+00 -9.04953E-01 -4.77421E+00 -3.02241E+00 -3.35078E+00 -4.76689E+00 -1.35496E+00 -5.88416E+00
 +9.50057E-01 -6.20153E+00 +3.25412E+00 -5.65261E+00 +5.24169E+00 -4.28790E+00 +6.63478E+00 -2.26953E+00
 +7.23123E+00 +1.49312E-01 +6.93317E+00 +2.65764E+00 +5.76148E+00 +4.92828E+00 +3.85421E+00 +6.66209E+00
 +1.44883E+00 +7.62882E+00 -1.14911E+00 +7.69885E+00 -3.60713E+00 +6.86140E+00 -5.61076E+00 +5.22657E+00
 -6.90638E+00 +3.01077E+00 -7.33584E+00 +5.07481E-01 -6.85816E+00 -1.95274E+00 -5.55502E+00 -4.04751E+00
 -3.61942E+00 -5.50678E+00 -1.32886E+00 -6.14992E+00 +9.93231E-01 -5.91039E+00 +3.02240E+00 -4.84452E+00
 +4.47832E+00 -3.12335E+00 +5.16367E+00 -1.00826E+00 +4.99146E+00 +1.18578E+00 +3.99687E+00 +3.13458E+00
 +2.33197E+00 +4.55029E+00 +2.44087E-01 +5.22173E+00 -1.95923E+00 +5.04404E+00 -3.95353E+00 +4.03326E+00
 -5.44318E+00 +2.32389E+00 -6.20287E+00 +1.49938E-01 -6.10916E+00 -2.18809E+00 -5.15766E+00 -4.36534E+00
 -3.46344E+00 -6.07809E+00 -1.24473E+00 -7.08604E+00 +1.20785E+00 -7.24563E+00 +3.57192E+00 -6.52951E+00
 +5.53828E+00 -5.02972E+00 +6.85360E+00 -2.94413E+00 +7.35506E+00 -5.48159E-01 +6.99198E+00 +1.84410E+00
 +5.83158E+00 +3.92381E+00 +4.04812E+00 +5.43015E+00 +1.89725E+00 +6.18579E+00 -3.20872E-01 +6.12038E+00
 -2.30416E+00 +5.27855E+00 -3.79094E+00 +3.81176E+00 -4.59602E+00 +1.95512E+00 -4.63547E+00 -7.26163E-03
 -3.93668E+00 -1.78331E+00 -2.63262E+00 -3.11467E+00 -9.41062E-01 -3.81294E+00 +8.67810E-01 -3.78546E+00
 +2.51089E+00 -3.04722E+00 +3.73290E+00 -1.71717E+00 +4.34263E+00 +1.05102E-04 +4.23962E+00 +1.84474E+00
 +3.42754E+00 +3.53934E+00 +2.01263E+00 +4.82885E+00 +1.87620E-01 +5.51660E+00 -1.79651E+00 +5.49175E+00
 -3.66657E+00 +4.74418E+00 -5.16589E+00 +3.36491E+00 -6.09029E+00 +1.53225E+00 -6.31604E+00 -5.14113E-01
 -5.81618E+00 -2.50742E+00 -4.66296E+00 -4.19137E+00 -3.01632E+00 -5.35562E+00 -1.10018E+00 -5.86431E+00
 +8.29795E-01 -5.67364E+00 +2.52237E+00 -4.83618E+00 +3.76569E+00 -3.49168E+00 +4.41602E+00 -1.84569E+00
 +4.41644E+00 -1.39360E-01 +3.80297E+00 +1.38523E+00 +2.69740E+00 +2.51923E+00 +1.28834E+00 +3.11587E+00
 -1.97061E-01 +3.11006E+00 -1.52616E+00 +2.52609E+00 -2.49421E+00 +1.47252E+00 -2.95322E+00 +1.25280E-01
 -2.83231E+00 -1.29852E+00 -2.14696E+00 -2.57228E+00 -9.95814E-01 -3.49244E+00 +4.54187E-01 -3.90742E+00
 +1.99211E+00 -3.73879E+00 +3.39327E+00 -2.99203E+00 +4.45112E+00 -1.75524E+00 +5.00623E+00 -1.86397E-01
 +4.96844E+00 +1.50907E+00 +4.32913E+00 +3.10713E+00 +3.16206E+00 +4.39634E+00 +1.61277E+00 +5.20694E+00
 -1.21861E-01 +5.43404E+00 -1.82097E+00 +5.05150E+00 -3.27010E+00 +4.11495E+00 -4.29044E+00 +2.75350E+00
 -4.76292E+00 +1.15135E+00 -4.64381E+00 -4.77855E-01 -3.96990E+00 -1.92062E+00 -2.85252E+00 -2.99281E+00
 -1.46140E+00 -3.56455E+00 -6.47710E-04 -3.57756E+00 +1.31983E+00 -3.05237E+00 +2.31346E+00 -2.08470E+00
 +2.84279E+00 -8.31480E-01 +2.83824E+00 +5.11479E-01 +2.30748E+00 +1.73711E+00 +1.33407E+00 +2.65617E+00
 +6.55939E-02 +3.12372E+00 -1.30704E+00 +3.05957E+00 -2.57630E+00 +2.45966E+00 -3.54707E+00 +1.39697E+00
 -4.06406E+00 +1.17982E-02 -4.03380E+00 -1.50730E+00 -3.43826E+00 -2.94937E+00 -2.33810E+00 -4.11009E+00
 -8.65129E-01 -4.82014E+00 +7.95018E-01 -4.96896E+00 +2.42783E+00 -4.52060E+00 +3.81898E+00 -3.51952E+00
 +4.78362E+00 -2.08539E+00 +5.19192E+00 -3.97573E-01 +4.98732E+00 +1.32876E+00 +4.19491E+00 +2.87157E+00
 +2.91869E+00 +4.03216E+00 +1.32806E+00 +4.66243E+00 -3.64896E-01 +4.68548E+00 -1.93409E+00 +4.10662E+00
 -3.17040E+00 +3.01319E+00 -3.91056E+00 +1.56300E+00 -4.06004E+00 -3.69602E-02 -3.60657E+00 -1.55896E+00
 -2.62251E+00 -2.78610E+00 -1.25532E+00 -3.54272E+00 +2.92446E-01 -3.71943E+00 +1.79118E+00 -3.28919E+00
 +3.01635E+00 -2.31199E+00 +3.78044E+00 -9.27439E-01 +3.96005E+00 +6.64038E-01 +3.51440E+00 +2.22882E+00
