 Created: 19-Jan-2021
 $NMID
 ID='D:\BASISSIMULATI'
 FMTDAT='(8E13.5)'
 VOLUME=   1.00000E+00
 TRAMP=   1.00000E+00
 $END
 +5.39417E+01 +3.01601E+00 +4.46803E+01 +2.87772E+01 +2.30440E+01 +4.48456E+01 -3.04122E+00 +4.60923E+01
 -2.42968E+01 +3.30469E+01 -3.37217E+01 +1.14999E+01 -2.92035E+01 -9.98296E+00 -1.40684E+01 -2.35644E+01
 +4.59099E+00 -2.51869E+01 +1.90421E+01 -1.59258E+01 +2.41332E+01 -1.14438E+00 +1.92486E+01 +1.21070E+01
 +8.21408E+00 +1.82708E+01 -2.73150E+00 +1.56471E+01 -7.94780E+00 +6.93819E+00 -5.03053E+00 -2.22031E+00
 +4.09626E+00 -6.04475E+00 +1.41075E+01 -1.43713E+00 +1.88004E+01 +1.04150E+01 +1.40807E+01 +2.44061E+01
 +6.88645E-02 +3.37099E+01 -1.86416E+01 +3.28583E+01 -3.47366E+01 +2.03475E+01 -4.12287E+01 -3.91438E-01
 -3.45046E+01 -2.21335E+01 -1.60573E+01 -3.66781E+01 +7.87278E+00 -3.81851E+01 +2.86408E+01 -2.56320E+01
 +3.85789E+01 -3.34864E+00 +3.40271E+01 +2.06120E+01 +1.67642E+01 +3.76071E+01 -6.74264E+00 +4.17563E+01
 -2.79440E+01 +3.21454E+01 -3.95813E+01 +1.30006E+01 -3.84355E+01 -8.19084E+00 -2.63479E+01 -2.37905E+01
 -9.14936E+00 -2.90334E+01 +5.98070E+00 -2.37200E+01 +1.35643E+01 -1.19248E+01 +1.19815E+01 +7.51620E-02
 +3.85213E+00 +6.69570E+00 -5.45390E+00 +5.48412E+00 -1.04615E+01 -1.94827E+00 -8.18874E+00 -1.08691E+01
 +4.61524E-01 -1.57823E+01 +1.11275E+01 -1.31210E+01 +1.80333E+01 -3.05675E+00 +1.67354E+01 +1.03998E+01
 +6.33806E+00 +2.10744E+01 -9.82790E+00 +2.33642E+01 -2.54056E+01 +1.48373E+01 -3.36115E+01 -2.45345E+00
 -3.01393E+01 -2.25549E+01 -1.51222E+01 -3.78921E+01 +6.70525E+00 -4.23130E+01 +2.77511E+01 -3.36285E+01
 +4.05152E+01 -1.45806E+01 +4.05344E+01 +8.17538E+00 +2.81135E+01 +2.66632E+01 +8.14058E+00 +3.46843E+01
 -1.19188E+01 +3.01575E+01 -2.49981E+01 +1.57599E+01 -2.71445E+01 -2.34933E+00 -1.88706E+01 -1.71450E+01
 -4.63772E+00 -2.35719E+01 +9.24481E+00 -2.04215E+01 +1.73609E+01 -1.05066E+01 +1.73893E+01 +8.65030E-01
 +1.08498E+01 +8.39694E+00 +2.13042E+00 +9.16723E+00 -3.71616E+00 +3.82314E+00 -3.39695E+00 -3.88704E+00
 +3.06487E+00 -8.99788E+00 +1.23293E+01 -7.75919E+00 +1.92882E+01 +4.85449E-01 +1.94681E+01 +1.28267E+01
 +1.12130E+01 +2.39541E+01 -3.33711E+00 +2.84652E+01 -1.89371E+01 +2.33159E+01 -2.93333E+01 +9.33709E+00
 -2.98897E+01 -8.87046E+00 -1.96265E+01 -2.46556E+01 -1.78810E+00 -3.19558E+01 +1.73222E+01 -2.77606E+01
 +3.07782E+01 -1.33702E+01 +3.37388E+01 +6.07730E+00 +2.53174E+01 +2.36165E+01 +8.85626E+00 +3.31722E+01
 -9.48434E+00 +3.18687E+01 -2.32139E+01 +2.10017E+01 -2.80364E+01 +5.31436E+00 -2.33820E+01 -9.07293E+00
 -1.23550E+01 -1.71780E+01 -1.86542E-01 -1.70622E+01 +8.09660E+00 -1.03590E+01 +9.77042E+00 -1.26525E+00
 +5.39413E+00 +5.50375E+00 -1.70190E+00 +6.86870E+00 -7.13970E+00 +2.70388E+00 -7.62688E+00 -4.23871E+00
 -2.53567E+00 -9.73091E+00 +5.77526E+00 -1.01438E+01 +1.30345E+01 -4.25373E+00 +1.50449E+01 +6.03962E+00
 +9.69753E+00 +1.64203E+01 -1.89258E+00 +2.19952E+01 -1.56524E+01 +1.94725E+01 -2.61368E+01 +8.72818E+00
 -2.87765E+01 -6.93672E+00 -2.18375E+01 -2.19877E+01 -7.25532E+00 -3.08219E+01 +1.00257E+01 -3.00121E+01
 +2.39459E+01 -1.96992E+01 +2.96833E+01 -3.55619E+00 +2.55026E+01 +1.26564E+01 +1.33535E+01 +2.33419E+01
 -2.00135E+00 +2.52001E+01 -1.49405E+01 +1.83798E+01 -2.11935E+01 +6.21668E+00 -1.94005E+01 -6.28494E+00
 -1.14098E+01 -1.45522E+01 -1.25242E+00 -1.62333E+01 +6.71549E+00 -1.19477E+01 +9.67729E+00 -4.73429E+00
 +7.43231E+00 +1.50118E+00 +2.25625E+00 +3.82052E+00 -2.34088E+00 +1.55291E+00 -3.36812E+00 -3.49792E+00
 +1.83106E-01 -8.00227E+00 +6.82294E+00 -8.75929E+00 +1.32223E+01 -4.30059E+00 +1.57502E+01 +4.28707E+00
 +1.22035E+01 +1.37016E+01 +2.95185E+00 +1.97965E+01 -9.02312E+00 +1.93946E+01 -1.92414E+01 +1.17586E+01
 -2.35349E+01 -9.30649E-01 -1.97950E+01 -1.43154E+01 -8.91703E+00 -2.35306E+01 +5.46421E+00 -2.51200E+01
 +1.83474E+01 -1.84066E+01 +2.52860E+01 -5.75918E+00 +2.40744E+01 +8.34725E+00 +1.55221E+01 +1.90795E+01
 +3.02490E+00 +2.30817E+01 -8.85679E+00 +1.96590E+01 -1.62042E+01 +1.08578E+01 -1.71848E+01 +4.60351E-01
 -1.25665E+01 -7.64323E+00 -5.14392E+00 -1.10033E+01 +1.62248E+00 -9.44289E+00 +5.13354E+00 -4.86826E+00
 +4.68452E+00 -1.99030E-01 +1.58410E+00 +2.06665E+00 -1.64589E+00 +1.00149E+00 -2.59202E+00 -2.38911E+00
 -1.76046E-01 -5.73110E+00 +4.77274E+00 -6.49405E+00 +9.85716E+00 -3.28878E+00 +1.22107E+01 +3.34624E+00
 +9.86260E+00 +1.10364E+01 +2.75609E+00 +1.65177E+01 -7.04495E+00 +1.70375E+01 -1.60754E+01 +1.16039E+01
 -2.08275E+01 +1.53816E+00 -1.91851E+01 -9.92407E+00 -1.13310E+01 -1.88328E+01 +2.53314E-01 -2.20397E+01
 +1.17031E+01 -1.84112E+01 +1.92255E+01 -9.25048E+00 +2.05075E+01 +2.23221E+00 +1.55158E+01 +1.21695E+01
 +6.39163E+00 +1.74894E+01 -3.48279E+00 +1.69875E+01 -1.08338E+01 +1.16129E+01 -1.37021E+01 +3.89956E+00
 -1.20298E+01 -3.17363E+00 -7.43524E+00 -7.39028E+00 -2.33009E+00 -8.07008E+00 +1.20004E+00 -6.11897E+00
 +2.25519E+00 -3.39134E+00 +1.36561E+00 -1.69386E+00 +5.39166E-02 -1.89909E+00 -4.72727E-02 -3.56604E+00
 +1.90500E+00 -5.22184E+00 +5.46938E+00 -5.15543E+00 +9.06018E+00 -2.34471E+00 +1.06607E+01 +2.91831E+00
 +8.78886E+00 +9.00237E+00 +3.27821E+00 +1.35413E+01 -4.48468E+00 +1.44169E+01 -1.19916E+01 +1.07001E+01
 -1.65483E+01 +3.13980E+00 -1.63332E+01 -6.01759E+00 -1.11422E+01 -1.38205E+01 -2.51138E+00 -1.76982E+01
 +6.82988E+00 -1.64076E+01 +1.39558E+01 -1.04663E+01 +1.67890E+01 -1.91478E+00 +1.47882E+01 +6.47749E+00
 +9.02815E+00 +1.22306E+01 +1.67837E+00 +1.39914E+01 -4.87712E+00 +1.18786E+01 -8.90701E+00 +7.24403E+00
 -9.84846E+00 +1.99523E+00 -8.30206E+00 -2.20287E+00 -5.56580E+00 -4.51202E+00 -2.95517E+00 -5.07104E+00
 -1.22596E+00 -4.69887E+00 -3.44433E-01 -4.33208E+00 +3.24617E-01 -4.48257E+00 +1.53613E+00 -4.97185E+00
 +3.64232E+00 -5.05592E+00 +6.29129E+00 -3.86726E+00 +8.49785E+00 -9.52273E-01 +9.06096E+00 +3.36008E+00
 +7.13996E+00 +7.94560E+00 +2.72592E+00 +1.12533E+01 -3.21339E+00 +1.19084E+01 -8.99616E+00 +9.29604E+00
 -1.28030E+01 +3.87612E+00 -1.33390E+01 -2.91008E+00 -1.03177E+01 -9.11120E+00 -4.57551E+00 -1.29319E+01
 +2.22069E+00 -1.33357E+01 +8.15192E+00 -1.03592E+01 +1.16816E+01 -5.03518E+00 +1.21103E+01 +1.02054E+00
 +9.69968E+00 +6.18028E+00 +5.45635E+00 +9.30822E+00 +6.95964E-01 +1.00223E+01 -3.41914E+00 +8.65331E+00
 -6.19238E+00 +5.96797E+00 -7.46432E+00 +2.80629E+00 -7.46608E+00 -2.03657E-01 -6.56679E+00 -2.75225E+00
 -5.05542E+00 -4.77115E+00 -3.05815E+00 -6.25552E+00 -6.09332E-01 -7.10638E+00 +2.18850E+00 -7.08996E+00
 +5.02526E+00 -5.93941E+00 +7.36049E+00 -3.54440E+00 +8.55105E+00 -1.23652E-01 +8.08452E+00 +3.72141E+00
 +5.81585E+00 +7.12020E+00 +2.09630E+00 +9.18396E+00 -2.27323E+00 +9.29929E+00 -6.25783E+00 +7.34704E+00
 -8.89495E+00 +3.75862E+00 -9.57733E+00 -6.11142E-01 -8.21116E+00 -4.74237E+00 -5.20321E+00 -7.73982E+00
 -1.29981E+00 -9.05175E+00 +2.64633E+00 -8.55522E+00 +5.89055E+00 -6.50588E+00 +7.92674E+00 -3.40239E+00
 +8.51786E+00 +1.63187E-01 +7.65743E+00 +3.61304E+00 +5.51405E+00 +6.43359E+00 +2.39946E+00 +8.19128E+00
 -1.23427E+00 +8.55592E+00 -4.79847E+00 +7.35964E+00 -7.61672E+00 +4.68357E+00 -9.04512E+00 +9.27666E-01
 -8.64886E+00 -3.19535E+00 -6.37575E+00 -6.78069E+00 -2.64660E+00 -8.95645E+00 +1.69952E+00 -9.14754E+00
 +5.61399E+00 -7.27987E+00 +8.14327E+00 -3.83527E+00 +8.72246E+00 +2.80566E-01 +7.34485E+00 +4.01999E+00
 +4.53825E+00 +6.52338E+00 +1.15578E+00 +7.37102E+00 -1.93374E+00 +6.66116E+00 -4.12898E+00 +4.89118E+00
 -5.23917E+00 +2.70375E+00 -5.43825E+00 +6.16877E-01 -5.06825E+00 -1.13968E+00 -4.39968E+00 -2.61340E+00
 -3.47540E+00 -3.96184E+00 -2.12119E+00 -5.22731E+00 -1.21008E-01 -6.18413E+00 +2.53413E+00 -6.35772E+00
 +5.46245E+00 -5.23037E+00 +7.89324E+00 -2.55000E+00 +8.89273E+00 +1.40800E+00 +7.74339E+00 +5.77334E+00
 +4.31894E+00 +9.28104E+00 -7.23439E-01 +1.06937E+01 -6.05092E+00 +9.29054E+00 -1.00586E+01 +5.21855E+00
 -1.14324E+01 -4.61342E-01 -9.65348E+00 -6.08261E+00 -5.23117E+00 -9.93897E+00 +4.45640E-01 -1.08948E+01
 +5.59804E+00 -8.79651E+00 +8.70114E+00 -4.51428E+00 +9.02707E+00 +4.09529E-01 +6.86729E+00 +4.36412E+00
 +3.34638E+00 +6.27911E+00 -8.93195E-02 +5.98714E+00 -2.28622E+00 +4.19383E+00 -2.83526E+00 +2.07861E+00
 -2.16775E+00 +7.10981E-01 -1.25994E+00 +5.48289E-01 -1.08793E+00 +1.24499E+00 -2.08936E+00 +1.86277E+00
 -3.89010E+00 +1.38701E+00 -5.43730E+00 -6.90785E-01 -5.49475E+00 -4.00509E+00 -3.28417E+00 -7.35623E+00
 +1.02503E+00 -9.17128E+00 +6.22292E+00 -8.20398E+00 +1.04428E+01 -4.16924E+00 +1.18891E+01 +1.98368E+00
 +9.61361E+00 +8.31320E+00 +4.00199E+00 +1.25778E+01 -3.25982E+00 +1.31126E+01 -9.75926E+00 +9.52880E+00
 -1.32586E+01 +2.93202E+00 -1.25634E+01 -4.45231E+00 -7.99837E+00 -1.01126E+01 -1.28433E+00 -1.22115E+01
 +5.14229E+00 -1.02813E+01 +9.09130E+00 -5.36477E+00 +9.46488E+00 +4.55068E-01 +6.63676E+00 +4.93819E+00
 +2.21055E+00 +6.60787E+00 -1.73167E+00 +5.31756E+00 -3.55971E+00 +2.22573E+00 -2.79697E+00 -8.01906E-01
 -2.85395E-01 -2.09285E+00 +2.25765E+00 -9.65916E-01 +3.09157E+00 +1.93545E+00 +1.32841E+00 +4.93315E+00
 -2.57104E+00 +6.10779E+00 -6.92229E+00 +4.24482E+00 -9.53116E+00 -4.97213E-01 -8.69687E+00 -6.51680E+00
 -4.06234E+00 -1.13616E+01 +3.08070E+00 -1.27529E+01 +1.01989E+01 -9.60880E+00 +1.44967E+01 -2.61712E+00
 +1.40722E+01 +5.91762E+00 +8.75864E+00 +1.29202E+01 +2.81369E-01 +1.57538E+01 -8.36247E+00 +1.32936E+01
 -1.40639E+01 +6.41157E+00 -1.48303E+01 -2.34494E+00 -1.05711E+01 -9.75926E+00 -3.11152E+00 -1.32255E+01
 +4.57656E+00 -1.17709E+01 +9.60306E+00 -6.39483E+00 +1.03313E+01 +4.15032E-01 +6.99861E+00 +5.77659E+00
 +1.52752E+00 +7.64697E+00 -3.38136E+00 +5.66417E+00 -5.47524E+00 +1.23633E+00 -3.95416E+00 -3.15464E+00
 +1.88077E-01 -5.12446E+00 +4.64004E+00 -3.51116E+00 +6.85848E+00 +1.05194E+00 +5.28284E+00 +6.38157E+00
 +1.32226E-01 +9.71456E+00 -6.58710E+00 +8.98425E+00 -1.18929E+01 +3.83791E+00 -1.31235E+01 -4.07077E+00
 -9.16088E+00 -1.16731E+01 -1.03783E+00 -1.57353E+01 +8.36353E+00 -1.42466E+01 +1.54244E+01 -7.34642E+00
 +1.72646E+01 +2.62302E+00 +1.29609E+01 +1.19915E+01 +3.98517E+00 +1.72164E+01 -6.34067E+00 +1.63188E+01
