 Created: 19-Jan-2021
 $NMID
 ID='D:\BASISSIMULATI'
 FMTDAT='(8E13.5)'
 VOLUME=   1.00000E+00
 TRAMP=   1.00000E+00
 $END
 +1.22247E+02 +1.15127E+01 +1.15517E+02 +4.12800E+01 +1.01293E+02 +6.82054E+01 +8.06243E+01 +9.03933E+01
 +5.50381E+01 +1.06310E+02 +2.64143E+01 +1.14898E+02 -3.15703E+00 +1.15656E+02 -3.15368E+01 +1.08669E+02
 -5.67003E+01 +9.46026E+01 -7.68911E+01 +7.46439E+01 -9.07532E+01 +5.04070E+01 -9.74307E+01 +2.38046E+01
 -9.66291E+01 -3.10236E+00 -8.86309E+01 -2.82653E+01 -7.42675E+01 -4.98064E+01 -5.48482E+01 -6.61625E+01
 -3.20516E+01 -7.62029E+01 -7.79061E+00 -7.93118E+01 +1.59406E+01 -7.54310E+01 +3.72247E+01 -6.50564E+01
 +5.43710E+01 -4.91930E+01 +6.60466E+01 -2.92682E+01 +7.13774E+01 -7.01436E+00 +7.00125E+01 +1.56729E+01
 +6.21459E+01 +3.68873E+01 +4.84950E+01 +5.48643E+01 +3.02377E+01 +6.81205E+01 +8.91319E+00 +7.55693E+01
 -1.37049E+01 +7.66039E+01 -3.57529E+01 +7.11415E+01 -5.54279E+01 +5.96250E+01 -7.11316E+01 +4.29821E+01
 -8.15969E+01 +2.25468E+01 -8.59870E+01 -5.17019E-02 -8.39586E+01 -2.30226E+01 -7.56853E+01 -4.45588E+01
 -6.18389E+01 -6.29831E+01 -4.35310E+01 -7.68814E+01 -2.22192E+01 -8.52149E+01 +4.13756E-01 -8.74002E+01
 +2.25977E+01 -8.33525E+01 +4.26196E+01 -7.34877E+01 +5.89615E+01 -5.86837E+01 +7.04226E+01 -4.02053E+01
 +7.62134E+01 -1.95970E+01 +7.60170E+01 +1.44525E+00 +7.00103E+01 +2.12146E+01 +5.88456E+01 +3.81334E+01
 +4.35928E+01 +5.08821E+01 +2.56475E+01 +5.85061E+01 +6.61338E+00 +6.04926E+01 -1.18322E+01 +5.68102E+01
 -2.80789E+01 +4.79089E+01 -4.07170E+01 +3.46805E+01 -4.86552E+01 +1.83826E+01 -5.12112E+01 +5.32204E-01
 -4.81689E+01 -1.72217E+01 -3.97964E+01 -3.32364E+01 -2.68250E+01 -4.60143E+01 -1.03885E+01 -5.43281E+01
 +8.06934E+00 -5.73260E+01 +2.69149E+01 -5.46049E+01 +4.44595E+01 -4.62472E+01 +5.91002E+01 -3.28179E+01
 +6.94540E+01 -1.53215E+01 +7.44745E+01 +4.87621E+00 +7.35421E+01 +2.61584E+01 +6.65197E+01 +4.67867E+01
 +5.37693E+01 +6.50431E+01 +3.61283E+01 +7.93699E+01 +1.48467E+01 +8.84990E+01 -8.50933E+00 +9.15572E+01
 -3.21801E+01 +8.81418E+01 -5.43517E+01 +7.83578E+01 -7.33010E+01 +6.28149E+01 -8.75337E+01 +4.25843E+01
 -9.59053E+01 +1.91177E+01 -9.77157E+01 -5.86439E+00 -9.27676E+01 -3.05065E+01 -8.13865E+01 -5.29634E+01
 -6.43984E+01 -7.15460E+01 -4.30684E+01 -8.48549E+01 -1.90033E+01 -9.18921E+01 +5.97211E+00 -9.21414E+01
 +2.99578E+01 -8.56111E+01 +5.11269E+01 -7.28354E+01 +6.78690E+01 -5.48347E+01 +7.89174E+01 -3.30365E+01
 +8.34490E+01 -9.16508E+00 +8.11502E+01 +1.48933E+01 +7.22419E+01 +3.72376E+01 +5.74641E+01 +5.61013E+01
 +3.80177E+01 +6.99914E+01 +1.54716E+01 +7.78052E+01 -8.36002E+00 +7.89183E+01 -3.15597E+01 +7.32333E+01
 -5.22569E+01 +6.11886E+01 -6.87748E+01 +4.37245E+01 -7.97619E+01 +2.22100E+01 -8.42979E+01 -1.66413E+00
 -8.19664E+01 -2.60169E+01 -7.28873E+01 -4.89244E+01 -5.77085E+01 -6.85701E+01 -3.75547E+01 -8.33862E+01
 -1.39403E+01 -9.21759E+01 +1.13487E+01 -9.42067E+01 +3.63940E+01 -8.92666E+01 +5.92937E+01 -7.76803E+01
 +7.83098E+01 -6.02828E+01 +9.20029E+01 -3.83540E+01 +9.93424E+01 -1.35178E+01 +9.97848E+01 +1.23840E+01
 +9.33143E+01 +3.74358E+01 +8.04407E+01 +5.97959E+01 +6.21577E+01 +7.78391E+01 +3.98630E+01 +9.02808E+01
 +1.52467E+01 +9.62739E+01 -9.84082E+00 +9.54716E+01 -3.35347E+01 +8.80494E+01 -5.41000E+01 +7.46875E+01
 -7.00656E+01 +5.65126E+01 -8.03362E+01 +3.50057E+01 -8.42742E+01 +1.18826E+01 -8.17440E+01 -1.10430E+01
 -7.31176E+01 -3.20034E+01 -5.92391E+01 -4.94152E+01 -4.13524E+01 -6.20026E+01 -2.09980E+01 -6.88945E+01
 +1.12953E-01 -6.96896E+01 +2.02373E+01 -6.44823E+01 +3.77395E+01 -5.38497E+01 +5.12219E+01 -3.88000E+01
 +5.96342E+01 -2.06866E+01 +6.23553E+01 -1.09546E+00 +5.92385E+01 +1.82855E+01 +5.06199E+01 +3.58042E+01
 +3.72863E+01 +4.99782E+01 +2.04079E+01 +5.96141E+01 +1.44014E+00 +6.39023E+01 -1.79969E+01 +6.24810E+01
 -3.62516E+01 +5.54627E+01 -5.17760E+01 +4.34226E+01 -6.32515E+01 +2.73494E+01 -6.96960E+01 +8.56293E+00
 -7.05425E+01 -1.13947E+01 -6.56845E+01 -3.08861E+01 -5.54829E+01 -4.83121E+01 -4.07362E+01 -6.22423E+01
 -2.26138E+01 -7.15314E+01 -2.56066E+00 -7.54116E+01 +1.78212E+01 -7.35551E+01 +3.69030E+01 -6.60999E+01
 +5.31619E+01 -5.36377E+01 +6.53044E+01 -3.71660E+01 +7.23717E+01 -1.80061E+01 +7.38168E+01 +2.30455E+00
 +6.95490E+01 +2.21371E+01 +5.99407E+01 +3.99039E+01 +4.57972E+01 +5.41876E+01 +2.82907E+01 +6.38559E+01
 +8.86504E+00 +6.81537E+01 -1.08815E+01 +6.67647E+01 -2.93264E+01 +5.98368E+01 -4.49545E+01 +4.79703E+01
 -5.64820E+01 +3.21697E+01 -6.29603E+01 +1.37621E+01 -6.38543E+01 -5.71020E+00 -5.90866E+01 -2.46149E+01
 -4.90443E+01 -4.13620E+01 -3.45492E+01 -5.45338E+01 -1.67923E+01 -6.29998E+01 +2.76193E+00 -6.60102E+01
 +2.24934E+01 -6.32578E+01 +4.07566E+01 -5.49046E+01 +5.60143E+01 -4.15710E+01 +6.69617E+01 -2.42878E+01
 +7.26331E+01 -4.41474E+00 +7.24816E+01 +1.64669E+01 +6.64251E+01 +3.66806E+01 +5.48549E+01 +5.45885E+01
 +3.86078E+01 +6.87227E+01 +1.89008E+01 +7.79036E+01 -2.76386E+00 +8.13353E+01 -2.47165E+01 +7.86707E+01
 -4.52523E+01 +7.00415E+01 -6.27658E+01 +5.60496E+01 -7.58788E+01 +3.77215E+01 -8.35498E+01 +1.64288E+01
 -8.51572E+01 -6.21908E+00 -8.05497E+01 -2.85008E+01 -7.00590E+01 -4.87182E+01 -5.44748E+01 -6.53302E+01
 -3.49833E+01 -7.70734E+01 -1.30745E+01 -8.30621E+01 +9.57446E+00 -8.28574E+01 +3.12312E+01 -7.65021E+01
 +5.02437E+01 -6.45164E+01 +6.51698E+01 -4.78573E+01 +7.48901E+01 -2.78422E+01 +7.86954E+01 -6.04547E+00
 +7.63410E+01 +1.58263E+01 +6.80653E+01 +3.60683E+01 +5.45693E+01 +5.31117E+01 +3.69603E+01 +6.56470E+01
 +1.66631E+01 +7.27256E+01 -4.69317E+00 +7.38340E+01 -2.54045E+01 +6.89326E+01 -4.38268E+01 +5.84569E+01
 -5.85054E+01 +4.32815E+01 -6.82897E+01 +2.46491E+01 -7.24230E+01 +4.07078E+00 -7.06009E+01 -1.67945E+01
 -6.29936E+01 -3.62725E+01 -5.02309E+01 -5.28059E+01 -3.33505E+01 -6.50779E+01 -1.37136E+01 -7.21159E+01
 +7.10385E+00 -7.33673E+01 +2.74373E+01 -6.87419E+01 +4.56663E+01 -5.86174E+01 +6.03431E+01 -4.38079E+01
 +7.03074E+01 -2.54973E+01 +7.47772E+01 -5.14405E+00 +7.34097E+01 +1.56359E+01 +6.63273E+01 +3.51984E+01
 +5.41060E+01 +5.20018E+01 +3.77276E+01 +6.47295E+01 +1.85005E+01 +7.23937E+01 -2.04621E+00 +7.44130E+01
 -2.22851E+01 +7.06569E+01 -4.06206E+01 +6.14549E+01 -5.56160E+01 +4.75678E+01 -6.61078E+01 +3.01257E+01
 -7.12967E+01 +1.05360E+01 -7.08107E+01 -9.62968E+00 -6.47326E+01 -2.87623E+01 -5.35918E+01 -4.53439E+01
 -3.83200E+01 -5.80686E+01 -2.01750E+01 -6.59468E+01 -6.38453E-01 -6.83826E+01 +1.87034E+01 -6.52207E+01
 +3.62879E+01 -5.67569E+01 +5.07010E+01 -4.37128E+01 +6.07907E+01 -2.71764E+01 +6.57588E+01 -8.51328E+00
 +6.52239E+01 +1.07437E+01 +5.92513E+01 +2.90187E+01 +4.83464E+01 +4.48198E+01 +3.34130E+01 +5.68590E+01
 +1.56796E+01 +6.41554E+01 -3.39996E+00 +6.61144E+01 -2.22641E+01 +6.25742E+01 -3.93695E+01 +5.38191E+01
 -5.33158E+01 +4.05555E+01 -6.29578E+01 +2.38552E+01 -6.74977E+01 +5.06865E+00 -6.65497E+01 -1.42838E+01
 -6.01704E+01 -3.26341E+01 -4.88546E+01 -4.84932E+01 -3.34955E+01 -6.05698E+01 -1.53133E+01 -6.78748E+01
 +4.24271E+00 -6.98007E+01 +2.36104E+01 -6.61703E+01 +4.12396E+01 -5.72512E+01 +5.57164E+01 -4.37348E+01
 +6.58762E+01 -2.66810E+01 +7.08970E+01 -7.43357E+00 +7.03653E+01 +1.24867E+01 +6.43087E+01 +3.15034E+01
 +5.31947E+01 +4.81104E+01 +3.78924E+01 +6.09919E+01 +1.96044E+01 +6.91266E+01 -2.29829E-01 +7.18697E+01
 -2.00482E+01 +6.90038E+01 -3.82904E+01 +6.07556E+01 -5.35215E+01 +4.77782E+01 -6.45466E+01 +3.10982E+01
 -7.05049E+01 +1.20344E+01 -7.09378E+01 -7.90799E+00 -6.58249E+01 -2.71566E+01 -5.55849E+01 -4.41974E+01
 -4.10413E+01 -5.76942E+01 -2.33567E+01 -6.65951E+01 -3.93926E+00 -7.02152E+01 +1.56696E+01 -6.82901E+01
 +3.39179E+01 -6.09962E+01 +4.93666E+01 -4.89352E+01 +6.08038E+01 -3.30856E+01 +6.73406E+01 -1.47236E+01
 +6.84809E+01 +4.67915E+00 +6.41597E+01 +2.35735E+01 +5.47475E+01 +4.04562E+01 +4.10189E+01 +5.39897E+01
 +2.40904E+01 +6.31082E+01 +5.32982E+00 +6.71020E+01 -1.37534E+01 +6.56730E+01 -3.16291E+01 +5.89577E+01
 -4.68684E+01 +4.75143E+01 -5.82580E+01 +3.22777E+01 -6.48962E+01 +1.44836E+01 -6.62642E+01 -4.43156E+00
 -6.22669E+01 -2.29454E+01 -5.32387E+01 -3.95718E+01 -3.99164E+01 -5.29797E+01 -2.33786E+01 -6.20994E+01
 -4.95924E+00 -6.62072E+01 +1.38606E+01 -6.49823E+01 +3.15709E+01 -5.85323E+01 +4.67542E+01 -4.73828E+01
 +5.81984E+01 -3.24347E+01 +6.49938E+01 -1.48910E+01 +6.66050E+01 +3.83984E+00 +6.29129E+01 +2.22578E+01
 +5.42238E+01 +3.88911E+01 +4.12431E+01 +5.24144E+01 +2.50188E+01 +6.17548E+01 +6.85608E+00 +6.61771E+01
 -1.17876E+01 +6.53419E+01 -2.94199E+01 +5.93325E+01 -4.46332E+01 +4.86470E+01 -5.62174E+01 +3.41577E+01
 -6.32572E+01 +1.70400E+01 -6.52043E+01 -1.32197E+00 -6.19216E+01 -1.94475E+01 -5.36928E+01 -3.58781E+01
 -4.11998E+01 -4.92948E+01 -2.54666E+01 -5.86241E+01 -7.77678E+00 -6.31240E+01 +1.04298E+01 -6.24434E+01
 +2.76735E+01 -5.66501E+01 +4.25536E+01 -4.62248E+01 +5.38613E+01 -3.20227E+01 +6.06770E+01 -1.52038E+01
 +6.24440E+01 +2.85941E+00 +5.90139E+01 +2.06935E+01 +5.06583E+01 +3.68418E+01 +3.80475E+01 +4.99821E+01
 +2.21967E+01 +5.90328E+01 +4.38489E+00 +6.32403E+01 -1.39476E+01 +6.22398E+01 -3.13144E+01 +5.60851E+01
 -4.63024E+01 +4.52452E+01 -5.76851E+01 +3.05670E+01 -6.45210E+01 +1.32085E+01 -6.62296E+01 -5.45369E+00
 -6.26384E+01 -2.39334E+01 -5.39972E+01 -4.07539E+01 -4.09595E+01 -5.45651E+01 -2.45304E+01 -6.42521E+01
 -5.98800E+00 -6.90233E+01 +1.32185E+01 -6.84749E+01 +3.15833E+01 -6.26226E+01 +4.76632E+01 -5.19013E+01
 +6.01926E+01 -3.71312E+01 +6.81833E+01 -1.94526E+01 +7.10033E+01 -2.36459E-01 +6.84267E+01 +1.90243E+01
 +6.06517E+01 +3.68328E+01 +4.82845E+01 +5.18062E+01 +3.22919E+01 +6.27853E+01 +1.39240E+01 +6.89254E+01
 -5.38417E+00 +6.97631E+01 -2.41266E+01 +6.52520E+01 -4.08451E+01 +5.57660E+01 -5.42440E+01 +4.20690E+01
 -6.32928E+01 +2.52538E+01 -6.73061E+01 +6.65515E+00 -6.59978E+01 -1.22563E+01 -5.95020E+01 -2.99905E+01
 -4.83615E+01 -4.51557E+01 -3.34839E+01 -5.65684E+01 -1.60685E+01 -6.33461E+01 +2.48938E+00 -6.49765E+01
 +2.07093E+01 -6.13564E+01 +3.71435E+01 -5.27990E+01 +5.04912E+01 -4.00075E+01 +5.97012E+01 -2.40182E+01
