 Created: 19-Jan-2021
 $NMID
 ID='D:\BASISSIMULATI'
 FMTDAT='(8E13.5)'
 VOLUME=   1.00000E+00
 TRAMP=   1.00000E+00
 $END
 +5.51401E+01 +5.96209E+00 +5.24410E+01 +1.41795E+01 +4.56112E+01 +2.14367E+01 +3.53196E+01 +2.73631E+01
 +2.25955E+01 +3.16737E+01 +8.71332E+00 +3.41773E+01 -4.95158E+00 +3.47825E+01 -1.70778E+01 +3.35034E+01
 -2.65452E+01 +3.04641E+01 -3.25570E+01 +2.59001E+01 -3.47230E+01 +2.01544E+01 -3.30936E+01 +1.36662E+01
 -2.81420E+01 +6.94842E+00 -2.06978E+01 +5.54841E-01 -1.18404E+01 -4.96386E+00 -2.76624E+00 -9.11122E+00
 +5.35371E+00 -1.14991E+01 +1.15091E+01 -1.18981E+01 +1.49619E+01 -1.02774E+01 +1.53226E+01 -6.82692E+00
 +1.25827E+01 -1.95636E+00 +7.10198E+00 +3.73143E+00 -4.46608E-01 +9.49320E+00 -9.16535E+00 +1.45201E+01
 -1.80421E+01 +1.80276E+01 -2.60679E+01 +1.93501E+01 -3.23484E+01 +1.80300E+01 -3.61954E+01 +1.38879E+01
 -3.71907E+01 +7.06523E+00 -3.52157E+01 -1.96959E+00 -3.04459E+01 -1.24531E+01 -2.33149E+01 -2.33970E+01
 -1.44532E+01 -3.36890E+01 -4.61207E+00 -4.22142E+01 +5.41814E+00 -4.79831E+01 +1.48849E+01 -5.02504E+01
 +2.31384E+01 -4.86108E+01 +2.96780E+01 -4.30572E+01 +3.41788E+01 -3.39956E+01 +3.64979E+01 -2.22110E+01
 +3.66629E+01 -8.78812E+00 +3.48478E+01 +5.00379E+00 +3.13414E+01 +1.78509E+01 +2.65123E+01 +2.85414E+01
 +2.07758E+01 +3.61021E+01 +1.45646E+01 +3.99079E+01 +8.30504E+00 +3.97517E+01 +2.39756E+00 +3.58653E+01
 -2.79898E+00 +2.88884E+01 -6.98136E+00 +1.97909E+01 -9.91592E+00 +9.75590E+00 -1.14529E+01 +3.95293E-02
 -1.15405E+01 -8.17674E+00 -1.02375E+01 -1.39229E+01 -7.72107E+00 -1.65502E+01 -4.28632E+00 -1.58011E+01
 -3.35571E-01 -1.18323E+01 +3.64580E+00 -5.18725E+00 +7.12685E+00 +3.27458E+00 +9.58026E+00 +1.24853E+01
 +1.05394E+01 +2.12969E+01 +9.65703E+00 +2.86161E+01 +6.75887E+00 +3.35279E+01 +1.88352E+00 +3.53956E+01
 -4.69760E+00 +3.39243E+01 -1.24859E+01 +2.91834E+01 -2.07891E+01 +2.15871E+01 -2.87815E+01 +1.18366E+01
 -3.55858E+01 +8.32715E-01 -4.03692E+01 -1.04284E+01 -4.24417E+01 -2.09642E+01 -4.13459E+01 -2.99064E+01
 -3.69253E+01 -3.65819E+01 -2.93623E+01 -4.05673E+01 -1.91778E+01 -4.17119E+01 -7.19205E+00 -4.01296E+01
 +5.55288E+00 -3.61644E+01 +1.78992E+01 -3.03349E+01 +2.86985E+01 -2.32676E+01 +3.69397E+01 -1.56267E+01
 +4.18660E+01 -8.04879E+00 +4.30650E+01 -1.09009E+00 +4.05208E+01 +4.81179E+00 +3.46214E+01 +9.35841E+00
 +2.61179E+01 +1.23952E+01 +1.60413E+01 +1.39027E+01 +5.58430E+00 +1.39791E+01 -4.03576E+00 +1.28165E+01
 -1.17191E+01 +1.06771E+01 -1.66116E+01 +7.87013E+00 -1.82045E+01 +4.73131E+00 -1.63926E+01 +1.60535E+00
 -1.14851E+01 -1.17009E+00 -4.16653E+00 -3.28028E+00 +4.58643E+00 -4.45061E+00 +1.36225E+01 -4.46579E+00
 +2.17531E+01 -3.19071E+00 +2.78929E+01 -5.91116E-01 +3.11859E+01 +3.24865E+00 +3.11044E+01 +8.11472E+00
 +2.75059E+01 +1.36632E+01 +2.06459E+01 +1.94336E+01 +1.11432E+01 +2.48775E+01 -9.58802E-02 +2.94022E+01
 -1.19841E+01 +3.24275E+01 -2.33778E+01 +3.34490E+01 -3.32031E+01 +3.21025E+01 -4.05709E+01 +2.82199E+01
 -4.48646E+01 +2.18700E+01 -4.57953E+01 +1.33754E+01 -4.34161E+01 +3.30231E+00 -3.80990E+01 -7.57993E+00
 -3.04772E+01 -1.83659E+01 -2.13626E+01 -2.81029E+01 -1.16493E+01 -3.58923E+01 -2.21563E+00 -4.09907E+01
 +6.16439E+00 -4.29003E+01 +1.28911E+01 -4.14351E+01 +1.75833E+01 -3.67544E+01 +2.00955E+01 -2.93572E+01
 +2.05075E+01 -2.00369E+01 +1.90920E+01 -9.79959E+00 +1.62651E+01 +2.45878E-01 +1.25291E+01 +9.01269E+00
 +8.41348E+00 +1.55620E+01 +4.42178E+00 +1.92141E+01 +9.88924E-01 +1.96315E+01 -1.54809E+00 +1.68622E+01
 -2.96579E+00 +1.13381E+01 -3.15744E+00 +3.82746E+00 -2.12662E+00 -4.65360E+00 +2.54748E-02 -1.29605E+01
 +3.11581E+00 -1.99556E+01 +6.89582E+00 -2.46442E+01 +1.10669E+01 -2.62942E+01 +1.52949E+01 -2.45248E+01
 +1.92247E+01 -1.93542E+01 +2.24955E+01 -1.11990E+01 +2.47599E+01 -8.27887E-01 +2.57059E+01 +1.07267E+01
 +2.50831E+01 +2.22872E+01 +2.27304E+01 +3.26651E+01 +1.86036E+01 +4.07947E+01 +1.27976E+01 +4.58513E+01
 +5.56010E+00 +4.73383E+01 -2.70884E+00 +4.51362E+01 -1.14732E+01 +3.95062E+01 -2.00955E+01 +3.10512E+01
 -2.78874E+01 +2.06387E+01 -3.41740E+01 +9.29731E+00 -3.83642E+01 -1.90080E+00 -4.00200E+01 -1.19573E+01
 -3.89159E+01 -2.00507E+01 -3.50798E+01 -2.56138E+01 -2.88083E+01 -2.83788E+01 -2.06522E+01 -2.83853E+01
 -1.13713E+01 -2.59543E+01 -1.86202E+00 -2.16320E+01 +6.93597E+00 -1.61134E+01 +1.41430E+01 -1.01546E+01
 +1.90416E+01 -4.48683E+00 +2.11641E+01 +2.60019E-01 +2.03548E+01 +3.61521E+00 +1.67972E+01 +5.30202E+00
 +1.10021E+01 +5.24815E+00 +3.75581E+00 +3.57316E+00 -3.96645E+00 +5.57263E-01 -1.11120E+01 -3.40253E+00
 -1.66754E+01 -7.84229E+00 -1.98199E+01 -1.22807E+01 -1.99824E+01 -1.62628E+01 -1.69470E+01 -1.93946E+01
 -1.08792E+01 -2.13668E+01 -2.31422E+00 -2.19678E+01 +7.89810E+00 -2.10877E+01 +1.86876E+01 -1.87159E+01
 +2.88847E+01 -1.49345E+01 +3.73544E+01 -9.90981E+00 +4.31274E+01 -3.88418E+00 +4.55119E+01 +2.83355E+00
 +4.41729E+01 +9.87809E+00 +3.91710E+01 +1.68407E+01 +3.09536E+01 +2.32865E+01 +2.03024E+01 +2.87775E+01
 +8.24325E+00 +3.29018E+01 -4.07162E+00 +3.53070E+01 -1.54925E+01 +3.57370E+01 -2.49985E+01 +3.40656E+01
 -3.18057E+01 +3.03250E+01 -3.54444E+01 +2.47214E+01 -3.57989E+01 +1.76351E+01 -3.31048E+01 +9.60136E+00
 -2.79061E+01 +1.27165E+00 -2.09800E+01 -6.64285E+00 -1.32375E+01 -1.34407E+01 -5.61468E+00 -1.85055E+01
 +1.03335E+00 -2.13785E+01 +6.02330E+00 -2.18188E+01 +8.90934E+00 -1.98428E+01 +9.51772E+00 -1.57363E+01
 +7.94814E+00 -1.00353E+01 +4.54423E+00 -3.47599E+00 -1.61347E-01 +3.08240E+00 -5.51859E+00 +8.75374E+00
 -1.08392E+01 +1.27294E+01 -1.54729E+01 +1.43783E+01 -1.88732E+01 +1.33305E+01 -2.06451E+01 +9.53257E+00
 -2.05730E+01 +3.26705E+00 -1.86261E+01 -4.86767E+00 -1.49454E+01 -1.40165E+01 -9.81479E+00 -2.31598E+01
 -3.62336E+00 -3.12276E+01 +3.17735E+00 -3.72241E+01 +1.01143E+01 -4.03461E+01 +1.67291E+01 -4.00809E+01
 +2.26064E+01 -3.62732E+01 +2.73946E+01 -2.91495E+01 +3.08188E+01 -1.92993E+01 +3.26879E+01 -7.61299E+00
 +3.28981E+01 +4.81547E+00 +3.14345E+01 +1.68103E+01 +2.83712E+01 +2.72449E+01 +2.38717E+01 +3.51670E+01
 +1.81862E+01 +3.99022E+01 +1.16461E+01 +4.11259E+01 +4.65280E+00 +3.88920E+01 -2.34082E+00 +3.36190E+01
 -8.85756E+00 +2.60335E+01 -1.44306E+01 +1.70796E+01 -1.86443E+01 +7.80579E+00 -2.11767E+01 -7.57382E-01
 -2.18402E+01 -7.71336E+00 -2.06126E+01 -1.23963E+01 -1.76547E+01 -1.44376E+01 -1.33100E+01 -1.37949E+01
 -8.08239E+00 -1.07427E+01 -2.59345E+00 -5.82625E+00 +2.47836E+00 +2.13475E-01 +6.47128E+00 +6.53406E+00
 +8.81809E+00 +1.22925E+01 +9.11923E+00 +1.67409E+01 +7.20139E+00 +1.93058E+01 +3.15310E+00 +1.96433E+01
 -2.66875E+00 +1.76646E+01 -9.66468E+00 +1.35319E+01 -1.70492E+01 +7.62635E+00 -2.39333E+01 +4.94871E-01
 -2.94245E+01 -7.21639E+00 -3.27320E+01 -1.48337E+01 -3.32652E+01 -2.17234E+01 -3.07131E+01 -2.73484E+01
 -2.50932E+01 -3.13095E+01 -1.67636E+01 -3.33674E+01 -6.39506E+00 -3.34472E+01 +5.09459E+00 -3.16269E+01
 +1.66373E+01 -2.81137E+01 +2.71315E+01 -2.32138E+01 +3.55649E+01 -1.72987E+01 +4.11299E+01 -1.07734E+01
 +4.33153E+01 -4.04833E+00 +4.19663E+01 +2.48297E+00 +3.73012E+01 +8.46159E+00 +2.98870E+01 +1.35763E+01
 +2.05730E+01 +1.75744E+01 +1.03921E+01 +2.02707E+01 +4.41877E-01 +2.15570E+01 -8.24109E+00 +2.14111E+01
 -1.47983E+01 +1.99037E+01 -1.86438E+01 +1.72031E+01 -1.95246E+01 +1.35732E+01 -1.75417E+01 +9.36404E+00
 -1.31290E+01 +4.99169E+00 -6.99281E+00 +9.08292E-01 -2.21866E-02 -2.43736E+00 +6.82048E+00 -4.64550E+00
 +1.26140E+01 -5.41262E+00 +1.65845E+01 -4.57459E+00 +1.81909E+01 -2.13932E+00 +1.71801E+01 +1.69676E+00
 +1.36071E+01 +6.55262E+00 +7.81853E+00 +1.18892E+01 +4.03503E-01 +1.70576E+01 -7.88077E+00 +2.13655E+01
 -1.61987E+01 +2.41548E+01 -2.37303E+01 +2.48819E+01 -2.97575E+01 +2.31911E+01 -3.37348E+01 +1.89709E+01
 -3.53353E+01 +1.23848E+01 -3.44707E+01 +3.87191E+00 -3.12837E+01 -5.88552E+00 -2.61168E+01 -1.60258E+01
 -1.94628E+01 -2.55954E+01 -1.19051E+01 -3.36528E+01 -4.05482E+00 -3.93744E+01 +3.50713E+00 -4.21520E+01
 +1.02784E+01 -4.16676E+01 +1.58690E+01 -3.79377E+01 +2.00195E+01 -3.13188E+01 +2.26050E+01 -2.24737E+01
 +2.36263E+01 -1.23015E+01 +2.31920E+01 -1.83853E+00 +2.14967E+01 +7.85778E+00 +1.87963E+01 +1.58288E+01
 +1.53860E+01 +2.13235E+01 +1.15799E+01 +2.38837E+01 +7.69485E+00 +2.33944E+01 +4.03572E+00 +2.00942E+01
 +8.82561E-01 +1.45436E+01 -1.52265E+00 +7.55522E+00 -2.99019E+00 +9.55867E-02 -3.39767E+00 -6.83117E+00
 -2.70507E+00 -1.23023E+01 -9.67548E-01 -1.55844E+01 +1.65664E+00 -1.62170E+01 +4.90625E+00 -1.40634E+01
 +8.42757E+00 -9.32131E+00 +1.17971E+01 -2.49496E+00 +1.45559E+01 +5.66857E+00 +1.62544E+01 +1.42696E+01
 +1.65026E+01 +2.23616E+01 +1.50213E+01 +2.90587E+01 +1.16873E+01 +3.36337E+01 +6.56544E+00 +3.55933E+01
 -7.71268E-02 +3.47252E+01 -7.77943E+00 +3.11104E+01 -1.59192E+01 +2.51027E+01 -2.37674E+01 +1.72789E+01
 -3.05607E+01 +8.36690E+00 -3.55840E+01 -8.38208E-01 -3.82533E+01 -9.55984E+00 -3.81897E+01 -1.71175E+01
 -3.52741E+01 -2.29877E+01 -2.96742E+01 -2.68435E+01 -2.18399E+01 -2.85691E+01 -1.24656E+01 -2.82507E+01
 -2.42169E+00 -2.61479E+01 +7.33680E+00 -2.26493E+01 +1.58750E+01 -1.82212E+01 +2.23837E+01 -1.33545E+01
 +2.62732E+01 -8.51659E+00 +2.72433E+01 -4.11268E+00 +2.53207E+01 -4.59148E-01 +2.08590E+01 +2.23061E+00
 +1.44989E+01 +3.84871E+00 +7.09530E+00 +4.38624E+00 -3.83329E-01 +3.92056E+00 -6.96840E+00 +2.59968E+00
 -1.18063E+01 +6.25927E-01 -1.42596E+01 -1.75925E+00 -1.39835E+01 -4.28909E+00 -1.09664E+01 -6.68428E+00
 -5.53163E+00 -8.66582E+00 +1.70120E+00 -9.96924E+00 +9.88954E+00 -1.03612E+01 +1.80673E+01 -9.65830E+00
 +2.52583E+01 -7.74802E+00 +3.05889E+01 -4.60841E+00 +3.33886E+01 -3.24844E-01 +3.32639E+01 +4.90026E+00
 +3.01403E+01 +1.07480E+01 +2.42651E+01 +1.67964E+01 +1.61744E+01 +2.25475E+01 +6.62757E+00 +2.74679E+01
 -3.48190E+00 +3.10395E+01 -1.32272E+01 +3.28159E+01 -2.17492E+01 +3.24775E+01 -2.83451E+01 +2.98791E+01
 -3.25357E+01 +2.50824E+01 -3.41043E+01 +1.83683E+01 -3.31042E+01 +1.02238E+01 -2.98358E+01 +1.30529E+00
 -2.47978E+01 -7.62173E+00 -1.86205E+01 -1.57595E+01 -1.19894E+01 -2.23638E+01 -5.56910E+00 -2.68287E+01
