 Created: 19-Jan-2021
 $NMID
 ID='D:\BASISSIMULATI'
 FMTDAT='(8E13.5)'
 VOLUME=   1.00000E+00
 TRAMP=   1.00000E+00
 $END
 +1.84718E+01 +2.02905E+00 +1.79814E+01 +4.63173E+00 +1.71265E+01 +7.13624E+00 +1.59250E+01 +9.49186E+00
 +1.44020E+01 +1.16510E+01 +1.25888E+01 +1.35701E+01 +1.05227E+01 +1.52105E+01 +8.24613E+00 +1.65393E+01
 +5.80563E+00 +1.75302E+01 +3.25104E+00 +1.81634E+01 +6.34421E-01 +1.84266E+01 -1.99098E+00 +1.83152E+01
 -4.57182E+00 +1.78319E+01 -7.05574E+00 +1.69871E+01 -9.39244E+00 +1.57986E+01 -1.15347E+01 +1.42911E+01
 -1.34393E+01 +1.24956E+01 -1.50679E+01 +1.04491E+01 -1.63879E+01 +8.19364E+00 -1.73729E+01 +5.77525E+00
 -1.80035E+01 +3.24334E+00 -1.82674E+01 +6.49526E-01 -1.81598E+01 -1.95341E+00 -1.76836E+01 -4.51259E+00
 -1.68488E+01 -6.97608E+00 -1.56732E+01 -9.29401E+00 -1.41810E+01 -1.14195E+01 -1.24031E+01 -1.33097E+01
 -1.03761E+01 -1.49266E+01 -8.14144E+00 -1.62377E+01 -5.74495E+00 -1.72170E+01 -3.23553E+00 -1.78450E+01
 -6.64323E-01 -1.81095E+01 +1.91634E+00 -1.80058E+01 +4.45403E+00 -1.75365E+01 +6.89726E+00 -1.67117E+01
 +9.19656E+00 -1.55487E+01 +1.13054E+01 -1.40717E+01 +1.31814E+01 -1.23113E+01 +1.47866E+01 -1.03035E+01
 +1.60890E+01 -8.08952E+00 +1.70625E+01 -5.71474E+00 +1.76879E+01 -3.22761E+00 +1.79530E+01 -6.78816E-01
 +1.78530E+01 +1.87976E+00 +1.73906E+01 +4.39615E+00 +1.65756E+01 +6.81928E+00 +1.54252E+01 +9.10009E+00
 +1.39633E+01 +1.11925E+01 +1.22201E+01 +1.30542E+01 +1.02313E+01 +1.46479E+01 +8.03789E+00 +1.59415E+01
 +5.68462E+00 +1.69093E+01 +3.21958E+00 +1.75321E+01 +6.93011E-01 +1.77978E+01 -1.84367E+00 +1.77015E+01
 -4.33892E+00 +1.72459E+01 -6.74212E+00 +1.64406E+01 -9.00459E+00 +1.53027E+01 -1.10806E+01 +1.38557E+01
 -1.29283E+01 +1.21295E+01 -1.45105E+01 +1.01596E+01 -1.57954E+01 +7.98653E+00 -1.67575E+01 +5.65459E+00
 -1.73777E+01 +3.21145E+00 -1.76439E+01 +7.06909E-01 -1.75513E+01 -1.80806E+00 -1.71023E+01 -4.28235E+00
 -1.63067E+01 -6.66577E+00 -1.51811E+01 -8.91005E+00 -1.37488E+01 -1.09698E+01 -1.20396E+01 -1.28035E+01
 -1.00884E+01 -1.43743E+01 -7.93545E+00 -1.56506E+01 -5.62464E+00 -1.66070E+01 -3.20321E+00 -1.72246E+01
 -7.20517E-01 -1.74913E+01 +1.77292E+00 -1.74023E+01 +4.22642E+00 -1.69600E+01 +6.59023E+00 -1.61739E+01
 +8.81646E+00 -1.50604E+01 +1.08601E+01 -1.36428E+01 +1.26800E+01 -1.19503E+01 +1.42394E+01 -1.00177E+01
 +1.55071E+01 -7.88464E+00 +1.64579E+01 -5.59479E+00 +1.70728E+01 -3.19488E+00 +1.73400E+01 -7.33837E-01
 +1.72546E+01 +1.73824E+00 +1.68188E+01 +4.17114E+00 +1.60421E+01 +6.51549E+00 +1.49407E+01 +8.72381E+00
 +1.35376E+01 +1.07515E+01 +1.18616E+01 +1.25575E+01 +9.94740E+00 +1.41057E+01 +7.83412E+00 +1.53649E+01
 +5.56502E+00 +1.63101E+01 +3.18644E+00 +1.69224E+01 +7.46874E-01 +1.71901E+01 -1.70404E+00 +1.71081E+01
 -4.11649E+00 +1.66788E+01 -6.44153E+00 +1.59113E+01 -8.63209E+00 +1.48219E+01 -1.06439E+01 +1.34331E+01
 -1.24363E+01 +1.17736E+01 -1.39733E+01 +9.87757E+00 -1.52240E+01 +7.78387E+00 -1.61635E+01 +5.53535E+00
 -1.67733E+01 +3.17791E+00 -1.70413E+01 +7.59632E-01 -1.69628E+01 -1.67029E+00 -1.65399E+01 -4.06246E+00
 -1.57816E+01 -6.36836E+00 -1.47040E+01 -8.54129E+00 -1.33294E+01 -1.05373E+01 -1.16862E+01 -1.23161E+01
 -9.80819E+00 -1.38420E+01 -7.73389E+00 -1.50843E+01 -5.50576E+00 -1.60183E+01 -3.16929E+00 -1.66254E+01
 -7.72113E-01 -1.68939E+01 +1.63699E+00 -1.68188E+01 +4.00906E+00 -1.64021E+01 +6.29597E+00 -1.56530E+01
 +8.45140E+00 -1.45871E+01 +1.04318E+01 -1.32265E+01 +1.21972E+01 -1.15994E+01 +1.37120E+01 -9.73925E+00
 +1.49459E+01 -7.68419E+00 +1.58744E+01 -5.47627E+00 +1.64789E+01 -3.16058E+00 +1.67477E+01 -7.84323E-01
 +1.66759E+01 +1.60414E+00 +1.62655E+01 +3.95626E+00 +1.55253E+01 +6.22434E+00 +1.44710E+01 +8.36242E+00
 +1.31243E+01 +1.03273E+01 +1.15132E+01 +1.20793E+01 +9.67077E+00 +1.35832E+01 +7.63477E+00 +1.48088E+01
 +5.44688E+00 +1.57317E+01 +3.15178E+00 +1.63336E+01 +7.96265E-01 +1.66027E+01 -1.57173E+00 +1.65342E+01
 -3.90408E+00 +1.61300E+01 -6.15346E+00 +1.53987E+01 -8.27433E+00 +1.43558E+01 -1.02238E+01 +1.30230E+01
 -1.19625E+01 +1.14277E+01 -1.34555E+01 +9.60273E+00 -1.46729E+01 +7.58561E+00 -1.55903E+01 +5.41757E+00
 -1.61895E+01 +3.14289E+00 -1.64590E+01 +8.07942E-01 -1.63937E+01 -1.53976E+00 -1.59956E+01 -3.85249E+00
 -1.52731E+01 -6.08334E+00 -1.42416E+01 -8.18713E+00 -1.29223E+01 -1.01213E+01 -1.13427E+01 -1.18469E+01
 -9.53514E+00 -1.33291E+01 -7.53673E+00 -1.45382E+01 -5.38836E+00 -1.54501E+01 -3.13392E+00 -1.60468E+01
 -8.19358E-01 -1.63165E+01 +1.50822E+00 -1.62544E+01 +3.80150E+00 -1.58623E+01 +6.01397E+00 -1.51485E+01
 +8.10080E+00 -1.41282E+01 +1.00198E+01 -1.28225E+01 +1.17323E+01 -1.12583E+01 +1.32037E+01 -9.46798E+00
 +1.44047E+01 -7.48811E+00 +1.53112E+01 -5.35925E+00 +1.59052E+01 -3.12487E+00 +1.61752E+01 -8.30517E-01
 +1.61163E+01 +1.47710E+00 +1.57301E+01 +3.75110E+00 +1.50249E+01 +5.94533E+00 +1.40157E+01 +8.01535E+00
 +1.27233E+01 +9.91930E+00 +1.11746E+01 +1.16188E+01 +9.40127E+00 +1.30796E+01 +7.43977E+00 +1.42724E+01
 +5.33023E+00 +1.51735E+01 +3.11573E+00 +1.57649E+01 +8.41422E-01 +1.60352E+01 -1.44641E+00 +1.59793E+01
 -3.70127E+00 +1.55989E+01 -5.87741E+00 +1.49023E+01 -7.93075E+00 +1.39041E+01 -9.81977E+00 +1.26250E+01
 -1.15064E+01 +1.10914E+01 -1.29566E+01 +9.33498E+00 -1.41413E+01 +7.39169E+00 -1.50370E+01 +5.30131E+00
 -1.56258E+01 +3.10652E+00 -1.58963E+01 +8.52078E-01 -1.58434E+01 -1.41614E+00 -1.54689E+01 -3.65202E+00
 -1.47806E+01 -5.81022E+00 -1.37933E+01 -7.84701E+00 -1.25273E+01 -9.72121E+00 -1.10088E+01 -1.13950E+01
 -9.26914E+00 -1.28347E+01 -7.34389E+00 -1.40114E+01 -5.27248E+00 -1.49017E+01 -3.09723E+00 -1.54879E+01
 -8.62486E-01 -1.57586E+01 +1.38627E+00 -1.57087E+01 +3.60335E+00 -1.53399E+01 +5.74374E+00 -1.46600E+01
 +7.76411E+00 -1.36834E+01 +9.62360E+00 -1.24304E+01 +1.12847E+01 -1.09268E+01 +1.27139E+01 -9.20372E+00
 +1.38827E+01 -7.29634E+00 +1.47676E+01 -5.24375E+00 +1.53512E+01 -3.08787E+00 +1.56220E+01 -8.72651E-01
 +1.55751E+01 +1.35682E+00 +1.52119E+01 +3.55523E+00 +1.45403E+01 +5.67797E+00 +1.35743E+01 +7.68205E+00
 +1.23342E+01 +9.52694E+00 +1.08454E+01 +1.11754E+01 +9.13873E+00 +1.25943E+01 +7.24907E+00 +1.37551E+01
 +5.21512E+00 +1.46347E+01 +3.07844E+00 +1.52157E+01 +8.82577E-01 +1.54867E+01 -1.32777E+00 +1.54427E+01
 -3.50767E+00 +1.50850E+01 -5.61290E+00 +1.44215E+01 -7.60081E+00 +1.34661E+01 -9.43121E+00 +1.22387E+01
 -1.10672E+01 +1.07646E+01 -1.24758E+01 +9.07416E+00 -1.36287E+01 +7.20205E+00 -1.45030E+01 +5.18659E+00
 -1.50814E+01 +3.06893E+00 -1.53525E+01 +8.92266E-01 -1.53113E+01 -1.29911E+00 -1.49592E+01 -3.46066E+00
 -1.43037E+01 -5.54852E+00 -1.33588E+01 -7.52040E+00 -1.21439E+01 -9.33642E+00 -1.06843E+01 -1.09599E+01
 -9.01002E+00 -1.23583E+01 -7.15530E+00 -1.35034E+01 -5.15815E+00 -1.43725E+01 -3.05936E+00 -1.49482E+01
 -9.01722E-01 -1.52194E+01 +1.27085E+00 -1.51810E+01 +3.41419E+00 -1.48343E+01 +5.48483E+00 -1.41869E+01
 +7.44079E+00 -1.32522E+01 +9.24255E+00 -1.20499E+01 +1.08537E+01 -1.06047E+01 +1.22419E+01 -8.94630E+00
 +1.33793E+01 -7.10882E+00 +1.42431E+01 -5.12982E+00 +1.48162E+01 -3.04972E+00 +1.50875E+01 -9.10948E-01
 +1.50518E+01 +1.24297E+00 +1.47105E+01 +3.36827E+00 +1.40709E+01 +5.42181E+00 +1.31465E+01 +7.36199E+00
 +1.19565E+01 +9.14959E+00 +1.05255E+01 +1.07485E+01 +8.88300E+00 +1.21266E+01 +7.06259E+00 +1.32562E+01
 +5.10158E+00 +1.41148E+01 +3.04002E+00 +1.46853E+01 +9.19948E-01 +1.49566E+01 -1.21549E+00 +1.49237E+01
 -3.32288E+00 +1.45877E+01 -5.35946E+00 +1.39559E+01 -7.28399E+00 +1.30416E+01 -9.05754E+00 +1.18639E+01
 -1.06443E+01 +1.04470E+01 -1.20124E+01 +8.82011E+00 -1.31343E+01 +7.01663E+00 -1.39877E+01 +5.07344E+00
 -1.45556E+01 +3.03026E+00 -1.48270E+01 +9.28724E-01 -1.47967E+01 -1.18838E+00 -1.44659E+01 -3.27801E+00
 -1.38419E+01 -5.29778E+00 -1.29376E+01 -7.20677E+00 -1.17719E+01 -8.96638E+00 -1.03690E+01 -1.05411E+01
 -8.75764E+00 -1.18992E+01 -6.97092E+00 -1.30135E+01 -5.04541E+00 -1.38617E+01 -3.02043E+00 -1.44270E+01
 -9.37280E-01 -1.46984E+01 +1.16164E+00 -1.46707E+01 +3.23367E+00 -1.43451E+01 +5.23676E+00 -1.37287E+01
 +7.13034E+00 -1.28343E+01 +8.87611E+00 -1.16807E+01 +1.04388E+01 -1.02916E+01 +1.17871E+01 -8.69558E+00
 +1.28938E+01 -6.92547E+00 +1.37368E+01 -5.01747E+00 +1.42995E+01 -3.01055E+00 +1.45709E+01 -9.45619E-01
 +1.45458E+01 +1.13528E+00 +1.42253E+01 +3.18984E+00 +1.36164E+01 +5.17639E+00 +1.27319E+01 +7.05468E+00
 +1.15901E+01 +8.78671E+00 +1.02147E+01 +1.03376E+01 +8.63392E+00 +1.16760E+01 +6.88028E+00 +1.27751E+01
 +4.98964E+00 +1.36130E+01 +3.00060E+00 +1.41731E+01 +9.53744E-01 +1.44445E+01 -1.10928E+00 +1.44220E+01
 -3.14653E+00 +1.41065E+01 -5.11667E+00 +1.35051E+01 -6.97978E+00 +1.26302E+01 -8.69819E+00 +1.15002E+01
 -1.02372E+01 +1.01383E+01 -1.15659E+01 +8.57268E+00 -1.26575E+01 +6.83535E+00 -1.34904E+01 +4.96190E+00
 -1.40479E+01 +2.99061E+00 -1.43191E+01 +9.61658E-01 -1.42991E+01 -1.08364E+00 -1.39887E+01 -3.10372E+00
 -1.33946E+01 -5.05758E+00 -1.25293E+01 -6.90564E+00 -1.14110E+01 -8.61053E+00 -1.00625E+01 -1.01378E+01
 -8.51184E+00 -1.14568E+01 -6.79067E+00 -1.25410E+01 -4.93427E+00 -1.33688E+01 -2.98055E+00 -1.39237E+01
 -9.69363E-01 -1.41949E+01 +1.05836E+00 -1.41773E+01 +3.06141E+00 -1.38718E+01 +4.99912E+00 -1.32850E+01
 +6.83225E+00 -1.24293E+01 +8.52372E+00 -1.13224E+01 +1.00394E+01 -9.98728E+00 +1.13488E+01 -8.45139E+00
 +1.24256E+01 -6.74625E+00 +1.32483E+01 -4.90674E+00 +1.38006E+01 -2.97045E+00 +1.40717E+01 -9.76864E-01
 +1.40565E+01 +1.03344E+00 +1.37559E+01 +3.01959E+00 +1.31763E+01 +4.94129E+00 +1.23300E+01 +6.75960E+00
 +1.12345E+01 +8.43776E+00 +9.91257E+00 +9.94188E+00 +8.39135E+00 +1.12417E+01 +6.70208E+00 +1.23111E+01
 +4.87931E+00 +1.31288E+01 +2.96030E+00 +1.36785E+01 +9.84163E-01 +1.39495E+01 -1.00886E+00 +1.39368E+01
 -2.97826E+00 +1.36409E+01 -4.88408E+00 +1.30685E+01 -6.68769E+00 +1.22314E+01 -8.35263E+00 +1.11473E+01
 -9.84529E+00 +9.83839E+00 -1.11356E+01 +8.33171E+00 -1.21977E+01 +6.65816E+00 -1.30104E+01 +4.85199E+00
 -1.35576E+01 +2.95009E+00 -1.38284E+01 +9.91263E-01 -1.38180E+01 -9.84629E-01 -1.35269E+01 -2.93742E+00
