 Created: 19-Jan-2021
 $NMID
 ID='D:\BASISSIMULATI'
 FMTDAT='(8E13.5)'
 VOLUME=   1.00000E+00
 TRAMP=   1.00000E+00
 $END
 +3.66683E+01 +3.93304E+00 +3.44596E+01 +9.54779E+00 +2.84848E+01 +1.43005E+01 +1.93945E+01 +1.78712E+01
 +8.19351E+00 +2.00227E+01 -3.87544E+00 +2.06072E+01 -1.54743E+01 +1.95720E+01 -2.53240E+01 +1.69641E+01
 -3.23508E+01 +1.29339E+01 -3.58081E+01 +7.73669E+00 -3.53575E+01 +1.72776E+00 -3.11026E+01 -4.64900E+00
 -2.35701E+01 -1.08834E+01 -1.36420E+01 -1.64323E+01 -2.44794E+00 -2.07625E+01 +8.76844E+00 -2.34023E+01
 +1.87930E+01 -2.39947E+01 +2.65770E+01 -2.23472E+01 +3.13498E+01 -1.84711E+01 +3.26955E+01 -1.26022E+01
 +3.05862E+01 -5.19970E+00 +2.53694E+01 +3.08190E+00 +1.77132E+01 +1.14466E+01 +8.51820E+00 +1.90327E+01
 -1.19326E+00 +2.50037E+01 -1.03948E+01 +2.86441E+01 -1.81674E+01 +2.94495E+01 -2.37923E+01 +2.71977E+01
 -2.68146E+01 +2.19918E+01 -2.70742E+01 +1.42681E+01 -2.47009E+01 +4.76386E+00 -2.00793E+01 -5.55205E+00
 -1.37889E+01 -1.55795E+01 -6.52841E+00 -2.42084E+01 +9.64106E-01 -3.04466E+01 +7.98766E+00 -3.35388E+01
 +1.39418E+01 -3.30621E+01 +1.83725E+01 -2.89855E+01 +2.09975E+01 -2.16844E+01 +2.17113E+01 -1.19075E+01
 +2.05739E+01 -6.98593E-01 +1.77854E+01 +1.07185E+01 +1.36536E+01 +2.10785E+01 +8.55931E+00 +2.92203E+01
 +2.92274E+00 +3.42223E+01 -2.82598E+00 +3.55117E+01 -8.27056E+00 +3.29324E+01 -1.30277E+01 +2.67652E+01
 -1.67623E+01 +1.76960E+01 -1.92014E+01 +6.73667E+00 -2.01472E+01 -4.89200E+00 -1.94907E+01 -1.59020E+01
 -1.72251E+01 -2.50860E+01 -1.34571E+01 -3.14550E+01 -8.41408E+00 -3.43480E+01 -2.44265E+00 -3.35027E+01
 +4.00335E+00 -2.90781E+01 +1.03879E+01 -2.16279E+01 +1.61314E+01 -1.20281E+01 +2.06609E+01 -1.37040E+00
 +2.34677E+01 +9.16740E+00 +2.41675E+01 +1.84564E+01 +2.25543E+01 +2.55414E+01 +1.86410E+01 +2.97410E+01
 +1.26801E+01 +3.07128E+01 +5.15800E+00 +2.84765E+01 -3.23780E+00 +2.33952E+01 -1.16791E+01 +1.61190E+01
 -1.92791E+01 +7.49849E+00 -2.51881E+01 -1.51836E+00 -2.86928E+01 -9.99440E+00 -2.93063E+01 -1.71028E+01
 -2.68369E+01 -2.22076E+01 -2.14269E+01 -2.49167E+01 -1.35532E+01 -2.51049E+01 -3.98884E+00 -2.29050E+01
 +6.27340E+00 -1.86730E+01 +1.61263E+01 -1.29326E+01 +2.44721E+01 -6.30763E+00 +3.03495E+01 +5.47184E-01
 +3.30496E+01 +7.01162E+00 +3.22048E+01 +1.25527E+01 +2.78408E+01 +1.67621E+01 +2.03820E+01 +1.93761E+01
 +1.06108E+01 +2.02798E+01 -4.16627E-01 +1.94975E+01 -1.14885E+01 +1.71740E+01 -2.13758E+01 +1.35503E+01
 -2.89737E+01 +8.93885E+00 -3.34305E+01 +3.69899E+00 -3.42466E+01 -1.78418E+00 -3.13333E+01 -7.11846E+00
 -2.50226E+01 -1.19215E+01 -1.60282E+01 -1.58378E+01 -5.36097E+00 -1.85563E+01 +5.78839E+00 -1.98307E+01
 +1.61881E+01 -1.95008E+01 +2.47064E+01 -1.75135E+01 +3.04391E+01 -1.39414E+01 +3.28084E+01 -8.99339E+00
 +3.16224E+01 -3.01555E+00 +2.70874E+01 +3.52231E+00 +1.97753E+01 +1.00556E+01 +1.05480E+01 +1.59691E+01
 +4.52144E-01 +2.06539E+01 -9.40450E+00 +2.35715E+01 -1.79791E+01 +2.43186E+01 -2.44073E+01 +2.26846E+01
 -2.80913E+01 +1.86921E+01 -2.87539E+01 +1.26158E+01 -2.64532E+01 +4.97259E+00 -2.15591E+01 -3.51746E+00
 -1.46956E+01 -1.19975E+01 -6.65855E+00 -1.95616E+01 +1.68015E+00 -2.53550E+01 +9.47056E+00 -2.86746E+01
 +1.59726E+01 -2.90583E+01 +2.06250E+01 -2.63508E+01 +2.30891E+01 -2.07361E+01 +2.32648E+01 -1.27317E+01
 +2.12796E+01 -3.14302E+00 +1.74550E+01 +7.01918E+00 +1.22560E+01 +1.66480E+01 +6.23311E+00 +2.46657E+01
 -3.79220E-02 +3.01490E+01 -6.01000E+00 +3.24406E+01 -1.12082E+01 +3.12309E+01 -1.52601E+01 +2.66014E+01
 -1.79117E+01 +1.90223E+01 -1.90318E+01 +9.30374E+00 -1.86055E+01 -1.49302E+00 -1.67222E+01 -1.21762E+01
 -1.35601E+01 -2.15597E+01 -9.36968E+00 -2.86004E+01 -4.45845E+00 -3.25185E+01 +8.23945E-01 -3.28872E+01
 +6.10033E+00 -2.96814E+01 +1.09823E+01 -2.32782E+01 +1.50891E+01 -1.44111E+01 +1.80712E+01 -4.08210E+00
 +1.96362E+01 +6.55551E+00 +1.95786E+01 +1.63315E+01 +1.78073E+01 +2.41920E+01 +1.43693E+01 +2.93170E+01
 +9.46418E+00 +3.12083E+01 +3.44463E+00 +2.97375E+01 -3.19889E+00 +2.51504E+01 -9.87167E+00 +1.80282E+01
 -1.59249E+01 +9.21101E+00 -2.07185E+01 -3.05419E-01 -2.36913E+01 -9.48641E+00 -2.44297E+01 -1.73749E+01
 -2.27263E+01 -2.31936E+01 -1.86207E+01 -2.64218E+01 -1.24146E+01 -2.68390E+01 -4.65664E+00 -2.45328E+01
 +3.90179E+00 -1.98709E+01 +1.23795E+01 -1.34449E+01 +1.98583E+01 -5.99209E+00 +2.54857E+01 +1.69225E+00
 +2.85767E+01 +8.84222E+00 +2.87008E+01 +1.47982E+01 +2.57432E+01 +1.90653E+01 +1.99312E+01 +2.13488E+01
 +1.18215E+01 +2.15647E+01 +2.24759E+00 +1.98276E+01 -7.76795E+00 +1.64195E+01 -1.71260E+01 +1.17460E+01
 -2.47762E+01 +6.28589E+00 -2.98398E+01 +5.41774E-01 -3.17147E+01 -5.00445E+00 -3.01508E+01 -9.92660E+00
 -2.52839E+01 -1.38787E+01 -1.76254E+01 -1.66085E+01 -8.00711E+00 -1.79629E+01 +2.51234E+00 -1.78854E+01
 +1.27684E+01 -1.64116E+01 +2.16244E+01 -1.36609E+01 +2.81025E+01 -9.82951E+00 +3.14962E+01 -5.18180E+00
 +3.14496E+01 -4.12113E-02 +2.79964E+01 +5.22192E+00 +2.15523E+01 +1.02069E+01 +1.28626E+01 +1.45051E+01
 +2.91301E+00 +1.77283E+01 -7.18735E+00 +1.95421E+01 -1.63339E+01 +1.97018E+01 -2.35521E+01 +1.80863E+01
 -2.81044E+01 +1.47261E+01 -2.95670E+01 +9.81912E+00 -2.78682E+01 +3.73106E+00 -2.32850E+01 -3.02359E+00
 -1.63998E+01 -9.81976E+00 -8.02343E+00 -1.59778E+01 +9.03848E-01 -2.08324E+01 +9.42231E+00 -2.38068E+01
 +1.66592E+01 -2.44850E+01 +2.19196E+01 -2.26709E+01 +2.47528E+01 -1.84267E+01 +2.49866E+01 -1.20842E+01
 +2.27288E+01 -4.22506E+00 +1.83375E+01 +4.37102E+00 +1.23660E+01 +1.28036E+01 +5.49024E+00 +2.01487E+01
 -1.57005E+00 +2.55641E+01 -8.12903E+00 +2.83897E+01 -1.36007E+01 +2.82322E+01 -1.75479E+01 +2.50205E+01
 -1.97105E+01 +1.90256E+01 -2.00124E+01 +1.08410E+01 -1.85487E+01 +1.32333E+00 -1.55585E+01 -8.49977E+00
 -1.13875E+01 -1.75442E+01 -6.44624E+00 -2.47937E+01 -1.17037E+00 -2.94192E+01 +4.01514E+00 -3.08772E+01
 +8.72368E+00 -2.89769E+01 +1.26270E+01 -2.39057E+01 +1.54676E+01 -1.62114E+01 +1.70659E+01 -6.74034E+00
 +1.73230E+01 +3.45865E+00 +1.62226E+01 +1.32551E+01 +1.38310E+01 +2.15670E+01 +1.02974E+01 +2.74849E+01
 +5.85202E+00 +3.03753E+01 +8.00643E-01 +2.99505E+01 -4.48592E+00 +2.62977E+01 -9.58989E+00 +1.98639E+01
 -1.40727E+01 +1.13987E+01 -1.75090E+01 +1.86390E+00 -1.95268E+01 -7.68089E+00 -1.98490E+01 -1.62000E+01
 -1.83326E+01 -2.27984E+01 -1.49997E+01 -2.68179E+01 -1.00539E+01 -2.79037E+01 -3.87881E+00 -2.60336E+01
 +2.98478E+00 -2.15073E+01 +9.88230E+00 -1.49004E+01 +1.61071E+01 -6.98858E+00 +2.09743E+01 +1.34747E+00
 +2.38995E+01 +9.22357E+00 +2.44717E+01 +1.58486E+01 +2.25127E+01 +2.06049E+01 +1.81123E+01 +2.31039E+01
 +1.16350E+01 +2.32132E+01 +3.69409E+00 +2.10523E+01 -4.90523E+00 +1.69628E+01 -1.32490E+01 +1.14548E+01
 -2.04145E+01 +5.14191E+00 -2.55767E+01 -1.33027E+00 -2.81070E+01 -7.35089E+00 -2.76537E+01 -1.24002E+01
 -2.41915E+01 -1.60901E+01 -1.80344E+01 -1.81864E+01 -9.80926E+00 -1.86129E+01 -3.90231E-01 -1.74400E+01
 +9.19653E+00 -1.48615E+01 +1.78889E+01 -1.11639E+01 +2.47112E+01 -6.69405E+00 +2.88879E+01 -1.82707E+00
 +2.99361E+01 +3.06049E+00 +2.77232E+01 +7.61279E+00 +2.24850E+01 +1.15113E+01 +1.47996E+01 +1.44873E+01
 +5.52115E+00 +1.63314E+01 -4.31845E+00 +1.69024E+01 -1.36291E+01 +1.61352E+01 -2.13876E+01 +1.40491E+01
 -2.67549E+01 +1.07541E+01 -2.91693E+01 +6.45452E+00 -2.84076E+01 +1.44657E+00 -2.46043E+01 -3.89220E+00
 -1.82306E+01 -9.12313E+00 -1.00328E+01 -1.37770E+01 -9.42135E-01 -1.73940E+01 +8.03596E+00 -1.95692E+01
 +1.59369E+01 -2.00003E+01 +2.19440E+01 -1.85305E+01 +2.54749E+01 -1.51810E+01 +2.62376E+01 -1.01671E+01
 +2.42514E+01 -3.89438E+00 +1.98309E+01 +3.06906E+00 +1.35378E+01 +1.00409E+01 +6.10692E+00 +1.62920E+01
 -1.64313E+00 +2.11245E+01 -8.90334E+00 +2.39531E+01 -1.49608E+01 +2.43795E+01 -1.92688E+01 +2.22489E+01
 -2.14934E+01 +1.76825E+01 -2.15331E+01 +1.10787E+01 -1.95118E+01 +3.08086E+00 -1.57478E+01 -5.48466E+00
 -1.07051E+01 -1.36962E+01 -4.93413E+00 -2.06393E+01 +9.90585E-01 -2.55127E+01 +6.52756E+00 -2.77250E+01
 +1.12157E+01 -2.69692E+01 +1.47074E+01 -2.32669E+01 +1.67858E+01 -1.69736E+01 +1.73683E+01 -8.74500E+00
 +1.64959E+01 +5.32834E-01 +1.43159E+01 +9.84214E+00 +1.10579E+01 +1.81493E+01 +7.00925E+00 +2.45244E+01
 +2.49221E+00 +2.82490E+01 -2.15691E+00 +2.89011E+01 -6.60467E+00 +2.64050E+01 -1.05352E+01 +2.10399E+01
 -1.36633E+01 +1.34083E+01 -1.57480E+01 +4.36538E+00 -1.66066E+01 -5.08081E+00 -1.61295E+01 -1.38859E+01
 -1.42952E+01 -2.10890E+01 -1.11822E+01 -2.59219E+01 -6.97728E+00 -2.78930E+01 -1.97403E+00 -2.68385E+01
 +3.43793E+00 -2.29344E+01 +8.79646E+00 -1.66681E+01 +1.36021E+01 -8.77590E+00 +1.73637E+01 -1.52316E-01
 +1.96491E+01 +8.25508E+00 +2.01380E+01 +1.55537E+01 +1.86671E+01 +2.10035E+01 +1.52636E+01 +2.40931E+01
 +1.01601E+01 +2.45869E+01 +3.78646E+00 +2.25377E+01 -3.26163E+00 +1.82673E+01 -1.02770E+01 +1.23170E+01
 -1.65129E+01 +5.37629E+00 -2.12649E+01 -1.79987E+00 -2.39542E+01 -8.47620E+00 -2.42010E+01 -1.40137E+01
 -2.18795E+01 -1.79301E+01 -1.71448E+01 -1.99379E+01 -1.04289E+01 -1.99585E+01 -2.40304E+00 -1.81129E+01
 +6.09015E+00 -1.46911E+01 +1.41275E+01 -1.01083E+01 +2.08093E+01 -4.85244E+00 +2.53643E+01 +5.69165E-01
 +2.72426E+01 +5.67829E+00 +2.61849E+01 +1.00646E+01 +2.22593E+01 +1.34127E+01 +1.58598E+01 +1.55156E+01
 +7.66669E+00 +1.62780E+01 -1.42842E+00 +1.57086E+01 -1.04227E+01 +1.39078E+01 -1.83172E+01 +1.10511E+01
 -2.42318E+01 +7.37217E+00 -2.75079E+01 +3.14749E+00 -2.77841E+01 -1.31864E+00 -2.50381E+01 -5.70742E+00
 -1.95882E+01 -9.69926E+00 -1.20547E+01 -1.29888E+01 -3.28676E+00 -1.53024E+01 +5.73738E+00 -1.64179E+01
 +1.40238E+01 -1.61858E+01 +2.06764E+01 -1.45503E+01 +2.49972E+01 -1.15665E+01 +2.65619E+01 -7.41087E+00
 +2.52610E+01 -2.38079E+00 +2.13048E+01 +3.11786E+00 +1.51902E+01 +8.59792E+00 +7.63643E+00 +1.35311E+01
 -5.03637E-01 +1.73986E+01 -8.34316E+00 +1.97475E+01 -1.50615E+01 +2.02460E+01 -1.99924E+01 +1.87318E+01
 -2.26904E+01 +1.52440E+01 -2.29687E+01 +1.00366E+01 -2.09065E+01 +3.56564E+00 -1.68254E+01 -3.54670E+00
 -1.12402E+01 -1.05718E+01 -4.79203E+00 -1.67508E+01 +1.82861E+00 -2.13792E+01 +7.95779E+00 -2.38913E+01
