 Created: 19-Jan-2021
 $NMID
 ID='D:\BASISSIMULATI'
 FMTDAT='(8E13.5)'
 VOLUME=   1.00000E+00
 TRAMP=   1.00000E+00
 $END
 +7.20467E+01 +6.03250E+00 +6.61828E+01 +2.88892E+01 +5.24844E+01 +4.79510E+01 +3.30971E+01 +6.05035E+01
 +1.10651E+01 +6.49590E+01 -1.02303E+01 +6.11190E+01 -2.76853E+01 +5.01687E+01 -3.90191E+01 +3.44101E+01
 -4.31446E+01 +1.67926E+01 -4.02948E+01 +3.39879E-01 -3.18920E+01 -1.24077E+01 -2.01937E+01 -1.98263E+01
 -7.80003E+00 -2.14356E+01 +2.87201E+00 -1.78853E+01 +1.00371E+01 -1.07179E+01 +1.28265E+01 -1.97118E+00
 +1.13596E+01 +6.28568E+00 +6.60443E+00 +1.23804E+01 +7.04084E-02 +1.53402E+01 -6.58557E+00 +1.50137E+01
 -1.19462E+01 +1.19977E+01 -1.51276E+01 +7.40237E+00 -1.59197E+01 +2.51927E+00 -1.47515E+01 -1.52146E+00
 -1.25029E+01 -4.02360E+00 -1.02177E+01 -4.86518E+00 -8.79503E+00 -4.48021E+00 -8.73735E+00 -3.69481E+00
 -1.00155E+01 -3.46547E+00 -1.20819E+01 -4.58959E+00 -1.40235E+01 -7.46310E+00 -1.48142E+01 -1.19465E+01
 -1.35999E+01 -1.73725E+01 -9.94358E+00 -2.26930E+01 -3.96919E+00 -2.67287E+01 +3.63397E+00 -2.84580E+01
 +1.17477E+01 -2.72762E+01 +1.90706E+01 -2.31571E+01 +2.44138E+01 -1.66794E+01 +2.69757E+01 -8.90712E+00
 +2.65281E+01 -1.15351E+00 +2.34690E+01 +5.31778E+00 +1.87265E+01 +9.58213E+00 +1.35368E+01 +1.12649E+01
 +9.14621E+00 +1.06222E+01 +6.50904E+00 +8.47105E+00 +6.05265E+00 +5.98281E+00 +7.56747E+00 +4.38756E+00
 +1.02504E+01 +4.65837E+00 +1.28945E+01 +7.25037E+00 +1.41831E+01 +1.19577E+01 +1.30228E+01 +1.79259E+01
 +8.83589E+00 +2.38208E+01 +1.74537E+00 +2.81199E+01 -7.39569E+00 +2.94630E+01 -1.71417E+01 +2.69839E+01
 -2.57338E+01 +2.05471E+01 -3.14630E+01 +1.08345E+01 -3.30405E+01 -7.43415E-01 -2.98939E+01 -1.22955E+01
 -2.23248E+01 -2.18108E+01 -1.14899E+01 -2.75559E+01 +7.93115E-01 -2.84284E+01 +1.23770E+01 -2.41911E+01
 +2.11886E+01 -1.55382E+01 +2.56226E+01 -3.97988E+00 +2.48453E+01 +8.43288E+00 +1.89510E+01 +1.94864E+01
 +8.93913E+00 +2.72102E+01 -3.47851E+00 +3.02312E+01 -1.61992E+01 +2.80067E+01 -2.71139E+01 +2.08974E+01
 -3.44776E+01 +1.00696E+01 -3.71964E+01 -2.74446E+00 -3.49786E+01 -1.55770E+01 -2.83318E+01 -2.65764E+01
 -1.84137E+01 -3.43114E+01 -6.77937E+00 -3.79735E+01 +4.92055E+00 -3.74471E+01 +1.52254E+01 -3.32462E+01
 +2.30817E+01 -2.63432E+01 +2.79553E+01 -1.79365E+01 +2.98296E+01 -9.21009E+00 +2.91050E+01 -1.13554E+00
 +2.64347E+01 +5.64735E+00 +2.25408E+01 +1.08582E+01 +1.80575E+01 +1.45192E+01 +1.34318E+01 +1.68420E+01
 +8.89834E+00 +1.80948E+01 +4.52254E+00 +1.84886E+01 +2.90544E-01 +1.81122E+01 -3.78787E+00 +1.69300E+01
 -7.59696E+00 +1.48367E+01 -1.08801E+01 +1.17508E+01 -1.32648E+01 +7.71349E+00 -1.43424E+01 +2.96185E+00
 -1.37817E+01 -2.04968E+00 -1.14466E+01 -6.69199E+00 -7.48205E+00 -1.02629E+01 -2.34424E+00 -1.21265E+01
 +3.24172E+00 -1.18592E+01 +8.39119E+00 -9.36488E+00 +1.22175E+01 -4.93161E+00 +1.40041E+01 +7.90121E-01
 +1.33546E+01 +6.88643E+00 +1.02852E+01 +1.23395E+01 +5.23821E+00 +1.62157E+01 -9.89976E-01 +1.78431E+01
 -7.39324E+00 +1.69411E+01 -1.29435E+01 +1.36738E+01 -1.67839E+01 +8.61608E+00 -1.83865E+01 +2.63716E+00
 -1.76436E+01 -3.27152E+00 -1.48728E+01 -8.19033E+00 -1.07367E+01 -1.14459E+01 -6.09585E+00 -1.27307E+01
 -1.82539E+00 -1.21435E+01 +1.36359E+00 -1.01448E+01 +3.06197E+00 -7.43893E+00 +3.23135E+00 -4.80870E+00
 +2.19103E+00 -2.94019E+00 +5.28460E-01 -2.27469E+00 -1.04566E+00 -2.91862E+00 -1.86496E+00 -4.62945E+00
 -1.46123E+00 -6.87846E+00 +3.28242E-01 -8.97508E+00 +3.32174E+00 -1.02249E+01 +7.02942E+00 -1.00868E+01
 +1.07556E+01 -8.29570E+00 +1.37443E+01 -4.92652E+00 +1.53361E+01 -3.85997E-01 +1.51049E+01 +4.66316E+00
 +1.29457E+01 +9.42938E+00 +9.09762E+00 +1.31432E+01 +4.09990E+00 +1.52012E+01 -1.30895E+00 +1.52749E+01
 -6.32600E+00 +1.33647E+01 -1.02255E+01 +9.79026E+00 -1.24800E+01 +5.12449E+00 -1.28384E+01 +8.47741E-02
 -1.13507E+01 -4.59330E+00 -8.33795E+00 -8.27580E+00 -4.31840E+00 -1.05219E+01 +9.23257E-02 -1.11330E+01
 +4.28556E+00 -1.01555E+01 +7.74882E+00 -7.84248E+00 +1.01256E+01 -4.58664E+00 +1.12394E+01 -8.42816E-01
 +1.10840E+01 +2.94489E+00 +9.78776E+00 +6.39756E+00 +7.56670E+00 +9.23115E+00 +4.67681E+00 +1.12616E+01
 +1.37803E+00 +1.23912E+01 -2.08566E+00 +1.25869E+01 -5.49020E+00 +1.18583E+01 -8.62479E+00 +1.02461E+01
 -1.12827E+01 +7.82213E+00 -1.32577E+01 +4.69971E+00 -1.43528E+01 +1.04941E+00 -1.44016E+01 -2.88943E+00
 -1.33004E+01 -6.80887E+00 -1.10426E+01 -1.03500E+01 -7.74673E+00 -1.31390E+01 -3.66720E+00 -1.48374E+01
 +8.17579E-01 -1.51983E+01 +5.24210E+00 -1.41158E+01 +9.11189E+00 -1.16583E+01 +1.19738E+01 -8.07519E+00
 +1.34859E+01 -3.77294E+00 +1.34743E+01 +7.35942E-01 +1.19647E+01 +4.90495E+00 +9.18283E+00 +8.23353E+00
 +5.52158E+00 +1.03411E+01 +1.48175E+00 +1.10218E+01 -2.40445E+00 +1.02706E+01 -5.65283E+00 +8.27642E+00
 -7.89586E+00 +5.38434E+00 -8.92917E+00 +2.03507E+00 -8.72880E+00 -1.30726E+00 -7.43828E+00 -4.22519E+00
 -5.32987E+00 -6.40422E+00 -2.74916E+00 -7.66642E+00 -5.43469E-02 -7.97785E+00 +2.43834E+00 -7.43124E+00
 +4.49395E+00 -6.21018E+00 +5.97773E+00 -4.54389E+00 +6.85288E+00 -2.66247E+00 +7.16113E+00 -7.61292E-01
 +6.99279E+00 +1.01983E+00 +6.45445E+00 +2.60090E+00 +5.64209E+00 +3.95145E+00 +4.62474E+00 +5.07083E+00
 +3.44120E+00 +5.96576E+00 +2.10840E+00 +6.63150E+00 +6.37718E-01 +7.04168E+00 -9.46513E-01 +7.14913E+00
 -2.59199E+00 +6.89673E+00 -4.21143E+00 +6.23541E+00 -5.68584E+00 +5.14403E+00 -6.87795E+00 +3.64599E+00
 -7.65278E+00 +1.81818E+00 -7.90114E+00 -2.10436E-01 -7.56096E+00 -2.27070E+00 -6.63196E+00 -4.17363E+00
 -5.18069E+00 -5.73545E+00 -3.33497E+00 -6.80271E+00 -1.26887E+00 -7.27305E+00 +8.18966E-01 -7.10835E+00
 +2.72980E+00 -6.33842E+00 +4.28813E+00 -5.05542E+00 +5.36047E+00 -3.40067E+00 +5.86750E+00 -1.54644E+00
 +5.78868E+00 +3.24075E-01 +5.16003E+00 +2.03575E+00 +4.06623E+00 +3.43751E+00 +2.62928E+00 +4.41403E+00
 +9.95284E-01 +4.89278E+00 -6.78977E-01 +4.84708E+00 -2.23877E+00 +4.29552E+00 -3.54294E+00 +3.29874E+00
 -4.47416E+00 +1.95387E+00 -4.94750E+00 +3.86940E-01 -4.91740E+00 -1.25667E+00 -4.38214E+00 -2.82359E+00
 -3.38528E+00 -4.16525E+00 -2.01341E+00 -5.15129E+00 -3.89540E-01 -5.68233E+00 +1.33752E+00 -5.70053E+00
 +3.00725E+00 -5.19646E+00 +4.46347E+00 -4.21098E+00 +5.57040E+00 -2.83150E+00 +6.22673E+00 -1.18290E+00
 +6.37564E+00 +5.85898E-01 +6.00959E+00 +2.31788E+00 +5.16925E+00 +3.86432E+00 +3.93690E+00 +5.09929E+00
 +2.42574E+00 +5.93057E+00 +7.66739E-01 +6.30585E+00 -9.04994E-01 +6.21396E+00 -2.46235E+00 +5.68170E+00
 -3.79575E+00 +4.76750E+00 -4.81939E+00 +3.55332E+00 -5.47428E+00 +2.13627E+00 -5.72888E+00 +6.21059E-01
 -5.57808E+00 -8.86390E-01 -5.04157E+00 -2.28396E+00 -4.16206E+00 -3.47764E+00 -3.00362E+00 -4.38568E+00
 -1.64955E+00 -4.94303E+00 -1.99429E-01 -5.10633E+00 +1.23572E+00 -4.85899E+00 +2.54032E+00 -4.21552E+00
 +3.60342E+00 -3.22397E+00 +4.32927E+00 -1.96536E+00 +4.64829E+00 -5.49147E-01 +4.52658E+00 +8.95414E-01
 +3.97225E+00 +2.23151E+00 +3.03724E+00 +3.32927E+00 +1.81358E+00 +4.08060E+00 +4.24443E-01 +4.41212E+00
 -9.89300E-01 +4.29424E+00 -2.28501E+00 +3.74481E+00 -3.33451E+00 +2.82677E+00 -4.03830E+00 +1.64013E+00
 -4.33574E+00 +3.09618E-01 -4.21001E+00 -1.03015E+00 -3.68747E+00 -2.24968E+00 -2.83206E+00 -3.23788E+00
 -1.73601E+00 -3.91190E+00 -5.08525E-01 -4.22291E+00 +7.35872E-01 -4.15763E+00 +1.88784E+00 -3.73632E+00
 +2.85181E+00 -3.00818E+00 +3.55228E+00 -2.04523E+00 +3.93795E+00 -9.35557E-01 +3.98420E+00 +2.23606E-01
 +3.69409E+00 +1.33272E+00 +3.09831E+00 +2.29693E+00 +2.25364E+00 +3.03322E+00 +1.23969E+00 +3.47771E+00
 +1.53351E-01 +3.59255E+00 -8.99337E-01 +3.37149E+00 -1.81369E+00 +2.84294E+00 -2.49840E+00 +2.06930E+00
 -2.88748E+00 +1.14157E+00 -2.95025E+00 +1.69357E-01 -2.69707E+00 -7.33164E-01 -2.17938E+00 -1.46325E+00
 -1.48294E+00 -1.94512E+00 -7.14953E-01 -2.14197E+00 +1.32858E-02 -2.06197E+00 +6.05290E-01 -1.75639E+00
 +9.96251E-01 -1.30973E+00 +1.16439E+00 -8.23124E-01 +1.13411E+00 -3.93974E-01 +9.69797E-01 -9.57107E-02
 +7.60946E-01 +3.79850E-02 +6.01258E-01 +2.09124E-02 +5.65851E-01 -8.81787E-02 +6.91427E-01 -1.98516E-01
 +9.63998E-01 -2.08513E-01 +1.31745E+00 -3.11819E-02 +1.64416E+00 +3.81575E-01 +1.81622E+00 +1.02127E+00
 +1.71366E+00 +1.81621E+00 +1.25387E+00 +2.63836E+00 +4.16239E-01 +3.32343E+00 -7.44012E-01 +3.70098E+00
 -2.09637E+00 +3.62910E+00 -3.45119E+00 +3.02684E+00 -4.58935E+00 +1.89743E+00 -5.30037E+00 +3.36989E-01
 -5.42198E+00 -1.47393E+00 -4.87344E+00 -3.29558E+00 -3.67569E+00 -4.86687E+00 -1.95392E+00 -5.94915E+00
 +7.87142E-02 -6.36795E+00 +2.15378E+00 -6.04451E+00 +3.99080E+00 -5.01107E+00 +5.34324E+00 -3.40674E+00
 +6.03861E+00 -1.45463E+00 +6.00539E+00 +5.75473E-01 +5.28177E+00 +2.41185E+00 +4.00522E+00 +3.82453E+00
 +2.38515E+00 +4.65990E+00 +6.64746E-01 +4.86016E+00 -9.20673E-01 +4.46479E+00 -2.18041E+00 +3.59492E+00
 -2.99388E+00 +2.42481E+00 -3.32078E+00 +1.14707E+00 -3.19558E+00 -6.10332E-02 -2.70898E+00 -1.06348E+00
 -1.98210E+00 -1.77931E+00 -1.13957E+00 -2.18315E+00 -2.87904E-01 -2.29421E+00 +4.96719E-01 -2.15850E+00
 +1.16981E+00 -1.82970E+00 +1.71066E+00 -1.35442E+00 +2.10919E+00 -7.65442E-01 +2.35283E+00 -8.42209E-02
 +2.41844E+00 +6.69189E-01 +2.27266E+00 +1.46299E+00 +1.88126E+00 +2.24257E+00 +1.22517E+00 +2.92661E+00
 +3.18371E-01 +3.41348E+00 -7.78481E-01 +3.59814E+00 -1.95415E+00 +3.39655E+00 -3.05631E+00 +2.77175E+00
 -3.91445E+00 +1.75442E+00 -4.37287E+00 +4.51189E-01 -4.32664E+00 -9.63933E-01 -3.75215E+00 -2.27553E+00
 -2.72362E+00 -3.26666E+00 -1.40962E+00 -3.76492E+00 -4.75247E-02 -3.68457E+00 +1.10081E+00 -3.05417E+00
 +1.80407E+00 -2.02169E+00 +1.91588E+00 -8.33104E-01 +1.41575E+00 +2.13455E-01 +4.26024E-01 +8.30142E-01
 -8.01651E-01 +8.06022E-01 -1.93030E+00 +6.32352E-02 -2.60516E+00 -1.31087E+00 -2.53196E+00 -3.06512E+00
 -1.54972E+00 -4.82211E+00 +3.18375E-01 -6.14716E+00 +2.84911E+00 -6.63628E+00 +5.64455E+00 -6.00580E+00
 +8.19655E+00 -4.16481E+00 +9.97987E+00 -1.25357E+00 +1.05564E+01 +2.36248E+00 +9.66965E+00 +6.14486E+00
 +7.30955E+00 +9.47275E+00 +3.73251E+00 +1.17559E+01 -5.69638E-01 +1.25479E+01 -4.94802E+00 +1.16380E+01
