 Created: 19-Jan-2021
 $NMID
 ID='D:\BASISSIMULATI'
 FMTDAT='(8E13.5)'
 VOLUME=   1.00000E+00
 TRAMP=   1.00000E+00
 $END
 +3.68579E+01 +3.57985E+00 +3.51996E+01 +1.18063E+01 +3.15926E+01 +1.93873E+01 +2.62713E+01 +2.58441E+01
 +1.95897E+01 +3.07794E+01 +1.19933E+01 +3.39069E+01 +3.98512E+00 +3.50721E+01 -3.91336E+00 +3.42621E+01
 -1.12019E+01 +3.16040E+01 -1.74393E+01 +2.73529E+01 -2.22756E+01 +2.18693E+01 -2.54768E+01 +1.55885E+01
 -2.69400E+01 +8.98478E+00 -2.66969E+01 +2.53300E+00 -2.49073E+01 -3.32914E+00 -2.18416E+01 -8.23487E+00
 -1.78546E+01 -1.19156E+01 -1.33536E+01 -1.42194E+01 -8.76153E+00 -1.51192E+01 -4.48103E+00 -1.47104E+01
 -8.60077E-01 -1.31980E+01 +1.83654E+00 -1.08746E+01 +3.44802E+00 -8.09151E+00 +3.92887E+00 -5.22460E+00
 +3.34994E+00 -2.63947E+00 +1.88900E+00 -6.57461E-01 -1.87897E-01 +4.73750E-01 -2.55292E+00 +6.02681E-01
 -4.84824E+00 -3.12237E-01 -6.72029E+00 -2.19890E+00 -7.85372E+00 -4.87800E+00 -8.00177E+00 -8.07917E+00
 -7.01067E+00 -1.14654E+01 -4.83582E+00 -1.46632E+01 -1.54840E+00 -1.72971E+01 +2.66826E+00 -1.90234E+01
 +7.53219E+00 -1.95628E+01 +1.26851E+01 -1.87269E+01 +1.77215E+01 -1.64372E+01 +2.22226E+01 -1.27359E+01
 +2.57913E+01 -7.78486E+00 +2.80862E+01 -1.85632E+00 +2.88515E+01 +4.68732E+00 +2.79394E+01 +1.14206E+01
 +2.53250E+01 +1.78877E+01 +2.11103E+01 +2.36383E+01 +1.55184E+01 +2.82631E+01 +8.87768E+00 +3.14258E+01
 +1.59764E+00 +3.28905E+01 -5.86190E+00 +3.25398E+01 -1.30257E+01 +3.03845E+01 -1.94390E+01 +2.65631E+01
 -2.47021E+01 +2.13302E+01 -2.84996E+01 +1.50373E+01 -3.06238E+01 +8.10468E+00 -3.09886E+01 +9.89276E-01
 -2.96338E+01 -5.85067E+00 -2.67200E+01 -1.19902E+01 -2.25129E+01 -1.70693E+01 -1.73608E+01 -2.08185E+01
 -1.16648E+01 -2.30770E+01 -5.84620E+00 -2.38017E+01 -3.12973E-01 -2.30665E+01 +4.57243E+00 -2.10520E+01
 +8.52018E+00 -1.80268E+01 +1.13337E+01 -1.43223E+01 +1.29222E+01 -1.03026E+01 +1.33034E+01 -6.33288E+00
 +1.25980E+01 -2.74796E+00 +1.10146E+01 +1.75124E-01 +8.82794E+00 +2.23927E+00 +6.35207E+00 +3.34182E+00
 +3.91026E+00 +3.48059E+00 +1.80514E+00 +2.75091E+00 +2.91020E-01 +1.33407E+00 -4.48913E-01 -5.21625E-01
 -3.18782E-01 -2.52559E+00 +6.81850E-01 -4.37311E+00 +2.45848E+00 -5.77460E+00 +4.83069E+00 -6.48323E+00
 +7.54887E+00 -6.31869E+00 +1.03172E+01 -5.18495E+00 +1.28204E+01 -3.08047E+00 +1.47533E+01 -1.00122E-01
 +1.58481E+01 +3.57146E+00 +1.59002E+01 +7.67442E+00 +1.47877E+01 +1.18950E+01 +1.24840E+01 +1.58914E+01
 +9.06292E+00 +1.93229E+01 +4.69460E+00 +2.18785E+01 -3.66210E-01 +2.33037E+01 -5.79930E+00 +2.34227E+01
 -1.12437E+01 +2.21544E+01 -1.63259E+01 +1.95204E+01 -2.06891E+01 +1.56449E+01 -2.40217E+01 +1.07463E+01
 -2.60816E+01 +5.12112E+00 -2.67151E+01 -8.78327E-01 -2.58695E+01 -6.87080E+00 -2.35964E+01 -1.24750E+01
 -2.00478E+01 -1.73384E+01 -1.54636E+01 -2.11637E+01 -1.01528E+01 -2.37302E+01 -4.46912E+00 -2.49098E+01
 +1.21619E+00 -2.46744E+01 +6.54279E+00 -2.30962E+01 +1.11881E+01 -2.03397E+01 +1.48908E+01 -1.66468E+01
 +1.74687E+01 -1.23155E+01 +1.88300E+01 -7.67549E+00 +1.89775E+01 -3.06154E+00 +1.80040E+01 +1.21317E+00
 +1.60817E+01 +4.88071E+00 +1.34448E+01 +7.73789E+00 +1.03678E+01 +9.65982E+00 +7.14103E+00 +1.06065E+01
 +4.04559E+00 +1.06224E+01 +1.33015E+00 +9.82832E+00 -8.09102E-01 +8.40784E+00 -2.24324E+00 +6.58825E+00
 -2.91919E+00 +4.61845E+00 -2.86143E+00 +2.74560E+00 -2.16693E+00 +1.19255E+00 -9.93744E-01 +1.37909E-01
 +4.55538E-01 -2.99420E-01 +1.95395E+00 -7.01721E-02 +3.27218E+00 +8.01812E-01 +4.20049E+00 +2.22270E+00
 +4.56859E+00 +4.03803E+00 +4.26180E+00 +6.04741E+00 +3.23222E+00 +8.02328E+00 +1.50371E+00 +9.73194E+00
 -8.29289E-01 +1.09552E+01 -3.60936E+00 +1.15105E+01 -6.62912E+00 +1.12681E+01 -9.64871E+00 +1.01637E+01
 -1.24161E+01 +8.20516E+00 -1.46885E+01 +5.47367E+00 -1.62532E+01 +2.11800E+00 -1.69459E+01 -1.65650E+00
 -1.66649E+01 -5.60381E+00 -1.53804E+01 -9.45657E+00 -1.31379E+01 -1.29472E+01 -1.00552E+01 -1.58291E+01
 -6.31388E+00 -1.78960E+01 -2.14544E+00 -1.89980E+01 +2.18634E+00 -1.90534E+01 +6.40562E+00 -1.80547E+01
 +1.02454E+01 -1.60684E+01 +1.34674E+01 -1.32300E+01 +1.58800E+01 -9.73243E+00 +1.73512E+01 -5.81076E+00
 +1.78180E+01 -1.72407E+00 +1.72888E+01 +2.26466E+00 +1.58417E+01 +5.90827E+00 +1.36157E+01 +8.99351E+00
 +1.07988E+01 +1.13559E+01 +7.61201E+00 +1.28907E+01 +4.29071E+00 +1.35579E+01 +1.06644E+00 +1.33833E+01
 -1.85107E+00 +1.24530E+01 -4.28923E+00 +1.09042E+01 -6.12445E+00 +8.91134E+00 -7.28950E+00 +6.67069E+00
 -7.77603E+00 +4.38288E+00 -7.63208E+00 +2.23622E+00 -6.95497E+00 +3.91593E-01 -5.88038E+00 -1.02976E+00
 -4.56854E+00 -1.95464E+00 -3.18886E+00 -2.36186E+00 -1.90433E+00 -2.28151E+00 -8.57029E-01 -1.78988E+00
 -1.55950E-01 -1.00043E+00 +1.31860E-01 -5.18104E-02 -1.38045E-02 +9.06054E-01 -5.65729E-01 +1.72645E+00
 -1.45294E+00 +2.27976E+00 -2.56823E+00 +2.46553E+00 -3.77874E+00 +2.22167E+00 -4.93873E+00 +1.53011E+00
 -5.90324E+00 +4.18404E-01 -6.54165E+00 -1.04268E+00 -6.74971E+00 -2.74543E+00 -6.45925E+00 -4.55459E+00
 -5.64467E+00 -6.31919E+00 -4.32571E+00 -7.88561E+00 -2.56626E+00 -9.11083E+00 -4.69499E-01 -9.87478E+00
 +1.83031E+00 -1.00906E+01 +4.17858E+00 -9.71224E+00 +6.41282E+00 -8.73839E+00 +8.37557E+00 -7.21302E+00
 +9.92690E+00 -5.22195E+00 +1.09553E+01 -2.88626E+00 +1.13865E+01 -3.52798E-01 +1.11884E+01 +2.21714E+00
 +1.03737E+01 +4.66020E+00 +8.99833E+00 +6.82330E+00 +7.15620E+00 +8.57489E+00 +4.97191E+00 +9.81436E+00
 +2.59064E+00 +1.04788E+01 +1.66922E-01 +1.05467E+01 -2.14709E+00 +1.00382E+01 -4.21274E+00 +9.01228E+00
 -5.91460E+00 +7.56103E+00 -7.16812E+00 +5.80136E+00 -7.92448E+00 +3.86531E+00 -8.17260E+00 +1.88946E+00
 -7.93803E+00 +4.43598E-03 -7.27904E+00 -1.67460E+00 -6.28031E+00 -3.05588E+00 -5.04487E+00 -4.07668E+00
 -3.68492E+00 -4.70635E+00 -2.31243E+00 -4.94672E+00 -1.03023E+00 -4.82971E+00 +7.57014E-02 -4.41274E+00
 +9.42075E-01 -3.77223E+00 +1.53199E+00 -2.99588E+00 +1.83618E+00 -2.17449E+00 +1.87190E+00 -1.39388E+00
 +1.67957E+00 -7.27757E-01 +1.31760E+00 -2.31948E-01 +8.56003E-01 +5.94679E-02 +3.69234E-01 +1.35960E-01
 -7.09592E-02 +1.01698E-02 -4.02113E-01 -2.84495E-01 -5.76508E-01 -6.97999E-01 -5.65074E-01 -1.16913E+00
 -3.59474E-01 -1.63173E+00 +2.77499E-02 -2.02111E+00 +5.64899E-01 -2.28016E+00 +1.20449E+00 -2.36450E+00
 +1.88793E+00 -2.24644E+00 +2.55102E+00 -1.91727E+00 +3.12985E+00 -1.38783E+00 +3.56644E+00 -6.87455E-01
 +3.81379E+00 +1.38798E-01 +3.83987E+00 +1.03408E+00 +3.63017E+00 +1.93465E+00 +3.18883E+00 +2.77520E+00
 +2.53807E+00 +3.49422E+00 +1.71626E+00 +4.03883E+00 +7.74689E-01 +4.36890E+00 -2.26674E-01 +4.45991E+00
 -1.22388E+00 +4.30457E+00 -2.15392E+00 +3.91295E+00 -2.95940E+00 +3.31131E+00 -3.59257E+00 +2.53969E+00
 -4.01851E+00 +1.64857E+00 -4.21712E+00 +6.94819E-01 -4.18400E+00 -2.62563E-01 -3.92999E+00 -1.16673E+00
 -3.47973E+00 -1.96685E+00 -2.86917E+00 -2.62129E+00 -2.14249E+00 -3.09996E+00 -1.34852E+00 -3.38566E+00
 -5.37175E-01 -3.47435E+00 +2.44016E-01 -3.37454E+00 +9.52888E-01 -3.10572E+00 +1.55502E+00 -2.69622E+00
 +2.02534E+00 -2.18057E+00 +2.34894E+00 -1.59667E+00 +2.52104E+00 -9.83023E-01 +2.54632E+00 -3.76174E-01
 +2.43762E+00 +1.91418E-01 +2.21419E+00 +6.92990E-01 +1.89975E+00 +1.10848E+00 +1.52048E+00 +1.42497E+00
 +1.10308E+00 +1.63653E+00 +6.73144E-01 +1.74366E+00 +2.53750E-01 +1.75236E+00 -1.35457E-01 +1.67298E+00
 -4.78849E-01 +1.51896E+00 -7.65021E-01 +1.30566E+00 -9.86691E-01 +1.04923E+00 -1.14037E+00 +7.65740E-01
 -1.22586E+00 +4.70431E-01 -1.24577E+00 +1.77268E-01 -1.20492E+00 -1.01378E-01 -1.10986E+00 -3.54867E-01
 -9.68529E-01 -5.74352E-01 -7.89859E-01 -7.52777E-01 -5.83578E-01 -8.84890E-01 -3.59983E-01 -9.67271E-01
 -1.29729E-01 -9.98404E-01 +9.64144E-02 -9.78774E-01 +3.07879E-01 -9.10968E-01 +4.94698E-01 -7.99731E-01
 +6.47978E-01 -6.51949E-01 +7.60428E-01 -4.76492E-01 +8.26899E-01 -2.83905E-01 +8.44868E-01 -8.59178E-02
 +8.14816E-01 +1.05222E-01 +7.40420E-01 +2.77550E-01 +6.28513E-01 +4.20279E-01 +4.88775E-01 +5.24701E-01
 +3.33137E-01 +5.85018E-01 +1.74931E-01 +5.99002E-01 +2.78205E-02 +5.68393E-01 -9.53924E-02 +4.98982E-01
 -1.83992E-01 +4.00316E-01 -2.30482E-01 +2.85027E-01 -2.31508E-01 +1.67809E-01 -1.88458E-01 +6.41110E-02
 -1.07656E-01 -1.13494E-02 -8.83669E-05 -4.61278E-02 +1.19348E-01 -3.14979E-02 +2.33043E-01 +3.63455E-02
 +3.22235E-01 +1.55464E-01 +3.68820E-01 +3.17846E-01 +3.57248E-01 +5.09635E-01 +2.76337E-01 +7.11946E-01
 +1.20824E-01 +9.02234E-01 -1.07521E-01 +1.05613E+00 -3.99337E-01 +1.14960E+00 -7.37792E-01 +1.16125E+00
 -1.09939E+00 +1.07461E+00 -1.45545E+00 +8.80126E-01 -1.77421E+00 +5.76681E-01 -2.02330E+00 +1.72517E-01
 -2.17255E+00 -3.14624E-01 -2.19672E+00 -8.58173E-01 -2.07810E+00 -1.42421E+00 -1.80856E+00 -1.97369E+00
 -1.39098E+00 -2.46523E+00 -8.39835E-01 -2.85826E+00 -1.80853E-01 -3.11637E+00 +5.50278E-01 -3.21041E+00
 +1.31007E+00 -3.12123E+00 +2.05017E+00 -2.84175E+00 +2.72079E+00 -2.37814E+00 +3.27443E+00 -1.75001E+00
 +3.66959E+00 -9.89510E-01 +3.87412E+00 -1.39447E-01 +3.86799E+00 +7.49538E-01 +3.64517E+00 +1.62250E+00
 +3.21445E+00 +2.42414E+00 +2.59920E+00 +3.10293E+00 +1.83589E+00 +3.61500E+00 +9.71616E-01 +3.92751E+00
 +6.07269E-02 +4.02125E+00 -8.39171E-01 +3.89218E+00 -1.67150E+00 +3.55180E+00 -2.38495E+00 +3.02634E+00
 -2.93737E+00 +2.35470E+00 -3.29890E+00 +1.58542E+00 -3.45417E+00 +7.72943E-01 -3.40329E+00 -2.67512E-02
 -3.16167E+00 -7.60494E-01 -2.75846E+00 -1.38210E+00 -2.23405E+00 -1.85592E+00 -1.63648E+00 -2.15952E+00
 -1.01735E+00 -2.28526E+00 -4.27422E-01 -2.24054E+00 +8.76905E-02 -2.04685E+00 +4.91323E-01 -1.73760E+00
 +7.58796E-01 -1.35489E+00 +8.79370E-01 -9.45615E-01 +8.56975E-01 -5.57091E-01 +7.09629E-01 -2.32715E-01
 +4.67611E-01 -7.94743E-03 +1.70521E-01 +9.29810E-02 -1.36498E-01 +5.93655E-02 -4.07070E-01 -1.04888E-01
 -5.98040E-01 -3.81497E-01 -6.73682E-01 -7.39342E-01 -6.09291E-01 -1.13719E+00 -3.93832E-01 -1.52740E+00
 -3.14040E-02 -1.86021E+00 +4.58631E-01 -2.08841E+00 +1.04288E+00 -2.17177E+00 +1.67642E+00 -2.08103E+00
 +2.30638E+00 -1.80099E+00 +2.87633E+00 -1.33248E+00 +3.33105E+00 -6.92921E-01 +3.62135E+00 +8.44436E-02
