 Created: 19-Jan-2021
 $NMID
 ID='D:\BASISSIMULATI'
 FMTDAT='(8E13.5)'
 VOLUME=   1.00000E+00
 TRAMP=   1.00000E+00
 $END
 +5.38733E+01 +3.67462E+00 +4.74192E+01 +2.63132E+01 +3.16342E+01 +4.38091E+01 +9.88084E+00 +5.25001E+01
 -1.31769E+01 +5.07129E+01 -3.26716E+01 +3.91319E+01 -4.46662E+01 +2.05959E+01 -4.70433E+01 -6.18250E-01
 -3.99366E+01 -1.98405E+01 -2.56059E+01 -3.31156E+01 -7.80342E+00 -3.80994E+01 +9.19657E+00 -3.45267E+01
 +2.16522E+01 -2.41505E+01 +2.72252E+01 -1.01883E+01 +2.54591E+01 +3.56656E+00 +1.77599E+01 +1.37278E+01
 +6.90894E+00 +1.81415E+01 -3.74711E+00 +1.63494E+01 -1.12042E+01 +9.59115E+00 -1.35690E+01 +3.65534E-01
 -1.04942E+01 -8.31140E+00 -3.18531E+00 -1.37445E+01 +6.00182E+00 -1.42701E+01 +1.42472E+01 -9.65947E+00
 +1.90427E+01 -1.12481E+00 +1.88512E+01 +9.05363E+00 +1.34810E+01 +1.81636E+01 +4.09452E+00 +2.37804E+01
 -7.13367E+00 +2.43781E+01 -1.75996E+01 +1.96819E+01 -2.49305E+01 +1.06841E+01 -2.75484E+01 -6.57655E-01
 -2.49993E+01 -1.19412E+01 -1.79817E+01 -2.09113E+01 -8.09261E+00 -2.59656E+01 +2.62007E+00 -2.64532E+01
 +1.21647E+01 -2.27130E+01 +1.90369E+01 -1.58679E+01 +2.24730E+01 -7.45934E+00 +2.24829E+01 +9.61716E-01
 +1.96858E+01 +8.17294E+00 +1.50258E+01 +1.34662E+01 +9.46701E+00 +1.66544E+01 +3.76367E+00 +1.79304E+01
 -1.63679E+00 +1.76505E+01 -6.55013E+00 +1.61306E+01 -1.09117E+01 +1.35294E+01 -1.46061E+01 +9.85375E+00
 -1.73484E+01 +5.07507E+00 -1.86732E+01 -6.98586E-01 -1.80464E+01 -7.07111E+00 -1.50662E+01 -1.33002E+01
 -9.68564E+00 -1.83746E+01 -2.37070E+00 -2.12230E+01 +5.87475E+00 -2.10020E+01 +1.36501E+01 -1.73794E+01
 +1.94455E+01 -1.07191E+01 +2.20081E+01 -2.09636E+00 +2.06856E+01 +6.88171E+00 +1.56477E+01 +1.44207E+01
 +7.90811E+00 +1.89656E+01 -8.73838E-01 +1.95977E+01 -8.77298E+00 +1.62905E+01 -1.40681E+01 +9.94639E+00
 -1.56786E+01 +2.19194E+00 -1.34487E+01 -5.02297E+00 -8.19746E+00 -9.92298E+00 -1.51275E+00 -1.13712E+01
 +4.66359E+00 -9.17358E+00 +8.55297E+00 -4.13846E+00 +9.02388E+00 +2.13230E+00 +5.91127E+00 +7.66958E+00
 +8.19505E-02 +1.06719E+01 -6.77741E+00 +1.00075E+01 -1.25991E+01 +5.54918E+00 -1.54880E+01 -1.75316E+00
 -1.42455E+01 -1.00851E+01 -8.72387E+00 -1.72176E+01 +8.49137E-02 -2.10799E+01 +1.02558E+01 -2.03090E+01
 +1.93838E+01 -1.46322E+01 +2.51729E+01 -4.98229E+00 +2.60112E+01 +6.68888E+00 +2.13879E+01 +1.78546E+01
 +1.20468E+01 +2.60066E+01 -1.65349E-01 +2.92512E+01 -1.27157E+01 +2.67611E+01 -2.29673E+01 +1.89737E+01
 -2.87829E+01 +7.48981E+00 -2.90047E+01 -5.29978E+00 -2.36984E+01 -1.67646E+01 -1.41092E+01 -2.46274E+01
 -2.34686E+00 -2.74587E+01 +9.11478E+00 -2.49585E+01 +1.80003E+01 -1.79689E+01 +2.27226E+01 -8.22604E+00
 +2.26891E+01 +2.07788E+00 +1.83634E+01 +1.08091E+01 +1.10820E+01 +1.63593E+01 +2.68553E+00 +1.79586E+01
 -4.93609E+00 +1.57728E+01 -1.02729E+01 +1.07779E+01 -1.24986E+01 +4.45854E+00 -1.15883E+01 -1.58329E+00
 -8.23903E+00 -6.01026E+00 -3.62793E+00 -8.03209E+00 +9.17118E-01 -7.53107E+00 +4.24985E+00 -5.01571E+00
 +5.66032E+00 -1.43035E+00 +4.99934E+00 +2.11931E+00 +2.65627E+00 +4.65072E+00 -5.89334E-01 +5.53021E+00
 -3.79338E+00 +4.59239E+00 -6.08843E+00 +2.13674E+00 -6.88198E+00 -1.18437E+00 -5.97044E+00 -4.54730E+00
 -3.55263E+00 -7.15857E+00 -1.52096E-01 -8.42745E+00 +3.52244E+00 -8.07514E+00 +6.73938E+00 -6.16508E+00
 +8.89123E+00 -3.05952E+00 +9.59806E+00 +6.77100E-01 +8.75382E+00 +4.39952E+00 +6.51717E+00 +7.49992E+00
 +3.25928E+00 +9.50191E+00 -5.13166E-01 +1.01195E+01 -4.24214E+00 +9.27990E+00 -7.39630E+00 +7.11562E+00
 -9.53566E+00 +3.93482E+00 -1.03605E+01 +1.76860E-01 -9.74479E+00 -3.64149E+00 -7.75339E+00 -6.98698E+00
 -4.64175E+00 -9.37578E+00 -8.33655E-01 -1.04405E+01 +3.12557E+00 -9.99088E+00 +6.64059E+00 -8.05734E+00
 +9.15619E+00 -4.90559E+00 +1.02532E+01 -1.01254E+00 +9.73235E+00 +2.99945E+00 +7.66615E+00 +6.46373E+00
 +4.40321E+00 +8.78986E+00 +5.17390E-01 +9.57984E+00 -3.29305E+00 +8.71416E+00 -6.33890E+00 +6.38562E+00
 -8.07893E+00 +3.06911E+00 -8.23327E+00 -5.70154E-01 -6.84441E+00 -3.81278E+00 -4.26928E+00 -6.03668E+00
 -1.10187E+00 -6.84984E+00 +1.95790E+00 -6.17338E+00 +4.25979E+00 -4.25458E+00 +5.34764E+00 -1.60578E+00
 +5.05863E+00 +1.11706E+00 +3.55405E+00 +3.26822E+00 +1.27425E+00 +4.36195E+00 -1.17133E+00 +4.18294E+00
 -3.15256E+00 +2.83139E+00 -4.16980E+00 +6.92576E-01 -3.97176E+00 -1.66105E+00 -2.61244E+00 -3.61105E+00
 -4.34167E-01 -4.64326E+00 +2.01800E+00 -4.47103E+00 +4.12917E+00 -3.10259E+00 +5.36242E+00 -8.37378E-01
 +5.38618E+00 +1.80654E+00 +4.15167E+00 +4.21559E+00 +1.90300E+00 +5.82443E+00 -8.80797E-01 +6.24634E+00
 -3.59694E+00 +5.36030E+00 -5.65625E+00 +3.33579E+00 -6.61458E+00 +5.91269E-01 -6.26852E+00 -2.30221E+00
 -4.69514E+00 -4.74878E+00 -2.22855E+00 -6.25715E+00 +6.18871E-01 -6.54292E+00 +3.27100E+00 -5.58214E+00
 +5.21165E+00 -3.60669E+00 +6.08992E+00 -1.04524E+00 +5.78547E+00 +1.57483E+00 +4.42175E+00 +3.74125E+00
 +2.32741E+00 +5.06125E+00 -4.28742E-02 +5.33502E+00 -2.20899E+00 +4.58450E+00 -3.76475E+00 +3.03453E+00
 -4.45542E+00 +1.05327E+00 -4.21882E+00 -9.32693E-01 -3.18389E+00 -2.52930E+00 -1.63023E+00 -3.45281E+00
 +8.03411E-02 -3.57920E+00 +1.58395E+00 -2.95731E+00 +2.58944E+00 -1.78551E+00 +2.93255E+00 -3.59455E-01
 +2.60025E+00 +9.96273E-01 +1.72200E+00 +1.99754E+00 +5.32523E-01 +2.45673E+00 -6.84686E-01 +2.31496E+00
 -1.65997E+00 +1.64556E+00 -2.19313E+00 +6.29922E-01 -2.19109E+00 -4.87415E-01 -1.68101E+00 -1.45405E+00
 -7.97688E-01 -2.06331E+00 +2.50757E-01 -2.19528E+00 +1.23045E+00 -1.83752E+00 +1.93222E+00 -1.08238E+00
 +2.21437E+00 -1.02584E-01 +2.02925E+00 +8.88638E-01 +1.42899E+00 +1.68401E+00 +5.50201E-01 +2.12522E+00
 -4.18253E-01 +2.13374E+00 -1.27693E+00 +1.72361E+00 -1.85776E+00 +9.94269E-01 -2.05748E+00 +1.05810E-01
 -1.85590E+00 -7.57255E-01 -1.31578E+00 -1.42565E+00 -5.65278E-01 -1.77978E+00 +2.32628E-01 -1.77181E+00
 +9.16372E-01 -1.43137E+00 +1.35972E+00 -8.54316E-01 +1.49611E+00 -1.78005E-01 +1.32860E+00 +4.50914E-01
 +9.24110E-01 +9.08683E-01 +3.94011E-01 +1.11951E+00 -1.33736E-01 +1.06843E+00 -5.44292E-01 +7.99736E-01
 -7.60682E-01 +4.02306E-01 -7.58313E-01 -1.42564E-02 -5.66549E-01 -3.46581E-01 -2.57742E-01 -5.21344E-01
 +7.30783E-02 -5.10607E-01 +3.32678E-01 -3.35596E-01 +4.52340E-01 -5.86166E-02 +4.03624E-01 +2.34446E-01
 +2.03761E-01 +4.56526E-01 -9.01786E-02 +5.41203E-01 -3.96538E-01 +4.58820E-01 -6.29848E-01 +2.23271E-01
 -7.22029E-01 -1.11862E-01 -6.39004E-01 -4.66609E-01 -3.88923E-01 -7.53984E-01 -2.02929E-02 -9.00716E-01
 +3.89324E-01 -8.64474E-01 +7.51187E-01 -6.43673E-01 +9.85531E-01 -2.77786E-01 +1.03935E+00 +1.61669E-01
 +8.97778E-01 +5.87152E-01 +5.86802E-01 +9.14313E-01 +1.66800E-01 +1.07997E+00 -2.81158E-01 +1.05490E+00
 -6.73045E-01 +8.48754E-01 -9.39500E-01 +5.06371E-01 -1.03945E+00 +9.66286E-02 -9.66840E-01 -3.03319E-01
 -7.49390E-01 -6.24677E-01 -4.39904E-01 -8.20703E-01 -1.02672E-01 -8.74486E-01 +2.01703E-01 -7.99309E-01
 +4.29329E-01 -6.31930E-01 +5.60839E-01 -4.20786E-01 +6.02333E-01 -2.12359E-01 +5.79514E-01 -3.93055E-02
 +5.26886E-01 +8.65447E-02 +4.75149E-01 +1.74542E-01 +4.40412E-01 +2.48928E-01 +4.18421E-01 +3.37740E-01
 +3.85640E-01 +4.60155E-01 +3.07172E-01 +6.16049E-01 +1.49564E-01 +7.81159E-01 -1.05003E-01 +9.09807E-01
 -4.47270E-01 +9.45188E-01 -8.35936E-01 +8.35055E-01 -1.20143E+00 +5.48953E-01 -1.45848E+00 +9.23363E-02
 -1.52526E+00 -4.86708E-01 -1.34471E+00 -1.10089E+00 -9.02893E-01 -1.63768E+00 -2.39255E-01 -1.98147E+00
 +5.54664E-01 -2.03936E+00 +1.34892E+00 -1.76457E+00 +1.99911E+00 -1.17160E+00 +2.37588E+00 -3.38881E-01
 +2.39318E+00 +6.02771E-01 +2.02896E+00 +1.49407E+00 +1.33265E+00 +2.17871E+00 +4.17420E-01 +2.53546E+00
 -5.61780E-01 +2.50340E+00 -1.43962E+00 +2.09449E+00 -2.07413E+00 +1.39010E+00 -2.37497E+00 +5.22372E-01
 -2.31958E+00 -3.55307E-01 -1.95354E+00 -1.10150E+00 -1.37535E+00 -1.61564E+00 -7.09726E-01 -1.85572E+00
 -7.65062E-02 -1.84064E+00 +4.36881E-01 -1.63723E+00 +7.92178E-01 -1.33590E+00 +1.00225E+00 -1.02194E+00
 +1.11812E+00 -7.50475E-01 +1.20512E+00 -5.32308E-01 +1.31532E+00 -3.34637E-01 +1.46452E+00 -9.65956E-02
 +1.62096E+00 +2.44748E-01 +1.70996E+00 +7.25479E-01 +1.63387E+00 +1.33175E+00 +1.30280E+00 +1.99005E+00
 +6.67833E-01 +2.57504E+00 -2.52828E-01 +2.93447E+00 -1.36275E+00 +2.92596E+00 -2.49604E+00 +2.45671E+00
 -3.44559E+00 +1.51576E+00 -4.00534E+00 +1.89882E-01 -4.01703E+00 -1.34256E+00 -3.41039E+00 -2.83990E+00
 -2.22648E+00 -4.04218E+00 -6.17811E-01 -4.72341E+00 +1.17577E+00 -4.73905E+00 +2.87086E+00 -4.05793E+00
 +4.19436E+00 -2.77097E+00 +4.93561E+00 -1.07470E+00 +4.98526E+00 +7.66765E-01 +4.35275E+00 +2.47248E+00
 +3.15911E+00 +3.79684E+00 +1.60789E+00 +4.57167E+00 -5.81144E-02 +4.72978E+00 -1.60404E+00 +4.30617E+00
 -2.84308E+00 +3.41878E+00 -3.66159E+00 +2.23508E+00 -4.02521E+00 +9.33943E-01 -3.96734E+00 -3.27717E-01
 -3.56556E+00 -1.43629E+00 -2.91392E+00 -2.32750E+00 -2.09952E+00 -2.97855E+00 -1.18911E+00 -3.39126E+00
 -2.27951E-01 -3.57370E+00 +7.50931E-01 -3.52676E+00 +1.71236E+00 -3.24058E+00 +2.60607E+00 -2.70131E+00
 +3.36106E+00 -1.90552E+00 +3.89044E+00 -8.76536E-01 +4.10624E+00 +3.23844E-01 +3.94020E+00 +1.59323E+00
 +3.36426E+00 +2.79839E+00 +2.40435E+00 +3.79521E+00 +1.14271E+00 +4.45385E+00 -2.92399E-01 +4.68261E+00
 -1.74720E+00 +4.44387E+00 -3.06747E+00 +3.75835E+00 -4.12151E+00 +2.69712E+00 -4.81509E+00 +1.36483E+00
 -5.09553E+00 -1.19934E-01 -4.94581E+00 -1.64071E+00 -4.37316E+00 -3.09090E+00 -3.39873E+00 -4.37202E+00
 -2.05415E+00 -5.38559E+00 -3.88241E-01 -6.02486E+00 +1.51757E+00 -6.17395E+00 +3.53110E+00 -5.72015E+00
 +5.45790E+00 -4.58078E+00 +7.04563E+00 -2.74020E+00 +8.01084E+00 -2.86963E-01 +8.08790E+00 +2.56211E+00
 +7.09282E+00 +5.46355E+00 +4.98720E+00 +7.98241E+00 +1.92435E+00 +9.66062E+00 -1.73953E+00 +1.01080E+01
 -5.47983E+00 +9.09739E+00 -8.68398E+00 +6.63943E+00 -1.07655E+01 +3.01592E+00 -1.12890E+01 -1.24430E+00
 -1.00768E+01 -5.44826E+00 -7.26891E+00 -8.86803E+00 -3.31795E+00 -1.08900E+01 +1.08795E+00 -1.11505E+01
 +5.16007E+00 -9.62358E+00 +8.17469E+00 -6.63726E+00 +9.63104E+00 -2.80865E+00 +9.36282E+00 +1.08998E+00
