 Created: 19-Jan-2021
 $NMID
 ID='D:\BASISSIMULATI'
 FMTDAT='(8E13.5)'
 VOLUME=   1.00000E+00
 TRAMP=   1.00000E+00
 $END
 +6.34998E+01 +6.67396E+00 +6.12162E+01 +1.76617E+01 +5.65342E+01 +2.78871E+01 +4.96844E+01 +3.68535E+01
 +4.10048E+01 +4.41306E+01 +3.09221E+01 +4.93777E+01 +1.99282E+01 +5.23604E+01 +8.55305E+00 +5.29629E+01
 -2.66369E+00 +5.11923E+01 -1.32017E+01 +4.71764E+01 -2.25871E+01 +4.11548E+01 -3.04169E+01 +3.34639E+01
 -3.63785E+01 +2.45168E+01 -4.02641E+01 +1.47794E+01 -4.19786E+01 +4.74375E+00 -4.15412E+01 -5.09905E+00
 -3.90804E+01 -1.42850E+01 -3.48230E+01 -2.24016E+01 -2.90780E+01 -2.91081E+01 -2.22163E+01 -3.41509E+01
 -1.46478E+01 -3.73744E+01 -6.79708E+00 -3.87247E+01 +9.21110E-01 -3.82479E+01 +8.12413E+00 -3.60830E+01
 +1.44814E+01 -3.24495E+01 +1.97301E+01 -2.76307E+01 +2.36865E+01 -2.19543E+01 +2.62519E+01 -1.57717E+01
 +2.74133E+01 -9.43635E+00 +2.72386E+01 -3.28338E+00 +2.58680E+01 +2.38854E+00 +2.35011E+01 +7.33236E+00
 +2.03806E+01 +1.13637E+01 +1.67751E+01 +1.43677E+01 +1.29608E+01 +1.63010E+01 +9.20396E+00 +1.71893E+01
 +5.74479E+00 +1.71209E+01 +2.78390E+00 +1.62366E+01 +4.72122E-01 +1.47171E+01 -1.09604E+00 +1.27681E+01
 -1.88503E+00 +1.06054E+01 -1.91690E+00 +8.43946E+00 -1.26638E+00 +6.46194E+00 -5.28378E-02 +4.83351E+00
 +1.57030E+00 +3.67477E+00 +3.42771E+00 +3.06010E+00 +5.33521E+00 +3.01492E+00 +7.11275E+00 +3.51620E+00
 +8.59653E+00 +4.49623E+00 +9.64950E+00 +5.84909E+00 +1.01698E+01 +7.43938E+00 +1.00964E+01 +9.11248E+00
 +9.41232E+00 +1.07057E+01 +8.14432E+00 +1.20596E+01 +6.36046E+00 +1.30287E+01 +4.16484E+00 +1.34908E+01
 +1.69039E+00 +1.33551E+01 -9.09958E-01 +1.25675E+01 -3.47290E+00 +1.11141E+01 -5.83488E+00 +9.02183E+00
 -7.84182E+00 +6.35709E+00 -9.35817E+00 +3.22159E+00 -1.02746E+01 -2.53207E-01 -1.05138E+01 -3.91345E+00
 -1.00352E+01 -7.59125E+00 -8.83637E+00 -1.11136E+01 -6.95327E+00 -1.43115E+01 -4.45823E+00 -1.70283E+01
 -1.45605E+00 -1.91281E+01 +1.92146E+00 -2.05016E+01 +5.52211E+00 -2.10721E+01 +9.18084E+00 -2.07983E+01
 +1.27277E+01 -1.96768E+01 +1.59959E+01 -1.77414E+01 +1.88296E+01 -1.50621E+01 +2.10910E+01 -1.17411E+01
 +2.26669E+01 -7.90872E+00 +2.34731E+01 -3.71733E+00 +2.34588E+01 +6.65442E-01 +2.26082E+01 +5.06381E+00
 +2.09420E+01 +9.30145E+00 +1.85157E+01 +1.32089E+01 +1.54179E+01 +1.66309E+01 +1.17665E+01 +1.94327E+01
 +7.70339E+00 +2.15055E+01 +3.38918E+00 +2.27717E+01 -1.00400E+00 +2.31872E+01 -5.29952E+00 +2.27442E+01
 -9.32377E+00 +2.14706E+01 -1.29135E+01 +1.94296E+01 -1.59230E+01 +1.67167E+01 -1.82300E+01 +1.34553E+01
 -1.97419E+01 +9.79221E+00 -2.03988E+01 +5.89037E+00 -2.01776E+01 +1.92224E+00 -1.90922E+01 -1.93807E+00
 -1.71934E+01 -5.52258E+00 -1.45671E+01 -8.67708E+00 -1.13301E+01 -1.12682E+01 -7.62548E+00 -1.31897E+01
 -3.61548E+00 -1.43672E+01 +5.25429E-01 -1.47620E+01 +4.61888E+00 -1.43725E+01 +8.49088E+00 -1.32347E+01
 +1.19800E+01 -1.14197E+01 +1.49452E+01 -9.03087E+00 +1.72722E+01 -6.19787E+00 +1.88790E+01 -3.07048E+00
 +1.97196E+01 +1.89278E-01 +1.97859E+01 +3.41544E+00 +1.91073E+01 +6.44672E+00 +1.77492E+01 +9.13478E+00
 +1.58087E+01 +1.13519E+01 +1.34089E+01 +1.29976E+01 +1.06920E+01 +1.40035E+01 +7.81159E+00 +1.43367E+01
 +4.92356E+00 +1.40009E+01 +2.17792E+00 +1.30359E+01 -2.89559E-01 +1.15145E+01 -2.36458E+00 +9.53809E+00
 -3.96031E+00 +7.23040E+00 -5.02168E+00 +4.72992E+00 -5.52773E+00 +2.18175E+00 -5.49202E+00 -2.70905E-01
 -4.96086E+00 -2.49510E+00 -4.00964E+00 -4.37573E+00 -2.73754E+00 -5.82200E+00 -1.26067E+00 -6.77232E+00
 +2.95544E-01 -7.19738E+00 +1.80458E+00 -7.10122E+00 +3.14696E+00 -6.52024E+00 +4.21785E+00 -5.52023E+00
 +4.93366E+00 -4.19160E+00 +5.23725E+00 -2.64313E+00 +5.10137E+00 -9.94696E-01 +4.53017E+00 +6.30705E-01
 +3.55875E+00 +2.11496E+00 +2.25061E+00 +3.35252E+00 +6.93415E-01 +4.25712E+00 -1.00684E+00 +4.76732E+00
 -2.73283E+00 +4.85029E+00 -4.36357E+00 +4.50384E+00 -5.78235E+00 +3.75638E+00 -6.88439E+00 +2.66500E+00
 -7.58365E+00 +1.31161E+00 -7.81863E+00 -2.02400E-01 -7.55643E+00 -1.76283E+00 -6.79519E+00 -3.25010E+00
 -5.56443E+00 -4.54704E+00 -3.92358E+00 -5.54657E+00 -1.95854E+00 -6.15873E+00 +2.23353E-01 -6.31662E+00
 +2.49969E+00 -5.98104E+00 +4.74029E+00 -5.14327E+00 +6.81503E+00 -3.82612E+00 +8.60157E+00 -2.08293E+00
 +9.99279E+00 +5.19515E-03 +1.09031E+01 +2.33388E+00 +1.12738E+01 +4.78140E+00 +1.10764E+01 +7.21563E+00
 +1.03146E+01 +9.50168E+00 +9.02403E+00 +1.15096E+01 +7.27046E+00 +1.31219E+01 +5.14601E+00 +1.42405E+01
 +2.76394E+00 +1.47920E+01 +2.52294E-01 +1.47325E+01 -2.25332E+00 +1.40497E+01 -4.61733E+00 +1.27640E+01
 -6.71173E+00 +1.09273E+01 -8.42316E+00 +8.62022E+00 -9.65907E+00 +5.94796E+00 -1.03528E+01 +3.03438E+00
 -1.04668E+01 +1.54912E-02 -9.99498E+00 -2.96783E+00 -8.96233E+00 -5.77726E+00 -7.42358E+00 -8.28423E+00
 -5.45995E+00 -1.03765E+01 -3.17456E+00 -1.19638E+01 -6.86692E-01 -1.29823E+01 +1.87470E+00 -1.33973E+01
 +4.37792E+00 -1.32045E+01 +6.69552E+00 -1.24300E+01 +8.71092E+00 -1.11280E+01 +1.03243E+01 -9.37767E+00
 +1.14577E+01 -7.27822E+00 +1.20585E+01 -4.94362E+00 +1.21018E+01 -2.49621E+00 +1.15913E+01 -6.01949E-02
 +1.05583E+01 +2.24485E+00 +9.06000E+00 +4.31001E+00 +7.17537E+00 +6.04243E+00 +5.00110E+00 +7.36965E+00
 +2.64600E+00 +8.24284E+00 +2.25156E-01 +8.63860E+00 -2.14614E+00 +8.55945E+00 -4.35835E+00 +8.03287E+00
 -6.31318E+00 +7.10907E+00 -7.92835E+00 +5.85762E+00 -9.14138E+00 +4.36310E+00 -9.91227E+00 +2.72004E+00
 -1.02249E+01 +1.02755E+00 -1.00871E+01 -6.16238E-01 -9.52941E+00 -2.11952E+00 -8.60301E+00 -3.40165E+00
 -7.37595E+00 -4.39731E+00 -5.92918E+00 -5.05965E+00 -4.35163E+00 -5.36241E+00 -2.73519E+00 -5.30086E+00
 -1.16952E+00 -4.89145E+00 +2.62766E-01 -4.17041E+00 +1.49053E+00 -3.19121E+00 +2.45766E+00 -2.02108E+00
 +3.12582E+00 -7.36945E-01 +3.47601E+00 +5.79246E-01 +3.50913E+00 +1.84528E+00 +3.24534E+00 +2.98343E+00
 +2.72228E+00 +3.92485E+00 +1.99247E+00 +4.61342E+00 +1.11975E+00 +5.00878E+00 +1.75245E-01 +5.08847E+00
 -7.67126E-01 +4.84893E+00 -1.63515E+00 +4.30557E+00 -2.36271E+00 +3.49154E+00 -2.89378E+00 +2.45568E+00
 -3.18576E+00 +1.25949E+00 -3.21195E+00 -2.65967E-02 -2.96318E+00 -1.32737E+00 -2.44831E+00 -2.56732E+00
 -1.69366E+00 -3.67505E+00 -7.41475E-01 -4.58743E+00 +3.52622E-01 -5.25327E+00 +1.52289E+00 -5.63628E+00
 +2.69738E+00 -5.71712E+00 +3.80220E+00 -5.49452E+00 +4.76589E+00 -4.98529E+00 +5.52368E+00 -4.22334E+00
 +6.02140E+00 -3.25764E+00 +6.21871E+00 -2.14935E+00 +6.09166E+00 -9.68280E-01 +5.63422E+00 +2.11251E-01
 +4.85883E+00 +1.31472E+00 +3.79590E+00 +2.27180E+00 +2.49224E+00 +3.02043E+00 +1.00863E+00 +3.51055E+00
 -5.83519E-01 +3.70701E+00 -2.20605E+00 +3.59175E+00 -3.77835E+00 +3.16489E+00 -5.22184E+00 +2.44489E+00
 -6.46433E+00 +1.46758E+00 -7.44404E+00 +2.84226E-01 -8.11303E+00 -1.04132E+00 -8.43994E+00 -2.43616E+00
 -8.41172E+00 -3.82246E+00 -8.03439E+00 -5.12186E+00 -7.33271E+00 -6.25990E+00 -6.34886E+00 -7.17031E+00
 -5.14008E+00 -7.79877E+00 -3.77547E+00 -8.10616E+00 -2.33220E+00 -8.07080E+00 -8.91150E-01 -7.68986E+00
 +4.67578E-01 -6.97967E+00 +1.66914E+00 -5.97493E+00 +2.64816E+00 -4.72696E+00 +3.35238E+00 -3.30095E+00
 +3.74564E+00 -1.77243E+00 +3.80989E+00 -2.23192E-01 +3.54626E+00 +1.26324E+00 +2.97500E+00 +2.60621E+00
 +2.13442E+00 +3.73238E+00 +1.07868E+00 +4.57989E+00 -1.25167E-01 +5.10181E+00 -1.40099E+00 +5.26886E+00
 -2.66788E+00 +5.07110E+00 -3.84476E+00 +4.51863E+00 -4.85504E+00 +3.64115E+00 -5.63105E+00 +2.48641E+00
 -6.11801E+00 +1.11770E+00 -6.27732E+00 -3.89621E-01 -6.08895E+00 -1.95217E+00 -5.55284E+00 -3.48320E+00
 -4.68916E+00 -4.89739E+00 -3.53745E+00 -6.11560E+00 -2.15469E+00 -7.06939E+00 -6.12314E-01 -7.70490E+00
 +1.00758E+00 -7.98602E+00 +2.61667E+00 -7.89649E+00 +4.12529E+00 -7.44109E+00 +5.44740E+00 -6.64545E+00
 +6.50541E+00 -5.55487E+00 +7.23469E+00 -4.23192E+00 +7.58728E+00 -2.75311E+00 +7.53480E+00 -1.20466E+00
 +7.07032E+00 +3.22178E-01 +6.20896E+00 +1.73629E+00 +4.98742E+00 +2.95180E+00 +3.46216E+00 +3.89293E+00
 +1.70654E+00 +4.49843E+00 -1.93019E-01 +4.72513E+00 -2.14165E+00 +4.55056E+00 -4.04115E+00 +3.97441E+00
 -5.79534E+00 +3.01874E+00 -7.31530E+00 +1.72699E+00 -8.52432E+00 +1.61650E-01 -9.36209E+00 -1.59902E+00
 -9.78807E+00 -3.46528E+00 -9.78374E+00 -5.34086E+00 -9.35356E+00 -7.12828E+00 -8.52477E+00 -8.73430E+00
 -7.34573E+00 -1.00751E+01 -5.88320E+00 -1.10810E+01 -4.21852E+00 -1.17004E+01 -2.44295E+00 -1.19023E+01
 -6.52462E-01 -1.16787E+01 +1.05766E+00 -1.10442E+01 +2.59825E+00 -1.00355E+01 +3.89124E+00 -8.70911E+00
 +4.87398E+00 -7.13782E+00 +5.50264E+00 -5.40676E+00 +5.75442E+00 -3.60821E+00 +5.62862E+00 -1.83631E+00
 +5.14624E+00 -1.81710E-01 +4.34841E+00 +1.27360E+00 +3.29361E+00 +2.46086E+00 +2.05382E+00 +3.32821E+00
 +7.09989E-01 +3.84342E+00 -6.53007E-01 +3.99529E+00 -1.95160E+00 +3.79382E+00 -3.10855E+00 +3.26907E+00
 -4.05758E+00 +2.46887E+00 -4.74715E+00 +1.45536E+00 -5.14334E+00 +3.00897E-01 -5.23155E+00 -9.16779E-01
 -5.01696E+00 -2.11947E+00 -4.52373E+00 -3.23346E+00 -3.79304E+00 -4.19401E+00 -2.88006E+00 -4.94919E+00
 -1.85009E+00 -5.46288E+00 -7.74145E-01 -5.71658E+00 +2.75758E-01 -5.71007E+00 +1.23126E+00 -5.46097E+00
 +2.03202E+00 -5.00297E+00 +2.62942E+00 -4.38322E+00 +2.98947E+00 -3.65876E+00 +3.09467E+00 -2.89246E+00
 +2.94476E+00 -2.14864E+00 +2.55631E+00 -1.48868E+00 +1.96127E+00 -9.66950E-01 +1.20443E+00 -6.27260E-01
 +3.40206E-01 -5.00150E-01 -5.71170E-01 -6.01083E-01 -1.46778E+00 -9.29702E-01 -2.29012E+00 -1.47017E+00
 -2.98492E+00 -2.19252E+00 -3.50848E+00 -3.05493E+00 -3.82927E+00 -4.00674E+00 -3.92959E+00 -4.99195E+00
 -3.80634E+00 -5.95298E+00 -3.47069E+00 -6.83448E+00 -2.94694E+00 -7.58683E+00 -2.27040E+00 -8.16912E+00
 -1.48472E+00 -8.55152E+00 -6.38701E-01 -8.71677E+00 +2.17113E-01 -8.66081E+00 +1.03377E+00 -8.39249E+00
 +1.76701E+00 -7.93239E+00 +2.37996E+00 -7.31100E+00 +2.84507E+00 -6.56623E+00 +3.14542E+00 -5.74055E+00
 +3.27517E+00 -4.87805E+00 +3.23918E+00 -4.02149E+00 +3.05195E+00 -3.20962E+00 +2.73594E+00 -2.47500E+00
 +2.31933E+00 -1.84237E+00 +1.83366E+00 -1.32773E+00 +1.31121E+00 -9.38114E-01 +7.82688E-01 -6.72040E-01
