 Created: 19-Jan-2021
 $NMID
 ID='D:\BASISSIMULATI'
 FMTDAT='(8E13.5)'
 VOLUME=   1.00000E+00
 TRAMP=   1.00000E+00
 $END
 +6.09109E+01 +6.40170E+00 +5.53887E+01 +1.65708E+01 +3.93327E+01 +2.39334E+01 +1.61883E+01 +2.73938E+01
 -9.06085E+00 +2.65221E+01 -3.10392E+01 +2.16079E+01 -4.52073E+01 +1.36133E+01 -4.88762E+01 +4.02975E+00
 -4.17714E+01 -5.34972E+00 -2.60217E+01 -1.27227E+01 -5.59059E+00 -1.65988E+01 +1.46964E+01 -1.61007E+01
 +3.02829E+01 -1.11846E+01 +3.78978E+01 -2.72185E+00 +3.62218E+01 +7.59895E+00 +2.60672E+01 +1.75565E+01
 +1.00563E+01 +2.48316E+01 -8.09033E+00 +2.75124E+01 -2.44615E+01 +2.45586E+01 -3.58306E+01 +1.61099E+01
 -4.02956E+01 +3.54571E+00 -3.75567E+01 -1.07426E+01 -2.88047E+01 -2.38377E+01 -1.62878E+01 -3.29424E+01
 -2.70007E+00 -3.60372E+01 +9.44450E+00 -3.23883E+01 +1.83016E+01 -2.27689E+01 +2.29565E+01 -9.32445E+00
 +2.34318E+01 +4.90195E+00 +2.04875E+01 +1.66786E+01 +1.53044E+01 +2.33588E+01 +9.15471E+00 +2.35262E+01
 +3.14454E+00 +1.73460E+01 -1.92415E+00 +6.52654E+00 -5.57303E+00 -6.10352E+00 -7.58528E+00 -1.72995E+01
 -7.91713E+00 -2.42085E+01 -6.63313E+00 -2.50748E+01 -3.89179E+00 -1.96615E+01 +2.25988E-02 -9.28310E+00
 +4.65284E+00 +3.55625E+00 +9.34903E+00 +1.58194E+01 +1.33118E+01 +2.47125E+01 +1.57109E+01 +2.83764E+01
 +1.58610E+01 +2.63151E+01 +1.34092E+01 +1.94564E+01 +8.47498E+00 +9.83990E+00 +1.69207E+00 +2.95546E-02
 -5.87718E+00 -7.58433E+00 -1.29438E+01 -1.14002E+01 -1.82665E+01 -1.09758E+01 -2.09286E+01 -7.06372E+00
 -2.05440E+01 -1.31752E+00 -1.73359E+01 +4.23471E+00 -1.20684E+01 +7.79180E+00 -5.84998E+00 +8.28285E+00
 +1.35031E-01 +5.63386E+00 +4.89274E+00 +7.31811E-01 +7.81372E+00 -4.89075E+00 +8.74899E+00 -9.54750E+00
 +7.95969E+00 -1.19158E+01 +5.97012E+00 -1.14260E+01 +3.38093E+00 -8.41188E+00 +7.06078E-01 -3.98225E+00
 -1.71672E+00 +3.39549E-01 -3.72295E+00 +3.09720E+00 -5.24248E+00 +3.35711E+00 -6.19062E+00 +1.00214E+00
 -6.38634E+00 -3.22311E+00 -5.54472E+00 -7.92759E+00 -3.36164E+00 -1.14852E+01 +3.29681E-01 -1.25205E+01
 +5.38464E+00 -1.03264E+01 +1.12277E+01 -5.09313E+00 +1.68521E+01 +2.11926E+00 +2.09710E+01 +9.65464E+00
 +2.23054E+01 +1.57041E+01 +1.99447E+01 +1.87931E+01 +1.36781E+01 +1.81764E+01 +4.19187E+00 +1.40340E+01
 -6.95035E+00 +7.41709E+00 -1.75710E+01 -3.52533E-02 -2.53452E+01 -6.52620E+00 -2.83663E+01 -1.05592E+01
 -2.56653E+01 -1.13012E+01 -1.75398E+01 -8.75958E+00 -5.58711E+00 -3.73735E+00 +7.59302E+00 +2.40975E+00
 +1.89704E+01 +8.13696E+00 +2.58012E+01 +1.20929E+01 +2.63118E+01 +1.34209E+01 +2.01720E+01 +1.19114E+01
 +8.62693E+00 +7.98177E+00 -5.75732E+00 +2.51085E+00 -1.96818E+01 -3.41014E+00 -2.98959E+01 -8.73541E+00
 -3.39771E+01 -1.26642E+01 -3.09147E+01 -1.47439E+01 -2.13498E+01 -1.48728E+01 -7.41152E+00 -1.32295E+01
 +7.80613E+00 -1.01727E+01 +2.09923E+01 -6.15123E+00 +2.94027E+01 -1.65169E+00 +3.14825E+01 +2.81732E+00
 +2.71799E+01 +6.72466E+00 +1.78830E+01 +9.53066E+00 +6.01343E+00 +1.07411E+01 -5.60732E+00 +1.00071E+01
 -1.44476E+01 +7.25039E+00 -1.88365E+01 +2.77277E+00 -1.82815E+01 -2.70188E+00 -1.34721E+01 -8.09289E+00
 -5.99458E+00 -1.21477E+01 +2.14450E+00 -1.37197E+01 +9.04609E+00 -1.20772E+01 +1.33568E+01 -7.15659E+00
 +1.45136E+01 +3.20563E-01 +1.27547E+01 +8.92343E+00 +8.92275E+00 +1.67849E+01 +4.14335E+00 +2.20220E+01
 -5.14763E-01 +2.32044E+01 -4.29764E+00 +1.97510E+01 -6.87966E+00 +1.21396E+01 -8.32184E+00 +1.86111E+00
 -8.91439E+00 -8.88866E+00 -8.97624E+00 -1.77142E+01 -8.69052E+00 -2.26002E+01 -8.03496E+00 -2.24190E+01
 -6.82669E+00 -1.72302E+01 -4.85745E+00 -8.28864E+00 -2.06095E+00 +2.24913E+00 +1.35812E+00 +1.18487E+01
 +4.89146E+00 +1.82211E+01 +7.81535E+00 +1.98839E+01 +9.38102E+00 +1.65183E+01 +9.05057E+00 +9.02834E+00
 +6.70134E+00 -7.07506E-01 +2.72655E+00 -1.03246E+01 -2.01124E+00 -1.75695E+01 -6.37243E+00 -2.08487E+01
 -9.23110E+00 -1.95903E+01 -9.78315E+00 -1.43304E+01 -7.78179E+00 -6.51506E+00 -3.62775E+00 +1.91665E+00
 +1.71723E+00 +9.04820E+00 +6.97420E+00 +1.34576E+01 +1.08818E+01 +1.45246E+01 +1.25283E+01 +1.25020E+01
 +1.15870E+01 +8.35257E+00 +8.38800E+00 +3.41274E+00 +3.80916E+00 -1.00654E+00 -9.82055E-01 -3.96534E+00
 -4.85711E+00 -5.09313E+00 -7.03007E+00 -4.59723E+00 -7.24885E+00 -3.09818E+00 -5.82232E+00 -1.36039E+00
 -3.48133E+00 -1.29242E-02 -1.12208E+00 +6.47673E-01 +4.85436E-01 +7.13884E-01 +9.32428E-01 +5.73510E-01
 +2.77847E-01 +7.07375E-01 -1.00361E+00 +1.45559E+00 -2.21152E+00 +2.83891E+00 -2.68321E+00 +4.50221E+00
 -2.04287E+00 +5.80525E+00 -3.52970E-01 +6.03515E+00 +1.88447E+00 +4.67224E+00 +3.88080E+00 +1.61949E+00
 +4.82188E+00 -2.68658E+00 +4.15501E+00 -7.33079E+00 +1.80818E+00 -1.11363E+01 -1.73369E+00 -1.29875E+01
 -5.52804E+00 -1.21659E+01 -8.42817E+00 -8.59724E+00 -9.42019E+00 -2.92992E+00 -7.94378E+00 +3.58944E+00
 -4.09801E+00 +9.41681E+00 +1.33604E+00 +1.31101E+01 +7.07147E+00 +1.37171E+01 +1.16474E+01 +1.10429E+01
 +1.38263E+01 +5.71864E+00 +1.29439E+01 -9.51123E-01 +9.11089E+00 -7.32225E+00 +3.20492E+00 -1.18366E+01
 -3.34925E+00 -1.34224E+01 -8.95187E+00 -1.17613E+01 -1.22509E+01 -7.35103E+00 -1.24975E+01 -1.35111E+00
 -9.73584E+00 +4.74055E+00 -4.77603E+00 +9.48720E+00 +1.04004E+00 +1.18770E+01 +6.21081E+00 +1.15538E+01
 +9.47930E+00 +8.85770E+00 +1.01558E+01 +4.67689E+00 +8.27145E+00 +1.61982E-01 +4.52628E+00 -3.60565E+00
 +5.35912E-02 -5.89471E+00 -3.92319E+00 -6.47668E+00 -6.43837E+00 -5.61648E+00 -7.03515E+00 -3.91767E+00
 -5.85160E+00 -2.08264E+00 -3.52427E+00 -6.70405E-01 -9.48037E-01 +6.93157E-02 +1.02734E+00 +2.36210E-01
 +1.86693E+00 +1.88051E-01 +1.50318E+00 +3.56714E-01 +3.26974E-01 +1.04097E+00 -9.74956E-01 +2.25257E+00
 -1.67967E+00 +3.67365E+00 -1.29770E+00 +4.74522E+00 +2.36922E-01 +4.86121E+00 +2.52045E+00 +3.60451E+00
 +4.79474E+00 +9.44111E-01 +6.19020E+00 -2.67959E+00 +6.02027E+00 -6.42058E+00 +4.03324E+00 -9.23659E+00
 +5.38170E-01 -1.01869E+01 -3.64130E+00 -8.73151E+00 -7.37856E+00 -4.93835E+00 -9.56306E+00 +4.71908E-01
 -9.43377E+00 +6.26913E+00 -6.82649E+00 +1.10148E+01 -2.25760E+00 +1.34426E+01 +3.18646E+00 +1.28131E+01
 +8.12796E+00 +9.13942E+00 +1.12685E+01 +3.21651E+00 +1.17473E+01 -3.56288E+00 +9.38412E+00 -9.55831E+00
 +4.73730E+00 -1.33057E+01 -1.04149E+00 -1.38993E+01 -6.51502E+00 -1.12272E+01 -1.03442E+01 -5.99554E+00
 -1.16398E+01 +4.64880E-01 -1.01856E+01 +6.55397E+00 -6.47205E+00 +1.08218E+01 -1.53705E+00 +1.23364E+01
 +3.33572E+00 +1.09016E+01 +6.97190E+00 +7.07016E+00 +8.61236E+00 +1.95658E+00 +8.08556E+00 -3.09071E+00
 +5.80418E+00 -6.86042E+00 +2.59633E+00 -8.58745E+00 -5.69531E-01 -8.11680E+00 -2.87849E+00 -5.88496E+00
 -3.89231E+00 -2.73616E+00 -3.63809E+00 +3.62065E-01 -2.54307E+00 +2.61290E+00 -1.24502E+00 +3.60513E+00
 -3.45983E-01 +3.38883E+00 -1.93335E-01 +2.39801E+00 -7.60835E-01 +1.25466E+00 -1.66832E+00 +5.25087E-01
 -2.33223E+00 +5.11655E-01 -2.19553E+00 +1.14925E+00 -9.58143E-01 +2.03935E+00 +1.27224E+00 +2.60833E+00
 +3.96533E+00 +2.33528E+00 +6.30203E+00 +9.70299E-01 +7.42132E+00 -1.33303E+00 +6.70591E+00 -4.02115E+00
 +4.01614E+00 -6.28586E+00 -2.06576E-01 -7.31099E+00 -5.00852E+00 -6.54473E+00 -9.15510E+00 -3.91056E+00
 -1.14650E+01 +1.15153E-01 -1.11527E+01 +4.59178E+00 -8.07963E+00 +8.35205E+00 -2.83424E+00 +1.03245E+01
 +3.38739E+00 +9.84802E+00 +9.07612E+00 +6.88506E+00 +1.28009E+01 +2.06534E+00 +1.35905E+01 -3.45794E+00
 +1.11985E+01 -8.30471E+00 +6.17832E+00 -1.12364E+01 -2.55559E-01 -1.14930E+01 -6.54199E+00 -9.00250E+00
 -1.11775E+01 -4.40344E+00 -1.30999E+01 +1.12781E+00 -1.19483E+01 +6.19572E+00 -8.13135E+00 +9.56074E+00
 -2.69147E+00 +1.04653E+01 +2.99231E+00 +8.82007E+00 +7.57482E+00 +5.20195E+00 +1.00854E+01 +6.67778E-01
 +1.01472E+01 -3.55706E+00 +8.02195E+00 -6.42323E+00 +4.47972E+00 -7.33545E+00 +5.42236E-01 -6.28661E+00
 -2.81818E+00 -3.81499E+00 -4.93398E+00 -8.05035E-01 -5.58196E+00 +1.80236E+00 -4.97588E+00 +3.29888E+00
 -3.62820E+00 +3.40939E+00 -2.13604E+00 +2.34573E+00 -9.67022E-01 +7.02574E-01 -3.15783E-01 -7.66706E-01
 -7.51093E-02 -1.41921E+00 +7.52706E-02 -9.48745E-01 +4.99335E-01 +5.04203E-01 +1.41941E+00 +2.39469E+00
 +2.78461E+00 +3.95486E+00 +4.24458E+00 +4.45718E+00 +5.24396E+00 +3.47492E+00 +5.21097E+00 +1.05467E+00
 +3.77915E+00 -2.25800E+00 +9.66084E-01 -5.55391E+00 -2.75729E+00 -7.82032E+00 -6.54139E+00 -8.24978E+00
 -9.36628E+00 -6.50408E+00 -1.03291E+01 -2.85080E+00 -8.92734E+00 +1.87410E+00 -5.24958E+00 +6.47312E+00
 -9.48821E-03 +9.70832E+00 +5.59933E+00 +1.06467E+01 +1.01961E+01 +8.93034E+00 +1.25771E+01 +4.89279E+00
 +1.20508E+01 -5.14657E-01 +8.64645E+00 -5.96767E+00 +3.13444E+00 -1.01176E+01 -3.15581E+00 -1.19472E+01
 -8.67312E+00 -1.10341E+01 -1.20479E+01 -7.65173E+00 -1.24512E+01 -2.68087E+00 -9.81107E+00 +2.63841E+00
 -4.82597E+00 +7.04195E+00 +1.22697E+00 +9.56883E+00 +6.83539E+00 +9.79085E+00 +1.06508E+01 +7.88544E+00
 +1.18336E+01 +4.54015E+00 +1.02505E+01 +7.25506E-01 +6.47540E+00 -2.59102E+00 +1.59900E+00 -4.70410E+00
 -3.09171E+00 -5.32994E+00 -6.47037E+00 -4.62697E+00 -7.86229E+00 -3.08342E+00 -7.19106E+00 -1.31761E+00
 -4.94647E+00 +1.38913E-01 -1.99293E+00 +1.00378E+00 +7.16492E-01 +1.30186E+00 +2.43058E+00 +1.30584E+00
 +2.80749E+00 +1.38658E+00 +1.98092E+00 +1.83036E+00 +4.72045E-01 +2.69133E+00 -1.01762E+00 +3.73494E+00
 -1.86102E+00 +4.49710E+00 -1.72402E+00 +4.44357E+00 -6.76939E-01 +3.17841E+00 +8.35745E-01 +6.30035E-01
 +2.15628E+00 -2.85277E+00 +2.65147E+00 -6.53731E+00 +1.94875E+00 -9.47692E+00 +9.15429E-02 -1.07720E+01
 -2.44015E+00 -9.84739E+00 -4.85558E+00 -6.66119E+00 -6.29058E+00 -1.77510E+00 -6.08478E+00 +3.74521E+00
 -4.01249E+00 +8.58206E+00 -3.92369E-01 +1.15064E+01 +3.96371E+00 +1.17137E+01 +7.95437E+00 +9.05999E+00
 +1.04900E+01 +4.12705E+00 +1.08057E+01 -1.90728E+00 +8.69417E+00 -7.56236E+00 +4.58794E+00 -1.14347E+01
 -5.37018E-01 -1.25613E+01 -5.41243E+00 -1.06673E+01 -8.81531E+00 -6.23009E+00 -9.89773E+00 -3.43964E-01
 -8.41615E+00 +5.57535E+00 -4.79623E+00 +1.01633E+01 -1.53284E-02 +1.24523E+01 +4.66322E+00 +1.20980E+01
 +8.02888E+00 +9.42686E+00 +9.24115E+00 +5.30150E+00 +8.03864E+00 +8.48683E-01 +4.78565E+00 -2.86549E+00
