 Created: 19-Jan-2021
 $NMID
 ID='D:\BASISSIMULATI'
 FMTDAT='(8E13.5)'
 VOLUME=   1.00000E+00
 TRAMP=   1.00000E+00
 $END
 +4.56604E+01 +3.21827E+00 +4.02230E+01 +2.14573E+01 +2.74354E+01 +3.54314E+01 +1.00154E+01 +4.23178E+01
 -8.34197E+00 +4.08445E+01 -2.37843E+01 +3.15613E+01 -3.31526E+01 +1.67038E+01 -3.46713E+01 -3.18198E-01
 -2.83243E+01 -1.56884E+01 -1.58350E+01 -2.60356E+01 -2.58477E-01 -2.91759E+01 +1.47180E+01 -2.45808E+01
 +2.56062E+01 -1.34695E+01 +2.98913E+01 +1.48916E+00 +2.65777E+01 +1.67947E+01 +1.63866E+01 +2.89069E+01
 +1.56917E+00 +3.50333E+01 -1.46186E+01 +3.37361E+01 -2.86521E+01 +2.52259E+01 -3.75194E+01 +1.12839E+01
 -3.93709E+01 -5.16077E+00 -3.38967E+01 -2.06976E+01 -2.23546E+01 -3.21895E+01 -7.25254E+00 -3.74462E+01
 +8.23420E+00 -3.56689E+01 +2.09732E+01 -2.75751E+01 +2.85510E+01 -1.51864E+01 +2.97664E+01 -1.33822E+00
 +2.48389E+01 +1.09701E+01 +1.52963E+01 +1.92342E+01 +3.58081E+00 +2.19664E+01 -7.52924E+00 +1.89714E+01
 -1.55435E+01 +1.13244E+01 -1.87914E+01 +1.07124E+00 -1.67463E+01 -9.27028E+00 -1.00826E+01 -1.72872E+01
 -4.65152E-01 -2.11950E+01 +9.86777E+00 -2.01948E+01 +1.86232E+01 -1.45946E+01 +2.39545E+01 -5.68020E+00
 +2.48349E+01 +4.61921E+00 +2.12278E+01 +1.41849E+01 +1.40308E+01 +2.11739E+01 +4.82034E+00 +2.43924E+01
 -4.53233E+00 +2.35003E+01 -1.22797E+01 +1.90160E+01 -1.71557E+01 +1.21335E+01 -1.85982E+01 +4.41005E+00
 -1.67994E+01 -2.59741E+00 -1.25869E+01 -7.66121E+00 -7.17874E+00 -1.01070E+01 -1.87920E+00 -9.89341E+00
 +2.21128E+00 -7.54456E+00 +4.40722E+00 -3.96548E+00 +4.53204E+00 -1.96026E-01 +2.88701E+00 +2.83390E+00
 +1.17479E-01 +4.49194E+00 -2.97928E+00 +4.53760E+00 -5.65213E+00 +3.11397E+00 -7.35237E+00 +6.53390E-01
 -7.81720E+00 -2.26743E+00 -7.07167E+00 -5.07960E+00 -5.36221E+00 -7.34250E+00 -3.05102E+00 -8.80729E+00
 -5.06682E-01 -9.41740E+00 +1.97799E+00 -9.25835E+00 +4.22220E+00 -8.48210E+00 +6.14554E+00 -7.23516E+00
 +7.72208E+00 -5.61470E+00 +8.92363E+00 -3.66480E+00 +9.67772E+00 -1.40953E+00 +9.85881E+00 +1.09350E+00
 +9.31898E+00 +3.70329E+00 +7.94949E+00 +6.17292E+00 +5.75234E+00 +8.16941E+00 +2.89535E+00 +9.33727E+00
 -2.73201E-01 +9.39171E+00 -3.26398E+00 +8.21600E+00 -5.53785E+00 +5.93229E+00 -6.63059E+00 +2.91970E+00
 -6.28023E+00 -2.34346E-01 -4.52165E+00 -2.84582E+00 -1.71809E+00 -4.28712E+00 +1.48659E+00 -4.14583E+00
 +4.29190E+00 -2.34852E+00 +5.91700E+00 +7.85869E-01 +5.79023E+00 +4.58350E+00 +3.70557E+00 +8.14300E+00
 -9.51272E-02 +1.05289E+01 -4.94023E+00 +1.09892E+01 -9.84978E+00 +9.14652E+00 -1.37384E+01 +5.11468E+00
 -1.56563E+01 -4.91329E-01 -1.50148E+01 -6.66104E+00 -1.17409E+01 -1.21914E+01 -6.32286E+00 -1.59448E+01
 +2.69537E-01 -1.71046E+01 +6.77796E+00 -1.53701E+01 +1.19208E+01 -1.10425E+01 +1.46738E+01 -4.97922E+00
 +1.45017E+01 +1.57785E+00 +1.14883E+01 +7.26547E+00 +6.33071E+00 +1.08957E+01 +1.97363E-01 +1.17207E+01
 -5.52203E+00 +9.60480E+00 -9.52075E+00 +5.06354E+00 -1.08658E+01 -8.41660E-01 -9.21001E+00 -6.73191E+00
 -4.87662E+00 -1.12131E+01 +1.20380E+00 -1.31851E+01 +7.69206E+00 -1.20897E+01 +1.31315E+01 -8.04043E+00
 +1.62679E+01 -1.80565E+00 +1.63269E+01 +5.35344E+00 +1.31877E+01 +1.19540E+01 +7.41448E+00 +1.66125E+01
 +1.37078E-01 +1.83453E+01 -7.19108E+00 +1.67821E+01 -1.31060E+01 +1.22451E+01 -1.64473E+01 +5.67816E+00
 -1.66051E+01 -1.55955E+00 -1.36460E+01 -7.98786E+00 -8.29113E+00 -1.23242E+01 -1.75293E+00 -1.37562E+01
 +4.53284E+00 -1.21084E+01 +9.21970E+00 -7.87034E+00 +1.13394E+01 -2.07855E+00 +1.05041E+01 +3.91702E+00
 +6.98006E+00 +8.75116E+00 +1.61762E+00 +1.13397E+01 -4.34380E+00 +1.11094E+01 -9.55137E+00 +8.11327E+00
 -1.28339E+01 +3.00788E+00 -1.34516E+01 -3.09944E+00 -1.12481E+01 -8.89731E+00 -6.67246E+00 -1.31560E+01
 -6.71568E-01 -1.49889E+01 +5.52265E+00 -1.40346E+01 +1.06616E+01 -1.05216E+01 +1.37448E+01 -5.20483E+00
 +1.42251E+01 +8.07612E-01 +1.21101E+01 +6.29904E+00 +7.94334E+00 +1.02038E+01 +2.67155E+00 +1.18269E+01
 -2.56954E+00 +1.09765E+01 -6.70192E+00 +7.98636E+00 -8.93086E+00 +3.62366E+00 -8.90185E+00 -1.09033E+00
 -6.75775E+00 -5.10763E+00 -3.08780E+00 -7.57751E+00 +1.21636E+00 -8.01948E+00 +5.16327E+00 -6.41049E+00
 +7.87712E+00 -3.17112E+00 +8.77980E+00 +9.42073E-01 +7.70187E+00 +5.01103E+00 +4.90215E+00 +8.15768E+00
 +9.95606E-01 +9.72814E+00 -3.19094E+00 +9.42151E+00 -6.80141E+00 +7.33828E+00 -9.13090E+00 +3.94199E+00
 -9.76587E+00 -5.36984E-02 -8.65643E+00 -3.84495E+00 -6.10890E+00 -6.70872E+00 -2.70426E+00 -8.14808E+00
 +8.36421E-01 -7.98272E+00 +3.80865E+00 -6.36860E+00 +5.66892E+00 -3.74635E+00 +6.13751E+00 -7.33357E-01
 +5.24038E+00 +2.01476E+00 +3.28496E+00 +3.94249E+00 +7.78740E-01 +4.70364E+00 -1.68885E+00 +4.22042E+00
 -3.57448E+00 +2.68304E+00 -4.49150E+00 +4.93494E-01 -4.28117E+00 -1.83122E+00 -3.03215E+00 -3.77381E+00
 -1.04737E+00 -4.92444E+00 +1.23133E+00 -5.05953E+00 +3.32272E+00 -4.17717E+00 +4.80750E+00 -2.48464E+00
 +5.41066E+00 -3.43742E-01 +5.04902E+00 +1.81218E+00 +3.83649E+00 +3.57047E+00 +2.04893E+00 +4.62123E+00
 +5.83029E-02 +4.81320E+00 -1.74819E+00 +4.17370E+00 -3.04668E+00 +2.89122E+00 -3.63707E+00 +1.26656E+00
 -3.47432E+00 -3.55233E-01 -2.66639E+00 -1.65715E+00 -1.44142E+00 -2.41183E+00 -9.31150E-02 -2.52072E+00
 +1.08330E+00 -2.02465E+00 +1.85099E+00 -1.08555E+00 +2.07547E+00 +5.50505E-02 +1.74493E+00 +1.13062E+00
 +9.64530E-01 +1.90575E+00 -7.26979E-02 +2.22219E+00 -1.13065E+00 +2.02648E+00 -1.98097E+00 +1.37464E+00
 -2.44911E+00 +4.14508E-01 -2.44694E+00 -6.49337E-01 -1.98600E+00 -1.60008E+00 -1.17001E+00 -2.25312E+00
 -1.69306E-01 -2.49167E+00 +8.16790E-01 -2.28677E+00 +1.60139E+00 -1.69870E+00 +2.04684E+00 -8.60403E-01
 +2.08983E+00 +5.28502E-02 +1.75026E+00 +8.60770E-01 +1.12295E+00 +1.41456E+00 +3.54640E-01 +1.62529E+00
 -3.88446E-01 +1.47889E+00 -9.55507E-01 +1.03511E+00 -1.24136E+00 +4.11579E-01 -1.20594E+00 -2.43357E-01
 -8.79625E-01 -7.83036E-01 -3.53654E-01 -1.09319E+00 +2.41698E-01 -1.11479E+00 +7.66400E-01 -8.54431E-01
 +1.10101E+00 -3.80674E-01 +1.17176E+00 +1.92737E-01 +9.65200E-01 +7.32710E-01 +5.29639E-01 +1.11614E+00
 -3.66826E-02 +1.25639E+00 -6.07866E-01 +1.12147E+00 -1.05815E+00 +7.40024E-01 -1.28921E+00 +1.94245E-01
 -1.25106E+00 -3.98679E-01 -9.52283E-01 -9.12380E-01 -4.57415E-01 -1.23875E+00 +1.27703E-01 -1.31109E+00
 +6.79334E-01 -1.11797E+00 +1.08285E+00 -7.04945E-01 +1.25743E+00 -1.63940E-01 +1.17312E+00 +3.87421E-01
 +8.56608E-01 +8.31789E-01 +3.84578E-01 +1.07775E+00 -1.33875E-01 +1.07953E+00 -5.81745E-01 +8.46497E-01
 -8.60167E-01 +4.40378E-01 -9.10264E-01 -3.90159E-02 -7.25999E-01 -4.76468E-01 -3.55221E-01 -7.67335E-01
 +1.11281E-01 -8.41085E-01 +5.60268E-01 -6.77202E-01 +8.81547E-01 -3.09937E-01 +9.92806E-01 +1.79135E-01
 +8.58311E-01 +6.79110E-01 +4.97305E-01 +1.07433E+00 -1.97482E-02 +1.27010E+00 -5.86274E-01 +1.21389E+00
 -1.08274E+00 +9.07351E-01 -1.40275E+00 +4.06377E-01 -1.47640E+00 -1.90652E-01 -1.28564E+00 -7.64047E-01
 -8.68422E-01 -1.19868E+00 -3.10543E-01 -1.40890E+00 +2.72916E-01 -1.35706E+00 +7.62577E-01 -1.06158E+00
 +1.06066E+00 -5.92708E-01 +1.11215E+00 -5.70322E-02 +9.16591E-01 +4.25947E-01 +5.27895E-01 +7.50050E-01
 +4.23158E-02 +8.45692E-01 -4.22904E-01 +6.95115E-01 -7.55443E-01 +3.36261E-01 -8.72747E-01 -1.45563E-01
 -7.40375E-01 -6.36402E-01 -3.79850E-01 -1.01867E+00 +1.35697E-01 -1.19699E+00 +6.97139E-01 -1.11932E+00
 +1.18284E+00 -7.88660E-01 +1.48491E+00 -2.62919E-01 +1.53261E+00 +3.57113E-01 +1.30776E+00 +9.49035E-01
 +8.48965E-01 +1.39479E+00 +2.43637E-01 +1.60574E+00 -3.90357E-01 +1.54144E+00 -9.29544E-01 +1.21821E+00
 -1.27085E+00 +7.05537E-01 -1.35322E+00 +1.11302E-01 -1.17026E+00 -4.41169E-01 -7.71290E-01 -8.39207E-01
 -2.50545E-01 -1.00458E+00 +2.73061E-01 -9.09885E-01 +6.81358E-01 -5.84145E-01 +8.82123E-01 -1.06432E-01
 +8.28753E-01 +4.11092E-01 +5.30291E-01 +8.47133E-01 +4.96861E-02 +1.09718E+00 -5.09322E-01 +1.09593E+00
 -1.02398E+00 +8.31550E-01 -1.37841E+00 +3.48775E-01 -1.48821E+00 -2.59905E-01 -1.31871E+00 -8.73061E-01
 -8.92929E-01 -1.36540E+00 -2.87655E-01 -1.63389E+00 +3.81721E-01 -1.61954E+00 +9.84561E-01 -1.32029E+00
 +1.40178E+00 -7.92327E-01 +1.55065E+00 -1.39342E-01 +1.40238E+00 +5.08196E-01 +9.88936E-01 +1.01957E+00
 +3.97364E-01 +1.29088E+00 -2.47374E-01 +1.26700E+00 -8.07691E-01 +9.53904E-01 -1.16182E+00 +4.18576E-01
 -1.22962E+00 -2.23728E-01 -9.90285E-01 -8.32555E-01 -4.88258E-01 -1.27117E+00 +1.74413E-01 -1.43549E+00
 +8.57916E-01 -1.27702E+00 +1.41307E+00 -8.14876E-01 +1.71264E+00 -1.34031E-01 +1.67905E+00 +6.30393E-01
 +1.30275E+00 +1.31993E+00 +6.46809E-01 +1.78552E+00 -1.63566E-01 +1.91955E+00 -9.65154E-01 +1.68041E+00
 -1.58986E+00 +1.10409E+00 -1.90031E+00 +2.99738E-01 -1.82041E+00 -5.70470E-01 -1.35426E+00 -1.32368E+00
 -5.88694E-01 -1.79451E+00 +3.21634E-01 -1.87124E+00 +1.18443E+00 -1.52209E+00 +1.80936E+00 -8.05576E-01
 +2.04901E+00 +1.38020E-01 +1.83252E+00 +1.11317E+00 +1.18428E+00 +1.90874E+00 +2.22958E-01 +2.34277E+00
 -8.59922E-01 +2.30304E+00 -1.83805E+00 +1.77441E+00 -2.49768E+00 +8.46354E-01 -2.68445E+00 -3.01770E-01
 -2.33929E+00 -1.43567E+00 -1.51539E+00 -2.31450E+00 -3.71395E-01 -2.74282E+00 +8.58569E-01 -2.61499E+00
 +1.91264E+00 -1.94185E+00 +2.55709E+00 -8.53328E-01 +2.63843E+00 +4.24978E-01 +2.12026E+00 +1.61698E+00
 +1.09617E+00 +2.45428E+00 -2.25279E-01 +2.73510E+00 -1.56122E+00 +2.37117E+00 -2.61309E+00 +1.41179E+00
 -3.13108E+00 +3.88278E-02 -2.97050E+00 -1.46727E+00 -2.12766E+00 -2.78442E+00 -7.46292E-01 -3.61703E+00
 +9.07661E-01 -3.76104E+00 +2.49882E+00 -3.15154E+00 +3.69210E+00 -1.88189E+00 +4.22486E+00 -1.89267E-01
 +3.96583E+00 +1.59141E+00 +2.94763E+00 +3.09630E+00 +1.36480E+00 +4.00987E+00 -4.63115E-01 +4.13418E+00
 -2.15677E+00 +3.43479E+00 -3.35696E+00 +2.05273E+00 -3.80263E+00 +2.78866E-01 -3.38980E+00 -1.50484E+00
 -2.19826E+00 -2.90539E+00 -4.79228E-01 -3.60344E+00 +1.39427E+00 -3.42429E+00 +3.00473E+00 -2.37968E+00
 +3.97904E+00 -6.70395E-01 +4.07019E+00 +1.35171E+00 +3.21389E+00 +3.25513E+00 +1.54746E+00 +4.61906E+00
 -6.14049E-01 +5.12361E+00 -2.84026E+00 +4.62060E+00 -4.67392E+00 +3.16932E+00 -5.72694E+00 +1.02895E+00
