 Created: 19-Jan-2021
 $NMID
 ID='D:\BASISSIMULATI'
 FMTDAT='(8E13.5)'
 VOLUME=   1.00000E+00
 TRAMP=   1.00000E+00
 $END
 +1.87521E+01 +1.86650E+00 +1.79175E+01 +5.79043E+00 +1.62723E+01 +9.44579E+00 +1.38922E+01 +1.26673E+01
 +1.08862E+01 +1.53098E+01 +7.39168E+00 +1.72542E+01 +3.56763E+00 +1.84137E+01 -4.12110E-01 +1.87369E+01
 -4.36692E+00 +1.82104E+01 -8.11762E+00 +1.68595E+01 -1.14946E+01 +1.47467E+01 -1.43453E+01 +1.19688E+01
 -1.65414E+01 +8.65297E+00 -1.79845E+01 +4.95016E+00 -1.86102E+01 +1.02883E+00 -1.83916E+01 -2.93297E+00
 -1.73399E+01 -6.75563E+00 -1.55039E+01 -1.02661E+01 -1.29683E+01 -1.33059E+01 -9.84891E+00 -1.57379E+01
 -6.28809E+00 -1.74528E+01 -2.44789E+00 -1.83741E+01 +1.49722E+00 -1.84613E+01 +5.36829E+00 -1.77117E+01
 +8.98999E+00 -1.61606E+01 +1.21986E+01 -1.38796E+01 +1.48493E+01 -1.09731E+01 +1.68230E+01 -7.57393E+00
 +1.80311E+01 -3.83684E+00 +1.84202E+01 +6.82583E-02 +1.79739E+01 +3.96413E+00 +1.67138E+01 +7.67425E+00
 +1.46982E+01 +1.10308E+01 +1.20196E+01 +1.38821E+01 +8.80058E+00 +1.60998E+01 +5.18775E+00 +1.75845E+01
 +1.34549E+00 +1.82699E+01 -2.55172E+00 +1.81262E+01 -6.32718E+00 +1.71614E+01 -9.80996E+00 +1.54203E+01
 -1.28427E+01 +1.29831E+01 -1.52887E+01 +9.96140E+00 -1.70380E+01 +6.49298E+00 -1.80123E+01 +2.73576E+00
 -1.81689E+01 -1.13956E+00 -1.75018E+01 -4.95714E+00 -1.60427E+01 -8.54409E+00 -1.38587E+01 -1.17382E+01
 -1.10502E+01 -1.43953E+01 -7.74527E+00 -1.63959E+01 -4.09453E+00 -1.76503E+01 -2.63956E-01 -1.81029E+01
 +3.57256E+00 -1.77343E+01 +7.24116E+00 -1.65627E+01 +1.05758E+01 -1.46422E+01 +1.34260E+01 -1.20612E+01
 +1.56632E+01 -8.93772E+00 +1.71871E+01 -5.41405E+00 +1.79297E+01 -1.65055E+00 +1.78586E+01 +2.18184E+00
 +1.69783E+01 +5.90934E+00 +1.53299E+01 +9.36318E+00 +1.29894E+01 +1.23873E+01 +1.00639E+01 +1.48453E+01
 +6.68688E+00 +1.66266E+01 +3.01215E+00 +1.76517E+01 -7.93331E-01 +1.78752E+01 -4.55688E+00 +1.72882E+01
 -8.10801E+00 +1.59188E+01 -1.12861E+01 +1.38300E+01 -1.39478E+01 +1.11178E+01 -1.59732E+01 +7.90597E+00
 -1.72715E+01 +4.34091E+00 -1.77851E+01 +5.84722E-01 -1.74918E+01 -3.19207E+00 -1.64063E+01 -6.81827E+00
 -1.45791E+01 -1.01298E+01 -1.20939E+01 -1.29770E+01 -9.06463E+00 -1.52317E+01 -5.62928E+00 -1.67926E+01
 -1.94422E+00 -1.75900E+01 +1.82317E+00 -1.75890E+01 +5.50202E+00 -1.67909E+01 +8.92575E+00 -1.52331E+01
 +1.19396E+01 -1.29874E+01 +1.44076E+01 -1.01566E+01 +1.62189E+01 -6.87004E+00 +1.72923E+01 -3.27727E+00
 +1.75803E+01 +4.58372E-01 +1.70711E+01 +4.16738E+00 +1.57892E+01 +7.68171E+00 +1.37937E+01 +1.08424E+01
 +1.11762E+01 +1.35068E+01 +8.05630E+00 +1.55548E+01 +4.57623E+00 +1.68948E+01 +8.94229E-01 +1.74670E+01
 -2.82251E+00 +1.72467E+01 -6.40551E+00 +1.62451E+01 -9.69260E+00 +1.45090E+01 -1.25353E+01 +1.21180E+01
 -1.48054E+01 +9.18159E+00 -1.64010E+01 +5.83371E+00 -1.72508E+01 +2.22671E+00 -1.73175E+01 -1.47554E+00
 -1.65993E+01 -5.10511E+00 -1.51300E+01 -8.49763E+00 -1.29773E+01 -1.14997E+01 -1.02399E+01 -1.39759E+01
 -7.04270E+00 -1.58149E+01 -3.53136E+00 -1.69343E+01 +1.34505E-01 -1.72845E+01 +3.78852E+00 -1.68508E+01
 +7.26511E+00 -1.56541E+01 +1.04070E+01 -1.37499E+01 +1.30723E+01 -1.12256E+01 +1.51410E+01 -8.19650E+00
 +1.65203E+01 -4.80070E+00 +1.71488E+01 -1.19267E+00 +1.69991E+01 +2.46376E+00 +1.60793E+01 +6.00278E+00
 +1.44322E+01 +9.26422E+00 +1.21337E+01 +1.21007E+01 +9.28887E+00 +1.43843E+01 +6.02757E+00 +1.60125E+01
 +2.49822E+00 +1.69125E+01 -1.13880E+00 +1.70446E+01 -4.71851E+00 +1.64040E+01 -8.07876E+00 +1.50211E+01
 -1.10676E+01 +1.29595E+01 -1.35502E+01 +1.03140E+01 -1.54148E+01 +7.20511E+00 -1.65780E+01 +3.77461E+00
 -1.69880E+01 +1.78444E-01 -1.66275E+01 -3.42017E+00 -1.55140E+01 -6.85813E+00 -1.36992E+01 -9.97990E+00
 -1.12664E+01 -1.26445E+01 -8.32685E+00 -1.47319E+01 -5.01457E+00 -1.61484E+01 -1.48022E+00 -1.68308E+01
 +2.11565E+00 -1.67494E+01 +5.61000E+00 -1.59091E+01 +8.84464E+00 -1.43491E+01 +1.16734E+01 -1.21413E+01
 +1.39686E+01 -9.38673E+00 +1.56273E+01 -6.21109E+00 +1.65751E+01 -2.75895E+00 +1.67702E+01 +8.12797E-01
 +1.62051E+01 +4.34210E+00 +1.49065E+01 +7.66909E+00 +1.29343E+01 +1.06433E+01 +1.03791E+01 +1.31305E+01
 +7.35752E+00 +1.50188E+01 +4.00726E+00 +1.62234E+01 +4.80652E-01 +1.66910E+01 -3.06220E+00 +1.64014E+01
 -6.46072E+00 +1.53689E+01 -9.56111E+00 +1.36416E+01 -1.22233E+01 +1.12988E+01 -1.43275E+01 +8.44759E+00
 -1.57790E+01 +5.21805E+00 -1.65131E+01 +1.75709E+00 -1.64977E+01 -1.77805E+00 -1.57348E+01 -5.22708E+00
 -1.42599E+01 -8.43380E+00 -1.21411E+01 -1.12533E+01 -9.47542E+00 -1.35584E+01 -6.38451E+00 -1.52454E+01
 -3.00911E+00 -1.62388E+01 +4.97358E-01 -1.64948E+01 +3.97578E+00 -1.60029E+01 +7.26857E+00 -1.47865E+01
 +1.02268E+01 -1.29019E+01 +1.27169E+01 -1.04356E+01 +1.46268E+01 -7.50018E+00 +1.58708E+01 -4.22951E+00
 +1.63937E+01 -7.72297E-01 +1.61727E+01 +2.71449E+00 +1.52192E+01 +6.07279E+00 +1.35775E+01 +9.15060E+00
 +1.13230E+01 +1.18089E+01 +8.55898E+00 +1.39279E+01 +5.41137E+00 +1.54123E+01 +2.02347E+00 +1.61959E+01
 -1.45082E+00 +1.62444E+01 -4.85390E+00 +1.55566E+01 -8.03167E+00 +1.41648E+01 -1.08405E+01 +1.21334E+01
 -1.31536E+01 +9.55521E+00 -1.48670E+01 +6.54807E+00 -1.59039E+01 +3.24890E+00 -1.62185E+01 -1.92324E-01
 -1.57976E+01 -3.61943E+00 -1.46614E+01 -6.87713E+00 -1.28625E+01 -9.81806E+00 -1.04836E+01 -1.23094E+01
 -7.63333E+00 -1.42390E+01 -4.44158E+00 -1.55203E+01 -1.05355E+00 -1.60963E+01 +2.37690E+00 -1.59418E+01
 +5.69425E+00 -1.50651E+01 +8.74834E+00 -1.35071E+01 +1.14012E+01 -1.13394E+01 +1.35332E+01 -8.66125E+00
 +1.50485E+01 -5.59476E+00 +1.58795E+01 -2.27953E+00 +1.59895E+01 +1.13380E+00 +1.53748E+01 +4.49039E+00
 +1.40642E+01 +7.63821E+00 +1.21183E+01 +1.04349E+01 +9.62634E+00 +1.27544E+01 +6.70200E+00 +1.44922E+01
 +3.47852E+00 +1.55705E+01 +1.02468E-01 +1.59414E+01 -3.27293E+00 +1.55894E+01 -6.49471E+00 +1.45314E+01
 -9.41710E+00 +1.28165E+01 -1.19081E+01 +1.05235E+01 -1.38556E+01 +7.75721E+00 -1.51721E+01 +4.64368E+00
 -1.57989E+01 +1.32460E+00 -1.57088E+01 -2.04930E+00 -1.49069E+01 -5.32503E+00 -1.34307E+01 -8.35430E+00
 -1.13482E+01 -1.10002E+01 -8.75467E+00 -1.31435E+01 -5.76844E+00 -1.46877E+01 -2.52548E+00 -1.55639E+01
 +8.26837E-01 -1.57334E+01 +4.13642E+00 -1.51896E+01 +7.25336E+00 -1.39582E+01 +1.00367E+01 -1.20963E+01
 +1.23608E+01 -9.68907E+00 +1.41211E+01 -6.84653E+00 +1.52387E+01 -3.69818E+00 +1.56639E+01 -3.87183E-01
 +1.53786E+01 +2.93617E+00 +1.43968E+01 +6.12124E+00 +1.27641E+01 +9.02391E+00 +1.05555E+01 +1.15131E+01
 +7.87205E+00 +1.34766E+01 +4.83603E+00 +1.48262E+01 +1.58562E+00 +1.55019E+01 -1.73155E+00 +1.54740E+01
 -4.96504E+00 +1.47448E+01 -7.96845E+00 +1.33486E+01 -1.06060E+01 +1.13496E+01 -1.27588E+01 +8.83946E+00
 -1.43300E+01 +5.93263E+00 -1.52493E+01 +2.76151E+00 -1.54761E+01 -5.29789E-01 -1.50012E+01 -3.79191E+00
 -1.38472E+01 -6.87707E+00 -1.20675E+01 -9.64572E+00 -9.74364E+00 -1.19729E+01 -6.98190E+00 -1.37538E+01
 -3.90808E+00 -1.49087E+01 -6.61986E-01 -1.53860E+01 +2.60902E+00 -1.51654E+01 +5.75665E+00 -1.42578E+01
 +8.63846E+00 -1.27055E+01 +1.11243E+01 -1.05799E+01 +1.31020E+01 -7.97810E+00 +1.44829E+01 -5.01884E+00
 +1.52053E+01 -1.83679E+00 +1.52375E+01 +1.42352E+00 +1.45790E+01 +4.61419E+00 +1.32609E+01 +7.59075E+00
 +1.13440E+01 +1.02186E+01 +8.91588E+00 +1.23793E+01 +6.08756E+00 +1.39756E+01 +2.98780E+00 +1.49360E+01
 -2.42502E-01 +1.52180E+01 -3.45674E+00 +1.48099E+01 -6.50928E+00 +1.37313E+01 -9.26203E+00 +1.20321E+01
 -1.15907E+01 +9.79029E+00 -1.33905E+01 +7.10832E+00 -1.45806E+01 +4.10842E+00 -1.51080E+01 +9.27043E-01
 -1.49500E+01 -2.29135E+00 -1.41147E+01 -5.40086E+00 -1.26410E+01 -8.26072E+00 -1.05968E+01 -1.07417E+01
 -8.07558E+00 -1.27321E+01 -5.19232E+00 -1.41422E+01 -2.07828E+00 -1.49093E+01 +1.12506E+00 -1.49995E+01
 +4.27239E+00 -1.44098E+01 +7.22115E+00 -1.31680E+01 +9.83804E+00 -1.13314E+01 +1.20050E+01 -8.98415E+00
 +1.36245E+01 -6.23343E+00 +1.46240E+01 -3.20454E+00 +1.49591E+01 -3.51775E-02 +1.46159E+01 +3.13081E+00
 +1.36108E+01 +6.14993E+00 +1.19905E+01 +8.88562E+00 +9.82927E+00 +1.12143E+01 +7.22603E+00 +1.30312E+01
 +4.29940E+00 +1.42546E+01 +1.18252E+00 +1.48301E+01 -1.98306E+00 +1.47326E+01 -5.05379E+00 +1.39676E+01
 -7.89068E+00 +1.25709E+01 -1.03655E+01 +1.06066E+01 -1.23667E+01 +8.16472E+00 -1.38043E+01 +5.35667E+00
 -1.46141E+01 +2.31027E+00 -1.47603E+01 -8.36045E-01 -1.42374E+01 -3.93954E+00 -1.30701E+01 -6.85962E+00
 -1.13122E+01 -9.46425E+00 -9.04452E+00 -1.16359E+01 -6.37048E+00 -1.32768E+01 -3.41193E+00 -1.43134E+01
 -3.03403E-01 -1.46998E+01 +2.81399E+00 -1.44194E+01 +5.79897E+00 -1.34859E+01 +8.51646E+00 -1.19428E+01
 +1.08437E+01 -9.86081E+00 +1.26759E+01 -7.33524E+00 +1.39308E+01 -4.48121E+00 +1.45524E+01 -1.42858E+00
 +1.45135E+01 +1.68400E+00 +1.38169E+01 +4.71538E+00 +1.24953E+01 +7.52830E+00 +1.06094E+01 +9.99564E+00
 +8.24576E+00 +1.20061E+01 +5.51211E+00 +1.34693E+01 +2.53295E+00 +1.43199E+01 -5.56325E-01 +1.45201E+01
 -3.61554E+00 +1.40620E+01 -6.50610E+00 +1.29673E+01 -9.09728E+00 +1.12867E+01 -1.12721E+01 +9.09721E+00
 -1.29327E+01 +6.49890E+00 -1.40046E+01 +3.61015E+00 -1.44401E+01 +5.62329E-01 -1.42206E+01 -2.50619E+00
 -1.33569E+01 -5.45632E+00 -1.18893E+01 -8.15455E+00 -9.88515E+00 -1.04790E+01 -7.43618E+00 -1.23249E+01
 -4.65407E+00 -1.36093E+01 -1.66540E+00 -1.42750E+01 +1.39405E+00 -1.42927E+01 +4.38552E+00 -1.36627E+01
 +7.17355E+00 -1.24145E+01 +9.63211E+00 -1.06056E+01 +1.16503E+01 -8.31892E+00 +1.31373E+01 -5.65884E+00
 +1.40267E+01 -2.74649E+00 +1.42790E+01 +2.85760E-01 +1.38837E+01 +3.30030E+00 +1.28599E+01 +6.16054E+00
 +1.12550E+01 +8.73711E+00 +9.14245E+00 +1.09137E+01 +6.61892E+00 +1.25922E+01 +3.79939E+00 +1.36975E+01
 +8.12111E-01 +1.41803E+01 -2.20729E+00 +1.40197E+01 -5.12192E+00 +1.32240E+01 -7.79985E+00 +1.18302E+01
 -1.01201E+01 +9.90251E+00 -1.19781E+01 +7.52907E+00 -1.32903E+01 +4.81815E+00 -1.39982E+01 +1.89314E+00
 -1.40706E+01 -1.11308E+00 -1.35052E+01 -4.06414E+00 -1.23287E+01 -6.82638E+00 -1.05953E+01 -9.27493E+00
 -8.38442E+00 -1.12993E+01 -5.79707E+00 -1.28084E+01 -2.95107E+00 -1.37347E+01 +2.42075E-02 -1.40371E+01
