 Created: 19-Jan-2021
 $NMID
 ID='D:\BASISSIMULATI'
 FMTDAT='(8E13.5)'
 VOLUME=   1.00000E+00
 TRAMP=   1.00000E+00
 $END
 +1.68126E+02 +1.66815E+01 +1.60414E+02 +5.20491E+01 +1.44576E+02 +8.44585E+01 +1.21645E+02 +1.11981E+02
 +9.31123E+01 +1.33027E+02 +6.08220E+01 +1.46456E+02 +2.68391E+01 +1.51650E+02 -6.69843E+00 +1.48551E+02
 -3.77306E+01 +1.37658E+02 -6.44192E+01 +1.19983E+02 -8.52735E+01 +9.69668E+01 -9.92497E+01 +7.03725E+01
 -1.05815E+02 +4.21489E+01 -1.04976E+02 +1.42868E+01 -9.72602E+01 -1.13259E+01 -8.36691E+01 -3.30400E+01
 -6.55878E+01 -4.95601E+01 -4.46725E+01 -6.00304E+01 -2.27181E+01 -6.40868E+01 -1.51857E+00 -6.18697E+01
 +1.72708E+01 -5.39991E+01 +3.22571E+01 -4.15122E+01 +4.24106E+01 -2.57709E+01 +4.71366E+01 -8.34577E+00
 +4.63107E+01 +9.11497E+00 +4.02770E+01 +2.50193E+01 +2.98095E+01 +3.79591E+01 +1.60395E+01 +4.68212E+01
 +3.55665E-01 +5.08730E+01 -1.57150E+01 +4.98169E+01 -3.06366E+01 +4.38082E+01 -4.29921E+01 +3.34376E+01
 -5.16018E+01 +1.96766E+01 -5.56201E+01 +3.79456E+00 -5.46059E+01 -1.27501E+01 -4.85591E+01 -2.84322E+01
 -3.79209E+01 -4.17880E+01 -2.35388E+01 -5.15384E+01 -6.59781E+00 -5.66967E+01 +1.14753E+01 -5.66531E+01
 +2.91284E+01 -5.12293E+01 +4.48107E+01 -4.06976E+01 +5.71000E+01 -2.57645E+01 +6.48210E+01 -7.51853E+00
 +6.71439E+01 +1.26524E+01 +6.36569E+01 +3.31686E+01 +5.44055E+01 +5.23827E+01 +3.98964E+01 +6.87098E+01
 +2.10641E+01 +8.07539E+01 -7.95820E-01 +8.74216E+01 -2.41229E+01 +8.80119E+01 -4.72093E+01 +8.22769E+01
 -6.83305E+01 +7.04480E+01 -8.58781E+01 +5.32241E+01 -9.84853E+01 +3.17245E+01 -1.05134E+02 +7.40827E+00
 -1.05238E+02 -1.80330E+01 -9.86908E+01 -4.28014E+01 -8.58795E+01 -6.51281E+01 -6.76602E+01 -8.34073E+01
 -4.52972E+01 -9.63192E+01 -2.03710E+01 -1.02931E+02 +5.33832E+00 -1.02772E+02 +2.99836E+01 -9.58682E+01
 +5.17890E+01 -8.27473E+01 +6.91834E+01 -6.43995E+01 +8.09195E+01 -4.22057E+01 +8.61681E+01 -1.78360E+01
 +8.45822E+01 +6.87439E+00 +7.63244E+01 +3.00620E+01 +6.20559E+01 +4.99747E+01 +4.28889E+01 +6.51024E+01
 +2.03036E+01 +7.42910E+01 -3.96093E+00 +7.68289E+01 -2.80364E+01 +7.25008E+01 -5.00648E+01 +6.16046E+01
 -6.83364E+01 +4.49290E+01 -8.14170E+01 +2.36955E+01 -8.82550E+01 -5.32588E-01 -8.82587E+01 -2.59663E+01
 -8.13401E+01 -5.07239E+01 -6.79205E+01 -7.29705E+01 -4.88979E+01 -9.10532E+01 -2.55798E+01 -1.03623E+02
 +4.15177E-01 -1.09734E+02 +2.72778E+01 -1.08908E+02 +5.31426E+01 -1.01172E+02 +7.62255E+01 -8.70490E+01
 +9.49543E+01 -6.75173E+01 +1.08083E+02 -4.39346E+01 +1.14779E+02 -1.79344E+01 +1.14683E+02 +8.69763E+00
 +1.07926E+02 +3.41571E+01 +9.51163E+01 +5.67544E+01 +7.72857E+01 +7.50388E+01 +5.58075E+01 +8.79021E+01
 +3.22879E+01 +9.46560E+01 +8.44218E+00 +9.50764E+01 -1.40370E+01 +8.94121E+01 -3.36068E+01 +7.83566E+01
 -4.89886E+01 +6.29875E+01 -5.92609E+01 +4.46760E+01 -6.39229E+01 +2.49754E+01 -6.29254E+01 +5.49740E+00
 -5.66652E+01 -1.22151E+01 -4.59455E+01 -2.68081E+01 -3.19048E+01 -3.72199E+01 -1.59201E+01 -4.27608E+01
 +5.07886E-01 -4.31622E+01 +1.58776E+01 -3.85919E+01 +2.88088E+01 -2.96341E+01 +3.81541E+01 -1.72374E+01
 +4.30908E+01 -2.63238E+00 +4.31861E+01 +1.27715E+01 +3.84309E+01 +2.75040E+01 +2.92389E+01 +4.01557E+01
 +1.64119E+01 +4.94956E+01 +1.07388E+00 +5.45734E+01 -1.54215E+01 +5.47992E+01 -3.16017E+01 +4.99950E+01
 -4.59961E+01 +4.04122E+01 -5.72576E+01 +2.67151E+01 -6.42741E+01 +9.93136E+00 -6.62632E+01 -8.62742E+00
 -6.28399E+01 -2.74684E+01 -5.40544E+01 -4.50356E+01 -4.03947E+01 -5.98332E+01 -2.27551E+01 -7.05471E+01
 -2.37265E+00 -7.61512E+01 +1.92649E+01 -7.59943E+01 +4.05306E+01 -6.98569E+01 +5.97831E+01 -5.79760E+01
 +7.54923E+01 -4.10347E+01 +8.63594E+01 -2.01167E+01 +9.14194E+01 +3.36962E+00 +9.01188E+01 +2.77935E+01
 +8.23639E+01 +5.14214E+01 +6.85331E+01 +7.25460E+01 +4.94548E+01 +8.96139E+01 +2.63500E+01 +1.01342E+02
 +7.46292E-01 +1.06817E+02 -2.56329E+01 +1.05563E+02 -5.09936E+01 +9.75819E+01 -7.36021E+01 +8.33535E+01
 -9.19126E+01 +6.38044E+01 -1.04680E+02 +4.02403E+01 -1.11053E+02 +1.42509E+01 -1.10631E+02 -1.24056E+01
 -1.03500E+02 -3.79311E+01 -9.02175E+01 -6.06191E+01 -7.17745E+01 -7.89786E+01 -4.95186E+01 -9.18419E+01
 -2.50531E+01 -9.84478E+01 -1.17680E-01 -9.84939E+01 +2.35412E+01 -9.21551E+01 +4.42987E+01 -8.00654E+01
 +6.07708E+01 -6.32665E+01 +7.19142E+01 -4.31249E+01 +7.70996E+01 -2.12268E+01 +7.61537E+01 +7.43832E-01
 +6.93662E+01 +2.11329E+01 +5.74615E+01 +3.84407E+01 +4.15379E+01 +5.14335E+01 +2.29790E+01 +5.92338E+01
 +3.34379E+00 +6.13825E+01 -1.57551E+01 +5.78688E+01 -3.27768E+01 +4.91248E+01 -4.63700E+01 +3.59873E+01
 -5.54763E+01 +1.96270E+01 -5.94092E+01 +1.45418E+00 -5.79036E+01 -1.69943E+01 -5.11330E+01 -3.41768E+01
 -3.96914E+01 -4.86683E+01 -2.45435E+01 -5.92711E+01 -6.94581E+00 -6.51086E+01 +1.16544E+01 -6.56916E+01
 +2.97347E+01 -6.09555E+01 +4.58183E+01 -5.12634E+01 +5.85904E+01 -3.73753E+01 +6.70024E+01 -2.03876E+01
 +7.03539E+01 -1.64456E+00 +6.83476E+01 +1.73675E+01 +6.11123E+01 +3.51382E+01 +4.91930E+01 +5.02526E+01
 +3.35076E+01 +6.15024E+01 +1.52749E+01 +6.79818E+01 -4.08100E+00 +6.91587E+01 -2.30424E+01 +6.49172E+01
 -4.01171E+01 +5.55676E+01 -5.39553E+01 +4.18229E+01 -6.34556E+01 +2.47434E+01 -6.78523E+01 +5.65544E+00
 -6.67752E+01 -1.39523E+01 -6.02805E+01 -3.25441E+01 -4.88468E+01 -4.86567E+01 -3.33398E+01 -6.10134E+01
 -1.49457E+01 -6.86239E+01 +4.91969E+00 -7.08620E+01 +2.47199E+01 -6.75153E+01 +4.29166E+01 -5.88026E+01
 +5.80883E+01 -4.53587E+01 +6.90407E+01 -2.81863E+01 +7.48992E+01 -8.58001E+00 +7.51776E+01 +1.19728E+01
 +6.98160E+01 +3.19060E+01 +5.91870E+01 +4.96945E+01 +4.40681E+01 +6.39719E+01 +2.55828E+01 +7.36352E+01
 +5.11522E+00 +7.79305E+01 -1.57950E+01 +7.65109E+01 -3.55705E+01 +6.94638E+01 -5.27165E+01 +5.73052E+01
 -6.59352E+01 +4.09406E+01 -7.42248E+01 +2.15964E+01 -7.69564E+01 +7.27048E-01 -7.39220E+01 -2.00964E+01
 -6.53503E+01 -3.93051E+01 -5.18899E+01 -5.54522E+01 -3.45593E+01 -6.73230E+01 -1.46695E+01 -7.40268E+01
 +6.27562E+00 -7.50648E+01 +2.66941E+01 -7.03674E+01 +4.50462E+01 -6.02989E+01 +5.99510E+01 -4.56294E+01
 +7.02915E+01 -2.74753E+01 +7.52983E+01 -7.21379E+00 +7.46078E+01 +1.36222E+01 +6.82885E+01 +3.34611E+01
 +5.68346E+01 +5.08122E+01 +4.11268E+01 +6.43788E+01 +2.23644E+01 +7.31560E+01 +1.97260E+00 +7.65063E+01
 -1.85069E+01 +7.42064E+01 -3.75339E+01 +6.64629E+01 -5.36867E+01 +5.38943E+01 -6.57707E+01 +3.74819E+01
 -7.29081E+01 +1.84934E+01 -7.46036E+01 -1.61534E+00 -7.07802E+01 -2.13132E+01 -6.17834E+01 -3.91111E+01
 -4.83519E+01 -5.36760E+01 -3.15592E+01 -6.39326E+01 -1.27294E+01 -6.91445E+01 +6.66662E+00 -6.89694E+01
 +2.51248E+01 -6.34833E+01 +4.12245E+01 -5.31724E+01 +5.37378E+01 -3.88939E+01 +6.17237E+01 -2.18074E+01
 +6.45998E+01 -3.28421E+00 +6.21860E+01 +1.52005E+01 +5.47168E+01 +3.21824E+01 +4.28216E+01 +4.63216E+01
 +2.74745E+01 +5.65072E+01 +9.91756E+00 +6.19425E+01 -8.43687E+00 +6.22065E+01 -2.61165E+01 +5.72864E+01
 -4.17041E+01 +4.75771E+01 -5.39478E+01 +3.38507E+01 -6.18588E+01 +1.71954E+01 -6.47882E+01 -1.06892E+00
 -6.24778E+01 -1.94942E+01 -5.50799E+01 -3.66166E+01 -4.31463E+01 -5.10704E+01 -2.75851E+01 -6.16945E+01
 -9.59138E+00 -6.76227E+01 +9.44594E+00 -6.83515E+01 +2.80509E+01 -6.37798E+01 +4.47749E+01 -5.42170E+01
 +5.83085E+01 -4.03605E+01 +6.75831E+01 -2.32420E+01 +7.18535E+01 -4.14894E+00 +7.07560E+01 +1.54742E+01
 +6.43370E+01 +3.41369E+01 +5.30502E+01 +5.04164E+01 +3.77223E+01 +6.30676E+01 +1.94903E+01 +7.11181E+01
 -2.85321E-01 +7.39430E+01 -2.01241E+01 +7.13130E+01 -3.85388E+01 +6.34121E+01 -5.41486E+01 +5.08235E+01
 -6.57844E+01 +3.44850E+01 -7.25778E+01 +1.56180E+01 -7.40268E+01 -4.36640E+00 -7.00336E+01 -2.39747E+01
 -6.09114E+01 -4.17447E+01 -4.73596E+01 -5.63565E+01 -3.04103E+01 -6.67331E+01 -1.13482E+01 -7.21209E+01
 +8.38765E+00 -7.21469E+01 +2.73137E+01 -6.68451E+01 +4.40155E+01 -5.66532E+01 +5.72547E+01 -4.23770E+01
 +6.60636E+01 -2.51277E+01 +6.98168E+01 -6.23565E+00 +6.82787E+01 +1.28521E+01 +6.16187E+01 +3.06835E+01
 +5.03966E+01 +4.59125E+01 +3.55180E+01 +5.74017E+01 +1.81628E+01 +6.43092E+01 -3.07058E-01 +6.61513E+01
 -1.84530E+01 +6.28382E+01 -3.48715E+01 +5.46792E+01 -4.83020E+01 +4.23568E+01 -5.77238E+01 +2.68722E+01
 -6.24342E+01 +9.46631E+00 -6.21016E+01 -8.47711E+00 -5.67895E+01 -2.55397E+01 -4.69505E+01 -4.03787E+01
 -3.33897E+01 -5.18309E+01 -1.72009E+01 -5.90030E+01 +3.19083E-01 -6.13402E+01 +1.77721E+01 -5.86686E+01
 +3.37677E+01 -5.12083E+01 +4.70315E+01 -3.95555E+01 +5.65047E+01 -2.46356E+01 +6.14260E+01 -7.63094E+00
 +6.13912E+01 +1.01115E+01 +5.63846E+01 +2.71852E+01 +4.67804E+01 +4.22332E+01 +3.33138E+01 +5.40545E+01
 +1.70241E+01 +6.16967E+01 -8.25397E-01 +6.45311E+01 -1.88456E+01 +6.23016E+01 -3.56288E+01 +5.51452E+01
 -4.98577E+01 +4.35822E+01 -6.04077E+01 +2.84766E+01 -6.64342E+01 +1.09701E+01 -6.74379E+01 -7.60551E+00
 -6.33049E+01 -2.58305E+01 -5.43151E+01 -4.23065E+01 -4.11225E+01 -5.57638E+01 -2.47051E+01 -6.51593E+01
 -6.29043E+00 -6.97567E+01 +1.27377E+01 -6.91835E+01 +3.09451E+01 -6.34599E+01 +4.69568E+01 -5.29977E+01
 +5.95620E+01 -3.85693E+01 +6.78063E+01 -2.12488E+01 +7.10650E+01 -2.33039E+00 +6.90901E+01 +1.67702E+01
 +6.20296E+01 +3.46236E+01 +5.04156E+01 +4.98954E+01 +3.51236E+01 +6.14478E+01 +1.73057E+01 +6.84254E+01
 -1.69779E+00 +7.03203E+01 -2.04603E+01 +6.70097E+01 -3.75778E+01 +5.87644E+01 -5.17754E+01 +4.62274E+01
 -6.20039E+01 +3.03637E+01 -6.75189E+01 +1.23859E+01 -6.79367E+01 -6.33851E+00 -6.32619E+01 -2.43925E+01
 -5.38856E+01 -4.04171E+01 -4.05541E+01 -5.32153E+01 -2.43106E+01 -6.18422E+01 -6.41380E+00 -6.56766E+01
 +1.17590E+01 -6.44666E+01 +2.88177E+01 -5.83474E+01 +4.34664E+01 -4.78292E+01 +5.46020E+01 -3.37560E+01
 +6.13978E+01 -1.72394E+01 +6.33660E+01 +4.27806E-01 +6.03935E+01 +1.78724E+01 +5.27487E+01 +3.37466E+01
 +4.10592E+01 +4.68317E+01 +2.62619E+01 +5.61316E+01 +9.52884E+00 +6.09486E+01 -7.82403E+00 +6.09364E+01
 -2.44393E+01 +5.61247E+01 -3.90232E+01 +4.69162E+01 -5.04459E+01 +3.40535E+01 -5.78282E+01 +1.85602E+01
 -6.06091E+01 +1.66100E+00 -5.85878E+01 -1.53144E+01 -5.19391E+01 -3.10347E+01 -4.11978E+01 -4.42705E+01
