 Created: 19-Jan-2021
 $NMID
 ID='D:\BASISSIMULATI'
 FMTDAT='(8E13.5)'
 VOLUME=   1.00000E+00
 TRAMP=   1.00000E+00
 $END
 +1.04120E+02 +1.10077E+01 +9.62876E+01 +2.81089E+01 +7.44059E+01 +4.28810E+01 +4.33849E+01 +5.47752E+01
 +1.01898E+01 +6.27333E+01 -1.81686E+01 +6.52507E+01 -3.65531E+01 +6.09596E+01 -4.29060E+01 +4.94735E+01
 -3.84068E+01 +3.20738E+01 -2.66391E+01 +1.18425E+01 -1.21678E+01 -6.93151E+00 +9.12672E-01 -1.99353E+01
 +9.96480E+00 -2.41941E+01 +1.40858E+01 -1.90940E+01 +1.37461E+01 -6.65340E+00 +1.00961E+01 +9.08534E+00
 +4.32358E+00 +2.33359E+01 -2.66631E+00 +3.20542E+01 -1.01907E+01 +3.30989E+01 -1.75095E+01 +2.66768E+01
 -2.35935E+01 +1.49782E+01 -2.71633E+01 +1.21524E+00 -2.70513E+01 -1.15160E+01 -2.27354E+01 -2.11127E+01
 -1.47642E+01 -2.68053E+01 -4.80676E+00 -2.89409E+01 +4.78327E+00 -2.84277E+01 +1.17682E+01 -2.61675E+01
 +1.48785E+01 -2.27469E+01 +1.43444E+01 -1.84833E+01 +1.18452E+01 -1.37074E+01 +9.85533E+00 -9.03841E+00
 +1.06317E+01 -5.41473E+00 +1.52549E+01 -3.78869E+00 +2.31332E+01 -4.60053E+00 +3.21911E+01 -7.30482E+00
 +3.96762E+01 -1.02480E+01 +4.32507E+01 -1.10639E+01 +4.19084E+01 -7.51597E+00 +3.63288E+01 +1.51753E+00
 +2.85212E+01 +1.53378E+01 +2.09203E+01 +3.13526E+01 +1.53321E+01 +4.57556E+01 +1.21929E+01 +5.47624E+01
 +1.04665E+01 +5.59569E+01 +8.22104E+00 +4.92178E+01 +3.62536E+00 +3.68361E+01 -4.08223E+00 +2.27382E+01
 -1.40923E+01 +1.10914E+01 -2.42247E+01 +4.81583E+00 -3.17580E+01 +4.57963E+00 -3.45364E+01 +8.66327E+00
 -3.18763E+01 +1.37370E+01 -2.48795E+01 +1.62338E+01 -1.60113E+01 +1.37710E+01 -8.12388E+00 +6.06490E+00
 -3.33845E+00 -4.99984E+00 -2.26202E+00 -1.61395E+01 -3.86472E+00 -2.39442E+01 -6.05578E+00 -2.61371E+01
 -6.69468E+00 -2.23385E+01 -4.58898E+00 -1.40809E+01 -4.26514E-02 -4.13418E+00 +5.28051E+00 +4.53254E+00
 +9.11314E+00 +9.71848E+00 +9.62712E+00 +1.05316E+01 +6.30898E+00 +7.36858E+00 +2.91050E-01 +1.45343E+00
 -6.00227E+00 -5.77396E+00 -9.74273E+00 -1.31111E+01 -8.75219E+00 -1.97100E+01 -2.29853E+00 -2.48868E+01
 +8.66460E+00 -2.78275E+01 +2.18682E+01 -2.74520E+01 +3.45113E+01 -2.26057E+01 +4.41130E+01 -1.25611E+01
 +4.91001E+01 +2.38682E+00 +4.89569E+01 +2.05459E+01 +4.39814E+01 +3.89340E+01 +3.48702E+01 +5.39380E+01
 +2.24010E+01 +6.23437E+01 +7.38678E+00 +6.23704E+01 -9.10765E+00 +5.42986E+01 -2.54789E+01 +4.04190E+01
 -3.94949E+01 +2.42939E+01 -4.85963E+01 +9.59815E+00 -5.05923E+01 -1.01965E+00 -4.45264E+01 -6.62357E+00
 -3.13423E+01 -7.98601E+00 -1.39948E+01 -6.94202E+00 +3.16240E+00 -5.41763E+00 +1.55915E+01 -4.57142E+00
 +1.99979E+01 -4.41854E+00 +1.54492E+01 -4.07541E+00 +3.74349E+00 -2.47385E+00 -1.11495E+01 +8.23658E-01
 -2.44035E+01 +5.12314E+00 -3.19379E+01 +8.68455E+00 -3.17245E+01 +9.39224E+00 -2.43289E+01 +5.73111E+00
 -1.25136E+01 -2.37012E+00 -9.35353E-02 -1.32319E+01 +9.49048E+00 -2.38388E+01 +1.43250E+01 -3.08536E+01
 +1.44909E+01 -3.18430E+01 +1.17254E+01 -2.62224E+01 +8.48913E+00 -1.55269E+01 +6.86862E+00 -2.88750E+00
 +7.77834E+00 +8.08992E+00 +1.07574E+01 +1.46035E+01 +1.43814E+01 +1.55972E+01 +1.70428E+01 +1.20150E+01
 +1.77140E+01 +6.30215E+00 +1.63489E+01 +1.38993E+00 +1.37694E+01 -4.11328E-01 +1.11352E+01 +1.82401E+00
 +9.28456E+00 +7.47746E+00 +8.27921E+00 +1.48256E+01 +7.37737E+00 +2.18279E+01 +5.43942E+00 +2.68950E+01
 +1.56149E+00 +2.93234E+01 -4.38012E+00 +2.92660E+01 -1.15471E+01 +2.73372E+01 -1.84191E+01 +2.41123E+01
 -2.34128E+01 +1.98043E+01 -2.55503E+01 +1.42818E+01 -2.48617E+01 +7.39623E+00 -2.23255E+01 -5.88883E-01
 -1.93703E+01 -8.74034E+00 -1.71714E+01 -1.55647E+01 -1.60781E+01 -1.94944E+01 -1.54565E+01 -1.95565E+01
 -1.40379E+01 -1.59103E+01 -1.06259E+01 -9.96544E+00 -4.83175E+00 -3.96641E+00 +2.52175E+00 -1.67325E-01
 +9.55299E+00 +7.36120E-02 +1.40086E+01 -3.11266E+00 +1.42124E+01 -8.10906E+00 +9.86648E+00 -1.24500E+01
 +2.33556E+00 -1.38550E+01 -5.74535E+00 -1.12336E+01 -1.14139E+01 -5.22744E+00 -1.25027E+01 +1.96623E+00
 -8.48067E+00 +7.44541E+00 -6.60002E-01 +8.79905E+00 +8.32653E+00 +5.15799E+00 +1.55657E+01 -2.34131E+00
 +1.89936E+01 -1.08897E+01 +1.81489E+01 -1.70202E+01 +1.42439E+01 -1.79094E+01 +9.53840E+00 -1.24522E+01
 +6.29453E+00 -1.68812E+00 +5.76622E+00 +1.15762E+01 +7.65398E+00 +2.37841E+01 +1.02527E+01 +3.18711E+01
 +1.12207E+01 +3.42462E+01 +8.63428E+00 +3.11583E+01 +1.87693E+00 +2.43558E+01 -8.01270E+00 +1.62421E+01
 -1.86723E+01 +8.91329E+00 -2.72801E+01 +3.47939E+00 -3.15858E+01 -8.80017E-02 -3.06901E+01 -2.58910E+00
 -2.52741E+01 -4.94528E+00 -1.72258E+01 -7.60526E+00 -8.86071E+00 -1.02919E+01 -2.08671E+00 -1.21885E+01
 +2.14507E+00 -1.24432E+01 +3.91765E+00 -1.07146E+01 +3.99329E+00 -7.46948E+00 +3.25530E+00 -3.86970E+00
 +2.24456E+00 -1.29033E+00 +1.01057E+00 -6.97265E-01 -6.82518E-01 -2.18735E+00 -2.94659E+00 -4.92278E+00
 -5.41684E+00 -7.50653E+00 -7.18807E+00 -8.63363E+00 -7.12149E+00 -7.71475E+00 -4.40304E+00 -5.17161E+00
 +9.16749E-01 -2.25037E+00 +7.69489E+00 -4.23477E-01 +1.39508E+01 -6.49825E-01 +1.75565E+01 -2.84225E+00
 +1.70998E+01 -5.81004E+00 +1.25496E+01 -7.73369E+00 +5.40621E+00 -6.98315E+00 -1.77667E+00 -2.92050E+00
 -6.34413E+00 +3.68490E+00 -6.59513E+00 +1.08448E+01 -2.50450E+00 +1.60996E+01 +4.20465E+00 +1.75275E+01
 +1.06932E+01 +1.45891E+01 +1.41052E+01 +8.43157E+00 +1.26957E+01 +1.49730E+00 +6.52833E+00 -3.42544E+00
 -2.54180E+00 -4.33019E+00 -1.15949E+01 -8.32332E-01 -1.77833E+01 +5.63326E+00 -1.94150E+01 +1.23491E+01
 -1.65468E+01 +1.63757E+01 -1.08627E+01 +1.57069E+01 -4.90779E+00 +1.00552E+01 -1.01694E+00 +9.56859E-01
 -3.88191E-01 -8.83362E+00 -2.67678E+00 -1.63967E+01 -6.25246E+00 -1.97182E+01 -8.97936E+00 -1.83524E+01
 -9.16416E+00 -1.34416E+01 -6.26407E+00 -7.12791E+00 -1.06865E+00 -1.64108E+00 +4.69146E+00 +1.54150E+00
 +9.10815E+00 +2.12780E+00 +1.08822E+01 +9.00506E-01 +9.79490E+00 -8.28048E-01 +6.68556E+00 -1.90718E+00
 +2.98551E+00 -1.85771E+00 +5.18514E-02 -9.84315E-01 -1.38269E+00 -7.74444E-02 -1.40368E+00 +1.10749E-01
 -6.96088E-01 -6.67098E-01 -5.66065E-02 -1.98664E+00 +9.48976E-02 -2.96764E+00 -5.18825E-02 -2.75878E+00
 +1.59598E-01 -1.03838E+00 +1.41099E+00 +1.73572E+00 +3.90340E+00 +4.47442E+00 +7.06644E+00 +5.95456E+00
 +9.66449E+00 +5.43658E+00 +1.02909E+01 +3.09930E+00 +8.04224E+00 +5.87245E-02 +3.05607E+00 -2.07521E+00
 -3.36663E+00 -1.93005E+00 -9.15952E+00 +9.33881E-01 -1.22795E+01 +5.69530E+00 -1.15654E+01 +1.04948E+01
 -7.29103E+00 +1.31526E+01 -1.14687E+00 +1.20960E+01 +4.37764E+00 +7.10097E+00 +6.98084E+00 -4.90343E-01
 +5.50237E+00 -8.20132E+00 +4.39559E-01 -1.33528E+01 -6.20562E+00 -1.41241E+01 -1.17043E+01 -1.03051E+01
 -1.36946E+01 -3.41652E+00 -1.11440E+01 +3.86388E+00 -4.78351E+00 +8.74634E+00 +3.16960E+00 +9.42239E+00
 +9.88554E+00 +5.76242E+00 +1.30344E+01 -6.63164E-01 +1.16823E+01 -7.23980E+00 +6.61196E+00 -1.13647E+01
 -4.69410E-02 -1.14670E+01 -5.70748E+00 -7.58232E+00 -8.35524E+00 -1.26508E+00 -7.29501E+00 +5.09656E+00
 -3.32528E+00 +9.25792E+00 +1.69805E+00 +9.97478E+00 +5.69214E+00 +7.39944E+00 +7.20228E+00 +2.88639E+00
 +5.92497E+00 -1.66757E+00 +2.70565E+00 -4.63626E+00 -9.43905E-01 -5.27580E+00 -3.55960E+00 -3.89445E+00
 -4.33875E+00 -1.55158E+00 -3.39127E+00 +5.32426E-01 -1.54912E+00 +1.55829E+00 +1.36801E-01 +1.45249E+00
 +9.46441E-01 +7.75306E-01 +8.15565E-01 +3.11996E-01 +2.88448E-01 +5.77799E-01 +1.41407E-01 +1.50119E+00
 +8.84869E-01 +2.45225E+00 +2.41142E+00 +2.60351E+00 +3.98377E+00 +1.43690E+00 +4.58538E+00 -8.71939E-01
 +3.46973E+00 -3.41037E+00 +6.33458E-01 -4.88287E+00 -3.04054E+00 -4.22053E+00 -6.07683E+00 -1.16483E+00
 -7.03647E+00 +3.46653E+00 -5.20862E+00 +7.99420E+00 -1.03991E+00 +1.05201E+01 +3.92535E+00 +9.74147E+00
 +7.61069E+00 +5.58137E+00 +8.26513E+00 -6.62008E-01 +5.25233E+00 -6.74766E+00 -5.81671E-01 -1.03557E+01
 -7.14976E+00 -1.00356E+01 -1.19061E+01 -5.83835E+00 -1.28641E+01 +6.48593E-01 -9.43169E+00 +6.89852E+00
 -2.70765E+00 +1.04448E+01 +4.90004E+00 +9.87507E+00 +1.05922E+01 +5.40846E+00 +1.22664E+01 -1.18641E+00
 +9.33331E+00 -7.30338E+00 +2.93206E+00 -1.05488E+01 -4.53878E+00 -9.69817E+00 -1.03754E+01 -5.17074E+00
 -1.26141E+01 +1.16550E+00 -1.07453E+01 +6.76438E+00 -5.82041E+00 +9.42156E+00 +6.52054E-02 +8.12325E+00
 +4.67348E+00 +3.38788E+00 +6.52134E+00 -3.01383E+00 +5.40725E+00 -8.81404E+00 +2.37309E+00 -1.21436E+01
 -8.44677E-01 -1.21957E+01 -2.60832E+00 -9.40481E+00 -2.06376E+00 -5.11040E+00 +5.66429E-01 -8.95295E-01
 +4.17623E+00 +2.08654E+00 +7.33126E+00 +3.50008E+00 +8.91076E+00 +3.79462E+00 +8.54299E+00 +3.80713E+00
 +6.65610E+00 +4.22981E+00 +4.15708E+00 +5.21664E+00 +1.92528E+00 +6.31975E+00 +3.84362E-01 +6.77370E+00
 -6.36337E-01 +5.96903E+00 -1.69446E+00 +3.86130E+00 -3.30334E+00 +1.09240E+00 -5.51569E+00 -1.25598E+00
 -7.75749E+00 -2.17166E+00 -9.02502E+00 -1.24010E+00 -8.37307E+00 +1.07654E+00 -5.46532E+00 +3.56987E+00
 -9.06009E-01 +4.79604E+00 +3.84484E+00 +3.75077E+00 +6.98422E+00 +3.99505E-01 +7.11390E+00 -4.19926E+00
 +3.90136E+00 -8.26681E+00 -1.65572E+00 -1.00390E+01 -7.51597E+00 -8.55565E+00 -1.13514E+01 -4.15317E+00
 -1.14823E+01 +1.57557E+00 -7.60161E+00 +6.36852E+00 -9.71341E-01 +8.20174E+00 +6.01567E+00 +6.14133E+00
 +1.07519E+01 +7.74096E-01 +1.14462E+01 -5.97986E+00 +7.85094E+00 -1.16117E+01 +1.38380E+00 -1.40258E+01
 -5.41014E+00 -1.23870E+01 -9.84093E+00 -7.45639E+00 -1.01049E+01 -1.27623E+00 -5.95238E+00 +3.67140E+00
 +1.26481E+00 +5.48215E+00 +9.16517E+00 +3.60463E+00 +1.52760E+01 -9.43098E-01 +1.79469E+01 -5.99778E+00
 +1.68743E+01 -9.13256E+00 +1.30530E+01 -8.62943E+00 +8.21718E+00 -4.14887E+00 +4.04462E+00 +3.16044E+00
 +1.47855E+00 +1.11305E+01 +4.48825E-01 +1.74053E+01 +7.99724E-02 +2.02839E+01 -7.46368E-01 +1.92437E+01
 -2.75817E+00 +1.49694E+01 -5.88887E+00 +8.93162E+00 -9.28242E+00 +2.74178E+00 -1.16908E+01 -2.41990E+00
 -1.20655E+01 -6.07290E+00 -1.00589E+01 -8.33629E+00 -6.20374E+00 -9.57480E+00 -1.69101E+00 -1.00170E+01
 +2.14126E+00 -9.56453E+00 +4.36461E+00 -7.89451E+00 +4.80286E+00 -4.78933E+00 +4.00860E+00 -4.98362E-01
 +2.89889E+00 +4.09605E+00 +2.23980E+00 +7.64706E+00 +2.24125E+00 +8.81839E+00 +2.46885E+00 +6.87334E+00
