 Created: 19-Jan-2021
 $NMID
 ID='D:\BASISSIMULATI'
 FMTDAT='(8E13.5)'
 VOLUME=   1.00000E+00
 TRAMP=   1.00000E+00
 $END
 +9.44797E+01 +9.44304E+00 +8.64027E+01 +2.87545E+01 +6.32347E+01 +4.43965E+01 +3.02190E+01 +5.45401E+01
 -5.14347E+00 +5.78828E+01 -3.51685E+01 +5.38417E+01 -5.40306E+01 +4.28229E+01 -5.91469E+01 +2.64306E+01
 -5.15239E+01 +7.43089E+00 -3.50462E+01 -1.06600E+01 -1.50331E+01 -2.43460E+01 +3.40859E+00 -3.10897E+01
 +1.66984E+01 -3.01012E+01 +2.34089E+01 -2.26602E+01 +2.41326E+01 -1.17841E+01 +2.07846E+01 -1.28799E+00
 +1.56961E+01 +5.47545E+00 +1.08523E+01 +6.76145E+00 +7.49370E+00 +3.03665E+00 +6.10376E+00 -3.20550E+00
 +6.64035E+00 -8.37843E+00 +8.79900E+00 -9.16105E+00 +1.21448E+01 -3.78534E+00 +1.60739E+01 +7.22886E+00
 +1.96988E+01 +2.11746E+01 +2.18170E+01 +3.40659E+01 +2.10946E+01 +4.20216E+01 +1.64773E+01 +4.26137E+01
 +7.69799E+00 +3.56869E+01 -4.34297E+00 +2.33571E+01 -1.75472E+01 +9.21140E+00 -2.90382E+01 -2.97215E+00
 -3.59511E+01 -1.04968E+01 -3.63397E+01 -1.25452E+01 -2.98667E+01 -1.02356E+01 -1.79960E+01 -5.96476E+00
 -3.58263E+00 -2.33283E+00 +1.00138E+01 -1.09108E+00 +1.99778E+01 -2.51617E+00 +2.48605E+01 -5.42385E+00
 +2.48732E+01 -7.77132E+00 +2.15584E+01 -7.56980E+00 +1.69910E+01 -3.72634E+00 +1.28524E+01 +3.51113E+00
 +9.76713E+00 +1.26499E+01 +7.17530E+00 +2.15089E+01 +3.78649E+00 +2.79802E+01 -1.59430E+00 +3.06850E+01
 -9.24222E+00 +2.92903E+01 -1.80744E+01 +2.44198E+01 -2.58275E+01 +1.72669E+01 -2.98234E+01 +9.12951E+00
 -2.80389E+01 +1.08177E+00 -2.00517E+01 -6.10463E+00 -7.45718E+00 -1.18256E+01 +6.45191E+00 -1.54520E+01
 +1.76714E+01 -1.62636E+01 +2.27981E+01 -1.36217E+01 +2.01958E+01 -7.34403E+00 +1.05844E+01 +1.89052E+00
 -3.16610E+00 +1.23497E+01 -1.69635E+01 +2.14577E+01 -2.68088E+01 +2.64385E+01 -3.00325E+01 +2.52264E+01
 -2.60334E+01 +1.73211E+01 -1.63014E+01 +4.23183E+00 -3.77393E+00 -1.07303E+01 +8.19046E+00 -2.33231E+01
 +1.68300E+01 -2.96621E+01 +2.06470E+01 -2.74978E+01 +1.95554E+01 -1.70266E+01 +1.45562E+01 -9.23630E-01
 +7.16355E+00 +1.64416E+01 -1.14288E+00 +3.03532E+01 -9.22844E+00 +3.71996E+01 -1.63183E+01 +3.55316E+01
 -2.18168E+01 +2.63779E+01 -2.51200E+01 +1.27420E+01 -2.55962E+01 -1.49920E+00 -2.27920E+01 -1.28763E+01
 -1.67798E+01 -1.93267E+01 -8.44676E+00 -2.05919E+01 +4.80734E-01 -1.79420E+01 +7.78697E+00 -1.34118E+01
 +1.14306E+01 -8.90449E+00 +1.02966E+01 -5.52980E+00 +4.72983E+00 -3.40613E+00 -3.40704E+00 -1.94063E+00
 -1.12418E+01 -3.91222E-01 -1.58321E+01 +1.59000E+00 -1.52145E+01 +3.70029E+00 -9.16873E+00 +5.13188E+00
 +6.09008E-01 +5.03608E+00 +1.10199E+01 +3.06668E+00 +1.85989E+01 -2.78831E-01 +2.07037E+01 -3.71270E+00
 +1.64227E+01 -5.61710E+00 +6.86880E+00 -4.73227E+00 -5.24119E+00 -7.77420E-01 -1.65530E+01 +5.27883E+00
 -2.42157E+01 +1.14444E+01 -2.67712E+01 +1.53668E+01 -2.44790E+01 +1.51866E+01 -1.89914E+01 +1.02488E+01
 -1.25533E+01 +1.38879E+00 -7.07340E+00 -9.32223E+00 -3.44650E+00 -1.92708E+01 -1.38016E+00 -2.61615E+01
 +2.42509E-01 -2.87102E+01 +2.65889E+00 -2.69190E+01 +6.51122E+00 -2.18590E+01 +1.14399E+01 -1.50946E+01
 +1.61612E+01 -8.02327E+00 +1.89888E+01 -1.42222E+00 +1.85653E+01 +4.61493E+00 +1.44808E+01 +1.03588E+01
 +7.50866E+00 +1.59294E+01 -6.44676E-01 +2.08690E+01 -7.96882E+00 +2.40475E+01 -1.28890E+01 +2.39927E+01
 -1.48043E+01 +1.95357E+01 -1.42043E+01 +1.04972E+01 -1.23278E+01 -1.90794E+00 -1.05264E+01 -1.51761E+01
 -9.62152E+00 -2.61577E+01 -9.54068E+00 -3.20410E+01 -9.39365E+00 -3.13177E+01 -7.95190E+00 -2.43594E+01
 -4.31400E+00 -1.33615E+01 +1.54611E+00 -1.64859E+00 +8.60415E+00 +7.41879E+00 +1.50802E+01 +1.15442E+01
 +1.90939E+01 +1.02027E+01 +1.94114E+01 +4.70820E+00 +1.59663E+01 -2.36272E+00 +9.92671E+00 -8.15468E+00
 +3.26876E+00 -1.05447E+01 -1.97668E+00 -8.81012E+00 -4.49671E+00 -3.73389E+00 -4.17052E+00 +2.84228E+00
 -2.05002E+00 +8.79508E+00 +1.42352E-01 +1.24952E+01 +7.85549E-01 +1.32810E+01 -9.23761E-01 +1.14818E+01
 -4.61211E+00 +8.04451E+00 -8.87747E+00 +3.98333E+00 -1.18806E+01 -7.36642E-02 -1.21286E+01 -4.03319E+00
 -9.11823E+00 -8.13570E+00 -3.56820E+00 -1.25348E+01 +2.85799E+00 -1.68986E+01 +8.21976E+00 -2.02686E+01
 +1.10748E+01 -2.12935E+01 +1.10344E+01 -1.87722E+01 +8.86652E+00 -1.22819E+01 +6.10559E+00 -2.60100E+00
 +4.34167E+00 +8.29969E+00 +4.49545E+00 +1.77559E+01 +6.39400E+00 +2.32482E+01 +8.83359E+00 +2.32749E+01
 +1.01080E+01 +1.79208E+01 +8.78101E+00 +8.88304E+00 +4.37502E+00 -1.07595E+00 -2.32260E+00 -9.05719E+00
 -9.47441E+00 -1.29933E+01 -1.48531E+01 -1.22965E+01 -1.66839E+01 -7.95350E+00 -1.43284E+01 -2.05060E+00
 -8.53530E+00 +3.06774E+00 -1.15615E+00 +5.66831E+00 +5.55203E+00 +5.19297E+00 +9.75544E+00 +2.32016E+00
 +1.06712E+01 -1.46101E+00 +8.75405E+00 -4.55316E+00 +5.38801E+00 -5.91788E+00 +2.23621E+00 -5.43039E+00
 +5.34305E-01 -3.79386E+00 +6.26747E-01 -2.08436E+00 +1.92804E+00 -1.15750E+00 +3.30166E+00 -1.20156E+00
 +3.66734E+00 -1.64774E+00 +2.55213E+00 -1.47968E+00 +3.32393E-01 +2.01908E-01 -1.94319E+00 +3.62622E+00
 -3.06833E+00 +8.08091E+00 -2.29497E+00 +1.20731E+01 +2.37046E-01 +1.38838E+01 +3.46631E+00 +1.22955E+01
 +5.81013E+00 +7.18644E+00 +5.84237E+00 -2.78408E-01 +2.96255E+00 -7.96680E+00 -2.23982E+00 -1.35085E+01
 -8.10277E+00 -1.51588E+01 -1.24697E+01 -1.24561E+01 -1.35109E+01 -6.40876E+00 -1.04614E+01 +8.68939E-01
 -3.97518E+00 +6.93436E+00 +4.05977E+00 +9.90357E+00 +1.11801E+01 +9.10499E+00 +1.52288E+01 +5.25277E+00
 +1.51162E+01 +8.91630E-02 +1.11692E+01 -4.34316E+00 +4.94320E+00 -6.49559E+00 -1.41298E+00 -5.85723E+00
 -5.97330E+00 -3.04555E+00 -7.70509E+00 +5.63668E-01 -6.73859E+00 +3.48367E+00 -4.15515E+00 +4.75152E+00
 -1.41524E+00 +4.27991E+00 +3.08849E-01 +2.79016E+00 +6.04414E-01 +1.37958E+00 -9.87068E-02 +9.36795E-01
 -8.47684E-01 +1.68132E+00 -7.22812E-01 +3.04299E+00 +6.38421E-01 +3.93940E+00 +2.79978E+00 +3.32677E+00
 +4.68728E+00 +7.70491E-01 +5.08811E+00 -3.23429E+00 +3.26489E+00 -7.35776E+00 -5.97808E-01 -9.93066E+00
 -5.33347E+00 -9.64416E+00 -9.17540E+00 -6.15895E+00 -1.04422E+01 -3.53112E-01 -8.24955E+00 +5.91912E+00
 -2.94660E+00 +1.04838E+01 +3.92122E+00 +1.16688E+01 +1.01300E+01 +8.96379E+00 +1.35848E+01 +3.24879E+00
 +1.31022E+01 -3.50706E+00 +8.85813E+00 -8.96594E+00 +2.32100E+00 -1.12799E+01 -4.30182E+00 -9.75360E+00
 -8.88557E+00 -5.05758E+00 -1.01529E+01 +1.07885E+00 -8.08680E+00 +6.55836E+00 -3.84313E+00 +9.70489E+00
 +7.79207E-01 +9.83756E+00 +4.07928E+00 +7.41540E+00 +5.09708E+00 +3.72311E+00 +3.90467E+00 +2.57809E-01
 +1.44863E+00 -1.90732E+00 -9.59997E-01 -2.51147E+00 -2.26705E+00 -2.09572E+00 -2.12927E+00 -1.62355E+00
 -1.00675E+00 -1.92502E+00 +1.33392E-01 -3.23085E+00 +3.53564E-01 -5.01717E+00 -7.33997E-01 -6.23702E+00
 -2.71187E+00 -5.83634E+00 -4.49673E+00 -3.31825E+00 -4.82407E+00 +9.10252E-01 -2.86903E+00 +5.58553E+00
 +1.27615E+00 +9.03472E+00 +6.49642E+00 +9.85050E+00 +1.09940E+01 +7.51193E+00 +1.29575E+01 +2.67975E+00
 +1.12956E+01 -2.97808E+00 +6.13255E+00 -7.38225E+00 -1.15143E+00 -8.83297E+00 -8.36790E+00 -6.68180E+00
 -1.32942E+01 -1.61132E+00 -1.44744E+01 +4.59655E+00 -1.17356E+01 +9.71798E+00 -6.21884E+00 +1.19139E+01
 +8.01373E-02 +1.04027E+01 +5.07310E+00 +5.71940E+00 +7.33924E+00 -5.29330E-01 +6.58795E+00 -6.30270E+00
 +3.65756E+00 -9.89194E+00 +7.61122E-02 -1.05086E+01 -2.61363E+00 -8.47328E+00 -3.47565E+00 -4.95603E+00
 -2.49564E+00 -1.40510E+00 -4.77380E-01 +1.07548E+00 +1.40844E+00 +2.13221E+00 +2.20507E+00 +2.19094E+00
 +1.61420E+00 +2.11969E+00 +1.07301E-01 +2.69982E+00 -1.33861E+00 +4.16209E+00 -1.75238E+00 +6.01073E+00
 -6.86310E-01 +7.22529E+00 +1.50526E+00 +6.75514E+00 +3.76614E+00 +4.08326E+00 +4.78703E+00 -4.04897E-01
 +3.61308E+00 -5.43508E+00 +1.41418E-01 -9.26537E+00 -4.72265E+00 -1.03602E+01 -9.34129E+00 -8.04435E+00
 -1.19582E+01 -2.85771E+00 -1.14076E+01 +3.55396E+00 -7.62414E+00 +8.99223E+00 -1.73421E+00 +1.14993E+01
 +4.32551E+00 +1.00858E+01 +8.52108E+00 +5.10685E+00 +9.48721E+00 -1.86042E+00 +7.04177E+00 -8.59135E+00
 +2.24362E+00 -1.30134E+01 -3.02790E+00 -1.39214E+01 -6.80182E+00 -1.13399E+01 -7.76073E+00 -6.41052E+00
 -5.70857E+00 -8.76054E-01 -1.58502E+00 +3.61148E+00 +2.96267E+00 +6.07330E+00 +6.26076E+00 +6.45309E+00
 +7.25743E+00 +5.46140E+00 +5.87708E+00 +4.11823E+00 +2.95108E+00 +3.22006E+00 -2.22113E-01 +2.97715E+00
 -2.48048E+00 +2.97829E+00 -3.29630E+00 +2.48376E+00 -2.95427E+00 +8.93966E-01 -2.34187E+00 -1.84078E+00
 -2.45716E+00 -5.07812E+00 -3.86397E+00 -7.69580E+00 -6.34707E+00 -8.57927E+00 -8.93148E+00 -7.17183E+00
 -1.02686E+01 -3.83175E+00 -9.22797E+00 +1.88407E-01 -5.43893E+00 +3.16742E+00 +4.59257E-01 +3.59638E+00
 +6.97894E+00 +8.43463E-01 +1.23043E+01 -4.47951E+00 +1.49630E+01 -1.06233E+01 +1.43752E+01 -1.52690E+01
 +1.10525E+01 -1.63586E+01 +6.36607E+00 -1.28765E+01 +1.97902E+00 -5.28038E+00 -8.18769E-01 +4.58953E+00
 -1.59898E+00 +1.40956E+01 -9.05816E-01 +2.06653E+01 +4.99246E-02 +2.26131E+01 -2.23433E-02 +1.96259E+01
 -1.87917E+00 +1.27544E+01 -5.36553E+00 +3.94684E+00 -9.43513E+00 -4.66835E+00 -1.25602E+01 -1.14627E+01
 -1.33567E+01 -1.57006E+01 -1.11604E+01 -1.75321E+01 -6.31107E+00 -1.76452E+01 -2.59671E-02 -1.67752E+01
 +6.07882E+00 -1.53087E+01 +1.06146E+01 -1.31592E+01 +1.29266E+01 -9.95057E+00 +1.32677E+01 -5.39602E+00
 +1.25723E+01 +3.34410E-01 +1.19379E+01 +6.45790E+00 +1.20472E+01 +1.17373E+01 +1.27949E+01 +1.49071E+01
 +1.32927E+01 +1.51871E+01 +1.22640E+01 +1.26542E+01 +8.66681E+00 +8.28639E+00 +2.27845E+00 +3.63534E+00
 -6.01898E+00 +2.40382E-01 -1.43962E+01 -9.81285E-01 -2.06397E+01 -1.12163E-01 -2.29130E+01 +1.78937E+00
 -2.04232E+01 +3.12088E+00 -1.37288E+01 +2.41177E+00 -4.56721E+00 -1.02734E+00 +4.73606E+00 -6.74885E+00
 +1.20468E+01 -1.32588E+01 +1.60962E+01 -1.85278E+01 +1.68006E+01 -2.07250E+01 +1.51278E+01 -1.88886E+01
 +1.25888E+01 -1.32690E+01 +1.05797E+01 -5.21827E+00 +9.84255E+00 +3.32203E+00 +1.02502E+01 +1.05191E+01
 +1.09744E+01 +1.52500E+01 +1.09356E+01 +1.73726E+01 +9.32111E+00 +1.75752E+01 +5.94653E+00 +1.68967E+01
 +1.31649E+00 +1.61435E+01 -3.61656E+00 +1.54695E+01 -7.86348E+00 +1.43091E+01 -1.07786E+01 +1.16946E+01
