 Created: 19-Jan-2021
 $NMID
 ID='D:\BASISSIMULATI'
 FMTDAT='(8E13.5)'
 VOLUME=   1.00000E+00
 TRAMP=   1.00000E+00
 $END
 +3.46372E+01 +1.84590E+00 +2.81358E+01 +1.89075E+01 +1.30493E+01 +2.88090E+01 -4.60172E+00 +2.78883E+01
 -1.78287E+01 +1.68414E+01 -2.14886E+01 +4.13839E-01 -1.43384E+01 -1.45329E+01 +4.90482E-01 -2.17950E+01
 +1.67803E+01 -1.83180E+01 +2.77475E+01 -5.40739E+00 +2.87761E+01 +1.18216E+01 +1.92621E+01 +2.65227E+01
 +2.83500E+00 +3.28802E+01 -1.41255E+01 +2.84399E+01 -2.50675E+01 +1.50732E+01 -2.58985E+01 -1.80208E+00
 -1.66106E+01 -1.54223E+01 -1.25380E+00 -2.04038E+01 +1.37216E+01 -1.48960E+01 +2.20759E+01 -1.29922E+00
 +2.02884E+01 +1.47304E+01 +8.95502E+00 +2.65784E+01 -7.47766E+00 +2.93387E+01 -2.25248E+01 +2.17751E+01
 -3.02818E+01 +6.79415E+00 -2.77916E+01 -9.74962E+00 -1.62101E+01 -2.14248E+01 -3.11206E-01 -2.38080E+01
 +1.34581E+01 -1.62437E+01 +1.95801E+01 -2.07576E+00 +1.56753E+01 +1.27285E+01 +3.43310E+00 +2.19980E+01
 -1.20989E+01 +2.18411E+01 -2.45705E+01 +1.21925E+01 -2.88904E+01 -3.18798E+00 -2.32636E+01 -1.82546E+01
 -9.88689E+00 -2.71201E+01 +5.96369E+00 -2.64177E+01 +1.80747E+01 -1.66305E+01 +2.17961E+01 -1.86533E+00
 +1.58932E+01 +1.18284E+01 +3.01072E+00 +1.89042E+01 -1.14244E+01 +1.65417E+01 -2.14086E+01 +5.75554E+00
 -2.27795E+01 -9.04616E+00 -1.48731E+01 -2.18617E+01 -7.61318E-01 -2.75207E+01 +1.40129E+01 -2.37529E+01
 +2.36811E+01 -1.20749E+01 +2.45656E+01 +2.85220E+00 +1.65345E+01 +1.51212E+01 +3.02073E+00 +1.99600E+01
 -1.03909E+01 +1.56345E+01 -1.82268E+01 +4.11398E+00 -1.73207E+01 -9.75721E+00 -8.06269E+00 -2.02334E+01
 +5.79185E+00 -2.29845E+01 +1.86628E+01 -1.68217E+01 +2.54029E+01 -4.14492E+00 +2.33592E+01 +1.00540E+01
 +1.34130E+01 +2.02193E+01 -4.09203E-01 +2.24643E+01 -1.25829E+01 +1.61124E+01 -1.83167E+01 +3.93321E+00
 -1.54656E+01 -9.00627E+00 -5.36193E+00 -1.73999E+01 +7.75808E+00 -1.78347E+01 +1.84866E+01 -1.01401E+01
 +2.24280E+01 +2.57840E+00 +1.79525E+01 +1.52210E+01 +6.82045E+00 +2.27609E+01 -6.55997E+00 +2.22598E+01
 -1.69295E+01 +1.40228E+01 -2.02950E+01 +1.43888E+00 -1.55152E+01 -1.04131E+01 -4.72293E+00 -1.68205E+01
 +7.56958E+00 -1.53216E+01 +1.63099E+01 -6.66486E+00 +1.79385E+01 +5.53087E+00 +1.17992E+01 +1.62631E+01
 +3.66842E-01 +2.11697E+01 -1.17825E+01 +1.82708E+01 -1.98320E+01 +8.73432E+00 -2.06578E+01 -3.63091E+00
 -1.40595E+01 -1.39340E+01 -2.80254E+00 -1.81753E+01 +8.52808E+00 -1.48365E+01 +1.53895E+01 -5.45559E+00
 +1.51008E+01 +6.03116E+00 +7.89164E+00 +1.49000E+01 -3.22917E+00 +1.75442E+01 -1.37181E+01 +1.29051E+01
 -1.93395E+01 +2.86235E+00 -1.78590E+01 -8.55961E+00 -9.91211E+00 -1.68332E+01 +1.29051E+00 -1.87483E+01
 +1.12847E+01 -1.36791E+01 +1.61587E+01 -3.79755E+00 +1.41104E+01 +6.83811E+00 +6.13813E+00 +1.39363E+01
 -4.40276E+00 +1.46948E+01 -1.31795E+01 +8.90005E+00 -1.66332E+01 -1.02619E+00 -1.33928E+01 -1.10379E+01
 -4.79152E+00 -1.71103E+01 +5.70892E+00 -1.68521E+01 +1.39371E+01 -1.04375E+01 +1.66930E+01 -4.96166E-01
 +1.30130E+01 +8.97791E+00 +4.51908E+00 +1.42474E+01 -5.27345E+00 +1.33226E+01 -1.23946E+01 +6.72805E+00
 -1.40165E+01 -2.75003E+00 -9.56607E+00 -1.12184E+01 -9.15669E-01 -1.52543E+01 +8.40878E+00 -1.32681E+01
 +1.46678E+01 -6.10788E+00 +1.54089E+01 +3.32226E+00 +1.04252E+01 +1.12604E+01 +1.79811E+00 +1.46071E+01
 -6.97667E+00 +1.21527E+01 -1.24133E+01 +5.02594E+00 -1.24295E+01 -3.80105E+00 -7.15255E+00 -1.07371E+01
 +1.17431E+00 -1.30201E+01 +9.13040E+00 -9.80616E+00 +1.35091E+01 -2.46930E+00 +1.25964E+01 +5.99125E+00
 +6.82733E+00 +1.21830E+01 -1.43118E+00 +1.36848E+01 -8.86522E+00 +9.99515E+00 -1.25581E+01 +2.69327E+00
 -1.11475E+01 -5.23522E+00 -5.33707E+00 -1.06212E+01 +2.42940E+00 -1.13825E+01 +8.98256E+00 -7.33210E+00
 +1.17102E+01 -2.11022E-01 +9.58885E+00 +7.05033E+00 +3.55744E+00 +1.15303E+01 -3.90248E+00 +1.14834E+01
 -9.79354E+00 +7.01112E+00 -1.18120E+01 -2.11116E-02 -9.25173E+00 -6.77052E+00 -3.24839E+00 -1.05753E+01
 +3.71869E+00 -1.00133E+01 +8.84933E+00 -5.43893E+00 +1.01485E+01 +1.20206E+00 +7.20258E+00 +7.19030E+00
 +1.30381E+00 +1.01382E+01 -5.10969E+00 +8.93465E+00 -9.45761E+00 +4.15569E+00 -1.00514E+01 -2.21053E+00
 -6.74458E+00 -7.59499E+00 -9.49320E-01 -9.88901E+00 +4.96996E+00 -8.27307E+00 +8.66661E+00 -3.50767E+00
 +8.74738E+00 +2.41505E+00 +5.30053E+00 +7.10165E+00 -1.83045E-01 +8.72389E+00 -5.44651E+00 +6.73110E+00
 -8.39053E+00 +2.03099E+00 -7.90590E+00 -3.41729E+00 -4.28505E+00 -7.41742E+00 +9.38847E-01 -8.41941E+00
 +5.64318E+00 -6.11702E+00 +7.98141E+00 -1.52929E+00 +7.11009E+00 +3.44968E+00 +3.49113E+00 +6.83524E+00
 -1.33724E+00 +7.34630E+00 -5.41125E+00 +4.89113E+00 -7.13933E+00 +5.61394E-01 -5.92283E+00 -3.84596E+00
 -2.35775E+00 -6.57092E+00 +2.04774E+00 -6.59041E+00 +5.50932E+00 -3.99770E+00 +6.68829E+00 +7.82793E-02
 +5.20726E+00 +3.96393E+00 +1.76152E+00 +6.12982E+00 -2.20226E+00 +5.79396E+00 -5.09406E+00 +3.20166E+00
 -5.81994E+00 -5.16538E-01 -4.19578E+00 -3.83425E+00 -9.79539E-01 -5.45504E+00 +2.47417E+00 -4.81818E+00
 +4.78185E+00 -2.28727E+00 +5.08368E+00 +1.03923E+00 +3.36022E+00 +3.80191E+00 +3.97745E-01 +4.93528E+00
 -2.56681E+00 +4.07716E+00 -4.36265E+00 +1.67568E+00 -4.34818E+00 -1.23343E+00 -2.63712E+00 -3.47253E+00
 -9.79518E-03 -4.19974E+00 +2.43752E+00 -3.22485E+00 +3.74915E+00 -1.04554E+00 +3.48267E+00 +1.39435E+00
 +1.85248E+00 +3.11049E+00 -3.99489E-01 +3.47415E+00 -2.33665E+00 +2.43923E+00 -3.21636E+00 +5.19544E-01
 -2.77326E+00 -1.45794E+00 -1.28962E+00 -2.70840E+00 +5.60878E-01 -2.80099E+00 +2.01583E+00 -1.80334E+00
 +2.53869E+00 -2.12318E-01 +2.01561E+00 +1.28419E+00 +7.63018E-01 +2.10309E+00 -6.41690E-01 +1.99288E+00
 -1.62122E+00 +1.10342E+00 -1.83467E+00 -1.16801E-01 -1.29246E+00 -1.13727E+00 -3.12545E-01 -1.57438E+00
 +6.48301E-01 -1.33430E+00 +1.20387E+00 -6.17007E-01 +1.19405E+00 +2.06479E-01 +7.23824E-01 +7.77147E-01
 +8.05247E-02 +9.04106E-01 -4.21192E-01 +6.26263E-01 -5.88206E-01 +1.60935E-01 -4.22923E-01 -2.25481E-01
 -9.41485E-02 -3.55846E-01 +1.72003E-01 -2.21462E-01 +2.20643E-01 +3.28961E-02 +4.92487E-02 +2.04527E-01
 -1.98769E-01 +1.55399E-01 -3.22400E-01 -1.04094E-01 -1.85306E-01 -4.15273E-01 +1.93902E-01 -5.56709E-01
 +6.33979E-01 -3.71915E-01 +8.75080E-01 +1.27796E-01 +7.16166E-01 +7.42748E-01 +1.37162E-01 +1.16498E+00
 -6.59919E-01 +1.12672E+00 -1.32071E+00 +5.47617E-01 -1.49559E+00 -3.94605E-01 -1.01500E+00 -1.31383E+00
 +1.63819E-03 -1.77435E+00 +1.16363E+00 -1.49348E+00 +1.95846E+00 -4.95205E-01 +1.97585E+00 +8.62911E-01
 +1.10905E+00 +2.01527E+00 -3.62343E-01 +2.42291E+00 -1.85738E+00 +1.82007E+00 -2.72342E+00 +3.61176E-01
 -2.51957E+00 -1.40683E+00 -1.23134E+00 -2.74967E+00 +6.84904E-01 -3.05176E+00 +2.46121E+00 -2.09547E+00
 +3.32664E+00 -1.88551E-01 +2.84113E+00 +1.92779E+00 +1.11061E+00 +3.36594E+00 -1.21852E+00 +3.46296E+00
 -3.19842E+00 +2.08084E+00 -3.96440E+00 -2.98734E-01 -3.10905E+00 -2.73874E+00 -8.84669E-01 -4.21619E+00
 +1.86300E+00 -4.05073E+00 +4.01722E+00 -2.21309E+00 +4.64620E+00 +6.24912E-01 +3.40639E+00 +3.33414E+00
 +7.19074E-01 +4.77855E+00 -2.36613E+00 +4.29218E+00 -4.57935E+00 +1.98290E+00 -4.95159E+00 -1.27396E+00
 -3.23497E+00 -4.16439E+00 -4.07468E-02 -5.46394E+00 +3.37584E+00 -4.55305E+00 +5.60971E+00 -1.70270E+00
 +5.68441E+00 +1.99898E+00 +3.47674E+00 +5.06423E+00 -1.96225E-01 +6.20713E+00 -3.87789E+00 +4.88580E+00
 -6.05091E+00 +1.55702E+00 -5.76395E+00 -2.47413E+00 -3.04756E+00 -5.56245E+00 +1.06162E+00 -6.39112E+00
 +4.91269E+00 -4.52861E+00 +6.90087E+00 -6.39119E-01 +6.13216E+00 +3.75306E+00 +2.81702E+00 +6.86298E+00
 -1.77898E+00 +7.37259E+00 -5.82196E+00 +4.98958E+00 -7.64696E+00 +6.01092E-01 -6.44905E+00 -4.05422E+00
 -2.64149E+00 -7.07556E+00 +2.27713E+00 -7.17732E+00 +6.30683E+00 -4.23660E+00 +7.75395E+00 +6.21890E-01
 +5.93636E+00 +5.45172E+00 +1.49278E+00 +8.26095E+00 -3.84219E+00 +7.82887E+00 -7.91969E+00 +4.22838E+00
 -9.04685E+00 -1.16878E+00 -6.69310E+00 -6.22004E+00 -1.73792E+00 -8.87015E+00 +3.85364E+00 -7.99575E+00
 +7.80888E+00 -3.88906E+00 +8.47100E+00 +1.82689E+00 +5.49281E+00 +6.83055E+00 +1.05478E-02 +9.03578E+00
 -5.78588E+00 +7.45157E+00 -9.52426E+00 +2.61338E+00 -9.61622E+00 -3.60040E+00 -5.92453E+00 -8.70591E+00
 +1.48411E-01 -1.06154E+01 +6.19987E+00 -8.49890E+00 +9.78686E+00 -3.15020E+00 +9.42314E+00 +3.30327E+00
 +5.20604E+00 +8.24171E+00 -1.19084E+00 +9.61294E+00 -7.16915E+00 +6.78201E+00 -1.02482E+01 +8.19094E-01
 -9.08020E+00 -5.90338E+00 -4.02229E+00 -1.06531E+01 +2.97554E+00 -1.14455E+01 +9.13528E+00 -7.86719E+00
 +1.19677E+01 -1.27379E+00 +1.02921E+01 +5.73001E+00 +4.74049E+00 +1.03295E+01 -2.46758E+00 +1.06430E+01
 -8.40231E+00 +6.50522E+00 -1.06053E+01 -4.36280E-01 -8.09937E+00 -7.36115E+00 -1.81238E+00 -1.14056E+01
 +5.76874E+00 -1.08283E+01 +1.15843E+01 -5.73827E+00 +1.32380E+01 +1.91851E+00 +9.98243E+00 +9.12147E+00
 +3.04968E+00 +1.29869E+01 -4.81960E+00 +1.19427E+01 -1.04678E+01 +6.38797E+00 -1.15984E+01 -1.44046E+00
 -7.72310E+00 -8.35077E+00 -3.86761E-01 -1.14808E+01 +7.43133E+00 -9.46756E+00 +1.25085E+01 -3.02349E+00
 +1.26858E+01 +5.32282E+00 +7.76138E+00 +1.22284E+01 -4.00073E-01 +1.48830E+01 -8.59572E+00 +1.21577E+01
 -1.35674E+01 +5.08648E+00 -1.33238E+01 -3.52565E+00 -7.96558E+00 -1.02188E+01 +3.29561E-01 -1.22753E+01
 +8.16519E+00 -8.83315E+00 +1.22912E+01 -1.25968E+00 +1.09263E+01 +7.37625E+00 +4.50054E+00 +1.35294E+01
 -4.49173E+00 +1.46121E+01 -1.24784E+01 +1.00570E+01 -1.62462E+01 +1.57197E+00 -1.42483E+01 -7.52563E+00
 -7.25099E+00 -1.36358E+01 +1.95134E+00 -1.43326E+01 +9.64770E+00 -9.36121E+00 +1.27062E+01 -7.64282E-01
 +9.85152E+00 +7.92226E+00 +2.20234E+00 +1.30885E+01 -7.15631E+00 +1.25153E+01 -1.44037E+01 +6.29002E+00
 -1.65254E+01 -3.20326E+00 -1.25447E+01 -1.22257E+01 -3.93961E+00 -1.71851E+01 +5.93053E+00 -1.60923E+01
 +1.31678E+01 -9.38338E+00 +1.49095E+01 +2.34482E-01 +1.04983E+01 +8.85910E+00 +1.76803E+00 +1.29642E+01
 -7.67636E+00 +1.08328E+01 -1.39049E+01 +3.27057E+00 -1.42536E+01 -6.69700E+00 -8.41631E+00 -1.50302E+01
 +1.40785E+00 -1.83028E+01 +1.13824E+01 -1.50956E+01 +1.75717E+01 -6.58978E+00 +1.75333E+01 +3.88912E+00
