 Created: 19-Jan-2021
 $NMID
 ID='D:\BASISSIMULATI'
 FMTDAT='(8E13.5)'
 VOLUME=   1.00000E+00
 TRAMP=   1.00000E+00
 $END
 +5.57678E+01 +5.61951E+00 +5.34893E+01 +1.67919E+01 +4.88934E+01 +2.72246E+01 +4.21999E+01 +3.64275E+01
 +3.37330E+01 +4.39729E+01 +2.39044E+01 +4.95179E+01 +1.31910E+01 +5.28216E+01 +2.10942E+00 +5.37575E+01
 -8.81086E+00 +5.23189E+01 -1.90558E+01 +4.86179E+01 -2.81533E+01 +4.28782E+01 -3.56975E+01 +3.54218E+01
 -4.13685E+01 +2.66501E+01 -4.49479E+01 +1.70219E+01 -4.63282E+01 +7.02798E+00 -4.55154E+01 -2.83544E+00
 -4.26265E+01 -1.20927E+01 -3.78802E+01 -2.03132E+01 -3.15824E+01 -2.71327E+01 -2.41080E+01 -3.22703E+01
 -1.58786E+01 -3.55409E+01 -7.33905E+00 -3.68614E+01 +1.06678E+00 -3.62516E+01 +8.91922E+00 -3.38295E+01
 +1.58439E+01 -2.98012E+01 +2.15295E+01 -2.44468E+01 +2.57417E+01 -1.81025E+01 +2.83316E+01 -1.11406E+01
 +2.92401E+01 -3.94863E+00 +2.84970E+01 +3.09144E+00 +2.62145E+01 +9.62295E+00 +2.25780E+01 +1.53316E+01
 +1.78328E+01 +1.99594E+01 +1.22680E+01 +2.33151E+01 +6.19996E+00 +2.52800E+01 -4.55380E-02 +2.58102E+01
 -6.14998E+00 +2.49343E+01 -1.18175E+01 +2.27478E+01 -1.67882E+01 +1.94042E+01 -2.08481E+01 +1.51042E+01
 -2.38370E+01 +1.00826E+01 -2.56517E+01 +4.59502E+00 -2.62476E+01 -1.09504E+00 -2.56361E+01 -6.72925E+00
 -2.38801E+01 -1.20654E+01 -2.10876E+01 -1.68868E+01 -1.74031E+01 -2.10097E+01 -1.29993E+01 -2.42879E+01
 -8.06732E+00 -2.66161E+01 -2.80830E+00 -2.79304E+01 +2.57531E+00 -2.82069E+01 +7.88690E+00 -2.74597E+01
 +1.29419E+01 -2.57370E+01 +1.75728E+01 -2.31169E+01 +2.16325E+01 -1.97024E+01 +2.49976E+01 -1.56167E+01
 +2.75691E+01 -1.09988E+01 +2.92742E+01 -5.99882E+00 +3.00657E+01 -7.74076E-01 +2.99229E+01 +4.51466E+00
 +2.88504E+01 +9.70654E+00 +2.68783E+01 +1.46440E+01 +2.40614E+01 +1.91757E+01 +2.04782E+01 +2.31605E+01
 +1.62303E+01 +2.64699E+01 +1.14403E+01 +2.89924E+01 +6.25053E+00 +3.06369E+01 +8.19563E-01 +3.13364E+01
 -4.68098E+00 +3.10513E+01 -1.00711E+01 +2.97731E+01 -1.51677E+01 +2.75259E+01 -1.97909E+01 +2.43688E+01
 -2.37711E+01 +2.03956E+01 -2.69555E+01 +1.57336E+01 -2.92160E+01 +1.05410E+01 -3.04556E+01 +5.00195E+00
 -3.06146E+01 -6.79057E-01 -2.96749E+01 -6.28533E+00 -2.76636E+01 -1.15967E+01 -2.46536E+01 -1.63992E+01
 -2.07629E+01 -2.04953E+01 -1.61504E+01 -2.37138E+01 -1.10108E+01 -2.59187E+01 -5.56616E+00 -2.70176E+01
 -5.62819E-02 -2.69672E+01 +5.27257E+00 -2.57771E+01 +1.01797E+01 -2.35110E+01 +1.44420E+01 -2.02848E+01
 +1.78659E+01 -1.62620E+01 +2.02977E+01 -1.16465E+01 +2.16324E+01 -6.67272E+00 +2.18196E+01 -1.59426E+00
 +2.08676E+01 +3.32932E+00 +1.88432E+01 +7.84588E+00 +1.58690E+01 +1.17242E+01 +1.21180E+01 +1.47663E+01
 +7.80393E+00 +1.68188E+01 +3.17092E+00 +1.77807E+01 -1.51991E+00 +1.76102E+01 -6.00431E+00 +1.63265E+01
 -1.00292E+01 +1.40093E+01 -1.33667E+01 +1.07950E+01 -1.58261E+01 +6.86907E+00 -1.72651E+01 +2.45628E+00
 -1.75969E+01 -2.19155E+00 -1.67957E+01 -6.80927E+00 -1.48977E+01 -1.11328E+01 -1.19990E+01 -1.49137E+01
 -8.25089E+00 -1.79324E+01 -3.85091E+00 -2.00102E+01 +9.67543E-01 -2.10190E+01 +5.94811E+00 -2.08877E+01
 +1.08253E+01 -1.96060E+01 +1.53388E+01 -1.72248E+01 +1.92471E+01 -1.38526E+01 +2.23407E+01 -9.65005E+00
 +2.44523E+01 -4.82025E+00 +2.54655E+01 +4.01787E-01 +2.53204E+01 +5.76195E+00 +2.40157E+01 +1.10005E+01
 +2.16084E+01 +1.58654E+01 +1.82097E+01 +2.01254E+01 +1.39782E+01 +2.35815E+01 +9.11161E+00 +2.60761E+01
 +3.83541E+00 +2.75004E+01 -1.60886E+00 +2.77991E+01 -6.97605E+00 +2.69713E+01 -1.20297E+01 +2.50696E+01
 -1.65535E+01 +2.21958E+01 -2.03612E+01 +1.84946E+01 -2.33051E+01 +1.41453E+01 -2.52816E+01 +9.35161E+00
 -2.62350E+01 +4.33139E+00 -2.61581E+01 -6.94782E-01 -2.50910E+01 -5.51405E+00 -2.31172E+01 -9.93123E+00
 -2.03577E+01 -1.37773E+01 -1.69637E+01 -1.69163E+01 -1.31080E+01 -1.92502E+01 -8.97624E+00 -2.07217E+01
 -4.75697E+00 -2.13152E+01 -6.33191E-01 -2.10549E+01 +3.22604E+00 -2.00021E+01 +6.67267E+00 -1.82504E+01
 +9.58539E+00 -1.59191E+01 +1.18737E+01 -1.31471E+01 +1.34804E+01 -1.00848E+01 +1.43821E+01 -6.88697E+00
 +1.45890E+01 -3.70528E+00 +1.41416E+01 -6.81686E-01 +1.31078E+01 +2.05746E+00 +1.15784E+01 +4.40616E+00
 +9.66108E+00 +6.28242E+00 +7.47535E+00 +7.63050E+00 +5.14626E+00 +8.42202E+00 +2.79872E+00 +8.65572E+00
 +5.51979E-01 +8.35614E+00 -1.48522E+00 +7.57127E+00 -3.21893E+00 +6.36933E+00 -4.57330E+00 +4.83498E+00
 -5.49312E+00 +3.06496E+00 -5.94533E+00 +1.16349E+00 -5.91962E+00 -7.62343E-01 -5.42812E+00 -2.60726E+00
 -4.50424E+00 -4.27209E+00 -3.20075E+00 -5.66776E+00 -1.58715E+00 -6.71877E+00 +2.53481E-01 -7.36607E+00
 +2.22808E+00 -7.56926E+00 +4.23755E+00 -7.30803E+00 +6.18083E+00 -6.58294E+00 +7.95904E+00 -5.41528E+00
 +9.47953E+00 -3.84621E+00 +1.06597E+01 -1.93524E+00 +1.14305E+01 +2.42173E-01 +1.17392E+01 +2.59748E+00
 +1.15520E+01 +5.03254E+00 +1.08556E+01 +7.44351E+00 +9.65818E+00 +9.72501E+00 +7.98915E+00 +1.17745E+01
 +5.89872E+00 +1.34964E+01 +3.45606E+00 +1.48066E+01 +7.46888E-01 +1.56356E+01 -2.12980E+00 +1.59323E+01
 -5.06552E+00 +1.56662E+01 -7.94666E+00 +1.48294E+01 -1.06592E+01 +1.34370E+01 -1.30932E+01 +1.15273E+01
 -1.51482E+01 +9.16057E+00 -1.67368E+01 +6.41693E+00 -1.77892E+01 +3.39325E+00 -1.82563E+01 +1.99364E-01
 -1.81120E+01 -3.04639E+00 -1.73547E+01 -6.22211E+00 -1.60079E+01 -9.20749E+00 -1.41191E+01 -1.18890E+01
 -1.17581E+01 -1.41647E+01 -9.01449E+00 -1.59491E+01 -5.99343E+00 -1.71763E+01 -2.81145E+00 -1.78037E+01
 +4.08663E-01 -1.78130E+01 +3.54315E+00 -1.72120E+01 +6.47274E+00 -1.60335E+01 +9.08779E+00 -1.43339E+01
 +1.12931E+01 -1.21911E+01 +1.30120E+01 -9.70018E+00 +1.41897E+01 -6.96986E+00 +1.47953E+01 -4.11697E+00
 +1.48230E+01 -1.26143E+00 +1.42923E+01 +1.47922E+00 +1.32465E+01 +3.99505E+00 +1.17506E+01 +6.18861E+00
 +9.88797E+00 +7.97914E+00 +7.75626E+00 +9.30599E+00 +5.46274E+00 +1.01311E+01 +3.11921E+00 +1.04403E+01
 +8.36778E-01 +1.02438E+01 -1.27931E+00 +9.57477E+00 -3.13442E+00 +8.48808E+00 -4.64880E+00 +7.05690E+00
 -5.76107E+00 +5.36913E+00 -6.43078E+00 +3.52303E+00 -6.64005E+00 +1.62241E+00 -6.39407E+00 -2.28352E-01
 -5.72051E+00 -1.92926E+00 -4.66798E+00 -3.38943E+00 -3.30344E+00 -4.53124E+00 -1.70887E+00 -5.29396E+00
 +2.27724E-02 -5.63648E+00 +1.79206E+00 -5.53910E+00 +3.49783E+00 -5.00437E+00 +5.04199E+00 -4.05692E+00
 +6.33418E+00 -2.74219E+00 +7.29599E+00 -1.12430E+00 +7.86468E+00 +7.16939E-01 +7.99615E+00 +2.68973E+00
 +7.66708E+00 +4.69451E+00 +6.87613E+00 +6.62857E+00 +5.64410E+00 +8.39073E+00 +4.01322E+00 +9.88600E+00
 +2.04536E+00 +1.10300E+01 -1.80574E-01 +1.17530E+01 -2.57201E+00 +1.20030E+01 -5.02673E+00 +1.17483E+01
 -7.43731E+00 +1.09796E+01 -9.69583E+00 +9.70994E+00 -1.16987E+01 +7.97518E+00 -1.33511E+01 +5.83219E+00
 -1.45714E+01 +3.35687E+00 -1.52951E+01 +6.41062E-01 -1.54774E+01 -2.21124E+00 -1.50956E+01 -5.08823E+00
 -1.41506E+01 -7.87500E+00 -1.26669E+01 -1.04584E+01 -1.06918E+01 -1.27321E+01 -8.29380E+00 -1.46009E+01
 -5.55995E+00 -1.59853E+01 -2.59216E+00 -1.68246E+01 +4.96920E-01 -1.70801E+01 +3.58855E+00 -1.67370E+01
 +6.56297E+00 -1.58045E+01 +9.30445E+00 -1.43167E+01 +1.17063E+01 -1.23303E+01 +1.36754E+01 -9.92292E+00
 +1.51363E+01 -7.18984E+00 +1.60346E+01 -4.23980E+00 +1.63392E+01 -1.19053E+00 +1.60439E+01 +1.83630E+00
 +1.51676E+01 +4.72031E+00 +1.37534E+01 +7.34762E+00 +1.18673E+01 +9.61579E+00 +9.59461E+00 +1.14383E+01
 +7.03683E+00 +1.27483E+01 +4.30690E+00 +1.35015E+01 +1.52432E+00 +1.36783E+01 -1.19015E+00 +1.32843E+01
 -3.71985E+00 +1.23505E+01 -5.95741E+00 +1.09313E+01 -7.80954E+00 +9.10283E+00 -9.20126E+00 +6.95864E+00
 -1.00792E+01 +4.60614E+00 -1.04142E+01 +2.16145E+00 -1.02024E+01 -2.55846E-01 -9.46579E+00 -2.52817E+00
 -8.25083E+00 -4.54536E+00 -6.62682E+00 -6.20976E+00 -4.68251E+00 -7.44085E+00 -2.52216E+00 -8.17903E+00
 -2.60780E-01 -8.38858E+00 +1.98121E+00 -8.05949E+00 +4.08356E+00 -7.20818E+00 +5.93188E+00 -5.87701E+00
 +7.42307E+00 -4.13256E+00 +8.47039E+00 -2.06285E+00 +9.00781E+00 +2.26572E-01 +8.99343E+00 +2.61729E+00
 +8.41196E+00 +4.98345E+00 +7.27593E+00 +7.19761E+00 +5.62563E+00 +9.13670E+00 +3.52789E+00 +1.06881E+01
 +1.07340E+00 +1.17550E+01 -1.62692E+00 +1.22617E+01 -4.44675E+00 +1.21574E+01 -7.24991E+00 +1.14196E+01
 -9.89661E+00 +1.00557E+01 -1.22499E+01 +8.10348E+00 -1.41824E+01 +5.63036E+00 -1.55823E+01 +2.73085E+00
 -1.63595E+01 -4.76979E-01 -1.64502E+01 -3.85645E+00 -1.58208E+01 -7.25818E+00 -1.44705E+01 -1.05267E+01
 -1.24321E+01 -1.35078E+01 -9.77151E+00 -1.60555E+01 -6.58579E+00 -1.80395E+01 -2.99919E+00 -1.93518E+01
 +8.41775E-01 -1.99121E+01 +4.77473E+00 -1.96728E+01 +8.62862E+00 -1.86216E+01 +1.22316E+01 -1.67836E+01
 +1.54193E+01 -1.42208E+01 +1.80426E+01 -1.10297E+01 +1.99751E+01 -7.33834E+00 +2.11199E+01 -3.30008E+00
 +2.14146E+01 +9.12637E-01 +2.08350E+01 +5.11636E+00 +1.93974E+01 +9.12516E+00 +1.71580E+01 +1.27596E+01
 +1.42111E+01 +1.58553E+01 +1.06853E+01 +1.82714E+01 +6.73768E+00 +1.98975E+01 +2.54629E+00 +2.06597E+01
 -1.69793E+00 +2.05244E+01 -5.80052E+00 +1.95004E+01 -9.57302E+00 +1.76392E+01 -1.28423E+01 +1.50325E+01
 -1.54593E+01 +1.18081E+01 -1.73064E+01 +8.12363E+00 -1.83038E+01 +4.15927E+00 -1.84133E+01 +1.08342E-01
 -1.76404E+01 -3.83207E+00 -1.60345E+01 -7.47112E+00 -1.36859E+01 -1.06338E+01 -1.07215E+01 -1.31699E+01
 -7.29840E+00 -1.49615E+01 -3.59566E+00 -1.59290E+01 +1.94851E-01 -1.60348E+01 +3.87829E+00 -1.52857E+01
 +7.26688E+00 -1.37314E+01 +1.01895E+01 -1.14627E+01 +1.25003E+01 -8.60565E+00 +1.40861E+01 -5.31554E+00
 +1.48719E+01 -1.76816E+00 +1.48244E+01 +1.84919E+00 +1.39532E+01 +5.34755E+00 +1.23099E+01 +8.54599E+00
 +9.98489E+00 +1.12808E+01 +7.10214E+00 +1.34136E+01 +3.81253E+00 +1.48382E+01 +2.85619E-01 +1.54852E+01
 -3.29924E+00 +1.53252E+01 -6.76218E+00 +1.43695E+01 -9.93182E+00 +1.26684E+01 -1.26537E+01 +1.03084E+01
 -1.47978E+01 +7.40666E+00 -1.62638E+01 +4.10465E+00 -1.69860E+01 +5.60508E-01 -1.69351E+01 -3.05913E+00
 -1.61186E+01 -6.58742E+00 -1.45794E+01 -9.86536E+00 -1.23925E+01 -1.27490E+01 -9.66035E+00 -1.51159E+01
 -6.50714E+00 -1.68697E+01 -3.07206E+00 -1.79437E+01 +4.97529E-01 -1.83026E+01 +4.05309E+00 -1.79428E+01
