 Created: 19-Jan-2021
 $NMID
 ID='D:\BASISSIMULATI'
 FMTDAT='(8E13.5)'
 VOLUME=   1.00000E+00
 TRAMP=   1.00000E+00
 $END
 +6.11265E+01 +5.46107E+00 +5.41193E+01 +2.21381E+01 +3.57755E+01 +3.45084E+01 +1.06863E+01 +4.03990E+01
 -1.48537E+01 +3.88419E+01 -3.45424E+01 +3.02263E+01 -4.37488E+01 +1.62508E+01 -4.06969E+01 -3.32880E-01
 -2.68332E+01 -1.61789E+01 -6.29880E+00 -2.79682E+01 +1.53125E+01 -3.31000E+01 +3.25258E+01 -3.03118E+01
 +4.14294E+01 -2.00673E+01 +4.05902E+01 -4.57138E+00 +3.12216E+01 +1.26491E+01 +1.66104E+01 +2.75466E+01
 +1.02759E+00 +3.65606E+01 -1.15246E+01 +3.75706E+01 -1.83575E+01 +3.05160E+01 -1.86611E+01 +1.74756E+01
 -1.34799E+01 +2.14350E+00 -5.17968E+00 -1.11808E+01 +3.38247E+00 -1.88155E+01 +9.70891E+00 -1.87734E+01
 +1.22907E+01 -1.13620E+01 +1.08721E+01 +8.95798E-01 +6.33478E+00 +1.40159E+01 +2.97339E-01 +2.37692E+01
 -5.41126E+00 +2.69939E+01 -9.24179E+00 +2.25960E+01 -1.02628E+01 +1.19201E+01 -8.29955E+00 -1.63956E+00
 -3.89116E+00 -1.36775E+01 +1.87968E+00 -2.01513E+01 +7.62308E+00 -1.86651E+01 +1.19004E+01 -9.26057E+00
 +1.34816E+01 +5.53643E+00 +1.15893E+01 +2.14353E+01 +6.10767E+00 +3.36496E+01 -2.28414E+00 +3.83299E+01
 -1.21125E+01 +3.37241E+01 -2.12968E+01 +2.07175E+01 -2.75405E+01 +2.59576E+00 -2.88781E+01 -1.58896E+01
 -2.42601E+01 -2.98653E+01 -1.40062E+01 -3.56901E+01 +4.20926E-02 -3.19289E+01 +1.47806E+01 -1.96833E+01
 +2.65121E+01 -2.21429E+00 +3.18906E+01 +1.60001E+01 +2.88964E+01 +3.04792E+01 +1.75477E+01 +3.78778E+01
 +1.03894E-01 +3.67470E+01 -1.93593E+01 +2.77520E+01 -3.59366E+01 +1.33420E+01 -4.51976E+01 -2.98235E+00
 -4.44450E+01 -1.75736E+01 -3.35524E+01 -2.74687E+01 -1.51093E+01 -3.09621E+01 +6.20346E+00 -2.78287E+01
 +2.48555E+01 -1.92085E+01 +3.59831E+01 -7.23823E+00 +3.67441E+01 +5.45231E+00 +2.71132E+01 +1.62639E+01
 +9.88040E+00 +2.30883E+01 -1.01503E+01 +2.46539E+01 -2.75272E+01 +2.07285E+01 -3.76815E+01 +1.21624E+01
 -3.81753E+01 +7.56569E-01 -2.93124E+01 -1.10464E+01 -1.39505E+01 -2.06295E+01 +3.40525E+00 -2.57609E+01
 +1.79384E+01 -2.51402E+01 +2.58848E+01 -1.87907E+01 +2.55273E+01 -8.16791E+00 +1.75560E+01 +4.09437E+00
 +4.72571E+00 +1.47858E+01 -9.04704E+00 +2.09458E+01 -1.98522E+01 +2.07020E+01 -2.48680E+01 +1.38756E+01
 -2.30559E+01 +2.14727E+00 -1.53071E+01 -1.13085E+01 -4.04681E+00 -2.26567E+01 +7.54183E+00 -2.84894E+01
 +1.64224E+01 -2.68544E+01 +2.04809E+01 -1.79091E+01 +1.89803E+01 -3.97629E+00 +1.26166E+01 +1.10486E+01
 +3.21474E+00 +2.27897E+01 -6.80816E+00 +2.76730E+01 -1.50496E+01 +2.40172E+01 -1.96486E+01 +1.25930E+01
 -1.96340E+01 -3.53210E+00 -1.50560E+01 -1.98383E+01 -6.91530E+00 -3.16459E+01 +3.06741E+00 -3.54776E+01
 +1.27870E+01 -3.00830E+01 +2.01461E+01 -1.68196E+01 +2.34556E+01 +7.25812E-01 +2.17912E+01 +1.77608E+01
 +1.52449E+01 +2.96524E+01 +5.00336E+00 +3.32300E+01 -6.79948E+00 +2.76497E+01 -1.74720E+01 +1.45798E+01
 -2.43500E+01 -2.32538E+00 -2.54628E+01 -1.84906E+01 -2.01132E+01 -2.96980E+01 -9.19631E+00 -3.32099E+01
 +4.87616E+00 -2.84297E+01 +1.86780E+01 -1.69444E+01 +2.86080E+01 -1.97685E+00 +3.18603E+01 +1.25592E+01
 +2.72561E+01 +2.31146E+01 +1.56793E+01 +2.73788E+01 -4.60622E-02 +2.47581E+01 -1.58413E+01 +1.63738E+01
 -2.74592E+01 +4.63382E+00 -3.16723E+01 -7.46362E+00 -2.72195E+01 -1.70890E+01 -1.52199E+01 -2.22120E+01
 +1.08730E+00 -2.19754E+01 +1.72231E+01 -1.67680E+01 +2.87245E+01 -8.02648E+00 +3.24146E+01 +2.14974E+00
 +2.73133E+01 +1.14710E+01 +1.49172E+01 +1.79221E+01 -1.23614E+00 +2.01467E+01 -1.65919E+01 +1.76998E+01
 -2.68875E+01 +1.11370E+01 -2.93619E+01 +1.92235E+00 -2.35132E+01 -7.84354E+00 -1.11932E+01 -1.58473E+01
 +3.97553E+00 -2.00745E+01 +1.76723E+01 -1.93098E+01 +2.61166E+01 -1.35030E+01 +2.71109E+01 -3.88640E+00
 +2.05967E+01 +7.22678E+00 +8.58778E+00 +1.69563E+01 -5.47220E+00 +2.25804E+01 -1.77159E+01 +2.22955E+01
 -2.49216E+01 +1.57933E+01 -2.53462E+01 +4.46964E+00 -1.91099E+01 -8.83695E+00 -8.05985E+00 -2.05438E+01
 +4.80893E+00 -2.72922E+01 +1.61871E+01 -2.69208E+01 +2.33002E+01 -1.91565E+01 +2.45562E+01 -5.79900E+00
 +1.98506E+01 +9.68623E+00 +1.04913E+01 +2.30787E+01 -1.19637E+00 +3.05735E+01 -1.24590E+01 +2.98786E+01
 -2.07465E+01 +2.09140E+01 -2.42484E+01 +5.89622E+00 -2.22398E+01 -1.12335E+01 -1.51902E+01 -2.58834E+01
 -4.63643E+00 -3.40847E+01 +7.14264E+00 -3.35996E+01 +1.75887E+01 -2.45439E+01 +2.43851E+01 -9.34752E+00
 +2.59474E+01 +7.93183E+00 +2.17916E+01 +2.27384E+01 +1.26957E+01 +3.12650E+01 +5.98592E-01 +3.14638E+01
 -1.17723E+01 +2.35435E+01 -2.14922E+01 +9.83406E+00 -2.61317E+01 -5.91930E+00 -2.43865E+01 -1.96124E+01
 -1.64766E+01 -2.78807E+01 -4.18176E+00 -2.89388E+01 +9.53034E+00 -2.29491E+01 +2.12202E+01 -1.18534E+01
 +2.78659E+01 +1.24991E+00 +2.76901E+01 +1.29811E+01 +2.06885E+01 +2.05564E+01 +8.68931E+00 +2.24402E+01
 -5.09678E+00 +1.86246E+01 -1.69326E+01 +1.05032E+01 -2.35866E+01 +4.12644E-01 -2.32492E+01 -9.01237E+00
 -1.60631E+01 -1.54933E+01 -4.10387E+00 -1.76185E+01 +9.19679E+00 -1.51087E+01 +2.00268E+01 -8.80443E+00
 +2.52886E+01 -4.07034E-01 +2.34949E+01 +7.95108E+00 +1.52005E+01 +1.42056E+01 +2.84261E+00 +1.68259E+01
 -9.96581E+00 +1.51583E+01 -1.94824E+01 +9.57985E+00 -2.29162E+01 +1.43258E+00 -1.92283E+01 -7.25931E+00
 -9.42379E+00 -1.42411E+01 +3.74286E+00 -1.75629E+01 +1.65575E+01 -1.60832E+01 +2.53968E+01 -9.81786E+00
 +2.77371E+01 -2.89384E-02 +2.28413E+01 +1.09962E+01 +1.19389E+01 +2.04555E+01 -2.13317E+00 +2.57279E+01
 -1.57145E+01 +2.50870E+01 -2.53019E+01 +1.82382E+01 -2.84576E+01 +6.51544E+00 -2.44097E+01 -7.35102E+00
 -1.42027E+01 -1.98674E+01 -3.84545E-01 -2.76662E+01 +1.36664E+01 -2.84229E+01 +2.45864E+01 -2.15445E+01
 +2.98274E+01 -8.42284E+00 +2.82261E+01 +7.84303E+00 +2.02237E+01 +2.32043E+01 +7.70825E+00 +3.37097E+01
 -6.45953E+00 +3.65614E+01 -1.91136E+01 +3.08881E+01 -2.74888E+01 +1.80119E+01 -2.98139E+01 +1.12840E+00
 -2.56754E+01 -1.55227E+01 -1.60839E+01 -2.77701E+01 -3.23798E+00 -3.26046E+01 +9.96266E+00 -2.89542E+01
 +2.05536E+01 -1.79345E+01 +2.61611E+01 -2.51240E+00 +2.55372E+01 +1.33116E+01 +1.88537E+01 +2.55723E+01
 +7.68116E+00 +3.13641E+01 -5.35646E+00 +2.95477E+01 -1.71863E+01 +2.09649E+01 -2.50174E+01 +8.12545E+00
 -2.70256E+01 -5.52560E+00 -2.28191E+01 -1.65434E+01 -1.35564E+01 -2.23657E+01 -1.67046E+00 -2.19133E+01
 +9.74476E+00 -1.57722E+01 +1.77357E+01 -5.93511E+00 +2.02700E+01 +4.79847E+00 +1.67842E+01 +1.35877E+01
 +8.34188E+00 +1.82748E+01 -2.65118E+00 +1.78887E+01 -1.31056E+01 +1.28181E+01 -2.01041E+01 +4.63316E+00
 -2.17170E+01 -4.37499E+00 -1.75456E+01 -1.18072E+01 -8.83781E+00 -1.57647E+01 +1.86341E+00 -1.53070E+01
 +1.14415E+01 -1.06584E+01 +1.70948E+01 -3.12558E+00 +1.71388E+01 +5.24686E+00 +1.14932E+01 +1.21938E+01
 +1.71443E+00 +1.57984E+01 -9.43770E+00 +1.49782E+01 -1.87745E+01 +9.77259E+00 -2.35759E+01 +1.36160E+00
 -2.23571E+01 -8.19784E+00 -1.52907E+01 -1.64628E+01 -4.16917E+00 -2.12125E+01 +8.07957E+00 -2.10282E+01
 +1.81848E+01 -1.56984E+01 +2.34152E+01 -6.33571E+00 +2.23114E+01 +4.84114E+00 +1.50731E+01 +1.50239E+01
 +3.50516E+00 +2.15140E+01 -9.45562E+00 +2.24321E+01 -2.05023E+01 +1.72500E+01 -2.68048E+01 +6.99658E+00
 -2.67234E+01 -5.93813E+00 -2.02133E+01 -1.83661E+01 -8.82306E+00 -2.71012E+01 +4.69968E+00 -2.97910E+01
 +1.70920E+01 -2.55606E+01 +2.53744E+01 -1.52882E+01 +2.75692E+01 -1.42657E+00 +2.31700E+01 +1.25946E+01
 +1.32525E+01 +2.32378E+01 +2.09266E-01 +2.77722E+01 -1.28266E+01 +2.49912E+01 -2.27284E+01 +1.55403E+01
 -2.71192E+01 +1.76537E+00 -2.49351E+01 -1.28826E+01 -1.66800E+01 -2.47300E+01 -4.30755E+00 -3.08199E+01
 +9.24128E+00 -2.96607E+01 +2.07388E+01 -2.15941E+01 +2.74454E+01 -8.68815E+00 +2.77728E+01 +5.80772E+00
 +2.16744E+01 +1.82999E+01 +1.06634E+01 +2.57591E+01 -2.55021E+00 +2.64674E+01 -1.47217E+01 +2.04185E+01
 -2.28709E+01 +9.27852E+00 -2.50218E+01 -4.06963E+00 -2.06952E+01 -1.62735E+01 -1.10270E+01 -2.43536E+01
 +1.52180E+00 -2.64291E+01 +1.37911E+01 -2.21513E+01 +2.27266E+01 -1.27454E+01 +2.61552E+01 -6.63827E-01
 +2.33301E+01 +1.10537E+01 +1.51059E+01 +1.95468E+01 +3.69683E+00 +2.28363E+01 -7.91400E+00 +2.02917E+01
 -1.67580E+01 +1.27533E+01 -2.06500E+01 +2.28738E+00 -1.87400E+01 -8.35834E+00 -1.17064E+01 -1.64599E+01
 -1.54571E+00 -2.00046E+01 +8.97981E+00 -1.81900E+01 +1.70841E+01 -1.16095E+01 +2.06901E+01 -2.08138E+00
 +1.89602E+01 +7.83652E+00 +1.24897E+01 +1.55190E+01 +3.11963E+00 +1.89620E+01 -6.57562E+00 +1.73071E+01
 -1.39824E+01 +1.10657E+01 -1.71406E+01 +1.98135E+00 -1.52536E+01 -7.43535E+00 -8.88522E+00 -1.45796E+01
 +2.01017E-01 -1.74546E+01 +9.51587E+00 -1.52168E+01 +1.65039E+01 -8.41464E+00 +1.92179E+01 +1.14514E+00
 +1.68345E+01 +1.08733E+01 +9.87885E+00 +1.80902E+01 +1.01420E-01 +2.07512E+01 -9.96351E+00 +1.80086E+01
 -1.76469E+01 +1.04581E+01 -2.08383E+01 +9.84142E-04 -1.85471E+01 -1.06446E+01 -1.11873E+01 -1.86552E+01
 -5.06519E-01 -2.18473E+01 +1.08286E+01 -1.92598E+01 +1.98950E+01 -1.14200E+01 +2.42588E+01 -2.22588E-01
 +2.26172E+01 +1.15459E+01 +1.51670E+01 +2.09133E+01 +3.59842E+00 +2.54758E+01 -9.29490E+00 +2.40082E+01
 -2.03019E+01 +1.67746E+01 -2.66052E+01 +5.46786E+00 -2.65118E+01 -7.20784E+00 -1.99111E+01 -1.82000E+01
 -8.33494E+00 -2.48533E+01 +5.40461E+00 -2.55538E+01 +1.79140E+01 -2.01167E+01 +2.60769E+01 -9.82790E+00
 +2.78505E+01 +2.86767E+00 +2.27919E+01 +1.49527E+01 +1.21737E+01 +2.35586E+01 -1.34182E+00 +2.66486E+01
 -1.43866E+01 +2.35027E+01 -2.37483E+01 +1.48882E+01 -2.71838E+01 +2.87711E+00 -2.39733E+01 -9.64974E+00
 -1.50738E+01 -1.96943E+01 -2.83934E+00 -2.48659E+01 +9.61082E+00 -2.39631E+01 +1.92026E+01 -1.72716E+01
 +2.36825E+01 -6.49755E+00 +2.21574E+01 +5.65003E+00 +1.52696E+01 +1.61330E+01 +4.97457E+00 +2.23478E+01
 -6.00542E+00 +2.27874E+01 -1.48977E+01 +1.74296E+01 -1.95770E+01 +7.74662E+00 -1.90687E+01 -3.67560E+00
 -1.37414E+01 -1.38132E+01 -5.15431E+00 -2.00033E+01 +4.38232E+00 -2.06527E+01 +1.24140E+01 -1.56660E+01
 +1.69572E+01 -6.47107E+00 +1.69739E+01 +4.36853E+00 +1.25968E+01 +1.38543E+01 +5.06275E+00 +1.93755E+01
 -3.62036E+00 +1.94292E+01 -1.11847E+01 +1.40345E+01 -1.56671E+01 +4.72717E+00 -1.58934E+01 -5.86826E+00
