 Created: 19-Jan-2021
 $NMID
 ID='D:\BASISSIMULATI'
 FMTDAT='(8E13.5)'
 VOLUME=   1.00000E+00
 TRAMP=   1.00000E+00
 $END
 +1.02575E+02 +7.33521E+00 +9.02090E+01 +4.71207E+01 +6.11557E+01 +7.67325E+01 +2.21182E+01 +8.96222E+01
 -1.79392E+01 +8.31750E+01 -4.99244E+01 +5.92944E+01 -6.67623E+01 +2.39033E+01 -6.50367E+01 -1.45099E+01
 -4.57345E+01 -4.69378E+01 -1.39273E+01 -6.59934E+01 +2.25191E+01 -6.76222E+01 +5.48776E+01 -5.19827E+01
 +7.56563E+01 -2.32963E+01 +8.03475E+01 +1.12759E+01 +6.84116E+01 +4.34334E+01 +4.32761E+01 +6.57630E+01
 +1.13742E+01 +7.34891E+01 -1.95171E+01 +6.55310E+01 -4.22119E+01 +4.46249E+01 -5.18429E+01 +1.65087E+01
 -4.69596E+01 -1.16018E+01 -2.97483E+01 -3.28493E+01 -5.34200E+00 -4.24187E+01 +1.95762E+01 -3.86542E+01
 +3.85105E+01 -2.33505E+01 +4.67838E+01 -1.16748E+00 +4.26574E+01 +2.16564E+01 +2.76741E+01 +3.89496E+01
 +6.15697E+00 +4.61865E+01 -1.59832E+01 +4.16034E+01 -3.28151E+01 +2.65802E+01 -3.99204E+01 +5.20997E+00
 -3.55061E+01 -1.68163E+01 -2.08220E+01 -3.37111E+01 +2.08239E-01 -4.10892E+01 +2.20339E+01 -3.70831E+01
 +3.89246E+01 -2.27998E+01 +4.64453E+01 -2.01283E+00 +4.25854E+01 +1.98202E+01 +2.82621E+01 +3.69571E+01
 +7.07978E+00 +4.48312E+01 -1.55846E+01 +4.12036E+01 -3.39347E+01 +2.67244E+01 -4.32022E+01 +4.76983E+00
 -4.08308E+01 -1.93969E+01 -2.71051E+01 -3.99243E+01 -5.07675E+00 -5.18073E+01 +2.01846E+01 -5.21031E+01
 +4.28258E+01 -4.06355E+01 +5.76217E+01 -2.00218E+01 +6.12202E+01 +4.97331E+00 +5.29226E+01 +2.85915E+01
 +3.48189E+01 +4.54558E+01 +1.12578E+01 +5.18346E+01 -1.22110E+01 +4.64927E+01 -3.01577E+01 +3.09374E+01
 -3.85397E+01 +9.01269E+00 -3.56130E+01 -1.40475E+01 -2.22844E+01 -3.28690E+01 -1.83283E+00 -4.31885E+01
 +2.09159E+01 -4.28111E+01 +4.07512E+01 -3.20565E+01 +5.32948E+01 -1.36055E+01 +5.59833E+01 +8.19860E+00
 +4.85955E+01 +2.84130E+01 +3.32141E+01 +4.26597E+01 +1.36522E+01 +4.81147E+01 -5.50200E+00 +4.40965E+01
 -1.99832E+01 +3.21303E+01 -2.68264E+01 +1.54929E+01 -2.49970E+01 -1.63392E+00 -1.55401E+01 -1.51857E+01
 -1.23253E+00 -2.21647E+01 +1.41588E+01 -2.12938E+01 +2.68196E+01 -1.32327E+01 +3.37989E+01 -3.22083E-01
 +3.36707E+01 +1.40611E+01 +2.67996E+01 +2.63682E+01 +1.51617E+01 +3.37440E+01 +1.78494E+00 +3.46851E+01
 -1.00419E+01 +2.93389E+01 -1.75878E+01 +1.93869E+01 -1.93259E+01 +7.55648E+00 -1.52547E+01 -3.10404E+00
 -6.82942E+00 -9.99935E+00 +3.46693E+00 -1.16176E+01 +1.27918E+01 -7.86570E+00 +1.86770E+01 -3.72712E-02
 +1.96430E+01 +9.56799E+00 +1.55432E+01 +1.82658E+01 +7.55966E+00 +2.36871E+01 -2.13756E+00 +2.43782E+01
 -1.09744E+01 +2.01515E+01 -1.66450E+01 +1.21047E+01 -1.77006E+01 +2.31250E+00 -1.39069E+01 -6.72675E+00
 -6.28481E+00 -1.27410E+01 +3.17124E+00 -1.42663E+01 +1.20198E+01 -1.10124E+01 +1.80056E+01 -3.92316E+00
 +1.96372E+01 +5.08046E+00 +1.65625E+01 +1.36035E+01 +9.64847E+00 +1.93965E+01 +7.48475E-01 +2.09319E+01
 -7.78007E+00 +1.77901E+01 -1.36833E+01 +1.07601E+01 -1.53872E+01 +1.63007E+00 -1.23963E+01 -7.27516E+00
 -5.41415E+00 -1.36903E+01 +3.84156E+00 -1.59869E+01 +1.30823E+01 -1.35844E+01 +2.00336E+01 -7.09212E+00
 +2.30134E+01 +1.85295E+00 +2.13554E+01 +1.10088E+01 +1.55712E+01 +1.81024E+01 +7.21175E+00 +2.14078E+01
 -1.53543E+00 +2.01814E+01 -8.40839E+00 +1.48434E+01 -1.16484E+01 +6.86222E+00 -1.04455E+01 -1.62894E+00
 -5.13849E+00 -8.38216E+00 +2.87928E+00 -1.16112E+01 +1.15241E+01 -1.04461E+01 +1.85605E+01 -5.15102E+00
 +2.21759E+01 +2.95071E+00 +2.14434E+01 +1.18221E+01 +1.65557E+01 +1.92399E+01 +8.76912E+00 +2.33680E+01
 +7.48091E-02 +2.32277E+01 -7.31859E+00 +1.89464E+01 -1.15564E+01 +1.17193E+01 -1.16164E+01 +3.49601E+00
 -7.57116E+00 -3.52755E+00 -5.66513E-01 -7.48027E+00 +7.47825E+00 -7.30222E+00 +1.43707E+01 -3.02077E+00
 +1.82171E+01 +4.25542E+00 +1.79178E+01 +1.26234E+01 +1.34575E+01 +1.98804E+01 +5.91453E+00 +2.40981E+01
 -2.81433E+00 +2.41285E+01 -1.05039E+01 +1.99094E+01 -1.51795E+01 +1.24896E+01 -1.56347E+01 +3.76464E+00
 -1.17543E+01 -4.00934E+00 -4.55611E+00 -8.80108E+00 +4.06126E+00 -9.33673E+00 +1.18025E+01 -5.44189E+00
 +1.65685E+01 +1.89776E+00 +1.70061E+01 +1.07761E+01 +1.28723E+01 +1.88480E+01 +5.11571E+00 +2.39316E+01
 -4.34819E+00 +2.45772E+01 -1.31155E+01 +2.04565E+01 -1.89060E+01 +1.24687E+01 -2.01534E+01 +2.53257E+00
 -1.64227E+01 -6.88729E+00 -8.54419E+00 -1.34020E+01 +1.57422E+00 -1.53117E+01 +1.14131E+01 -1.20539E+01
 +1.84722E+01 -4.36876E+00 +2.09071E+01 +5.86381E+00 +1.80110E+01 +1.60802E+01 +1.04149E+01 +2.36705E+01
 -4.65018E-02 +2.66387E+01 -1.07770E+01 +2.41193E+01 -1.90603E+01 +1.66160E+01 -2.27427E+01 +5.90041E+00
 -2.07855E+01 -5.41199E+00 -1.35457E+01 -1.45038E+01 -2.71065E+00 -1.90596E+01 +9.10255E+00 -1.78540E+01
 +1.89861E+01 -1.10765E+01 +2.44633E+01 -3.06653E-01 +2.41130E+01 +1.18590E+01 +1.79392E+01 +2.24383E+01
 +7.39042E+00 +2.88004E+01 -4.98048E+00 +2.93244E+01 -1.61360E+01 +2.38157E+01 -2.33017E+01 +1.35719E+01
 -2.46570E+01 +1.07984E+00 -1.97982E+01 -1.05865E+01 -9.85399E+00 -1.85206E+01 +2.77623E+00 -2.07037E+01
 +1.50023E+01 -1.65132E+01 +2.37990E+01 -6.89013E+00 +2.69522E+01 +5.87777E+00 +2.36120E+01 +1.87079E+01
 +1.45124E+01 +2.84747E+01 +1.80251E+00 +3.27774E+01 -1.14714E+01 +3.05344E+01 -2.21088E+01 +2.22559E+01
 -2.75384E+01 +9.92663E+00 -2.64510E+01 -3.47529E+00 -1.91232E+01 -1.47047E+01 -7.35322E+00 -2.10438E+01
 +5.97882E+00 -2.09677E+01 +1.76156E+01 -1.45181E+01 +2.47211E+01 -3.29118E+00 +2.55744E+01 +9.95678E+00
 +1.99883E+01 +2.19882E+01 +9.34884E+00 +2.98803E+01 -3.73225E+00 +3.17414E+01 -1.60670E+01 +2.71694E+01
 -2.46795E+01 +1.73409E+01 -2.75379E+01 +4.70904E+00 -2.40486E+01 -7.61303E+00 -1.51897E+01 -1.66292E+01
 -3.25304E+00 -2.02026E+01 +8.73943E+00 -1.75792E+01 +1.77983E+01 -9.56161E+00 +2.17155E+01 +1.70826E+00
 +1.96121E+01 +1.33018E+01 +1.21474E+01 +2.22510E+01 +1.33781E+00 +2.63018E+01 -9.96727E+00 +2.44828E+01
 -1.88198E+01 +1.73445E+01 -2.29305E+01 +6.81117E+00 -2.12566E+01 -4.32002E+00 -1.42703E+01 -1.31030E+01
 -3.83753E+00 -1.72068E+01 +7.26159E+00 -1.55239E+01 +1.60520E+01 -8.46599E+00 +2.01383E+01 +2.12954E+00
 +1.83366E+01 +1.34636E+01 +1.10014E+01 +2.24926E+01 -4.09985E-02 +2.67194E+01 -1.19408E+01 +2.48546E+01
 -2.15436E+01 +1.71791E+01 -2.62025E+01 +5.50847E+00 -2.44765E+01 -7.23683E+00 -1.65350E+01 -1.77543E+01
 -4.16130E+00 -2.31960E+01 +9.65459E+00 -2.19098E+01 +2.14391E+01 -1.38965E+01 +2.80980E+01 -8.60216E-01
 +2.77064E+01 +1.41664E+01 +2.00251E+01 +2.75400E+01 +6.61148E+00 +3.58930E+01 -9.51375E+00 +3.69740E+01
 -2.45672E+01 +3.02320E+01 -3.49074E+01 +1.69962E+01 -3.79232E+01 +2.00035E-01 -3.26896E+01 -1.62913E+01
 -2.02261E+01 -2.85913E+01 -3.29023E+00 -3.37232E+01 +1.42510E+01 -3.03459E+01 +2.83235E+01 -1.90975E+01
 +3.56089E+01 -2.46921E+00 +3.43356E+01 +1.57643E+01 +2.47079E+01 +3.14230E+01 +8.86857E+00 +4.09013E+01
 -9.59840E+00 +4.20141E+01 -2.65056E+01 +3.45079E+01 -3.80417E+01 +2.01144E+01 -4.16584E+01 +2.13642E+00
 -3.66544E+01 -1.53352E+01 -2.43190E+01 -2.83836E+01 -7.60415E+00 -3.41773E+01 +9.59093E+00 -3.16130E+01
 +2.33493E+01 -2.15420E+01 +3.06540E+01 -6.52895E+00 +3.00756E+01 +9.79075E+00 +2.20676E+01 +2.35947E+01
 +8.80709E+00 +3.17827E+01 -6.37364E+00 +3.26909E+01 -1.98185E+01 +2.64437E+01 -2.84351E+01 +1.48647E+01
 -3.04211E+01 +9.78304E-01 -2.56563E+01 -1.17666E+01 -1.56719E+01 -2.03549E+01 -3.21323E+00 -2.29327E+01
 +8.48530E+00 -1.92250E+01 +1.65269E+01 -1.05490E+01 +1.90722E+01 +5.72401E-01 +1.57738E+01 +1.10926E+01
 +7.82028E+00 +1.82392E+01 -2.41252E+00 +2.02248E+01 -1.20098E+01 +1.66911E+01 -1.82944E+01 +8.77510E+00
 -1.95322E+01 -1.21275E+00 -1.53840E+01 -1.04148E+01 -6.99031E+00 -1.61912E+01 +3.33276E+00 -1.68266E+01
 +1.27064E+01 -1.19954E+01 +1.84534E+01 -2.86376E+00 +1.88167E+01 +8.19841E+00 +1.34448E+01 +1.82247E+01
 +3.51774E+00 +2.44245E+01 -8.52354E+00 +2.49235E+01 -1.95809E+01 +1.92810E+01 -2.66853E+01 +8.64828E+00
 -2.77680E+01 -4.47781E+00 -2.22211E+01 -1.68518E+01 -1.11004E+01 -2.52813E+01 +3.08702E+00 -2.74352E+01
 +1.69642E+01 -2.24569E+01 +2.70983E+01 -1.12234E+01 +3.08476E+01 +3.81862E+00 +2.70331E+01 +1.92087E+01
 +1.62658E+01 +3.12896E+01 +8.43706E-01 +3.70891E+01 -1.57636E+01 +3.50534E+01 -2.97227E+01 +2.54490E+01
 -3.77457E+01 +1.03338E+01 -3.78808E+01 -6.90375E+00 -2.99937E+01 -2.23284E+01 -1.58209E+01 -3.23817E+01
 +1.42237E+00 -3.47238E+01 +1.77871E+01 -2.87917E+01 +2.95133E+01 -1.59399E+01 +3.39113E+01 +8.72246E-01
 +2.99907E+01 +1.77722E+01 +1.86890E+01 +3.08809E+01 +2.64438E+00 +3.72194E+01 -1.44306E+01 +3.53983E+01
 -2.86254E+01 +2.59297E+01 -3.67471E+01 +1.10881E+01 -3.70588E+01 -5.64338E+00 -2.96662E+01 -2.04057E+01
 -1.64635E+01 -2.98751E+01 -6.56908E-01 -3.20356E+01 +1.40160E+01 -2.66292E+01 +2.41804E+01 -1.51809E+01
 +2.76171E+01 -5.98815E-01 +2.37636E+01 +1.35496E+01 +1.38101E+01 +2.39048E+01 +3.71034E-01 +2.81161E+01
 -1.31800E+01 +2.53825E+01 -2.35451E+01 +1.66078E+01 -2.83022E+01 +4.13735E+00 -2.64735E+01 -8.85052E+00
 -1.87304E+01 -1.91453E+01 -7.18658E+00 -2.42965E+01 +5.15910E+00 -2.32027E+01 +1.51899E+01 -1.63549E+01
 +2.04532E+01 -5.67935E+00 +1.97636E+01 +5.97628E+00 +1.34782E+01 +1.55788E+01 +3.38012E+00 +2.06819E+01
 -7.79713E+00 +2.00402E+01 -1.70803E+01 +1.39121E+01 -2.20209E+01 +3.97721E+00 -2.13203E+01 -7.10699E+00
 -1.51570E+01 -1.63952E+01 -5.13546E+00 -2.14150E+01 +6.13002E+00 -2.08047E+01 +1.56897E+01 -1.46654E+01
 +2.10189E+01 -4.53958E+00 +2.06718E+01 +6.98031E+00 +1.46607E+01 +1.69135E+01 +4.46452E+00 +2.26550E+01
 -7.33749E+00 +2.26487E+01 -1.77163E+01 +1.67971E+01 -2.39632E+01 +6.50271E+00 -2.43849E+01 -5.67210E+00
 -1.87478E+01 -1.66432E+01 -8.35566E+00 -2.35812E+01 +4.26037E+00 -2.46316E+01 +1.59653E+01 -1.93956E+01
 +2.38018E+01 -9.04932E+00 +2.57355E+01 +3.93236E+00 +2.11747E+01 +1.63796E+01 +1.11349E+01 +2.52114E+01
 -1.99742E+00 +2.82042E+01 -1.50447E+01 +2.45518E+01 -2.48187E+01 +1.50782E+01 -2.89092E+01 +2.04541E+00
 -2.62838E+01 -1.13950E+01 -1.75497E+01 -2.19742E+01 -4.81092E+00 -2.71092E+01 +8.84382E+00 -2.55399E+01
 +2.00975E+01 -1.76402E+01 +2.62174E+01 -5.32728E+00 +2.57239E+01 +8.40881E+00 +1.87499E+01 +2.02390E+01
