 Created: 19-Jan-2021
 $NMID
 ID='D:\BASISSIMULATI'
 FMTDAT='(8E13.5)'
 VOLUME=   1.00000E+00
 TRAMP=   1.00000E+00
 $END
 +6.52330E+01 +1.05357E+01 +6.27929E+01 -3.34335E+00 +4.88395E+01 -1.43954E+01 +2.66055E+01 -1.84619E+01
 +1.29865E+00 -1.34636E+01 -2.12584E+01 -2.47262E-02 -3.61370E+01 +1.86565E+01 -4.05581E+01 +3.76567E+01
 -3.45579E+01 +5.16656E+01 -2.08922E+01 +5.64505E+01 -4.21262E+00 +5.00441E+01 +1.02555E+01 +3.33333E+01
 +1.81674E+01 +9.88279E+00 +1.72498E+01 -1.49603E+01 +7.90354E+00 -3.54442E+01 -6.94202E+00 -4.69010E+01
 -2.26788E+01 -4.69501E+01 -3.43364E+01 -3.60924E+01 -3.80013E+01 -1.75410E+01 -3.19475E+01 +3.66173E+00
 -1.71658E+01 +2.20001E+01 +2.85381E+00 +3.29444E+01 +2.30316E+01 +3.41228E+01 +3.80519E+01 +2.58917E+01
 +4.37954E+01 +1.11592E+01 +3.84609E+01 -5.48177E+00 +2.30725E+01 -1.90669E+01 +1.23540E+00 -2.56574E+01
 -2.17952E+01 -2.34362E+01 -4.04807E+01 -1.32053E+01 -5.04335E+01 +1.84829E+00 -4.95367E+01 +1.70516E+01
 -3.84512E+01 +2.75593E+01 -2.03813E+01 +2.97214E+01 -1.68614E-01 +2.21273E+01 +1.70328E+01 +6.04296E+00
 +2.71401E+01 -1.48824E+01 +2.82088E+01 -3.55594E+01 +2.08989E+01 -5.07974E+01 +8.22131E+00 -5.66771E+01
 -5.35737E+00 -5.15880E+01 -1.52000E+01 -3.66513E+01 -1.78183E+01 -1.54190E+01 -1.18638E+01 +7.06821E+00
 +1.48014E+00 +2.56058E+01 +1.88093E+01 +3.61769E+01 +3.54259E+01 +3.69675E+01 +4.66266E+01 +2.87793E+01
 +4.89985E+01 +1.47358E+01 +4.13691E+01 -6.28260E-01 +2.51548E+01 -1.26401E+01 +4.01068E+00 -1.77744E+01
 -1.71193E+01 -1.46025E+01 -3.32957E+01 -4.15122E+00 -4.08720E+01 +1.04197E+01 -3.84308E+01 +2.47259E+01
 -2.71220E+01 +3.43982E+01 -1.03171E+01 +3.63118E+01 +7.32127E+00 +2.94681E+01 +2.10968E+01 +1.52900E+01
 +2.75244E+01 -2.74755E+00 +2.52268E+01 -2.00484E+01 +1.52476E+01 -3.21320E+01 +7.05607E-01 -3.58398E+01
 -1.41081E+01 -3.01843E+01 -2.49355E+01 -1.66137E+01 -2.87287E+01 +1.37608E+00 -2.44788E+01 +1.91728E+01
 -1.34744E+01 +3.22695E+01 +1.07505E+00 +3.74449E+01 +1.49404E+01 +3.35882E+01 +2.40498E+01 +2.19500E+01
 +2.56167E+01 +5.76134E+00 +1.89123E+01 -1.06697E+01 +5.47483E+00 -2.31324E+01 -1.12983E+01 -2.86389E+01
 -2.70604E+01 -2.61987E+01 -3.76786E+01 -1.70374E+01 -4.03342E+01 -4.20997E+00 -3.42643E+01 +8.27865E+00
 -2.09494E+01 +1.65986E+01 -3.70025E+00 +1.81575E+01 +1.32363E+01 +1.23111E+01 +2.58088E+01 +5.32283E-01
 +3.12229E+01 -1.40006E+01 +2.86491E+01 -2.72803E+01 +1.93923E+01 -3.55684E+01 +6.48639E+00 -3.64136E+01
 -6.16854E+00 -2.93176E+01 -1.48862E+01 -1.58681E+01 -1.71952E+01 +6.88892E-01 -1.24928E+01 +1.63194E+01
 -2.17860E+00 +2.72742E+01 +1.07605E+01 +3.10742E+01 +2.25929E+01 +2.71440E+01 +2.98788E+01 +1.69290E+01
 +3.04162E+01 +3.47167E+00 +2.38402E+01 -9.43249E+00 +1.17169E+01 -1.82643E+01 -2.88744E+00 -2.07177E+01
 -1.62403E+01 -1.62922E+01 -2.49503E+01 -6.38754E+00 -2.68727E+01 +6.11673E+00 -2.16714E+01 +1.76751E+01
 -1.08891E+01 +2.50567E+01 +2.48631E+00 +2.62246E+01 +1.48376E+01 +2.08767E+01 +2.28893E+01 +1.05079E+01
 +2.45739E+01 -2.01901E+00 +1.95588E+01 -1.32682E+01 +9.30077E+00 -2.01727E+01 -3.38136E+00 -2.08655E+01
 -1.50915E+01 -1.51773E+01 -2.27821E+01 -4.66865E+00 -2.45682E+01 +7.80454E+00 -2.02124E+01 +1.88699E+01
 -1.11557E+01 +2.55472E+01 -9.23308E-02 +2.60409E+01 +9.78836E+00 +2.02033E+01 +1.56821E+01 +9.55087E+00
 +1.59323E+01 -3.16631E+00 +1.04701E+01 -1.47174E+01 +8.16534E-01 -2.22592E+01 -1.03467E+01 -2.40854E+01
 -1.99162E+01 -2.00551E+01 -2.52118E+01 -1.15933E+01 -2.46972E+01 -1.26883E+00 -1.83843E+01 +7.92748E+00
 -7.81544E+00 +1.34056E+01 +4.36442E+00 +1.36745E+01 +1.51255E+01 +8.73026E+00 +2.18631E+01 +3.25501E-02
 +2.30801E+01 -9.91576E+00 +1.87619E+01 -1.82673E+01 +1.03467E+01 -2.26131E+01 +3.07457E-01 -2.16363E+01
 -8.53581E+00 -1.54617E+01 -1.37829E+01 -5.61182E+00 -1.40916E+01 +5.41556E+00 -9.51725E+00 +1.48259E+01
 -1.46706E+00 +2.02784E+01 +7.71117E+00 +2.05037E+01 +1.53885E+01 +1.56257E+01 +1.93795E+01 +7.10415E+00
 +1.85350E+01 -2.67836E+00 +1.30438E+01 -1.10704E+01 +4.36659E+00 -1.58646E+01 -5.17497E+00 -1.58780E+01
 -1.30369E+01 -1.12449E+01 -1.71443E+01 -3.35040E+00 -1.64466E+01 +5.57296E+00 -1.11896E+01 +1.30687E+01
 -2.83455E+00 +1.71282E+01 +6.34869E+00 +1.67280E+01 +1.38997E+01 +1.20897E+01 +1.78271E+01 +4.59680E+00
 +1.71316E+01 -3.60338E+00 +1.20542E+01 -1.01990E+01 +3.98738E+00 -1.33490E+01 -4.92138E+00 -1.21818E+01
 -1.23600E+01 -7.02265E+00 -1.64750E+01 +7.05770E-01 -1.63581E+01 +8.87972E+00 -1.22677E+01 +1.52554E+01
 -5.52983E+00 +1.80752E+01 +1.84775E+00 +1.65351E+01 +7.73945E+00 +1.09889E+01 +1.04870E+01 +2.83944E+00
 +9.34708E+00 -5.85114E+00 +4.68198E+00 -1.29201E+01 -2.15456E+00 -1.66804E+01 -9.20035E+00 -1.63583E+01
 -1.44289E+01 -1.22774E+01 -1.63044E+01 -5.74305E+00 -1.41973E+01 +1.33383E+00 -8.54922E+00 +6.96977E+00
 -7.46685E-01 +9.64925E+00 +7.25887E+00 +8.72729E+00 +1.34779E+01 +4.58703E+00 +1.64124E+01 -1.48605E+00
 +1.54460E+01 -7.67442E+00 +1.09903E+01 -1.21385E+01 +4.35408E+00 -1.35254E+01 -2.62639E+00 -1.13384E+01
 -8.09135E+00 -6.06732E+00 -1.06570E+01 +9.49952E-01 -9.77637E+00 +7.89656E+00 -5.86548E+00 +1.29708E+01
 -1.66167E-01 +1.48713E+01 +5.61372E+00 +1.31408E+01 +9.78027E+00 +8.27904E+00 +1.11213E+01 +1.59627E+00
 +9.23498E+00 -5.14856E+00 +4.63103E+00 -1.02241E+01 -1.41838E+00 -1.23869E+01 -7.23532E+00 -1.12021E+01
 -1.11996E+01 -7.13992E+00 -1.21921E+01 -1.42574E+00 -9.89699E+00 +4.31045E+00 -4.88317E+00 +8.48777E+00
 +1.55454E+00 +1.00055E+01 +7.74889E+00 +8.53466E+00 +1.21095E+01 +4.59380E+00 +1.35459E+01 -6.09636E-01
 +1.17494E+01 -5.52420E+00 +7.26133E+00 -8.68949E+00 +1.31089E+00 -9.14116E+00 -4.52846E+00 -6.67554E+00
 -8.76881E+00 -1.90348E+00 -1.04056E+01 +3.91901E+00 -9.17639E+00 +9.23473E+00 -5.61214E+00 +1.26084E+01
 -8.71480E-01 +1.31133E+01 +3.59417E+00 +1.05767E+01 +6.44978E+00 +5.62007E+00 +6.84751E+00 -5.14914E-01
 +4.65804E+00 -6.30440E+00 +5.00725E-01 -1.03506E+01 -4.43310E+00 -1.17492E+01 -8.71324E+00 -1.03172E+01
 -1.10673E+01 -6.62157E+00 -1.07323E+01 -1.80538E+00 -7.66454E+00 +2.73911E+00 -2.55413E+00 +5.75795E+00
 +3.36085E+00 +6.47709E+00 +8.62587E+00 +4.80554E+00 +1.19572E+01 +1.34650E+00 +1.25791E+01 -2.78380E+00
 +1.04210E+01 -6.27721E+00 +6.12273E+00 -8.00489E+00 +8.49880E-01 -7.33593E+00 -4.02829E+00 -4.31637E+00
 -7.30887E+00 +3.39557E-01 -8.27230E+00 +5.44195E+00 -6.86117E+00 +9.64792E+00 -3.67469E+00 +1.18253E+01
 +2.16524E-01 +1.13582E+01 +3.58157E+00 +8.31222E+00 +5.37908E+00 +3.41511E+00 +5.04885E+00 -2.13939E+00
 +2.66576E+00 -7.01023E+00 -1.08491E+00 -1.00627E+01 -5.10224E+00 -1.06614E+01 -8.17945E+00 -8.82432E+00
 -9.34246E+00 -5.19862E+00 -8.12414E+00 -8.68276E-01 -4.69912E+00 +2.95220E+00 +1.56844E-01 +5.25211E+00
 +5.27118E+00 +5.49561E+00 +9.38598E+00 +3.75632E+00 +1.14916E+01 +6.81004E-01 +1.10921E+01 -2.70533E+00
 +8.33090E+00 -5.29681E+00 +3.94563E+00 -6.22337E+00 -9.35732E-01 -5.09895E+00 -5.09868E+00 -2.13307E+00
 -7.56369E+00 +1.92385E+00 -7.83815E+00 +5.98576E+00 -6.03194E+00 +8.92936E+00 -2.80766E+00 +9.90354E+00
 +8.17958E-01 +8.56497E+00 +3.76473E+00 +5.17589E+00 +5.19079E+00 +5.38013E-01 +4.72248E+00 -4.21870E+00
 +2.55028E+00 -7.93447E+00 -6.33930E-01 -9.72418E+00 -3.83892E+00 -9.20574E+00 -6.05828E+00 -6.59195E+00
 -6.55733E+00 -2.62266E+00 -5.08356E+00 +1.64237E+00 -1.94264E+00 +5.11183E+00 +2.08010E+00 +6.95364E+00
 +5.93090E+00 +6.80930E+00 +8.57304E+00 +4.87527E+00 +9.26841E+00 +1.83137E+00 +7.77849E+00 -1.36130E+00
 +4.43051E+00 -3.73572E+00 +3.14941E-02 -4.59077E+00 -4.34566E+00 -3.68467E+00 -7.64544E+00 -1.29793E+00
 -9.10551E+00 +1.85027E+00 -8.45104E+00 +4.80767E+00 -5.95641E+00 +6.65873E+00 -2.35942E+00 +6.78361E+00
 +1.34653E+00 +5.03513E+00 +4.18434E+00 +1.78501E+00 +5.45474E+00 -2.17254E+00 +4.91671E+00 -5.83338E+00
 +2.83939E+00 -8.25352E+00 -8.66334E-02 -8.80325E+00 -2.95178E+00 -7.33621E+00 -4.88659E+00 -4.22835E+00
 -5.30539E+00 -2.76750E-01 -4.06763E+00 +3.51313E+00 -1.51347E+00 +6.19378E+00 +1.63498E+00 +7.12342E+00
 +4.47817E+00 +6.12894E+00 +6.19225E+00 +3.54153E+00 +6.26067E+00 +9.72545E-02 +4.62060E+00 -3.26854E+00
 +1.68420E+00 -5.67565E+00 -1.77059E+00 -6.53299E+00 -4.80955E+00 -5.68888E+00 -6.59459E+00 -3.45878E+00
 -6.61029E+00 -5.24905E-01 -4.80352E+00 +2.26244E+00 -1.59872E+00 +4.12568E+00 +2.21431E+00 +4.57625E+00
 +5.68906E+00 +3.54695E+00 +7.97057E+00 +1.40515E+00 +8.51642E+00 -1.15574E+00 +7.23183E+00 -3.31518E+00
 +4.48399E+00 -4.35936E+00 +9.93927E-01 -3.88508E+00 -2.36290E+00 -1.91767E+00 -4.79191E+00 +1.08922E+00
 -5.78664E+00 +4.37173E+00 -5.25230E+00 +7.05923E+00 -3.51424E+00 +8.40776E+00 -1.21130E+00 +8.00015E+00
 +8.94370E-01 +5.85907E+00 +2.13714E+00 +2.44315E+00 +2.13627E+00 -1.47191E+00 +9.01145E-01 -4.99445E+00
 -1.17469E+00 -7.34576E+00 -3.42801E+00 -8.05551E+00 -5.11624E+00 -7.07247E+00 -5.63052E+00 -4.76264E+00
 -4.67259E+00 -1.79784E+00 -2.34664E+00 +1.03305E+00 +8.58794E-01 +3.03750E+00 +4.19414E+00 +3.79943E+00
 +6.84360E+00 +3.27797E+00 +8.13885E+00 +1.80002E+00 +7.73431E+00 -4.86918E-02 +5.69721E+00 -1.60199E+00
 +2.48941E+00 -2.31010E+00 -1.15325E+00 -1.90009E+00 -4.41052E+00 -4.55649E-01 -6.58529E+00 +1.60532E+00
 -7.27371E+00 +3.64825E+00 -6.45394E+00 +5.00159E+00 -4.47207E+00 +5.14871E+00 -1.93176E+00 +3.87911E+00
 +4.79938E-01 +1.35730E+00 +2.18177E+00 -1.90929E+00 +2.85070E+00 -5.19499E+00 +2.49692E+00 -7.73930E+00
 +1.44294E+00 -8.94011E+00 +2.14877E-01 -8.50524E+00 -6.21931E-01 -6.52285E+00 -6.35987E-01 -3.43325E+00
 +3.37269E-01 +8.88313E-02 +2.13938E+00 +3.30850E+00 +4.32515E+00 +5.61449E+00 +6.28107E+00 +6.66367E+00
 +7.39310E+00 +6.44926E+00 +7.21768E+00 +5.27710E+00 +5.60926E+00 +3.65963E+00 +2.76972E+00 +2.15899E+00
 -7.93631E-01 +1.22401E+00 -4.39008E+00 +1.06610E+00 -7.31467E+00 +1.60753E+00 -9.01962E+00 +2.51480E+00
 -9.24295E+00 +3.30603E+00 -8.06156E+00 +3.50103E+00 -5.85669E+00 +2.77117E+00 -3.20317E+00 +1.04690E+00
 -7.14076E-01 -1.44726E+00 +1.11668E+00 -4.24014E+00 +2.03178E+00 -6.73091E+00 +2.05801E+00 -8.34370E+00
 +1.47357E+00 -8.67827E+00 +7.07253E-01 -7.61588E+00 +1.99685E-01 -5.35261E+00 +2.66604E-01 -2.35161E+00
