 Created: 19-Jan-2021
 $NMID
 ID='D:\BASISSIMULATI'
 FMTDAT='(8E13.5)'
 VOLUME=   1.00000E+00
 TRAMP=   1.00000E+00
 $END
 +1.21706E+02 +1.16955E+01 +1.15438E+02 +3.97652E+01 +1.02215E+02 +6.52178E+01 +8.29983E+01 +8.63115E+01
 +5.91782E+01 +1.01631E+02 +3.24711E+01 +1.10191E+02 +4.78926E+00 +1.11507E+02 -2.19031E+01 +1.05630E+02
 -4.57367E+01 +9.31384E+01 -6.50764E+01 +7.50875E+01 -7.86415E+01 +5.29307E+01 -8.55986E+01 +2.84045E+01
 -8.56203E+01 +3.39531E+00 -7.89043E+01 -2.02042E+01 -6.61531E+01 -4.06388E+01 -4.85149E+01 -5.64217E+01
 -2.74913E+01 -6.64455E+01 -4.81843E+00 -7.00616E+01 +1.76685E+01 -6.71249E+01 +3.81774E+01 -5.79993E+01
 +5.50968E+01 -4.35232E+01 +6.71185E+01 -2.49398E+01 +7.33353E+01 -3.79566E+00 +7.33067E+01 +1.81822E+01
 +6.70890E+01 +3.92234E+01 +5.52248E+01 +5.76525E+01 +3.86962E+01 +7.20195E+01 +1.88428E+01 +8.12113E+01
 -2.74623E+00 +8.45361E+01 -2.43606E+01 +8.17743E+01 -4.43043E+01 +7.31918E+01 -6.10303E+01 +5.95150E+01
 -7.32617E+01 +4.18699E+01 -8.00917E+01 +2.16897E+01 -8.10535E+01 +5.99141E-01 -7.61549E+01 -1.97165E+01
 -6.58755E+01 -3.76461E+01 -5.11265E+01 -5.17814E+01 -3.31762E+01 -6.10290E+01 -1.35473E+01 -6.46976E+01
 +6.10551E+00 -6.25521E+01 +2.41286E+01 -5.48331E+01 +3.90022E+01 -4.22371E+01 +4.94630E+01 -2.58611E+01
 +5.46055E+01 -7.11544E+00 +5.39565E+01 +1.23884E+01 +4.75142E+01 +3.09663E+01 +3.57511E+01 +4.69961E+01
 +1.95783E+01 +5.90476E+01 +2.76302E-01 +6.59979E+01 -2.06048E+01 +6.71228E+01 -4.13661E+01 +6.21577E+01
 -6.02932E+01 +5.13221E+01 -7.57910E+01 +3.53062E+01 -8.65109E+01 +1.52214E+01 -9.14580E+01 -7.48349E+00
 -9.00722E+01 -3.11320E+01 -8.22760E+01 -5.39484E+01 -6.84845E+01 -7.41947E+01 -4.95777E+01 -9.03048E+01
 -2.68368E+01 -1.01007E+02 -1.84865E+00 -1.05423E+02 +2.36128E+01 -1.03139E+02 +4.77210E+01 -9.42403E+01
 +6.87351E+01 -7.93071E+01 +8.51327E+01 -5.93740E+01 +9.57261E+01 -3.58536E+01 +9.97537E+01 -1.04312E+01
 +9.69386E+01 +1.50611E+01 +8.75109E+01 +3.87824E+01 +7.21916E+01 +5.90216E+01 +5.21385E+01 +7.43260E+01
 +2.88601E+01 +8.36110E+01 +4.10152E+00 +8.62412E+01 -2.02865E+01 +8.20782E+01 -4.24866E+01 +7.14899E+01
 -6.08516E+01 +5.53222E+01 -7.40280E+01 +3.48339E+01 -8.10561E+01 +1.16010E+01 -8.14416E+01 -1.26031E+01
 -7.51903E+01 -3.59420E+01 -6.28055E+01 -5.66547E+01 -4.52476E+01 -7.31881E+01 -2.38590E+01 -8.43128E+01
 -2.60375E-01 -8.92140E+01 +2.37734E+01 -8.75507E+01 +4.64488E+01 -7.94776E+01 +6.60893E+01 -6.56303E+01
 +8.12620E+01 -4.70730E+01 +9.08840E+01 -2.52144E+01 +9.43024E+01 -1.69787E+00 +9.13394E+01 +2.17263E+01
 +8.23024E+01 +4.33352E+01 +6.79554E+01 +6.15647E+01 +4.94560E+01 +7.51280E+01 +2.82631E+01 +8.31116E+01
 +6.02079E+00 +8.50420E+01 -1.55697E+01 +8.09177E+01 -3.48826E+01 +7.12048E+01 -5.04933E+01 +5.67956E+01
 -6.12868E+01 +3.89357E+01 -6.65419E+01 +1.91228E+01 -6.59842E+01 -1.01295E+00 -5.98034E+01 -1.98378E+01
 -4.86345E+01 -3.58432E+01 -3.35042E+01 -4.77639E+01 -1.57467E+01 -5.46764E+01 +3.10381E+00 -5.60694E+01
 +2.14368E+01 -5.18828E+01 +3.76932E+01 -4.25096E+01 +5.04901E+01 -2.87629E+01 +5.87298E+01 -1.18095E+01
 +6.16874E+01 +6.92368E+00 +5.90674E+01 +2.58644E+01 +5.10276E+01 +4.34205E+01 +3.81661E+01 +5.81071E+01
 +2.14742E+01 +6.86648E+01 +2.25777E+00 +7.41609E+01 -1.79655E+01 +7.40639E+01 -3.75865E+01 +6.82870E+01
 -5.50321E+01 +5.71968E+01 -6.88896E+01 +4.15855E+01 -7.80191E+01 +2.26104E+01 -8.16449E+01 +1.70435E+00
 -7.94183E+01 -1.95361E+01 -7.14468E+01 -3.94750E+01 -5.82883E+01 -5.65653E+01 -4.09099E+01 -6.94700E+01
 -2.06141E+01 -7.71679E+01 +1.06060E+00 -7.90350E+01 +2.24584E+01 -7.48944E+01 +4.19337E+01 -6.50332E+01
 +5.79793E+01 -5.01816E+01 +6.93431E+01 -3.14593E+01 +7.51260E+01 -1.02902E+01 +7.48532E+01 +1.17055E+01
 +6.85119E+01 +3.28355E+01 +5.65547E+01 +5.14652E+01 +3.98659E+01 +6.61430E+01 +1.96959E+01 +7.57127E+01
 -2.43378E+00 +7.94025E+01 -2.48460E+01 +7.68848E+01 -4.58355E+01 +6.83032E+01 -6.37988E+01 +5.42616E+01
 -7.73568E+01 +3.57793E+01 -8.54596E+01 +1.42144E+01 -8.74667E+01 -8.83982E+00 -8.31958E+01 -3.16751E+01
 -7.29370E+01 -5.25983E+01 -5.74297E+01 -7.00595E+01 -3.78072E+01 -8.27694E+01 -1.55092E+01 -8.97966E+01
 +7.82708E+00 -9.06374E+01 +3.04917E+01 -8.52531E+01 +5.08316E+01 -7.40711E+01 +6.73762E+01 -5.79513E+01
 +7.89472E+01 -3.81189E+01 +8.47476E+01 -1.60699E+01 +8.44198E+01 +6.54368E+00 +7.80706E+01 +2.80404E+01
 +6.62603E+01 +4.68373E+01 +4.99575E+01 +6.15702E+01 +3.04625E+01 +7.11961E+01 +9.30565E+00 +7.50710E+01
 -1.18713E+01 +7.29964E+01 -3.14418E+01 +6.52313E+01 -4.79196E+01 +5.24694E+01 -6.00718E+01 +3.57824E+01
 -6.70125E+01 +1.65347E+01 -6.82683E+01 -3.72412E+00 -6.38128E+01 -2.33802E+01 -5.40650E+01 -4.08814E+01
 -3.98542E+01 -5.48570E+01 -2.23526E+01 -6.42235E+01 -2.98233E+00 -6.82670E+01 +1.66972E+01 -6.66973E+01
 +3.51118E+01 -5.96675E+01 +5.07956E+01 -4.77605E+01 +6.25054E+01 -3.19410E+01 +6.93169E+01 -1.34782E+01
 +7.06959E+01 +6.15440E+00 +6.65393E+01 +2.53960E+01 +5.71810E+01 +4.27205E+01 +4.33653E+01 +5.67570E+01
 +2.61868E+01 +6.63963E+01 +7.00418E+00 +7.08780E+01 -1.26671E+01 +6.98494E+01 -3.12742E+01 +6.33925E+01
 -4.73485E+01 +5.20176E+01 -5.96210E+01 +3.66222E+01 -6.71220E+01 +1.84210E+01 -6.92565E+01 -1.14958E+00
 -6.58516E+01 -2.05443E+01 -5.71696E+01 -3.82296E+01 -4.38882E+01 -5.28042E+01 -2.70473E+01 -6.31085E+01
 -7.96838E+00 -6.83157E+01 +1.18485E+01 -6.79968E+01 +3.08418E+01 -6.21543E+01 +4.75099E+01 -5.12232E+01
 +6.05284E+01 -3.60371E+01 +6.88534E+01 -1.77645E+01 +7.18036E+01 +2.18187E+00 +6.91132E+01 +2.22541E+01
 +6.09537E+01 +4.08891E+01 +4.79215E+01 +5.66302E+01 +3.09919E+01 +6.82393E+01 +1.14449E+01 +7.47938E+01
 -9.23379E+00 +7.57580E+01 -2.94669E+01 +7.10252E+01 -4.77070E+01 +6.09262E+01 -6.25562E+01 +4.62047E+01
 -7.28734E+01 +2.79601E+01 -7.78628E+01 +7.56336E+00 -7.71348E+01 -1.34484E+01 -7.07361E+01 -3.34897E+01
 -5.91463E+01 -5.10488E+01 -4.32408E+01 -6.48032E+01 -2.42236E+01 -7.37215E+01 -3.53439E+00 -7.71418E+01
 +1.72618E+01 -7.48222E+01 +3.65948E+01 -6.69591E+01 +5.30099E+01 -5.41709E+01 +6.52790E+01 -3.74500E+01
 +7.24944E+01 -1.80861E+01 +7.41376E+01 +2.43385E+00 +7.01183E+01 +2.25399E+01 +6.07799E+01 +4.07002E+01
 +4.68721E+01 +5.55384E+01 +2.94921E+01 +6.59389E+01 +9.99875E+00 +7.11323E+01 -1.00927E+01 +7.07529E+01
 -2.92277E+01 +6.48662E+01 -4.59326E+01 +5.39617E+01 -5.89281E+01 +3.89143E+01 -6.72270E+01 +2.09153E+01
 -7.02101E+01 +1.37890E+00 -6.76721E+01 -1.81672E+01 -5.98368E+01 -3.62007E+01 -4.73381E+01 -5.13228E+01
 -3.11697E+01 -6.23656E+01 -1.26069E+01 -6.84824E+01 +6.89281E+00 -6.92120E+01 +2.58035E+01 -6.45138E+01
 +4.26496E+01 -5.47697E+01 +5.61197E+01 -4.07534E+01 +6.51686E+01 -2.35693E+01 +6.90977E+01 -4.56636E+00
 +6.76086E+01 +1.47677E+01 +6.08251E+01 +3.29218E+01 +4.92836E+01 +4.84792E+01 +3.38902E+01 +6.02273E+01
 +1.58496E+01 +6.72516E+01 -3.42812E+00 +6.90064E+01 -2.24382E+01 +6.53564E+01 -3.96976E+01 +5.65871E+01
 -5.38603E+01 +4.33822E+01 -6.38216E+01 +2.67698E+01 -6.88038E+01 +8.04262E+00 -6.84160E+01 -1.13427E+01
 -6.26845E+01 -2.98784E+01 -5.20501E+01 -4.61229E+01 -3.73339E+01 -5.88121E+01 -1.96733E+01 -6.69575E+01
 -4.34001E-01 -6.99223E+01 +1.88961E+01 -6.74706E+01 +3.68218E+01 -5.97856E+01 +5.19566E+01 -4.74546E+01
 +6.31294E+01 -3.14240E+01 +6.94749E+01 -1.29254E+01 +7.05003E+01 +6.61938E+00 +6.61231E+01 +2.57084E+01
 +5.66765E+01 +4.28757E+01 +4.28839E+01 +5.68037E+01 +2.58024E+01 +6.64256E+01 +6.74066E+00 +7.10062E+01
 -1.28419E+01 +7.01990E+01 -3.14482E+01 +6.40716E+01 -4.76585E+01 +5.31001E+01 -6.02399E+01 +3.81315E+01
 -6.82408E+01 +2.03178E+01 -7.10636E+01 +1.02668E+00 -6.85099E+01 -1.82647E+01 -6.07946E+01 -3.60836E+01
 -4.85286E+01 -5.10750E+01 -3.26702E+01 -6.21059E+01 -1.44505E+01 -6.83522E+01 +4.72252E+00 -6.93609E+01
 +2.33734E+01 -6.50842E+01 +4.00729E+01 -5.58820E+01 +5.35489E+01 -4.24922E+01 +6.27835E+01 -2.59730E+01
 +6.70916E+01 -7.61956E+00 +6.61721E+01 +1.11371E+01 +6.01307E+01 +2.88411E+01 +4.94694E+01 +4.41251E+01
 +3.50469E+01 +5.58156E+01 +1.80107E+01 +6.30239E+01 -2.93514E-01 +6.52137E+01 -1.84265E+01 +6.22422E+01
 -3.49681E+01 +5.43697E+01 -4.86276E+01 +4.22385E+01 -5.83440E+01 +2.68214E+01 -6.33682E+01 +9.34538E+00
 -6.33205E+01 -8.80473E+00 -5.82198E+01 -2.61947E+01 -4.84810E+01 -4.14530E+01 -3.48823E+01 -5.33775E+01
 -1.85037E+01 -6.10297E+01 -6.42401E-01 -6.38070E+01 +1.72887E+01 -6.14902E+01 +3.38715E+01 -5.42598E+01
 +4.77936E+01 -4.26823E+01 +5.79505E+01 -2.76654E+01 +6.35321E+01 -1.03874E+01 +6.40859E+01 +7.79447E+00
 +5.95526E+01 +2.54503E+01 +5.02708E+01 +4.11885E+01 +3.69512E+01 +5.37646E+01 +2.06218E+01 +6.21780E+01
 +2.54769E+00 +6.57503E+01 -1.58663E+01 +6.41786E+01 -3.31847E+01 +5.75593E+01 -4.80532E+01 +4.63815E+01
 -5.93031E+01 +3.14894E+01 -6.60427E+01 +1.40178E+01 -6.77262E+01 -4.69551E+00 -6.41970E+01 -2.32126E+01
 -5.57002E+01 -4.01064E+01 -4.28638E+01 -5.40708E+01 -2.66517E+01 -6.40217E+01 -8.28917E+00 -6.91800E+01
 +1.08308E+01 -6.91329E+01 +2.92542E+01 -6.38649E+01 +4.55781E+01 -5.37601E+01 +5.85578E+01 -3.95727E+01
 +6.72022E+01 -2.23688E+01 +7.08504E+01 -3.44564E+00 +6.92214E+01 +1.57684E+01 +6.24357E+01 +3.38228E+01
 +5.10062E+01 +4.93558E+01 +3.57979E+01 +6.11987E+01 +1.79617E+01 +6.84643E+01 -1.15389E+00 +7.06146E+01
 -2.01062E+01 +6.75009E+01 -3.74689E+01 +5.93747E+01 -5.19404E+01 +4.68667E+01 -6.24433E+01 +3.09384E+01
 -6.82058E+01 +1.28068E+01 -6.88192E+01 -6.14881E+00 -6.42683E+01 -2.44932E+01 -5.49304E+01 -4.08451E+01
 -4.15452E+01 -5.39825E+01 -2.51559E+01 -6.29355E+01 -7.02844E+00 -6.70593E+01 +1.14472E+01 -6.60819E+01
 +2.88642E+01 -6.01233E+01 +4.39067E+01 -4.96835E+01 +5.54510E+01 -3.56022E+01 +6.26505E+01 -1.89923E+01
 +6.49996E+01 -1.15221E+00 +6.23702E+01 +1.65354E+01 +5.50199E+01 +3.27111E+01 +4.35692E+01 +4.61433E+01
 +2.89514E+01 +5.58236E+01 +1.23380E+01 +6.10433E+01 -4.95333E+00 +6.14467E+01 -2.15627E+01 +5.70569E+01
 -3.61938E+01 +4.82717E+01 -4.77153E+01 +3.58307E+01 -5.52481E+01 +2.07555E+01 -5.82329E+01 +4.26826E+00
 -5.64728E+01 -1.23048E+01 -5.01471E+01 -2.76383E+01 -3.97958E+01 -4.05112E+01 -2.62758E+01 -4.99034E+01
