 Created: 19-Jan-2021
 $NMID
 ID='D:\BASISSIMULATI'
 FMTDAT='(8E13.5)'
 VOLUME=   1.00000E+00
 TRAMP=   1.00000E+00
 $END
 +6.27973E+01 +7.53891E+00 +5.99181E+01 +1.18324E+01 +5.10971E+01 +1.57607E+01 +3.75223E+01 +1.97758E+01
 +2.10722E+01 +2.40517E+01 +3.97931E+00 +2.83765E+01 -1.15618E+01 +3.21673E+01 -2.37616E+01 +3.46055E+01
 -3.15025E+01 +3.48589E+01 -3.44586E+01 +3.23320E+01 -3.30534E+01 +2.68779E+01 -2.82807E+01 +1.89115E+01
 -2.14381E+01 +9.39204E+00 -1.38442E+01 -3.30425E-01 -6.60256E+00 -8.76979E+00 -4.62224E-01 -1.46038E+01
 +4.20821E+00 -1.69488E+01 +7.34417E+00 -1.55446E+01 +9.04583E+00 -1.08077E+01 +9.42883E+00 -3.74030E+00
 +8.51630E+00 +4.28048E+00 +6.20795E+00 +1.17838E+01 +2.33572E+00 +1.74896E+01 -3.21244E+00 +2.05319E+01
 -1.03423E+01 +2.05757E+01 -1.86290E+01 +1.78067E+01 -2.72669E+01 +1.28094E+01 -3.51242E+01 +6.37287E+00
 -4.09031E+01 -7.17271E-01 -4.33791E+01 -7.84598E+00 -4.16656E+01 -1.46515E+01 -3.54411E+01 -2.10088E+01
 -2.50789E+01 -2.69266E+01 -1.16409E+01 -3.23975E+01 +3.27279E+00 -3.72545E+01 +1.77930E+01 -4.10850E+01
 +3.01135E+01 -4.32393E+01 +3.88146E+01 -4.29421E+01 +4.31087E+01 -3.94864E+01 +4.29531E+01 -3.24615E+01
 +3.90093E+01 -2.19543E+01 +3.24599E+01 -8.66346E+00 +2.47304E+01 +6.11524E+00 +1.71818E+01 +2.06456E+01
 +1.08455E+01 +3.30261E+01 +6.25893E+00 +4.15314E+01 +3.43477E+00 +4.49466E+01 +1.96050E+00 +4.28218E+01
 +1.19510E+00 +3.55851E+01 +5.04625E-01 +2.44882E+01 -5.28155E-01 +1.13896E+01 -1.97615E+00 -1.57794E+00
 -3.55507E+00 -1.23885E+01 -4.72612E+00 -1.94716E+01 -4.88405E+00 -2.19599E+01 -3.57682E+00 -1.97882E+01
 -6.94628E-01 -1.36336E+01 +3.42682E+00 -4.72107E+00 +8.02130E+00 +5.45388E+00 +1.20275E+01 +1.54179E+01
 +1.43149E+01 +2.39627E+01 +1.39470E+01 +3.02904E+01 +1.04157E+01 +3.40442E+01 +3.78963E+00 +3.52341E+01
 -5.26229E+00 +3.40960E+01 -1.55809E+01 +3.09365E+01 -2.57347E+01 +2.60128E+01 -3.42955E+01 +1.94834E+01
 -4.01085E+01 +1.14416E+01 -4.24947E+01 +2.01340E+00 -4.13421E+01 -8.51605E+00 -3.70711E+01 -1.95983E+01
 -3.04893E+01 -3.03838E+01 -2.25787E+01 -3.97781E+01 -1.42718E+01 -4.65943E+01 -6.27478E+00 -4.97741E+01
 +1.02153E+00 -4.86270E+01 +7.52668E+00 -4.30292E+01 +1.33448E+01 -3.35257E+01 +1.86167E+01 -2.13012E+01
 +2.33628E+01 -8.01397E+00 +2.73792E+01 +4.47979E+00 +3.02226E+01 +1.44553E+01 +3.12973E+01 +2.06337E+01
 +3.00233E+01 +2.24113E+01 +2.60432E+01 +1.99554E+01 +1.94090E+01 +1.41437E+01 +1.06910E+01 +6.36394E+00
 +9.70123E-01 -1.78028E+00 -8.30128E+00 -8.79097E+00 -1.55472E+01 -1.35524E+01 -1.93763E+01 -1.55046E+01
 -1.88817E+01 -1.46809E+01 -1.38636E+01 -1.16116E+01 -4.91914E+00 -7.12556E+00 +6.62634E+00 -2.10681E+00
 +1.89372E+01 +2.72949E+00 +2.99919E+01 +6.98612E+00 +3.79453E+01 +1.06238E+01 +4.14558E+01 +1.38885E+01
 +3.99069E+01 +1.71532E+01 +3.34838E+01 +2.07230E+01 +2.30950E+01 +2.46629E+01 +1.01627E+01 +2.86989E+01
 -3.66270E+00 +3.22252E+01 -1.67995E+01 +3.44190E+01 -2.79792E+01 +3.44362E+01 -3.63911E+01 +3.16385E+01
 -4.17102E+01 +2.57912E+01 -4.40190E+01 +1.71801E+01 -4.36606E+01 +6.61116E+00 -4.10746E+01 -4.71058E+00
 -3.66641E+01 -1.53983E+01 -3.07314E+01 -2.41472E+01 -2.34932E+01 -2.99833E+01 -1.51606E+01 -3.24401E+01
 -6.05007E+00 -3.16223E+01 +3.32314E+00 -2.81452E+01 +1.22093E+01 -2.29687E+01 +1.96748E+01 -1.71688E+01
 +2.47388E+01 -1.17042E+01 +2.65718E+01 -7.23661E+00 +2.47077E+01 -4.04292E+00 +1.92153E+01 -2.03736E+00
 +1.07755E+01 -8.87852E-01 +6.35046E-01 -1.88664E-01 -9.56898E+00 +3.64084E-01 -1.80831E+01 +8.46594E-01
 -2.33575E+01 +1.06933E+00 -2.43429E+01 +6.39516E-01 -2.06996E+01 -8.91885E-01 -1.28704E+01 -3.83996E+00
 -1.99961E+00 -8.20783E+00 +1.02855E+01 -1.35758E+01 +2.21828E+01 -1.90978E+01 +3.20466E+01 -2.36172E+01
 +3.86711E+01 -2.58853E+01 +4.14670E+01 -2.48349E+01 +4.05008E+01 -1.98469E+01 +3.63955E+01 -1.09441E+01
 +3.01274E+01 +1.13805E+00 +2.27729E+01 +1.50286E+01 +1.52696E+01 +2.89347E+01 +8.24923E+00 +4.09511E+01
 +1.97419E+00 +4.94005E+01 -3.61283E+00 +5.31327E+01 -8.75288E+00 +5.17207E+01 -1.36929E+01 +4.55135E+01
 -1.85221E+01 +3.55407E+01 -2.30715E+01 +2.32937E+01 -2.69080E+01 +1.04368E+01 -2.94265E+01 -1.48670E+00
 -3.00153E+01 -1.12915E+01 -2.82491E+01 -1.82861E+01 -2.40562E+01 -2.22898E+01 -1.78092E+01 -2.35439E+01
 -1.03093E+01 -2.25539E+01 -2.66239E+00 -1.99135E+01 +3.92998E+00 -1.61591E+01 +8.41455E+00 -1.16927E+01
 +1.01087E+01 -6.78373E+00 +8.84656E+00 -1.63796E+00 +5.01307E+00 +3.49959E+00 -5.42191E-01 +8.25281E+00
 -6.69106E+00 +1.20743E+01 -1.22673E+01 +1.42828E+01 -1.63043E+01 +1.41801E+01 -1.82133E+01 +1.12237E+01
 -1.78627E+01 +5.21276E+00 -1.55449E+01 -3.56707E+00 -1.18440E+01 -1.42864E+01 -7.44537E+00 -2.56314E+01
 -2.94048E+00 -3.59816E+01 +1.32034E+00 -4.36778E+01 +5.28709E+00 -4.73263E+01 +9.16756E+00 -4.60762E+01
 +1.32967E+01 -3.98047E+01 +1.79574E+01 -2.91682E+01 +2.32049E+01 -1.55022E+01 +2.87500E+01 -5.89459E-01
 +3.39396E+01 +1.36570E+01 +3.78482E+01 +2.55282E+01 +3.94666E+01 +3.38022E+01 +3.79442E+01 +3.79171E+01
 +3.28260E+01 +3.80048E+01 +2.42247E+01 +3.47850E+01 +1.28784E+01 +2.93537E+01 +7.45404E-02 +2.29195E+01
 -1.25529E+01 +1.65529E+01 -2.33108E+01 +1.10036E+01 -3.07587E+01 +6.62200E+00 -3.39779E+01 +3.39247E+00
 -3.27386E+01 +1.05623E+00 -2.75305E+01 -7.19000E-01 -1.94522E+01 -2.17583E+00 -9.98751E+00 -3.35869E+00
 -7.19402E-01 -4.09039E+00 +6.95400E+00 -4.03877E+00 +1.20421E+01 -2.85206E+00 +1.40807E+01 -3.21403E-01
 +1.31329E+01 +3.47995E+00 +9.68373E+00 +8.12549E+00 +4.46854E+00 +1.28600E+01 -1.71634E+00 +1.67212E+01
 -8.16998E+00 +1.87338E+01 -1.43748E+01 +1.81302E+01 -2.00032E+01 +1.45430E+01 -2.48539E+01 +8.12031E+00
 -2.87515E+01 -4.69297E-01 -3.14508E+01 -1.01464E+01 -3.25878E+01 -1.96225E+01 -3.17008E+01 -2.76479E+01
 -2.83268E+01 -3.32489E+01 -2.21512E+01 -3.58992E+01 -1.31690E+01 -3.55871E+01 -1.81000E+00 -3.27673E+01
 +1.10180E+01 -2.82114E+01 +2.39942E+01 -2.28003E+01 +3.55584E+01 -1.73109E+01 +4.41661E+01 -1.22522E+01
 +4.85740E+01 -7.79022E+00 +4.80930E+01 -3.77792E+00 +4.27518E+01 +1.23300E-01 +3.33267E+01 +4.26720E+00
 +2.12274E+01 +8.84356E+00 +8.25761E+00 +1.37493E+01 -3.70347E+00 +1.85491E+01 -1.30302E+01 +2.25424E+01
 -1.86244E+01 +2.49222E+01 -2.00775E+01 +2.49891E+01 -1.76919E+01 +2.23647E+01 -1.23635E+01 +1.71467E+01
 -5.35916E+00 +9.96325E+00 +1.95792E+00 +1.90256E+00 +8.38929E+00 -5.67039E+00 +1.30948E+01 -1.13740E+01
 +1.56814E+01 -1.40893E+01 +1.61794E+01 -1.31961E+01 +1.49254E+01 -8.71057E+00 +1.23951E+01 -1.29460E+00
 +9.03442E+00 +7.86672E+00 +5.13989E+00 +1.72907E+01 +8.15412E-01 +2.54751E+01 -3.98553E+00 +3.11676E+01
 -9.35216E+00 +3.35692E+01 -1.52807E+01 +3.24330E+01 -2.15572E+01 +2.80451E+01 -2.77005E+01 +2.11033E+01
 -3.29904E+01 +1.25305E+01 -3.65822E+01 +3.27604E+00 -3.76827E+01 -5.84872E+00 -3.57465E+01 -1.42631E+01
 -3.06398E+01 -2.16260E+01 -2.27267E+01 -2.77718E+01 -1.28505E+01 -3.26060E+01 -2.20604E+00 -3.60017E+01
 +7.87051E+00 -3.77378E+01 +1.61504E+01 -3.75041E+01 +2.17417E+01 -3.49791E+01 +2.42477E+01 -2.99592E+01
 +2.38175E+01 -2.25026E+01 +2.10794E+01 -1.30416E+01 +1.69737E+01 -2.41993E+00 +1.25282E+01 +8.16927E+00
 +8.63043E+00 +1.73455E+01 +5.85141E+00 +2.37768E+01 +4.36159E+00 +2.64412E+01 +3.95464E+00 +2.48547E+01
 +4.16772E+00 +1.92106E+01 +4.46174E+00 +1.03921E+01 +4.41051E+00 -1.52863E-01 +3.84608E+00 -1.06541E+01
 +2.91999E+00 -1.93315E+01 +2.06297E+00 -2.47131E+01 +1.85310E+00 -2.58940E+01 +2.82758E+00 -2.26814E+01
 +5.28916E+00 -1.56003E+01 +9.16114E+00 -5.76201E+00 +1.39337E+01 +5.37030E+00 +1.87218E+01 +1.62647E+01
 +2.24265E+01 +2.55898E+01 +2.39653E+01 +3.24137E+01 +2.25186E+01 +3.62989E+01 +1.77333E+01 +3.72810E+01
 +9.83458E+00 +3.57545E+01 -3.82825E-01 +3.23018E+01 -1.16840E+01 +2.75188E+01 -2.26158E+01 +2.18818E+01
 -3.17721E+01 +1.56885E+01 -3.80439E+01 +9.07824E+00 -4.08003E+01 +2.11920E+00 -3.99645E+01 -5.07640E+00
 -3.59756E+01 -1.22493E+01 -2.96506E+01 -1.89431E+01 -2.19891E+01 -2.45293E+01 -1.39677E+01 -2.83096E+01
 -6.37551E+00 -2.96722E+01 +2.76506E-01 -2.82621E+01 +5.75907E+00 -2.41179E+01 +1.00529E+01 -1.77338E+01
 +1.32340E+01 -1.00214E+01 +1.53574E+01 -2.17214E+00 +1.63800E+01 +4.55534E+00 +1.61496E+01 +9.07639E+00
 +1.44641E+01 +1.06959E+01 +1.11858E+01 +9.24798E+00 +6.37240E+00 +5.12550E+00 +3.83017E-01 -8.07079E-01
 -6.08353E+00 -7.39919E+00 -1.20412E+01 -1.34543E+01 -1.63615E+01 -1.79692E+01 -1.79863E+01 -2.03184E+01
 -1.61627E+01 -2.03425E+01 -1.06453E+01 -1.83249E+01 -1.81347E+00 -1.48680E+01 +9.33128E+00 -1.07055E+01
 +2.12970E+01 -6.49980E+00 +3.23411E+01 -2.67973E+00 +4.07730E+01 +6.42231E-01 +4.52560E+01 +3.65336E+00
 +4.50472E+01 +6.73242E+00 +4.01245E+01 +1.02819E+01 +3.11754E+01 +1.45485E+01 +1.94529E+01 +1.94839E+01
 +6.53290E+00 +2.46859E+01 -5.97333E+00 +2.94414E+01 -1.66899E+01 +3.28637E+01 -2.46752E+01 +3.40939E+01
 -2.95141E+01 +3.25160E+01 -3.12954E+01 +2.79327E+01 -3.04926E+01 +2.06564E+01 -2.77882E+01 +1.14894E+01
 -2.38905E+01 +1.59386E+00 -1.93900E+01 -7.71900E+00 -1.46856E+01 -1.52354E+01 -9.99115E+00 -2.00646E+01
 -5.40616E+00 -2.17934E+01 -1.02040E+00 -2.05384E+01 +2.99014E+00 -1.68865E+01 +6.31208E+00 -1.17448E+01
 +8.51104E+00 -6.13682E+00 +9.11692E+00 -9.97286E-01 +7.75752E+00 +2.98826E+00 +4.30308E+00 +5.46536E+00
 -1.02193E+00 +6.40274E+00 -7.59817E+00 +6.00744E+00 -1.44635E+01 +4.59523E+00 -2.04563E+01 +2.45896E+00
 -2.44239E+01 -2.24783E-01 -2.54519E+01 -3.42327E+00 -2.30621E+01 -7.20273E+00 -1.73299E+01 -1.16269E+01
 -8.89315E+00 -1.66329E+01 +1.15574E+00 -2.19278E+01 +1.14713E+01 -2.69435E+01 +2.07068E+01 -3.08767E+01
 +2.77611E+01 -3.28142E+01 +3.19659E+01 -3.19216E+01 +3.31734E+01 -2.76530E+01 +3.17291E+01 -1.99307E+01
 +2.83419E+01 -9.24521E+00 +2.38856E+01 +3.35748E+00 +1.91845E+01 +1.64074E+01 +1.48352E+01 +2.82423E+01
 +1.11062E+01 +3.72942E+01 +7.93623E+00 +4.23715E+01 +5.02568E+00 +4.28770E+01 +1.99086E+00 +3.89157E+01
 -1.46350E+00 +3.12675E+01 -5.40375E+00 +2.12344E+01 -9.59876E+00 +1.03936E+01 -1.35440E+01 +3.11896E-01
 -1.65737E+01 -7.71942E+00 -1.80334E+01 -1.28756E+01 -1.74667E+01 -1.48819E+01 -1.47677E+01 -1.39818E+01
