 Created: 19-Jan-2021
 $NMID
 ID='D:\BASISSIMULATI'
 FMTDAT='(8E13.5)'
 VOLUME=   1.00000E+00
 TRAMP=   1.00000E+00
 $END
 +3.64727E+01 +3.65632E+00 +3.50576E+01 +1.10360E+01 +3.19890E+01 +1.78947E+01 +2.74511E+01 +2.38396E+01
 +2.17235E+01 +2.85405E+01 +1.51605E+01 +3.17525E+01 +8.16593E+00 +3.33327E+01 +1.16311E+00 +3.32493E+01
 -5.43502E+00 +3.15820E+01 -1.12554E+01 +2.85148E+01 -1.59912E+01 +2.43202E+01 -1.94221E+01 +1.93378E+01
 -2.14291E+01 +1.39482E+01 -2.20003E+01 +8.54349E+00 -2.12293E+01 +3.49776E+00 -1.93053E+01 -8.60457E-01
 -1.64962E+01 -4.27222E+00 -1.31257E+01 -6.56632E+00 -9.54676E+00 -7.67043E+00 -6.11267E+00 -7.61443E+00
 -3.14911E+00 -6.52575E+00 -9.28188E-01 -4.61709E+00 +3.52793E-01 -2.16762E+00 +5.86494E-01 +5.01002E-01
 -2.36558E-01 +3.05159E+00 -2.02788E+00 +5.15962E+00 -4.60876E+00 +6.54015E+00 -7.72505E+00 +6.97155E+00
 -1.10681E+01 +6.31411E+00 -1.42996E+01 +4.52219E+00 -1.70795E+01 +1.64887E+00 -1.90934E+01 -2.15717E+00
 -2.00782E+01 -6.66227E+00 -1.98444E+01 -1.15652E+01 -1.82916E+01 -1.65196E+01 -1.54186E+01 -2.11608E+01
 -1.13244E+01 -2.51330E+01 -6.20296E+00 -2.81170E+01 -3.29481E-01 -2.98548E+01 +5.95876E+00 -3.01696E+01
 +1.22867E+01 -2.89797E+01 +1.82684E+01 -2.63056E+01 +2.35352E+01 -2.22694E+01 +2.77622E+01 -1.70863E+01
 +3.06919E+01 -1.10492E+01 +3.21519E+01 -4.50871E+00 +3.20679E+01 +2.15302E+00 +3.04674E+01 +8.54879E+00
 +2.74776E+01 +1.43141E+01 +2.33150E+01 +1.91328E+01 +1.82688E+01 +2.27586E+01 +1.26790E+01 +2.50316E+01
 +6.91138E+00 +2.58881E+01 +1.33057E+00 +2.53629E+01 -3.72641E+00 +2.35851E+01 -7.97395E+00 +2.07656E+01
 -1.11975E+01 +1.71797E+01 -1.32677E+01 +1.31451E+01 -1.41474E+01 +8.99639E+00 -1.38922E+01 +5.05966E+00
 -1.26430E+01 +1.62726E+00 -1.06132E+01 -1.06373E+00 -8.06979E+00 -2.84867E+00 -5.31064E+00 -3.64659E+00
 -2.64003E+00 -3.46470E+00 -3.43884E-01 -2.39599E+00 +1.33325E+00 -6.10016E-01 +2.20760E+00 +1.66210E+00
 +2.17059E+00 +4.14750E+00 +1.19719E+00 +6.55445E+00 -6.52453E-01 +8.59653E+00 -3.23810E+00 +1.00163E+01
 -6.35087E+00 +1.06064E+01 -9.73000E+00 +1.02269E+01 -1.30837E+01 +8.81685E+00 -1.61124E+01 +6.40020E+00
 -1.85326E+01 +3.08445E+00 -2.00994E+01 -9.46799E-01 -2.06262E+01 -5.44729E+00 -1.99995E+01 -1.01265E+01
 -1.81890E+01 -1.46713E+01 -1.52500E+01 -1.87693E+01 -1.13208E+01 -2.21327E+01 -6.61257E+00 -2.45193E+01
 -1.39437E+00 -2.57508E+01 +4.02610E+00 -2.57262E+01 +9.32482E+00 -2.44288E+01 +1.41848E+01 -2.19279E+01
 +1.83186E+01 -1.83733E+01 +2.14890E+01 -1.39842E+01 +2.35251E+01 -9.03270E+00 +2.43340E+01 -3.82455E+00
 +2.39062E+01 +1.32362E+00 +2.23151E+01 +6.10674E+00 +1.97100E+01 +1.02529E+01 +1.63042E+01 +1.35422E+01
 +1.23577E+01 +1.58211E+01 +8.15776E+00 +1.70124E+01 +3.99695E+00 +1.71182E+01 +1.51560E-01 +1.62182E+01
 -3.13833E+00 +1.44608E+01 -5.68570E+00 +1.20505E+01 -7.36908E+00 +9.23087E+00 -8.13980E+00 +6.26413E+00
 -8.02353E+00 +3.41103E+00 -7.11609E+00 +9.10377E-01 -5.57394E+00 -1.03904E+00 -3.60013E+00 -2.29313E+00
 -1.42696E+00 -2.77261E+00 +7.03381E-01 -2.46795E+00 +2.55861E+00 -1.43870E+00 +3.93505E+00 +1.92534E-01
 +4.67382E+00 +2.25101E+00 +4.67326E+00 +4.52472E+00 +3.89676E+00 +6.78195E+00 +2.37531E+00 +8.79037E+00
 +2.04755E-01 +1.03357E+01 -2.46197E+00 +1.12393E+01 -5.42712E+00 +1.13719E+01 -8.46372E+00 +1.06648E+01
 -1.13334E+01 +9.11483E+00 -1.38050E+01 +6.78508E+00 -1.56724E+01 +3.80041E+00 -1.67705E+01 +3.37979E-01
 -1.69881E+01 -3.38596E+00 -1.62761E+01 -7.13224E+00 -1.46514E+01 -1.06566E+01 -1.21958E+01 -1.37277E+01
 -9.04962E+00 -1.61443E+01 -5.40161E+00 -1.77495E+01 -1.47475E+00 -1.84421E+01 +2.48998E+00 -1.81838E+01
 +6.25112E+00 -1.70006E+01 +9.58407E+00 -1.49808E+01 +1.22969E+01 -1.22677E+01 +1.42435E+01 -9.04822E+00
 +1.53332E+01 -5.53896E+00 +1.55362E+01 -1.96993E+00 +1.48843E+01 +1.43223E+00 +1.34668E+01 +4.46048E+00
 +1.14228E+01 +6.94183E+00 +8.92961E+00 +8.74896E+00 +6.18864E+00 +9.80817E+00 +3.40973E+00 +1.01031E+01
 +7.95440E-01 +9.67420E+00 -1.47393E+00 +8.61372E+00 -3.25314E+00 +7.05717E+00 -4.44188E+00 +5.17149E+00
 -4.99100E+00 +3.14134E+00 -4.90461E+00 +1.15419E+00 -4.23812E+00 -6.14325E-01 -3.09236E+00 -2.01378E+00
 -1.60428E+00 -2.93012E+00 +6.48366E-02 -3.29372E+00 +1.74283E+00 -3.08383E+00 +3.26068E+00 -2.32909E+00
 +4.46598E+00 -1.10422E+00 +5.23482E+00 +4.76819E-01 +5.48127E+00 +2.27057E+00 +5.16368E+00 +4.11601E+00
 +4.28746E+00 +5.84757E+00 +2.90418E+00 +7.30834E+00 +1.10700E+00 +8.36239E+00 -9.76914E-01 +8.90523E+00
 -3.19660E+00 +8.87178E+00 -5.38912E+00 +8.24109E+00 -7.39219E+00 +7.03771E+00 -9.05652E+00 +5.32945E+00
 -1.02570E+01 +3.22201E+00 -1.09021E+01 +8.50679E-01 -1.09400E+01 -1.62996E+00 -1.03625E+01 -4.05770E+00
 -9.20480E+00 -6.27474E+00 -7.54254E+00 -8.13916E+00 -5.48567E+00 -9.53505E+00 -3.16987E+00 -1.03805E+01
 -7.46358E-01 -1.06328E+01 +1.62936E+00 -1.02911E+01 +3.80878E+00 -9.39494E+00 +5.66087E+00 -8.02106E+00
 +7.08107E+00 -6.27659E+00 +7.99807E+00 -4.29059E+00 +8.37794E+00 -2.20414E+00 +8.22546E+00 -1.59763E-01
 +7.58247E+00 +1.70891E+00 +6.52357E+00 +3.28656E+00 +5.14954E+00 +4.48390E+00 +3.57896E+00 +5.24328E+00
 +1.93886E+00 +5.54170E+00 +3.54950E-01 +5.39119E+00 -1.05764E+00 +4.83654E+00 -2.20255E+00 +3.95064E+00
 -3.00872E+00 +2.82785E+00 -3.43472E+00 +1.57606E+00 -3.47075E+00 +3.07870E-01 -3.13812E+00 -8.68128E-01
 -2.48642E+00 -1.85560E+00 -1.58862E+00 -2.57739E+00 -5.34572E-01 -2.98083E+00 +5.76607E-01 -3.04092E+00
 +1.64454E+00 -2.76131E+00 +2.57548E+00 -2.17307E+00 +3.28938E+00 -1.33136E+00 +3.72570E+00 -3.10420E-01
 +3.84754E+00 +8.02838E-01 +3.64384E+00 +1.91590E+00 +3.12944E+00 +2.93797E+00 +2.34330E+00 +3.78696E+00
 +1.34481E+00 +4.39551E+00 +2.08715E-01 +4.71577E+00 -9.80948E-01 +4.72253E+00 -2.13747E+00 +4.41449E+00
 -3.17806E+00 +3.81376E+00 -4.02989E+00 +2.96353E+00 -4.63528E+00 +1.92430E+00 -4.95546E+00 +7.68899E-01
 -4.97289E+00 -4.23209E-01 -4.69188E+00 -1.57196E+00 -4.13755E+00 -2.60249E+00 -3.35331E+00 -3.45041E+00
 -2.39711E+00 -4.06602E+00 -1.33671E+00 -4.41736E+00 -2.44511E-01 -4.49178E+00 +8.07821E-01 -4.29605E+00
 +1.75440E+00 -3.85505E+00 +2.53949E+00 -3.20920E+00 +3.12103E+00 -2.41088E+00 +3.47284E+00 -1.52017E+00
 +3.58574E+00 -6.00207E-01 +3.46724E+00 +2.87406E-01 +3.14010E+00 +1.08683E+00 +2.63991E+00 +1.75159E+00
 +2.01177E+00 +2.24728E+00 +1.30658E+00 +2.55325E+00 +5.77104E-01 +2.66316E+00 -1.25862E-01 +2.58455E+00
 -7.56928E-01 +2.33730E+00 -1.27892E+00 +1.95147E+00 -1.66490E+00 +1.46439E+00 -1.89934E+00 +9.17568E-01
 -1.97832E+00 +3.53453E-01 -1.90894E+00 -1.87634E-01 -1.70797E+00 -6.70135E-01 -1.39989E+00 -1.06537E+00
 -1.01455E+00 -1.35297E+00 -5.84622E-01 -1.52159E+00 -1.43152E-01 -1.56893E+00 +2.78803E-01 -1.50110E+00
 +6.54098E-01 -1.33141E+00 +9.60989E-01 -1.07887E+00 +1.18409E+00 -7.66279E-01 +1.31477E+00 -4.18429E-01
 +1.35106E+00 -6.02186E-02 +1.29710E+00 +2.84949E-01 +1.16223E+00 +5.96501E-01 +9.59829E-01 +8.57667E-01
 +7.06104E-01 +1.05608E+00 +4.18773E-01 +1.18399E+00 +1.15900E-01 +1.23819E+00 -1.85125E-01 +1.21963E+00
 -4.68409E-01 +1.13289E+00 -7.20145E-01 +9.85502E-01 -9.28981E-01 +7.87247E-01 -1.08620E+00 +5.49513E-01
 -1.18577E+00 +2.84675E-01 -1.22424E+00 +5.59191E-03 -1.20062E+00 -2.74812E-01 -1.11628E+00 -5.43876E-01
 -9.74794E-01 -7.89485E-01 -7.81821E-01 -1.00033E+00 -5.45056E-01 -1.16617E+00 -2.74125E-01 -1.27815E+00
 +1.95399E-02 -1.32917E+00 +3.22893E-01 -1.31424E+00 +6.21590E-01 -1.23100E+00 +9.00435E-01 -1.08006E+00
 +1.14399E+00 -8.65402E-01 +1.33734E+00 -5.94621E-01 +1.46696E+00 -2.78959E-01 +1.52171E+00 +6.68617E-02
 +1.49374E+00 +4.25093E-01 +1.37947E+00 +7.75709E-01 +1.18023E+00 +1.09743E+00 +9.02786E-01 +1.36898E+00
 +5.59416E-01 +1.57052E+00 +1.67674E-01 +1.68516E+00 -2.50325E-01 +1.70041E+00 -6.69024E-01 +1.60948E+00
 -1.06093E+00 +1.41228E+00 -1.39839E+00 +1.11598E+00 -1.65562E+00 +7.35143E-01 -1.81066E+00 +2.91236E-01
 -1.84734E+00 -1.88406E-01 -1.75683E+00 -6.72137E-01 -1.53888E+00 -1.12603E+00 -1.20239E+00 -1.51620E+00
 -7.65382E-01 -1.81138E+00 -2.54235E-01 -1.98535E+00 +2.97734E-01 -2.01922E+00 +8.52348E-01 -1.90333E+00
 +1.36914E+00 -1.63844E+00 +1.80823E+00 -1.23633E+00 +2.13338E+00 -7.19508E-01 +2.31485E+00 -1.20072E-01
 +2.33201E+00 +5.22170E-01 +2.17531E+00 +1.16230E+00 +1.84755E+00 +1.75341E+00 +1.36423E+00 +2.25003E+00
 +7.52967E-01 +2.61155E+00 +5.19921E-02 +2.80554E+00 -6.92305E-01 +2.81046E+00 -1.42849E+00 +2.61773E+00
 -2.10372E+00 +2.23288E+00 -2.66767E+00 +1.67566E+00 -3.07634E+00 +9.79053E-01 -3.29559E+00 +1.87315E-01
 -3.30397E+00 -6.47008E-01 -3.09478E+00 -1.46673E+00 -2.67694E+00 -2.21416E+00 -2.07482E+00 -2.83540E+00
 -1.32681E+00 -3.28451E+00 -4.82766E-01 -3.52713E+00 +3.99409E-01 -3.54336E+00 +1.25797E+00 -3.32959E+00
 +2.03192E+00 -2.89913E+00 +2.66561E+00 -2.28155E+00 +3.11310E+00 -1.52078E+00 +3.34185E+00 -6.72011E-01
 +3.33543E+00 +2.02281E-01 +3.09510E+00 +1.03702E+00 +2.64001E+00 +1.76949E+00 +2.00606E+00 +2.34419E+00
 +1.24337E+00 +2.71731E+00 +4.12667E-01 +2.86031E+00 -4.19271E-01 +2.76243E+00 -1.18474E+00 +2.43185E+00
 -1.82039E+00 +1.89538E+00 -2.27230E+00 +1.19675E+00 -2.50039E+00 +3.93487E-01 -2.48189E+00 -4.47375E-01
 -2.21348E+00 -1.25434E+00 -1.71196E+00 -1.95699E+00 -1.01342E+00 -2.49160E+00 -1.70811E-01 -2.80625E+00
 +7.49803E-01 -2.86525E+00 +1.67411E+00 -2.65228E+00 +2.52515E+00 -2.17215E+00 +3.22925E+00 -1.45096E+00
 +3.72182E+00 -5.34629E-01 +3.95260E+00 +5.14223E-01 +3.88982E+00 +1.62063E+00 +3.52313E+00 +2.70274E+00
 +2.86490E+00 +3.67791E+00 +1.94979E+00 +4.46893E+00 +8.32595E-01 +5.01000E+00 -4.15389E-01 +5.25194E+00
 -1.71142E+00 +5.16615E+00 -2.96728E+00 +4.74720E+00 -4.09571E+00 +4.01358E+00 -5.01692E+00 +3.00676E+00
 -5.66460E+00 +1.78840E+00 -5.99099E+00 +4.36089E-01 -5.97062E+00 -9.62211E-01 -5.60237E+00 -2.31456E+00
 -4.90978E+00 -3.53177E+00 -3.93946E+00 -4.53404E+00 -2.75772E+00 -5.25684E+00 -1.44578E+00 -5.65578E+00
 -9.37141E-02 -5.70996E+00 +1.20621E+00 -5.42347E+00 +2.36646E+00 -4.82514E+00 +3.31080E+00 -3.96629E+00
 +3.98005E+00 -2.91685E+00 +4.33646E+00 -1.75993E+00 +4.36661E+00 -5.85488E-01 +4.08229E+00 +5.16632E-01
