 Created: 19-Jan-2021
 $NMID
 ID='D:\BASISSIMULATI'
 FMTDAT='(8E13.5)'
 VOLUME=   1.00000E+00
 TRAMP=   1.00000E+00
 $END
 +5.67133E+01 +5.31217E+00 +5.35237E+01 +1.93581E+01 +4.69168E+01 +3.21442E+01 +3.73205E+01 +4.28549E+01
 +2.53529E+01 +5.08087E+01 +1.17830E+01 +5.55013E+01 -2.51893E+00 +5.66377E+01 -1.66374E+01 +5.41510E+01
 -2.96699E+01 +4.82057E+01 -4.07848E+01 +3.91875E+01 -4.92746E+01 +2.76778E+01 -5.46003E+01 +1.44165E+01
 -5.64266E+01 +2.54170E-01 -5.46421E+01 -1.39022E+01 -4.93666E+01 -2.71474E+01 -4.09428E+01 -3.86360E+01
 -2.99144E+01 -4.76362E+01 -1.69906E+01 -5.35765E+01 -3.00064E+00 -5.60817E+01 +1.11592E+01 -5.49971E+01
 +2.45833E+01 -5.03977E+01 +3.64144E+01 -4.25831E+01 +4.58987E+01 -3.20580E+01 +5.24333E+01 -1.94996E+01
 +5.56050E+01 -5.71414E+00 +5.52164E+01 +8.41506E+00 +5.12979E+01 +2.19840E+01 +4.41055E+01 +3.41260E+01
 +3.41043E+01 +4.40670E+01 +2.19382E+01 +5.11746E+01 +8.38842E+00 +5.49990E+01 -5.67643E+00 +5.53008E+01
 -1.93563E+01 +5.20662E+01 -3.17770E+01 +4.55075E+01 -4.21464E+01 +3.60494E+01 -4.98046E+01 +2.43011E+01
 -5.42664E+01 +1.10174E+01 -5.52514E+01 -2.94983E+00 -5.27020E+01 -1.67066E+01 -4.67869E+01 -2.93735E+01
 -3.78895E+01 -4.01424E+01 -2.65834E+01 -4.83277E+01 -1.35953E+01 -5.34100E+01 +2.41705E-01 -5.50694E+01
 +1.40415E+01 -5.32050E+01 +2.69218E+01 -4.79416E+01 +3.80606E+01 -3.96211E+01 +4.67482E+01 -2.87802E+01
 +5.24332E+01 -1.61162E+01 +5.47566E+01 -2.44160E+00 +5.35753E+01 +1.13677E+01 +4.89702E+01 +2.44284E+01
 +4.12411E+01 +3.59067E+01 +3.08873E+01 +4.50711E+01 +1.85747E+01 +5.13393E+01 +5.09385E+00 +5.43150E+01
 -8.69157E+00 +5.38131E+01 -2.18996E+01 +4.98712E+01 -3.36867E+01 +4.27467E+01 -4.33013E+01 +3.29002E+01
 -5.01321E+01 +2.09655E+01 -5.37468E+01 +7.70897E+00 -5.39193E+01 -6.01965E+00 -5.06438E+01 -1.93418E+01
 -4.41353E+01 -3.14064E+01 -3.48151E+01 -4.14439E+01 -2.32834E+01 -4.88157E+01 -1.02810E+01 -5.30546E+01
 +3.35831E+00 -5.38946E+01 +1.67615E+01 -5.12873E+01 +2.90719E+01 -4.54047E+01 +3.95041E+01 -3.66282E+01
 +4.73941E+01 -2.55235E+01 +5.22413E+01 -1.28042E+01 +5.37406E+01 +7.13853E-01 +5.18013E+01 +1.41650E+01
 +4.65529E+01 +2.66894E+01 +3.83362E+01 +3.74875E+01 +2.76811E+01 +4.58718E+01 +1.52729E+01 +5.13098E+01
 +1.90752E+00 +5.34586E+01 -1.15588E+01 +5.21859E+01 -2.42649E+01 +4.75783E+01 -3.53996E+01 +3.99359E+01
 -4.42534E+01 +2.97519E+01 -5.02637E+01 +1.76816E+01 -5.30507E+01 +4.49971E+00 -5.24412E+01 -8.94924E+00
 -4.84796E+01 -2.18049E+01 -4.14245E+01 -3.32461E+01 -3.17317E+01 -4.25436E+01 -2.00253E+01 -4.91063E+01
 -7.05675E+00 -5.25189E+01 +6.34262E+00 -5.25680E+01 +1.93154E+01 -4.92558E+01 +3.10328E+01 -4.27994E+01
 +4.07476E+01 -3.36166E+01 +4.78417E+01 -2.22987E+01 +5.18657E+01 -9.57283E+00 +5.25671E+01 +3.74518E+00
 +4.99062E+01 +1.68028E+01 +4.40585E+01 +2.87656E+01 +3.54029E+01 +3.88703E+01 +2.44972E+01 +4.64738E+01
 +1.20423E+01 +5.10938E+01 -1.16309E+00 +5.24397E+01 -1.42734E+01 +5.04304E+01 -2.64504E+01 +4.51997E+01
 -3.69171E+01 +3.70872E+01 -4.50069E+01 +2.66161E+01 -5.02062E+01 +1.44596E+01 -5.21872E+01 +1.39757E+00
 -5.08283E+01 -1.17333E+01 -4.62215E+01 -2.40933E+01 -3.86665E+01 -3.48934E+01 -2.86511E+01 -4.34454E+01
 -1.68194E+01 -4.92062E+01 -3.93085E+00 -5.18116E+01 +9.18880E+00 -5.11001E+01 +2.17003E+01 -4.71224E+01
 +3.28047E+01 -4.01379E+01 +4.17941E+01 -3.05980E+01 +4.80971E+01 -1.91166E+01 +5.13148E+01 -6.43091E+00
 +5.12465E+01 +6.64607E+00 +4.79015E+01 +1.92776E+01 +4.14990E+01 +3.06566E+01 +3.24530E+01 +4.00577E+01
 +2.13463E+01 +4.68826E+01 +8.89204E+00 +5.06992E+01 -4.11120E+00 +5.12681E+01 -1.68312E+01 +4.85580E+01
 -2.84550E+01 +4.27474E+01 -3.82411E+01 +3.42126E+01 -4.55668E+01 +2.35036E+01 -4.99674E+01 +1.13087E+01
 -5.11662E+01 -1.59022E+00 -4.90915E+01 -1.43672E+01 -4.38812E+01 -2.62055E+01 -3.58733E+01 -3.63496E+01
 -2.55842E+01 -4.41536E+01 -1.36754E+01 -4.91222E+01 -9.10944E-01 -5.09421E+01 +1.18918E+01 -4.95019E+01
 +2.39140E+01 -4.48988E+01 +3.43883E+01 -3.74321E+01 +4.26474E+01 -2.75837E+01 +4.81667E+01 -1.59871E+01
 +5.05975E+01 -3.38645E+00 +4.97893E+01 +9.41094E+00 +4.57988E+01 +2.15865E+01 +3.88862E+01 +3.23627E+01
 +2.94981E+01 +4.10528E+01 +1.82386E+01 +4.71042E+01 +5.83059E+00 +5.01344E+01 -6.93075E+00 +4.99542E+01
 -1.92289E+01 +4.65802E+01 -3.02783E+01 +4.02331E+01 -3.93743E+01 +3.13235E+01 -4.59384E+01 +2.04251E+01
 -4.95550E+01 +8.23777E+00 -4.99973E+01 -4.45713E+00 -4.72421E+01 -1.68471E+01 -4.14705E+01 -2.81405E+01
 -3.30564E+01 -3.76168E+01 -2.25419E+01 -4.46730E+01 -1.06025E+01 -4.88617E+01 +1.99600E+00 -4.99197E+01
 +1.44471E+01 -4.77841E+01 +2.59550E+01 -4.25966E+01 +3.57852E+01 -3.46936E+01 +4.33119E+01 -2.45846E+01
 +4.80574E+01 -1.29196E+01 +4.97227E+01 -4.46849E-01 +4.82061E+01 +1.20349E+01 +4.36095E+01 +2.37276E+01
 +3.62318E+01 +3.38848E+01 +2.65490E+01 +4.18594E+01 +1.51839E+01 +4.71450E+01 +2.86571E+00 +4.94079E+01
 -9.61636E+00 +4.85081E+01 -2.14640E+01 +4.45081E+01 -3.19206E+01 +3.76685E+01 -4.03198E+01 +2.84311E+01
 -4.61277E+01 +1.73904E+01 -4.89772E+01 +5.25498E+00 -4.86905E+01 -7.19734E+00 -4.52911E+01 -1.91699E+01
 -3.90010E+01 -2.98980E+01 -3.02271E+01 -3.86975E+01 -1.95343E+01 -4.50090E+01 -7.60920E+00 -4.84326E+01
 +4.78370E+00 -4.87541E+01 +1.68513E+01 -4.59577E+01 +2.78224E+01 -4.02272E+01 +3.69974E+01 -3.19335E+01
 +4.37924E+01 -2.16111E+01 +4.77766E+01 -9.92302E+00 +4.86997E+01 +2.38119E+00 +4.65075E+01 +1.45138E+01
 +4.13451E+01 +2.56994E+01 +3.35471E+01 +3.52242E+01 +2.36164E+01 +4.24818E+01 +1.21913E+01 +4.70118E+01
 +4.51872E-03 +4.85287E+01 -1.21634E+01 +4.69402E+01 -2.35344E+01 +4.23530E+01 -3.33829E+01 +3.50648E+01
 -4.10813E+01 +2.55461E+01 -4.61410E+01 +1.44089E+01 -4.82424E+01 +2.36784E+00 -4.72560E+01 -9.80570E+00
 -4.32495E+01 -2.13332E+01 -3.64839E+01 -3.14785E+01 -2.73962E+01 -3.95951E+01 -1.65710E+01 -4.51673E+01
 -4.70328E+00 -4.78428E+01 +7.44655E+00 -4.74550E+01 +1.91012E+01 -4.40335E+01 +2.95162E+01 -3.78019E+01
 +3.80276E+01 -2.91630E+01 +4.40941E+01 -1.86730E+01 +4.73318E+01 -7.00551E+00 +4.75380E+01 +5.09161E+00
 +4.47042E+01 +1.68442E+01 +3.90166E+01 +2.75013E+01 +3.08431E+01 +3.63832E+01 +2.07103E+01 +4.29249E+01
 +9.26928E+00 +4.67117E+01 -2.74651E+00 +4.75058E+01 -1.45678E+01 +4.52611E+01 -2.54391E+01 +4.01259E+01
 -3.46668E+01 +3.24332E+01 -4.16633E+01 +2.26787E+01 -4.59850E+01 +1.14895E+01 -4.73595E+01 -4.16792E-01
 -4.57038E+01 -1.22778E+01 -4.11283E+01 -2.33351E+01 -3.39303E+01 -3.28830E+01 -2.45741E+01 -4.03133E+01
 -1.36613E+01 -4.51544E+01 -1.89207E+00 -4.71007E+01 +9.97962E+00 -4.60324E+01 +2.11946E+01 -4.20224E+01
 +3.10368E+01 -3.53317E+01 +3.88790E+01 -2.63925E+01 +4.42230E+01 -1.57798E+01 +4.67310E+01 -4.17473E+00
 +4.62471E+01 +7.67903E+00 +4.28069E+01 +1.90232E+01 +3.66350E+01 +2.91332E+01 +2.81304E+01 +3.73646E+01
 +1.78404E+01 +4.31939E+01 +6.42592E+00 +4.62523E+01 -5.38155E+00 +4.63485E+01 -1.68264E+01 +4.34810E+01
 -2.71774E+01 +3.78379E+01 -3.57744E+01 +2.97842E+01 -4.20705E+01 +1.98388E+01 -4.56668E+01 +8.64053E+00
 -4.63374E+01 -3.09266E+00 -4.40442E+01 -1.46097E+01 -3.89384E+01 -2.51745E+01 -3.13509E+01 -3.41131E+01
 -2.17707E+01 -4.08564E+01 -1.08136E+01 -4.49768E+01 +8.17804E-01 -4.62149E+01 +1.23786E+01 -4.44961E+01
 +2.31298E+01 -3.99349E+01 +3.23852E+01 -3.28275E+01 +3.95554E+01 -2.36321E+01 +4.41851E+01 -1.29402E+01
 +4.59824E+01 -1.43768E+00 +4.48367E+01 +1.01387E+01 +4.08260E+01 +2.10487E+01 +3.42111E+01 +3.05957E+01
 +2.54192E+01 +3.81714E+01 +1.50158E+01 +4.32945E+01 +3.66855E+00 +4.56414E+01 -7.89543E+00 +4.50662E+01
 -1.89364E+01 +4.16105E+01 -2.87493E+01 +3.54995E+01 -3.67085E+01 +2.71283E+01 -4.23081E+01 +1.70357E+01
 -4.51938E+01 +5.86966E+00 -4.51852E+01 -5.65417E+00 -4.22874E+01 -1.67984E+01 -3.66904E+01 -2.68510E+01
 -2.87562E+01 -3.51710E+01 -1.89957E+01 -4.12291E+01 -8.03600E+00 -4.46416E+01 +3.42034E+00 -4.51942E+01
 +1.46400E+01 -4.28563E+01 +2.49060E+01 -3.77818E+01 +3.35633E+01 -3.02995E+01 +4.00611E+01 -2.08916E+01
 +4.39871E+01 -1.01627E+01 +4.50944E+01 +1.19922E+00 +4.33167E+01 +1.24666E+01 +3.87721E+01 +2.29192E+01
 +3.17555E+01 +3.18899E+01 +2.27195E+01 +3.88076E+01 +1.22450E+01 +4.32329E+01 +1.00394E+00 +4.48871E+01
 -1.02836E+01 +4.36685E+01 -2.08959E+01 +3.96597E+01 -3.01555E+01 +3.31214E+01 -3.74724E+01 +2.44755E+01
 -4.23818E+01 +1.42782E+01 -4.45736E+01 +3.18402E+00 -4.39120E+01 -8.09636E+00 -4.04436E+01 -1.88414E+01
 -3.43948E+01 -2.83648E+01 -2.61562E+01 -3.60596E+01 -1.62581E+01 -4.14367E+01 -5.33599E+00 -4.41559E+01
 +5.91014E+00 -4.40475E+01 +1.67607E+01 -4.11229E+01 +2.65226E+01 -3.55734E+01 +3.45733E+01 -2.77581E+01
 +4.04007E+01 -1.81802E+01 +4.36358E+01 -7.45494E+00 +4.40757E+01 +3.73019E+00 +4.16967E+01 +1.46593E+01
 +3.66554E+01 +2.46339E+01 +2.92782E+01 +3.30177E+01 +2.00406E+01 +3.92773E+01 +9.53606E+00 +4.30156E+01
 -1.56172E+00 +4.39976E+01 -1.25422E+01 +4.21649E+01 -2.27036E+01 +3.76391E+01 -3.13973E+01 +3.07137E+01
 -3.80698E+01 +2.18353E+01 -4.22977E+01 +1.15747E+01 -4.38144E+01 +5.90161E-01 -4.25272E+01 -1.04149E+01
 -3.85229E+01 -2.07367E+01 -3.20617E+01 -2.97165E+01 -2.35606E+01 -3.67821E+01 -1.35664E+01 -4.14847E+01
 -2.72044E+00 -4.35274E+01 +8.28244E+00 -4.27838E+01 +1.87385E+01 -3.93057E+01 +2.79799E+01 -3.33199E+01
 +3.54179E+01 -2.52130E+01 +4.05795E+01 -1.55067E+01 +4.31384E+01 -4.82419E+00 +4.29350E+01 +6.15006E+00
 +3.99867E+01 +1.67138E+01 +3.44862E+01 +2.61924E+01 +2.67893E+01 +3.39813E+01 +1.73916E+01 +3.95852E+01
 +6.89660E+00 +4.26492E+01 -4.02288E+00 +4.29815E+01 -1.46680E+01 +4.05650E+01 -2.43585E+01 +3.55585E+01
 -3.24764E+01 +2.82863E+01 -3.85049E+01 +1.92169E+01 -4.20620E+01 +8.93297E+00 -4.29241E+01 -1.90597E+00
 -4.10402E+01 -1.26060E+01 -3.65352E+01 -2.24833E+01 -2.97012E+01 -3.09074E+01 -2.09788E+01 -3.73421E+01
 -1.09287E+01 -4.13791E+01 -1.95659E-01 -4.27639E+01 +1.05331E+01 -4.14123E+01 +2.05715E+01 -3.74148E+01
 +2.92788E+01 -3.10313E+01 +3.61004E+01 -2.26737E+01 +4.06030E+01 -1.28795E+01 +4.25024E+01 -2.27711E+00
 +4.16812E+01 +8.45424E+00 +3.81961E+01 +1.86282E+01 +3.22743E+01 +2.75951E+01 +2.42982E+01 +3.47834E+01
