 Created: 19-Jan-2021
 $NMID
 ID='D:\BASISSIMULATI'
 FMTDAT='(8E13.5)'
 VOLUME=   1.00000E+00
 TRAMP=   1.00000E+00
 $END
 +3.77546E+01 +3.52641E+00 +3.56350E+01 +1.29321E+01 +3.12037E+01 +2.14907E+01 +2.47535E+01 +2.86428E+01
 +1.67097E+01 +3.39227E+01 +7.60229E+00 +3.69890E+01 -1.97018E+00 +3.76473E+01 -1.13801E+01 +3.58625E+01
 -2.00129E+01 +3.17610E+01 -2.73078E+01 +2.56211E+01 -3.27947E+01 +1.78542E+01 -3.61254E+01 +8.97704E+00
 -3.70956E+01 -4.23871E-01 -3.56577E+01 -9.73105E+00 -3.19231E+01 -1.83375E+01 -2.61539E+01 -2.56870E+01
 -1.87435E+01 -3.13104E+01 -1.01904E+01 -3.48563E+01 -1.06348E+00 -3.61134E+01 +8.03607E+00 -3.50228E+01
 +1.65151E+01 -3.16811E+01 +2.38278E+01 -2.63315E+01 +2.95112E+01 -1.93468E+01 +3.32154E+01 -1.12028E+01
 +3.47248E+01 -2.44551E+00 +3.39711E+01 +6.34604E+00 +3.10360E+01 +1.45985E+01 +2.61431E+01 +2.17822E+01
 +1.96417E+01 +2.74457E+01 +1.19812E+01 +3.12449E+01 +3.68002E+00 +3.29634E+01 -4.71000E+00 +3.25257E+01
 -1.26409E+01 +2.99992E+01 -1.96049E+01 +2.55874E+01 -2.51672E+01 +1.96141E+01 -2.89937E+01 +1.24995E+01
 -3.08712E+01 +4.73033E+00 -3.07191E+01 -3.17356E+00 -2.85919E+01 -1.06946E+01 -2.46730E+01 -1.73520E+01
 -1.92595E+01 -2.27324E+01 -1.27400E+01 -2.65163E+01 -5.56640E+00 -2.84972E+01 +1.77751E+00 -2.85920E+01
 +8.80902E+00 -2.68444E+01 +1.50787E+01 -2.34179E+01 +2.01994E+01 -1.85826E+01 +2.38705E+01 -1.26936E+01
 +2.58955E+01 -6.16568E+00 +2.61923E+01 +5.56624E-01 +2.47951E+01 +7.02918E+00 +2.18490E+01 +1.28381E+01
 +1.75969E+01 +1.76263E+01 +1.23599E+01 +2.11161E+01 +6.51369E+00 +2.31244E+01 +4.61310E-01 +2.35729E+01
 -5.39470E+00 +2.24890E+01 -1.06793E+01 +2.00007E+01 -1.50691E+01 +1.63243E+01 -1.83125E+01 +1.17470E+01
 -2.02437E+01 +6.60427E+00 -2.07907E+01 +1.25613E+00 -1.99766E+01 -3.93860E+00 -1.79142E+01 -8.64632E+00
 -1.47946E+01 -1.25803E+01 -1.08711E+01 -1.55179E+01 -6.43953E+00 -1.73135E+01 -1.81569E+00 -1.79045E+01
 +2.68656E+00 -1.73121E+01 +6.77688E+00 -1.56359E+01 +1.02072E+01 -1.30436E+01 +1.27867E+01 -9.75610E+00
 +1.43922E+01 -6.02950E+00 +1.49731E+01 -2.13588E+00 +1.45513E+01 +1.65648E+00 +1.32158E+01 +5.10153E+00
 +1.11126E+01 +7.99136E+00 +8.43189E+00 +1.01687E+01 +5.39150E+00 +1.15350E+01 +2.22043E+00 +1.20541E+01
 -8.58315E-01 +1.17509E+01 -3.64317E+00 +1.07061E+01 -5.96713E+00 +9.04662E+00 -7.70762E+00 +6.93383E+00
 -8.79245E+00 +4.54932E+00 -9.20173E+00 +2.08039E+00 -8.96577E+00 -2.94168E-01 -8.15932E+00 -2.41676E+00
 -6.89275E+00 -4.16129E+00 -5.30115E+00 -5.44040E+00 -3.53212E+00 -6.20931E+00 -1.73340E+00 -6.46602E+00
 -4.12711E-02 -6.24819E+00 +1.42939E+00 -5.62705E+00 +2.59267E+00 -4.69898E+00 +3.39634E+00 -3.57562E+00
 +3.82351E+00 -2.37328E+00 +3.89120E+00 -1.20274E+00 +3.64614E+00 -1.60109E-01 +3.15825E+00 +6.80557E-01
 +2.51254E+00 +1.27215E+00 +1.80010E+00 +1.59682E+00 +1.10905E+00 +1.66553E+00 +5.16237E-01 +1.51495E+00
 +8.03976E-02 +1.20223E+00 -1.62723E-01 +7.98010E-01 -2.02862E-01 +3.78482E-01 -5.52117E-02 +1.71807E-02
 +2.42043E-01 -2.22726E-01 +6.32371E-01 -2.94954E-01 +1.04724E+00 -1.74872E-01 +1.41356E+00 +1.37907E-01
 +1.66153E+00 +6.19308E-01 +1.73220E+00 +1.22297E+00 +1.58398E+00 +1.88460E+00 +1.19758E+00 +2.52811E+00
 +5.78895E-01 +3.07299E+00 -2.40464E-01 +3.44227E+00 -1.20503E+00 +3.57035E+00 -2.23961E+00 +3.40996E+00
 -3.25539E+00 +2.93770E+00 -4.15748E+00 +2.15759E+00 -4.85319E+00 +1.10226E+00 -5.26059E+00 -1.68347E-01
 -5.31627E+00 -1.57064E+00 -4.98196E+00 -3.00336E+00 -4.24913E+00 -4.35517E+00 -3.14137E+00 -5.51347E+00
 -1.71414E+00 -6.37364E+00 -5.19212E-02 -6.84800E+00 +1.73718E+00 -6.87369E+00 +3.52884E+00 -6.41888E+00
 +5.19154E+00 -5.48677E+00 +6.59650E+00 -4.11686E+00 +7.62770E+00 -2.38355E+00 +8.19128E+00 -3.91874E-01
 +8.22355E+00 +1.72922E+00 +7.69693E+00 +3.83560E+00 +6.62332E+00 +5.77820E+00 +5.05467E+00 +7.41382E+00
 +3.08042E+00 +8.61592E+00 +8.22274E-01 +9.28437E+00 -1.57376E+00 +9.35360E+00 -3.94714E+00 +8.79828E+00
 -6.13401E+00 +7.63636E+00 -7.97880E+00 +5.92886E+00 -9.34558E+00 +3.77666E+00 -1.01282E+01 +1.31423E+00
 -1.02583E+01 -1.29906E+00 -9.71132E+00 -3.88970E+00 -8.50877E+00 -6.28192E+00 -6.71773E+00 -8.30998E+00
 -4.44700E+00 -9.82990E+00 -1.84023E+00 -1.07299E+01 +9.33528E-01 -1.09386E+01 +3.69115E+00 -1.04306E+01
 +6.24788E+00 -9.22905E+00 +8.43006E+00 -7.40424E+00 +1.00872E+01 -5.06978E+00 +1.11025E+01 -2.37503E+00
 +1.14014E+01 +5.04699E-01 +1.09568E+01 +3.37990E+00 +9.79130E+00 +6.05970E+00 +7.97635E+00 +8.36481E+00
 +5.62738E+00 +1.01398E+01 +2.89637E+00 +1.12639E+01 -3.83092E-02 +1.16591E+01 -2.98384E+00 +1.12958E+01
 -5.74593E+00 +1.01951E+01 -8.14193E+00 +8.42704E+00 -1.00132E+01 +6.10662E+00 -1.12356E+01 +3.38557E+00
 -1.17283E+01 +4.42455E-01 -1.14587E+01 -2.52939E+00 -1.04449E+01 -5.33482E+00 -8.75420E+00 -7.78995E+00
 -6.49881E+00 -9.73445E+00 -3.82786E+00 -1.10422E+01 -9.17546E-01 -1.16294E+01 +2.04077E+00 -1.14605E+01
 +4.85340E+00 -1.05497E+01 +7.33721E+00 -8.96025E+00 +9.33175E+00 -6.79968E+00 +1.07098E+01 -4.21253E+00
 +1.13854E+01 -1.37046E+00 +1.13196E+01 +1.53935E+00 +1.05224E+01 +4.32667E+00 +9.05166E+00 +6.81090E+00
 +7.00911E+00 +8.83290E+00 +4.53293E+00 +1.02653E+01 +1.78843E+00 +1.10206E+01 -1.04319E+00 +1.10566E+01
 -3.77693E+00 +1.03785E+01 -6.23625E+00 +9.03832E+00 -8.26458E+00 +7.13071E+00 -9.73538E+00 +4.78625E+00
 -1.05601E+01 +2.16249E+00 -1.06934E+01 -5.66839E-01 -1.01358E+01 -3.22337E+00 -8.93277E+00 -5.63590E+00
 -7.17119E+00 -7.65153E+00 -4.97313E+00 -9.14537E+00 -2.48727E+00 -1.00283E+01 +1.21228E-01 -1.02524E+01
 +2.68174E+00 -9.81319E+00 +5.02942E+00 -8.74941E+00 +7.01591E+00 -7.13980E+00 +8.51870E+00 -5.09721E+00
 +9.44869E+00 -2.76075E+00 +9.75545E+00 -2.86222E-01 +9.42981E+00 +2.16428E+00 +8.50374E+00 +4.43303E+00
 +7.04752E+00 +6.37688E+00 +5.16452E+00 +7.87625E+00 +2.98380E+00 +8.84251E+00 +6.51349E-01 +9.22311E+00
 -1.67977E+00 +9.00435E+00 -3.85946E+00 +8.21150E+00 -5.75024E+00 +6.90642E+00 -7.23590E+00 +5.18284E+00
 -8.22862E+00 +3.15968E+00 -8.67409E+00 +9.72877E-01 -8.55429E+00 -1.23378E+00 -7.88803E+00 -3.31805E+00
 -6.72888E+00 -5.14840E+00 -5.16109E+00 -6.61228E+00 -3.29347E+00 -7.62297E+00 -1.25196E+00 -8.12465E+00
 +8.28934E-01 -8.09533E+00 +2.81488E+00 -7.54758E+00 +4.58039E+00 -6.52702E+00 +6.01669E+00 -5.10865E+00
 +7.03837E+00 -3.39149E+00 +7.58834E+00 -1.49165E+00 +7.64092E+00 +4.65413E-01 +7.20283E+00 +2.35315E+00
 +6.31206E+00 +4.05206E+00 +5.03482E+00 +5.45717E+00 +3.46068E+00 +6.48446E+00 +1.69636E+00 +7.07577E+00
 -1.41399E-01 +7.20204E+00 -1.93357E+00 +6.86448E+00 -3.56641E+00 +6.09393E+00 -4.93867E+00 +4.94826E+00
 -5.96775E+00 +3.50811E+00 -6.59459E+00 +1.87134E+00 -6.78697E+00 +1.46392E-01 -6.54101E+00 -1.55479E+00
 -5.88085E+00 -3.12397E+00 -4.85657E+00 -4.46341E+00 -3.54048E+00 -5.49190E+00 -2.02212E+00 -6.14957E+00
 -4.02201E-01 -6.40132E+00 +1.21396E+00 -6.23854E+00 +2.72325E+00 -5.67915E+00 +4.03122E+00 -4.76601E+00
 +5.05796E+00 -3.56372E+00 +5.74287E+00 -2.15410E+00 +6.04816E+00 -6.30731E-01 +5.96085E+00 +9.07191E-01
 +5.49316E+00 +2.36126E+00 +4.68127E+00 +3.64005E+00 +3.58268E+00 +4.66483E+00 +2.27215E+00 +5.37430E+00
 +8.36712E-01 +5.72819E+00 -6.30032E-01 +5.70951E+00 -2.03396E+00 +5.32520E+00 -3.28641E+00 +4.60536E+00
 -4.30966E+00 +3.60096E+00 -5.04174E+00 +2.38032E+00 -5.44011E+00 +1.02453E+00 -5.48407E+00 -3.77922E-01
 -5.17573E+00 -1.73679E+00 -4.53962E+00 -2.96585E+00 -3.62078E+00 -3.98832E+00 -2.48166E+00 -4.74158E+00
 -1.19792E+00 -5.18097E+00 +1.46541E-01 -5.28238E+00 +1.46500E+00 -5.04354E+00 +2.67345E+00 -4.48386E+00
 +3.69592E+00 -3.64301E+00 +4.46917E+00 -2.57808E+00 +4.94660E+00 -1.35980E+00 +5.10099E+00 -6.78949E-02
 +4.92605E+00 +1.21411E+00 +4.43657E+00 +2.40423E+00 +3.66727E+00 +3.42722E+00 +2.67038E+00 +4.21929E+00
 +1.51214E+00 +4.73206E+00 +2.68428E-01 +4.93552E+00 -9.80160E-01 +4.81969E+00 -2.15350E+00 +4.39515E+00
 -3.17705E+00 +3.69211E+00 -3.98657E+00 +2.75835E+00 -4.53211E+00 +1.65595E+00 -4.78109E+00 +4.57250E-01
 -4.72024E+00 -7.59895E-01 -4.35627E+00 -1.91715E+00 -3.71528E+00 -2.94069E+00 -2.84089E+00 -3.76594E+00
 -1.79136E+00 -4.34159E+00 -6.35682E-01 -4.63281E+00 +5.50916E-01 -4.62331E+00 +1.69185E+00 -4.31629E+00
 +2.71411E+00 -3.73403E+00 +3.55293E+00 -2.91633E+00 +4.15588E+00 -1.91780E+00 +4.48612E+00 -8.04241E-01
 +4.52470E+00 +3.51688E-01 +4.27157E+00 +1.47520E+00 +3.74550E+00 +2.49421E+00 +2.98266E+00 +3.34396E+00
 +2.03420E+00 +3.97113E+00 +9.62789E-01 +4.33720E+00 -1.61482E-01 +4.42079E+00 -1.26571E+00 +4.21892E+00
 -2.27889E+00 +3.74704E+00 -3.13651E+00 +3.03791E+00 -3.78461E+00 +2.13928E+00 -4.18325E+00 +1.11075E+00
 -4.30891E+00 +1.97710E-02 -4.15592E+00 -1.06276E+00 -3.73662E+00 -2.06711E+00 -3.08044E+00 -2.92922E+00
 -2.23186E+00 -3.59480E+00 -1.24737E+00 -4.02272E+00 -1.91686E-01 -4.18759E+00 +8.66435E-01 -4.08124E+00
 +1.85875E+00 -3.71308E+00 +2.72189E+00 -3.10933E+00 +3.40146E+00 -2.31119E+00 +3.85542E+00 -1.37200E+00
 +4.05672E+00 -3.53684E-01 +3.99486E+00 +6.77345E-01 +3.67646E+00 +1.65451E+00 +3.12461E+00 +2.51537E+00
 +2.37723E+00 +3.20564E+00 +1.48445E+00 +3.68258E+00 +5.05280E-01 +3.91765E+00 -4.96328E-01 +3.89822E+00
 -1.45564E+00 +3.62818E+00 -2.31135E+00 +3.12753E+00 -3.00945E+00 +2.43090E+00 -3.50669E+00 +1.58518E+00
 -3.77318E+00 +6.46373E-01 -3.79423E+00 -3.24170E-01 -3.57108E+00 -1.26370E+00 -3.12066E+00 -2.11215E+00
 -2.47431E+00 -2.81595E+00 -1.67564E+00 -3.33140E+00 -7.77528E-01 -3.62739E+00 +1.61306E-01 -3.68720E+00
 +1.08018E+00 -3.50945E+00 +1.92035E+00 -3.10800E+00 +2.62872E+00 -2.51087E+00 +3.16120E+00 -1.75835E+00
 +3.48543E+00 -9.00202E-01 +3.58267E+00 +7.53654E-03 +3.44890E+00 +9.06252E-01 +3.09487E+00 +1.73849E+00
 +2.54528E+00 +2.45161E+00 +1.83707E+00 +3.00107E+00 +1.01692E+00 +3.35318E+00 +1.38210E-01 +3.48711E+00
 -7.42420E-01 +3.39611E+00 -1.56871E+00 +3.08778E+00 -2.28832E+00 +2.58346E+00 -2.85610E+00 +1.91676E+00
 -3.23686E+00 +1.13134E+00 -3.40753E+00 +2.78052E-01 -3.35851E+00 -5.88295E-01 -3.09414E+00 -1.41241E+00
 -2.63236E+00 -2.14201E+00 -2.00351E+00 -2.73106E+00 -1.24830E+00 -3.14262E+00 -4.15246E-01 -3.35112E+00
