 Created: 19-Jan-2021
 $NMID
 ID='D:\BASISSIMULATI'
 FMTDAT='(8E13.5)'
 VOLUME=   1.00000E+00
 TRAMP=   1.00000E+00
 $END
 +4.47832E+01 +2.82701E+00 +3.79017E+01 +2.19344E+01 +2.19022E+01 +3.36902E+01 +2.92106E+00 +3.42652E+01
 -1.18798E+01 +2.42649E+01 -1.71779E+01 +8.43854E+00 -1.15968E+01 -6.27048E+00 +1.78666E+00 -1.35419E+01
 +1.67298E+01 -1.02249E+01 +2.63778E+01 +2.40704E+00 +2.60512E+01 +1.91921E+01 +1.51431E+01 +3.31810E+01
 -2.63105E+00 +3.84504E+01 -2.07252E+01 +3.24947E+01 -3.23872E+01 +1.72364E+01 -3.33578E+01 -1.74430E+00
 -2.35581E+01 -1.74432E+01 -7.09535E+00 -2.42235E+01 +9.40719E+00 -2.00435E+01 +1.94752E+01 -7.22835E+00
 +1.93684E+01 +8.51327E+00 +9.54736E+00 +2.04222E+01 -5.55867E+00 +2.34257E+01 -1.93795E+01 +1.61758E+01
 -2.58823E+01 +1.57372E+00 -2.20183E+01 -1.44209E+01 -8.95559E+00 -2.52076E+01 +8.39095E+00 -2.62105E+01
 +2.33344E+01 -1.67199E+01 +3.00937E+01 -1.72887E-01 +2.60961E+01 +1.72285E+01 +1.29813E+01 +2.89988E+01
 -4.08578E+00 +3.09474E+01 -1.85079E+01 +2.28188E+01 -2.49035E+01 +8.34330E+00 -2.12444E+01 -6.30989E+00
 -9.62831E+00 -1.50451E+01 +4.61478E+00 -1.43016E+01 +1.51092E+01 -4.47539E+00 +1.70273E+01 +1.02626E+01
 +9.04400E+00 +2.36681E+01 -6.12946E+00 +2.99511E+01 -2.28371E+01 +2.61088E+01 -3.47472E+01 +1.31277E+01
 -3.73803E+01 -4.41957E+00 -2.98792E+01 -2.02107E+01 -1.53191E+01 -2.86965E+01 +5.59084E-01 -2.72938E+01
 +1.16680E+01 -1.73710E+01 +1.40106E+01 -3.64283E+00 +7.25303E+00 +7.77198E+00 -5.18826E+00 +1.18374E+01
 -1.75694E+01 +6.62898E+00 -2.41677E+01 -5.90646E+00 -2.16043E+01 -2.07561E+01 -1.02100E+01 -3.18759E+01
 +6.11015E+00 -3.46281E+01 +2.14459E+01 -2.76411E+01 +3.02458E+01 -1.33479E+01 +2.95210E+01 +3.00110E+00
 +2.00079E+01 +1.54447E+01 +5.83129E+00 +1.96817E+01 -7.18369E+00 +1.47553E+01 -1.38611E+01 +3.38074E+00
 -1.17384E+01 -9.20165E+00 -2.01826E+00 -1.73744E+01 +1.09614E+01 -1.74204E+01 +2.15156E+01 -9.01422E+00
 +2.49267E+01 +4.66496E+00 +1.93533E+01 +1.82317E+01 +6.56810E+00 +2.62718E+01 -8.75979E+00 +2.55162E+01
 -2.09392E+01 +1.61409E+01 -2.55262E+01 +1.67717E+00 -2.10752E+01 -1.24180E+01 -9.67571E+00 -2.09472E+01
 +3.92919E+00 -2.10302E+01 +1.42746E+01 -1.32113E+01 +1.73709E+01 -1.18298E+00 +1.22828E+01 +9.75013E+00
 +1.46333E+00 +1.48359E+01 -1.02788E+01 +1.17939E+01 -1.77490E+01 +1.72100E+00 -1.74751E+01 -1.13710E+01
 -9.10509E+00 -2.21860E+01 +4.45905E+00 -2.62773E+01 +1.82335E+01 -2.18246E+01 +2.71482E+01 -1.03441E+01
 +2.80581E+01 +3.94129E+00 +2.09651E+01 +1.58056E+01 +8.96868E+00 +2.11041E+01 -3.01850E+00 +1.83990E+01
 -1.02639E+01 +9.48130E+00 -1.01083E+01 -1.40763E+00 -3.00249E+00 -9.32686E+00 +7.71910E+00 -1.06460E+01
 +1.72217E+01 -4.50451E+00 +2.11430E+01 +6.85834E+00 +1.73568E+01 +1.90242E+01 +6.82259E+00 +2.71828E+01
 -6.81030E+00 +2.80607E+01 -1.86710E+01 +2.12166E+01 -2.46089E+01 +9.19194E+00 -2.28254E+01 -3.53106E+00
 -1.45470E+01 -1.23313E+01 -3.48187E+00 -1.42814E+01 +5.70585E+00 -9.27717E+00 +9.28184E+00 -1.98543E-02
 +5.92599E+00 +9.12476E+00 -2.77373E+00 +1.39196E+01 -1.30029E+01 +1.19736E+01 -2.02898E+01 +3.69545E+00
 -2.13208E+01 -7.88923E+00 -1.52721E+01 -1.83704E+01 -4.12846E+00 -2.37284E+01 +8.12525E+00 -2.19339E+01
 +1.71024E+01 -1.37342E+01 +1.97529E+01 -2.32193E+00 +1.55449E+01 +7.96544E+00 +6.62432E+00 +1.33836E+01
 -3.09618E+00 +1.22537E+01 -9.53859E+00 +5.58475E+00 -1.01002E+01 -3.38986E+00 -4.67566E+00 -1.05611E+01
 +4.34011E+00 -1.26234E+01 +1.30540E+01 -8.40643E+00 +1.76661E+01 +6.68780E-01 +1.60039E+01 +1.11807E+01
 +8.38508E+00 +1.90936E+01 -2.52674E+00 +2.13724E+01 -1.28016E+01 +1.71774E+01 -1.88125E+01 +8.16700E+00
 -1.86600E+01 -2.19999E+00 -1.28849E+01 -1.00661E+01 -4.19559E+00 -1.27110E+01 +3.66388E+00 -9.60470E+00
 +7.43799E+00 -2.56450E+00 +5.65977E+00 +5.03042E+00 -7.90489E-01 +9.63756E+00 -9.07897E+00 +8.99142E+00
 -1.55911E+01 +3.00800E+00 -1.74007E+01 -6.20033E+00 -1.34424E+01 -1.51911E+01 -4.92238E+00 -2.05785E+01
 +5.18353E+00 -2.03767E+01 +1.33299E+01 -1.47647E+01 +1.68073E+01 -5.97609E+00 +1.47889E+01 +2.62628E+00
 +8.60750E+00 +7.90583E+00 +1.16572E+00 +8.18895E+00 -4.26679E+00 +3.89080E+00 -5.37715E+00 -2.70786E+00
 -1.72166E+00 -8.42703E+00 +5.13038E+00 -1.04956E+01 +1.22643E+01 -7.67069E+00 +1.66165E+01 -7.24142E-01
 +1.62104E+01 +7.88789E+00 +1.09375E+01 +1.50237E+01 +2.57881E+00 +1.81119E+01 -5.92688E+00 +1.61573E+01
 -1.16604E+01 +1.01008E+01 -1.28670E+01 +2.40207E+00 -9.61251E+00 -3.97105E+00 -3.69914E+00 -6.73076E+00
 +2.10787E+00 -5.15684E+00 +5.21901E+00 -3.35660E-01 +4.26069E+00 +5.32987E+00 -3.96926E-01 +9.12692E+00
 -6.82407E+00 +9.14137E+00 -1.23380E+01 +5.02238E+00 -1.45954E+01 -1.89541E+00 -1.25276E+01 -9.14682E+00
 -6.74835E+00 -1.41314E+01 +7.17541E-01 -1.51415E+01 +7.25922E+00 -1.20126E+01 +1.07175E+01 -6.14536E+00
 +1.02156E+01 +9.34829E-02 +6.45804E+00 +4.33692E+00 +1.39092E+00 +5.15496E+00 -2.62138E+00 +2.59048E+00
 -3.76323E+00 -1.90943E+00 -1.48688E+00 -6.12295E+00 +3.29681E+00 -7.97669E+00 +8.61818E+00 -6.38547E+00
 +1.22635E+01 -1.67497E+00 +1.26677E+01 +4.57067E+00 +9.52678E+00 +1.01599E+01 +3.89248E+00 +1.31703E+01
 -2.27347E+00 +1.26944E+01 -6.89262E+00 +9.16182E+00 -8.58418E+00 +4.12221E+00 -7.17575E+00 -4.08318E-01
 -3.71656E+00 -2.76251E+00 -4.27701E-03 -2.26899E+00 +2.16970E+00 +5.21586E-01 +1.74562E+00 +4.10756E+00
 -1.19748E+00 +6.67954E+00 -5.50526E+00 +6.86631E+00 -9.44101E+00 +4.28152E+00 -1.13970E+01 -3.40640E-01
 -1.05326E+01 -5.46144E+00 -7.08703E+00 -9.36378E+00 -2.25327E+00 -1.08281E+01 +2.32020E+00 -9.58704E+00
 +5.18862E+00 -6.38661E+00 +5.66180E+00 -2.64395E+00 +4.03197E+00 +1.44886E-01 +1.40127E+00 +1.00160E+00
 -8.05596E-01 -1.71782E-01 -1.43539E+00 -2.59913E+00 -6.48353E-02 -4.98699E+00 +2.85401E+00 -6.07402E+00
 +6.20634E+00 -5.14468E+00 +8.68451E+00 -2.30323E+00 +9.31605E+00 +1.59128E+00 +7.83615E+00 +5.28791E+00
 +4.76308E+00 +7.64598E+00 +1.16062E+00 +8.06983E+00 -1.80239E+00 +6.70613E+00 -3.30934E+00 +4.33753E+00
 -3.18688E+00 +2.03120E+00 -1.92258E+00 +6.96402E-01 -4.17905E-01 +7.33119E-01 +4.09024E-01 +1.90735E+00
 +2.48244E-03 +3.48979E+00 -1.62159E+00 +4.58632E+00 -3.91019E+00 +4.51552E+00 -6.02289E+00 +3.07811E+00
 -7.18258E+00 +6.16383E-01 -6.97943E+00 -2.14702E+00 -5.50885E+00 -4.41153E+00 -3.29918E+00 -5.61079E+00
 -1.07346E+00 -5.60817E+00 +5.46129E-01 -4.70558E+00 +1.26714E+00 -3.47693E+00 +1.20162E+00 -2.50831E+00
 +7.69568E-01 -2.15887E+00 +4.85843E-01 -2.43894E+00 +7.29118E-01 -3.04482E+00 +1.59063E+00 -3.52166E+00
 +2.85857E+00 -3.47424E+00 +4.13197E+00 -2.73233E+00 +5.00325E+00 -1.40511E+00 +5.22507E+00 +1.87635E-01
 +4.79155E+00 +1.66529E+00 +3.90785E+00 +2.74395E+00 +2.87395E+00 +3.33187E+00 +1.94401E+00 +3.52764E+00
 +1.22812E+00 +3.53339E+00 +6.76916E-01 +3.53336E+00 +1.47277E-01 +3.60001E+00 -4.92079E-01 +3.67121E+00
 -1.27247E+00 +3.60389E+00 -2.09990E+00 +3.27065E+00 -2.80340E+00 +2.64535E+00 -3.22914E+00 +1.83093E+00
 -3.32872E+00 +1.01357E+00 -3.19217E+00 +3.66502E-01 -3.00474E+00 -4.57895E-02 -2.94598E+00 -3.09990E-01
 -3.08174E+00 -6.25240E-01 -3.30683E+00 -1.19633E+00 -3.37487E+00 -2.10856E+00 -3.00990E+00 -3.24819E+00
 -2.05205E+00 -4.31532E+00 -5.67830E-01 -4.93464E+00 +1.13459E+00 -4.82132E+00 +2.60433E+00 -3.92798E+00
 +3.42721E+00 -2.50014E+00 +3.41047E+00 -1.00350E+00 +2.68720E+00 +5.69357E-02 +1.68451E+00 +3.53882E-01
 +9.56563E-01 -1.04622E-01 +9.45432E-01 -9.53779E-01 +1.77114E+00 -1.60874E+00 +3.14730E+00 -1.51200E+00
 +4.47081E+00 -3.90608E-01 +5.06031E+00 +1.58995E+00 +4.45040E+00 +3.85166E+00 +2.61703E+00 +5.61255E+00
 +3.04934E-02 +6.20113E+00 -2.49983E+00 +5.34829E+00 -4.13688E+00 +3.32910E+00 -4.36045E+00 +8.83448E-01
 -3.19965E+00 -1.06506E+00 -1.24701E+00 -1.78451E+00 +5.64579E-01 -1.05030E+00 +1.34132E+00 +7.36606E-01
 +6.11834E-01 +2.69015E+00 -1.44789E+00 +3.79300E+00 -4.05173E+00 +3.32549E+00 -6.10120E+00 +1.19211E+00
 -6.63162E+00 -1.99750E+00 -5.22637E+00 -5.13992E+00 -2.22363E+00 -7.06764E+00 +1.38151E+00 -7.02747E+00
 +4.31293E+00 -5.00995E+00 +5.52322E+00 -1.78530E+00 +4.63075E+00 +1.38223E+00 +2.09882E+00 +3.23615E+00
 -9.28170E-01 +3.04615E+00 -3.07752E+00 +9.27915E-01 -3.31284E+00 -2.17628E+00 -1.38035E+00 -4.86143E+00
 +2.05332E+00 -5.83009E+00 +5.64059E+00 -4.44003E+00 +7.88455E+00 -1.00120E+00 +7.75316E+00 +3.31046E+00
 +5.12463E+00 +6.90066E+00 +8.73800E-01 +8.39352E+00 -3.44867E+00 +7.20119E+00 -6.22586E+00 +3.78888E+00
 -6.43093E+00 -4.83997E-01 -4.06155E+00 -3.89464E+00 -1.66428E-01 -5.05267E+00 +3.55940E+00 -3.47946E+00
 +5.45666E+00 +1.70973E-01 +4.58888E+00 +4.35110E+00 +1.15155E+00 +7.23392E+00 -3.57293E+00 +7.46008E+00
 -7.70899E+00 +4.71456E+00 -9.54009E+00 -1.09015E-01 -8.21758E+00 -5.23561E+00 -4.13388E+00 -8.70661E+00
 +1.20202E+00 -9.17210E+00 +5.74906E+00 -6.45525E+00 +7.75090E+00 -1.65164E+00 +6.45624E+00 +3.28882E+00
 +2.44559E+00 +6.33901E+00 -2.57907E+00 +6.22117E+00 -6.46812E+00 +2.94578E+00 -7.49674E+00 -2.16462E+00
 -5.08349E+00 -6.98829E+00 -5.71023E-02 -9.45639E+00 +5.64760E+00 -8.40312E+00 +9.75356E+00 -4.06635E+00
 +1.05628E+01 +1.97408E+00 +7.66207E+00 +7.40732E+00 +2.12033E+00 +1.01144E+01 -3.91426E+00 +9.03225E+00
 -8.06497E+00 +4.60609E+00 -8.68746E+00 -1.36443E+00 -5.55089E+00 -6.43326E+00 +4.40224E-02 -8.49302E+00
 +5.76908E+00 -6.64045E+00 +9.20117E+00 -1.56699E+00 +8.81098E+00 +4.69388E+00 +4.60566E+00 +9.57158E+00
 -1.84297E+00 +1.09975E+01 -8.00775E+00 +8.25936E+00 -1.14161E+01 +2.31826E+00 -1.06564E+01 -4.54903E+00
 -5.97091E+00 -9.65036E+00 +8.13782E-01 -1.09630E+01 +7.00157E+00 -7.96468E+00 +1.01071E+01 -1.86904E+00
 +8.86769E+00 +4.84168E+00 +3.77466E+00 +9.40651E+00 -3.10092E+00 +9.90485E+00 -8.92736E+00 +6.05119E+00
 -1.12539E+01 -6.63000E-01 -9.01525E+00 -7.54814E+00 -2.98783E+00 -1.17918E+01 +4.49531E+00 -1.16007E+01
 +1.04673E+01 -6.94604E+00 +1.25215E+01 +3.96722E-01 +9.79642E+00 +7.54061E+00 +3.34701E+00 +1.16412E+01
 -4.25639E+00 +1.10502E+01 -9.94998E+00 +5.99915E+00 -1.14128E+01 -1.47000E+00 -8.01811E+00 -8.31063E+00
 -1.10981E+00 -1.16958E+01 +6.51794E+00 -1.01695E+01 +1.17366E+01 -4.25674E+00 +1.23496E+01 +3.72278E+00
