 Created: 19-Jan-2021
 $NMID
 ID='D:\BASISSIMULATI'
 FMTDAT='(8E13.5)'
 VOLUME=   1.00000E+00
 TRAMP=   1.00000E+00
 $END
 +6.49531E+01 +1.06249E+01 +6.27246E+01 -4.13274E+00 +4.91235E+01 -1.57877E+01 +2.74881E+01 -1.98769E+01
 +3.18739E+00 -1.42439E+01 -1.78882E+01 +3.00266E-01 -3.09664E+01 +2.01905E+01 -3.36864E+01 +4.01284E+01
 -2.66764E+01 +5.46067E+01 -1.32606E+01 +5.94858E+01 +1.60090E+00 +5.31639E+01 +1.28115E+01 +3.70077E+01
 +1.66297E+01 +1.49330E+01 +1.17195E+01 -7.72299E+00 -5.33944E-01 -2.56951E+01 -1.65095E+01 -3.52104E+01
 -3.14680E+01 -3.49321E+01 -4.09547E+01 -2.61792E+01 -4.20708E+01 -1.23932E+01 -3.42512E+01 +1.95884E+00
 -1.93499E+01 +1.26983E+01 -1.04187E+00 +1.70811E+01 +1.62514E+01 +1.44580E+01 +2.85805E+01 +6.29266E+00
 +3.34793E+01 -4.42103E+00 +3.04984E+01 -1.41332E+01 +2.11506E+01 -1.97945E+01 +8.33170E+00 -1.96876E+01
 -4.57408E+00 -1.38162E+01 -1.46243E+01 -3.78144E+00 -2.00228E+01 +7.77145E+00 -2.04292E+01 +1.79384E+01
 -1.68345E+01 +2.43304E+01 -1.10959E+01 +2.56236E+01 -5.30560E+00 +2.17658E+01 -1.19458E+00 +1.38294E+01
 +2.69671E-01 +3.60464E+00 -9.87376E-01 -6.91351E+00 -4.27593E+00 -1.59915E+01 -8.44255E+00 -2.24632E+01
 -1.22240E+01 -2.58339E+01 -1.45472E+01 -2.62096E+01 -1.47116E+01 -2.41223E+01 -1.24444E+01 -2.03322E+01
 -7.86450E+00 -1.56666E+01 -1.40448E+00 -1.09159E+01 +6.26370E+00 -6.77210E+00 +1.42869E+01 -3.77834E+00
 +2.16873E+01 -2.26322E+00 +2.74472E+01 -2.26032E+00 +3.06469E+01 -3.44212E+00 +3.06504E+01 -5.11537E+00
 +2.72995E+01 -6.31904E+00 +2.10489E+01 -6.03540E+00 +1.29738E+01 -3.47899E+00 +4.60739E+00 +1.61407E+00
 -2.38225E+00 +8.79495E+00 -6.60621E+00 +1.68944E+01 -7.34702E+00 +2.42360E+01 -4.80373E+00 +2.90391E+01
 -9.52309E-02 +2.99119E+01 +5.00613E+00 +2.62915E+01 +8.55550E+00 +1.86899E+01 +9.00232E+00 +8.65027E+00
 +5.67669E+00 -1.59878E+00 -9.58432E-01 -9.71047E+00 -9.38003E+00 -1.38534E+01 -1.73983E+01 -1.32274E+01
 -2.27674E+01 -8.30423E+00 -2.38396E+01 -7.10999E-01 -2.00684E+01 +7.21837E+00 -1.22077E+01 +1.31008E+01
 -2.13934E+00 +1.51807E+01 +7.62654E+00 +1.28279E+01 +1.46370E+01 +6.71052E+00 +1.71696E+01 -1.40791E+00
 +1.46991E+01 -9.18587E+00 +8.02447E+00 -1.43831E+01 -9.76540E-01 -1.55019E+01 -9.88744E+00 -1.22062E+01
 -1.64278E+01 -5.40099E+00 -1.90669E+01 +3.04053E+00 -1.74045E+01 +1.08152E+01 -1.22216E+01 +1.58308E+01
 -5.20069E+00 +1.67652E+01 +1.58667E+00 +1.33901E+01 +6.27118E+00 +6.58227E+00 +7.68409E+00 -1.96362E+00
 +5.63176E+00 -1.02224E+01 +8.86259E-01 -1.63785E+01 -5.08336E+00 -1.92696E+01 -1.05448E+01 -1.86221E+01
 -1.39699E+01 -1.50362E+01 -1.44090E+01 -9.74929E+00 -1.16833E+01 -4.26444E+00 -6.36640E+00 +4.59580E-02
 +4.14092E-01 +2.25698E+00 +7.28434E+00 +2.06134E+00 +1.29508E+01 -2.27119E-01 +1.64678E+01 -3.81192E+00
 +1.73967E+01 -7.63996E+00 +1.58405E+01 -1.06519E+01 +1.23702E+01 -1.20026E+01 +7.87469E+00 -1.12153E+01
 +3.37268E+00 -8.25688E+00 -1.81080E-01 -3.53222E+00 -2.06916E+00 +2.19122E+00 -1.94440E+00 +7.91764E+00
 +9.52837E-02 +1.26008E+01 +3.50713E+00 +1.53453E+01 +7.39045E+00 +1.56003E+01 +1.06598E+01 +1.33084E+01
 +1.22839E+01 +8.96526E+00 +1.15451E+01 +3.55929E+00 +8.25889E+00 -1.61803E+00 +2.88446E+00 -5.26490E+00
 -3.52126E+00 -6.40237E+00 -9.51963E+00 -4.66130E+00 -1.36397E+01 -4.34155E-01 -1.47779E+01 +5.17018E+00
 -1.25374E+01 +1.05799E+01 -7.39973E+00 +1.41710E+01 -6.59696E-01 +1.47301E+01 +5.88055E+00 +1.18356E+01
 +1.03894E+01 +6.03658E+00 +1.15271E+01 -1.24236E+00 +8.85672E+00 -8.06238E+00 +3.01535E+00 -1.25082E+01
 -4.42357E+00 -1.32517E+01 -1.13721E+01 -9.97225E+00 -1.58225E+01 -3.49879E+00 -1.64433E+01 +4.38389E+00
 -1.29962E+01 +1.14223E+01 -6.44068E+00 +1.55401E+01 +1.31901E+00 +1.54529E+01 +7.97806E+00 +1.10660E+01
 +1.15119E+01 +3.52701E+00 +1.07898E+01 -5.09199E+00 +5.93310E+00 -1.23946E+01 -1.69621E+00 -1.63676E+01
 -9.88135E+00 -1.59820E+01 -1.61994E+01 -1.15044E+01 -1.87399E+01 -4.42003E+00 -1.66768E+01 +3.01294E+00
 -1.05170E+01 +8.44493E+00 -1.95094E+00 +1.01461E+01 +6.65327E+00 +7.53065E+00 +1.29572E+01 +1.33391E+00
 +1.53465E+01 -6.61107E+00 +1.34012E+01 -1.39291E+01 +8.00065E+00 -1.84196E+01 +1.03380E+00 -1.87151E+01
 -5.19158E+00 -1.46823E+01 -8.65816E+00 -7.44599E+00 -8.24784E+00 +9.66652E-01 -4.06612E+00 +8.24652E+00
 +2.61219E+00 +1.24955E+01 +9.75222E+00 +1.27790E+01 +1.51911E+01 +9.37343E+00 +1.72952E+01 +3.64024E+00
 +1.54403E+01 -2.42452E+00 +1.01750E+01 -6.81943E+00 +3.02278E+00 -8.14768E+00 -4.00226E+00 -6.02211E+00
 -9.01296E+00 -1.14792E+00 -1.08047E+01 +4.93127E+00 -9.18333E+00 +1.03344E+01 -4.97328E+00 +1.34283E+01
 +2.82762E-01 +1.33154E+01 +4.82847E+00 +1.00772E+01 +7.23896E+00 +4.71061E+00 +6.83747E+00 -1.21094E+00
 +3.86213E+00 -6.03523E+00 -6.56151E-01 -8.52737E+00 -5.25241E+00 -8.21324E+00 -8.50016E+00 -5.47292E+00
 -9.44617E+00 -1.36969E+00 -7.87579E+00 +2.71787E+00 -4.33683E+00 +5.53557E+00 +7.08370E-02 +6.32544E+00
 +4.06055E+00 +5.01950E+00 +6.55655E+00 +2.20761E+00 +6.99933E+00 -1.09511E+00 +5.47096E+00 -3.79474E+00
 +2.61513E+00 -5.06320E+00 -6.07619E-01 -4.57363E+00 -3.24021E+00 -2.56193E+00 -4.61890E+00 +2.90996E-01
 -4.54479E+00 +3.10445E+00 -3.29376E+00 +5.08286E+00 -1.47661E+00 +5.74725E+00 +1.91842E-01 +5.04551E+00
 +1.13225E+00 +3.31824E+00 +1.07100E+00 +1.14609E+00 +9.34403E-02 -8.60096E-01 -1.42478E+00 -2.25192E+00
 -2.97255E+00 -2.85801E+00 -4.08344E+00 -2.79176E+00 -4.47799E+00 -2.36266E+00 -4.12473E+00 -1.93317E+00
 -3.20886E+00 -1.77788E+00 -2.03119E+00 -1.99454E+00 -8.82157E-01 -2.49312E+00 +5.95624E-02 -3.05799E+00
 +7.68704E-01 -3.45169E+00 +1.34566E+00 -3.51588E+00 +1.93752E+00 -3.22951E+00 +2.64480E+00 -2.70403E+00
 +3.45475E+00 -2.12128E+00 +4.22943E+00 -1.64278E+00 +4.75393E+00 -1.32979E+00 +4.82536E+00 -1.10891E+00
 +4.34610E+00 -7.99277E-01 +3.38233E+00 -1.92519E-01 +2.16120E+00 +8.44915E-01 +1.00337E+00 +2.28816E+00
 +2.12578E-01 +3.92482E+00 -3.83198E-02 +5.39710E+00 +2.18457E-01 +6.30589E+00 +7.41742E-01 +6.34360E+00
 +1.15465E+00 +5.40960E+00 +1.07387E+00 +3.66589E+00 +2.52727E-01 +1.50879E+00 -1.31157E+00 -5.39273E-01
 -3.34646E+00 -1.98608E+00 -5.36402E+00 -2.52431E+00 -6.79822E+00 -2.13323E+00 -7.17822E+00 -1.09150E+00
 -6.28295E+00 +1.06554E-01 -4.22610E+00 +9.07534E-01 -1.44139E+00 +8.80292E-01 +1.43100E+00 -1.35703E-01
 +3.72430E+00 -1.96339E+00 +4.93744E+00 -4.12625E+00 +4.88066E+00 -5.98244E+00 +3.72914E+00 -6.91557E+00
 +1.96734E+00 -6.52437E+00 +2.40286E-01 -4.75311E+00 -8.43718E-01 -1.92210E+00 -8.99033E-01 +1.35206E+00
 +1.18624E-01 +4.32387E+00 +1.89654E+00 +6.32486E+00 +3.85696E+00 +6.94762E+00 +5.32895E+00 +6.15457E+00
 +5.74903E+00 +4.28050E+00 +4.83145E+00 +1.92960E+00 +2.65843E+00 -2.01725E-01 -3.35191E-01 -1.52413E+00
 -3.47749E+00 -1.71920E+00 -6.04136E+00 -8.22080E-01 -7.44041E+00 +7.98773E-01 -7.38405E+00 +2.55628E+00
 -5.94961E+00 +3.81925E+00 -3.55354E+00 +4.09607E+00 -8.32507E-01 +3.17603E+00 +1.53093E+00 +1.18999E+00
 +2.98898E+00 -1.42441E+00 +3.26694E+00 -4.04121E+00 +2.42360E+00 -6.01405E+00 +8.20569E-01 -6.84747E+00
 -9.88117E-01 -6.32567E+00 -2.41376E+00 -4.56606E+00 -2.99482E+00 -1.98563E+00 -2.51998E+00 +8.08896E-01
 -1.08140E+00 +3.17651E+00 +9.53669E-01 +4.60210E+00 +3.04333E+00 +4.82044E+00 +4.61579E+00 +3.87381E+00
 +5.22023E+00 +2.09059E+00 +4.64493E+00 -7.43202E-03 +2.97339E+00 -1.84389E+00 +5.64874E-01 -2.93663E+00
 -2.03456E+00 -3.01896E+00 -4.22759E+00 -2.10344E+00 -5.51333E+00 -4.73134E-01 -5.61038E+00 +1.39616E+00
 -4.52468E+00 +2.96240E+00 -2.54573E+00 +3.75979E+00 -1.72536E-01 +3.52125E+00 +2.01190E+00 +2.24962E+00
 +3.48602E+00 +2.19728E-01 +3.91866E+00 -2.08934E+00 +3.24920E+00 -4.11474E+00 +1.69917E+00 -5.35256E+00
 -2.87515E-01 -5.48670E+00 -2.16011E+00 -4.47089E+00 -3.40300E+00 -2.54298E+00 -3.66780E+00 -1.67491E-01
 -2.86213E+00 +2.07931E+00 -1.17251E+00 +3.65282E+00 +9.84238E-01 +4.17589E+00 +3.06838E+00 +3.53283E+00
 +4.55589E+00 +1.89809E+00 +5.07294E+00 -3.07512E-01 +4.49204E+00 -2.52154E+00 +2.96565E+00 -4.17935E+00
 +8.88816E-01 -4.85328E+00 -1.19944E+00 -4.35700E+00 -2.75138E+00 -2.78980E+00 -3.34866E+00 -5.10275E-01
 -2.80913E+00 +1.95341E+00 -1.23615E+00 +4.03412E+00 +1.00179E+00 +5.26514E+00 +3.35637E+00 +5.39441E+00
 +5.22942E+00 +4.44590E+00 +6.11672E+00 +2.71330E+00 +5.73148E+00 +6.87370E-01 +4.07795E+00 -1.06607E+00
 +1.45706E+00 -2.04870E+00 -1.59854E+00 -1.95865E+00 -4.44593E+00 -7.74290E-01 -6.48266E+00 +1.22879E+00
 -7.29146E+00 +3.53430E+00 -6.74411E+00 +5.50457E+00 -5.03779E+00 +6.53639E+00 -2.65225E+00 +6.21691E+00
 -2.34723E-01 +4.44103E+00 +1.56209E+00 +1.45846E+00 +2.25058E+00 -2.16575E+00 +1.64401E+00 -5.67296E+00
 -7.97983E-02 -8.28945E+00 -2.40829E+00 -9.41956E+00 -4.61601E+00 -8.80443E+00 -5.95210E+00 -6.60246E+00
 -5.84776E+00 -3.36512E+00 -4.08850E+00 +9.22591E-02 -9.01542E-01 +2.89651E+00 +3.07188E+00 +4.34833E+00
 +6.92023E+00 +4.11774E+00 +9.68960E+00 +2.34691E+00 +1.06386E+01 -3.73673E-01 +9.45066E+00 -3.15645E+00
 +6.34220E+00 -5.06005E+00 +2.02940E+00 -5.36050E+00 -2.44456E+00 -3.77425E+00 -5.98082E+00 -5.66303E-01
 -7.72282E+00 +3.49424E+00 -7.29741E+00 +7.32659E+00 -4.92793E+00 +9.83084E+00 -1.38131E+00 +1.02012E+01
 +2.24185E+00 +8.17016E+00 +4.81937E+00 +4.11003E+00 +5.53463E+00 -1.04397E+00 +4.12381E+00 -6.03355E+00
 +9.68321E-01 -9.61703E+00 -2.99971E+00 -1.09137E+01 -6.55678E+00 -9.65389E+00 -8.54074E+00 -6.25891E+00
 -8.19597E+00 -1.72545E+00 -5.40897E+00 +2.65720E+00 -7.62834E-01 +5.67656E+00 +4.60969E+00 +6.54649E+00
 +9.33533E+00 +5.13423E+00 +1.21840E+01 +1.99691E+00 +1.24164E+01 -1.78473E+00 +9.99262E+00 -4.92787E+00
 +5.58253E+00 -6.33042E+00 +3.71204E-01 -5.40201E+00 -4.28124E+00 -2.24538E+00 -7.22691E+00 +2.36581E+00
 -7.85079E+00 +7.20621E+00 -6.23153E+00 +1.09502E+01 -3.09732E+00 +1.25514E+01 +4.07210E-01 +1.15394E+01
 +3.07133E+00 +8.14741E+00 +3.98041E+00 +3.23582E+00 +2.78270E+00 -1.96154E+00 -2.15778E-01 -6.19164E+00
 -4.15263E+00 -8.53083E+00 -7.87167E+00 -8.62670E+00 -1.02653E+01 -6.76640E+00 -1.05937E+01 -3.75807E+00
 -8.68820E+00 -6.67413E-01 -4.98321E+00 +1.50703E+00 -3.75174E-01 +2.12206E+00 +4.04401E+00 +1.05875E+00
