 Created: 19-Jan-2021
 $NMID
 ID='D:\BASISSIMULATI'
 FMTDAT='(8E13.5)'
 VOLUME=   1.00000E+00
 TRAMP=   1.00000E+00
 $END
 +5.83456E+01 +8.72017E+00 +5.64841E+01 +8.98537E-01 +4.64970E+01 -5.78834E+00 +3.00870E+01 -9.09947E+00
 +1.01306E+01 -7.65333E+00 -9.89570E+00 -1.27019E+00 -2.66065E+01 +8.96135E+00 -3.73691E+01 +2.09099E+01
 -4.07985E+01 +3.18692E+01 -3.69845E+01 +3.91654E+01 -2.74084E+01 +4.07668E+01 -1.45745E+01 +3.57626E+01
 -1.44268E+00 +2.46016E+01 +9.21224E+00 +9.03659E+00 +1.53738E+01 -8.21285E+00 +1.61694E+01 -2.40093E+01
 +1.19903E+01 -3.54384E+01 +4.32973E+00 -4.04050E+01 -4.61565E+00 -3.80573E+01 -1.24842E+01 -2.89515E+01
 -1.73031E+01 -1.49242E+01 -1.79324E+01 +1.29356E+00 -1.43044E+01 +1.66365E+01 -7.40800E+00 +2.83168E+01
 +9.68482E-01 +3.43592E+01 +8.67381E+00 +3.39492E+01 +1.37049E+01 +2.75311E+01 +1.46758E+01 +1.66443E+01
 +1.11390E+01 +3.54641E+00 +3.69072E+00 -9.28740E+00 -6.16003E+00 -1.96759E+01 -1.63231E+01 -2.61444E+01
 -2.45830E+01 -2.81563E+01 -2.90742E+01 -2.61261E+01 -2.86726E+01 -2.12265E+01 -2.32196E+01 -1.50453E+01
 -1.35368E+01 -9.18234E+00 -1.23474E+00 -4.87922E+00 +1.16331E+01 -2.76598E+00 +2.29918E+01 -2.77400E+00
 +3.11463E+01 -4.22397E+00 +3.50803E+01 -6.05620E+00 +3.45945E+01 -7.13898E+00 +3.02669E+01 -6.57594E+00
 +2.32573E+01 -3.93803E+00 +1.50129E+01 +6.32130E-01 +6.94699E+00 +6.46256E+00 +1.64936E-01 +1.25233E+01
 -4.70506E+00 +1.76792E+01 -7.55066E+00 +2.09594E+01 -8.68913E+00 +2.17768E+01 -8.69227E+00 +2.00480E+01
 -8.17717E+00 +1.61893E+01 -7.62101E+00 +1.09963E+01 -7.24679E+00 +5.44447E+00 -7.00434E+00 +4.61204E-01
 -6.64299E+00 -3.26997E+00 -5.84740E+00 -5.42920E+00 -4.39114E+00 -6.07884E+00 -2.25972E+00 -5.58415E+00
 +2.95882E-01 -4.46466E+00 +2.79307E+00 -3.22163E+00 +4.63173E+00 -2.19129E+00 +5.25795E+00 -1.46442E+00
 +4.33162E+00 -8.92749E-01 +1.84952E+00 -1.77736E-01 -1.81401E+00 +9.86877E-01 -5.96553E+00 +2.76285E+00
 -9.74063E+00 +5.05369E+00 -1.23074E+01 +7.46761E+00 -1.30750E+01 +9.37530E+00 -1.18519E+01 +1.00538E+01
 -8.91197E+00 +8.88297E+00 -4.94425E+00 +5.54477E+00 -8.95142E-01 +1.68466E-01 +2.26259E+00 -6.62150E+00
 +3.77862E+00 -1.37790E+01 +3.32925E+00 -2.00234E+01 +1.12297E+00 -2.41048E+01 -2.12423E+00 -2.50877E+01
 -5.34440E+00 -2.25865E+01 -7.37208E+00 -1.68924E+01 -7.23955E+00 -8.95515E+00 -4.44211E+00 -2.13963E-01
 +8.93430E-01 +7.69102E+00 +7.98364E+00 +1.32663E+01 +1.55207E+01 +1.54946E+01 +2.19391E+01 +1.40709E+01
 +2.57601E+01 +9.48632E+00 +2.59376E+01 +2.93618E+00 +2.21241E+01 -3.93252E+00 +1.47920E+01 -9.38257E+00
 +5.17471E+00 -1.19775E+01 -4.96483E+00 -1.09146E+01 -1.36937E+01 -6.22255E+00 -1.93196E+01 +1.22326E+00
 -2.07624E+01 +9.87644E+00 -1.78017E+01 +1.78503E+01 -1.11431E+01 +2.33323E+01 -2.28283E+00 +2.49919E+01
 +6.80246E+00 +2.22879E+01 +1.40766E+01 +1.56084E+01 +1.78841E+01 +6.20558E+00 +1.73131E+01 -4.06042E+00
 +1.24004E+01 -1.31156E+01 +4.13144E+00 -1.91183E+01 -5.76549E+00 -2.08598E+01 -1.51895E+01 -1.80303E+01
 -2.21197E+01 -1.12910E+01 -2.50530E+01 -2.13572E+00 -2.33312E+01 +7.42955E+00 -1.72851E+01 +1.53177E+01
 -8.16536E+00 +1.98096E+01 +2.12539E+00 +1.99229E+01 +1.14411E+01 +1.56192E+01 +1.78514E+01 +7.80647E+00
 +2.00521E+01 -1.86339E+00 +1.76390E+01 -1.13568E+01 +1.11866E+01 -1.87001E+01 +2.11611E+00 -2.24032E+01
 -7.61509E+00 -2.17752E+01 -1.59342E+01 -1.70624E+01 -2.10922E+01 -9.38158E+00 -2.20256E+01 -4.67241E-01
 -1.85663E+01 +7.71271E+00 -1.14557E+01 +1.33851E+01 -2.16601E+00 +1.53512E+01 +7.42920E+00 +1.32370E+01
 +1.54604E+01 +7.56113E+00 +2.04541E+01 -3.89643E-01 +2.16272E+01 -8.84704E+00 +1.90242E+01 -1.59454E+01
 +1.34718E+01 -2.01185E+01 +6.36704E+00 -2.04235E+01 -6.49194E-01 -1.67262E+01 -6.05892E+00 -9.70994E+00
 -8.79223E+00 -7.14315E-01 -8.44204E+00 +8.55910E+00 -5.32526E+00 +1.64052E+01 -3.82697E-01 +2.14605E+01
 +5.05454E+00 +2.29630E+01 +9.57605E+00 +2.08744E+01 +1.20098E+01 +1.58472E+01 +1.16763E+01 +9.04978E+00
 +8.52728E+00 +1.89479E+00 +3.14065E+00 -4.26609E+00 -3.41887E+00 -8.41403E+00 -9.84029E+00 -1.00455E+01
 -1.48509E+01 -9.23195E+00 -1.74821E+01 -6.55110E+00 -1.72602E+01 -2.91476E+00 -1.42852E+01 +6.63287E-01
 -9.18604E+00 +3.30322E+00 -2.96879E+00 +4.44651E+00 +3.20447E+00 +3.95616E+00 +8.25478E+00 +2.11322E+00
 +1.13921E+01 -4.82488E-01 +1.22467E+01 -3.07844E+00 +1.09039E+01 -4.96002E+00 +7.84336E+00 -5.62033E+00
 +3.80244E+00 -4.87166E+00 -3.98194E-01 -2.87645E+00 -4.02732E+00 -9.55741E-02 -6.57608E+00 +2.82925E+00
 -7.82651E+00 +5.22825E+00 -7.84765E+00 +6.55458E+00 -6.92867E+00 +6.49959E+00 -5.47198E+00 +5.04861E+00
 -3.87652E+00 +2.46898E+00 -2.44060E+00 -7.62184E-01 -1.30613E+00 -4.06954E+00 -4.53453E-01 -6.90230E+00
 +2.57459E-01 -8.83986E+00 +1.01525E+00 -9.65826E+00 +1.97743E+00 -9.34690E+00 +3.20559E+00 -8.07727E+00
 +4.63304E+00 -6.13725E+00 +6.07265E+00 -3.85085E+00 +7.26165E+00 -1.50537E+00 +7.92994E+00 +6.96932E-01
 +7.87297E+00 +2.65333E+00 +7.00944E+00 +4.34249E+00 +5.40825E+00 +5.78367E+00 +3.27824E+00 +6.98897E+00
 +9.23282E-01 +7.92554E+00 -1.32497E+00 +8.50076E+00 -3.17933E+00 +8.57608E+00 -4.45581E+00 +8.00634E+00
 -5.10428E+00 +6.69349E+00 -5.20421E+00 +4.63865E+00 -4.92757E+00 +1.97612E+00 -4.48010E+00 -1.02309E+00
 -4.03713E+00 -3.98291E+00 -3.69182E+00 -6.48459E+00 -3.43012E+00 -8.14707E+00 -3.13939E+00 -8.70694E+00
 -2.64888E+00 -8.07898E+00 -1.79132E+00 -6.38169E+00 -4.68956E-01 -3.92028E+00 +1.29433E+00 -1.12933E+00
 +3.33041E+00 +1.51327E+00 +5.34222E+00 +3.58218E+00 +6.95602E+00 +4.78910E+00 +7.80026E+00 +5.03660E+00
 +7.59334E+00 +4.42944E+00 +6.21957E+00 +3.24069E+00 +3.77424E+00 +1.84092E+00 +5.65249E-01 +6.06881E-01
 -2.93165E+00 -1.68939E-01 -6.15642E+00 -3.46681E-01 -8.57043E+00 +3.04606E-02 -9.76213E+00 +7.50923E-01
 -9.52991E+00 +1.49111E+00 -7.92389E+00 +1.90013E+00 -5.23736E+00 +1.69305E+00 -1.94892E+00 +7.30442E-01
 +1.37244E+00 -9.34790E-01 +4.17941E+00 -3.05519E+00 +6.05192E+00 -5.23273E+00 +6.77410E+00 -7.00021E+00
 +6.36680E+00 -7.92237E+00 +5.06987E+00 -7.69478E+00 +3.27890E+00 -6.21827E+00 +1.45130E+00 -3.63200E+00
 +2.59012E-03 -2.97290E-01 -7.84113E-01 +3.26547E+00 -8.16072E-01 +6.47399E+00 -2.04220E-01 +8.79547E+00
 +7.70286E-01 +9.84907E+00 +1.72803E+00 +9.47853E+00 +2.28531E+00 +7.77994E+00 +2.14892E+00 +5.07961E+00
 +1.19065E+00 +1.86692E+00 -5.15069E-01 -1.30342E+00 -2.69881E+00 -3.91922E+00 -4.94764E+00 -5.60682E+00
 -6.78966E+00 -6.19582E+00 -7.79365E+00 -5.74039E+00 -7.66272E+00 -4.49390E+00 -6.30233E+00 -2.84366E+00
 -3.84790E+00 -1.22039E+00 -6.46405E-01 -2.29360E-03 +2.80497E+00 +5.66093E-01 +5.95062E+00 +4.23249E-01
 +8.28047E+00 -3.01518E-01 +9.42537E+00 -1.32286E+00 +9.22502E+00 -2.26877E+00 +7.75520E+00 -2.76927E+00
 +5.30927E+00 -2.54549E+00 +2.33825E+00 -1.47967E+00 -6.38303E-01 +3.48850E-01 -3.13248E+00 +2.66987E+00
 -4.77929E+00 +5.07018E+00 -5.40104E+00 +7.07383E+00 -5.03245E+00 +8.23869E+00 -3.90213E+00 +8.24998E+00
 -2.37498E+00 +6.99124E+00 -8.67932E-01 +4.57803E+00 +2.43228E-01 +1.34648E+00 +7.06385E-01 -2.20204E+00
 +4.47607E-01 -5.49023E+00 -4.13946E-01 -7.97109E+00 -1.59413E+00 -9.23061E+00 -2.70937E+00 -9.06662E+00
 -3.36623E+00 -7.52798E+00 -3.25599E+00 -4.90588E+00 -2.23399E+00 -1.67845E+00 -3.65912E-01 +1.58088E+00
 +2.07032E+00 +4.31341E+00 +4.62934E+00 +6.08170E+00 +6.78248E+00 +6.65134E+00 +8.02525E+00 +6.03117E+00
 +7.98657E+00 +4.46380E+00 +6.51691E+00 +2.36794E+00 +3.73578E+00 +2.44480E-01 +2.67626E-02 -1.43412E+00
 -4.02152E+00 -2.32783E+00 -7.71886E+00 -2.30383E+00 -1.04022E+01 -1.46547E+00 -1.15645E+01 -1.28088E-01
 -1.09575E+01 +1.25411E+00 -8.64685E+00 +2.19533E+00 -5.00679E+00 +2.29663E+00 -6.53408E-01 +1.34943E+00
 +3.67071E+00 -5.99859E-01 +7.23882E+00 -3.24036E+00 +9.48030E+00 -6.04728E+00 +1.00903E+01 -8.38444E+00
 +9.08537E+00 -9.63877E+00 +6.79370E+00 -9.35895E+00 +3.78009E+00 -7.36806E+00 +7.22278E-01 -3.82439E+00
 -1.73616E+00 +7.85573E-01 -3.12463E+00 +5.72390E+00 -3.24595E+00 +1.01349E+01 -2.21582E+00 +1.32099E+01
 -4.32217E-01 +1.43503E+01 +1.51972E+00 +1.32942E+01 +3.00691E+00 +1.01792E+01 +3.50126E+00 +5.52616E+00
 +2.71180E+00 +1.45659E-01 +6.65807E-01 -5.01632E+00 -2.28136E+00 -9.06183E+00 -5.51208E+00 -1.13165E+01
 -8.27583E+00 -1.14604E+01 -9.85514E+00 -9.58697E+00 -9.73245E+00 -6.17649E+00 -7.72055E+00 -1.99070E+00
 -4.02611E+00 +2.09046E+00 +7.70008E-01 +5.25458E+00 +5.81486E+00 +6.92538E+00 +1.01484E+01 +6.87812E+00
 +1.28981E+01 +5.27695E+00 +1.34621E+01 +2.62662E+00 +1.16420E+01 -3.50378E-01 +7.69497E+00 -2.88388E+00
 +2.29401E+00 -4.33513E+00 -3.59879E+00 -4.34493E+00 -8.91916E+00 -2.91730E+00 -1.27099E+01 -4.19796E-01
 -1.43090E+01 +2.50019E+00 -1.34773E+01 +5.06470E+00 -1.04391E+01 +6.54688E+00 -5.82860E+00 +6.44423E+00
 -5.52776E-01 +4.60419E+00 +4.39753E+00 +1.27314E+00 +8.14927E+00 -2.94350E+00 +1.01181E+01 -7.20224E+00
 +1.01130E+01 -1.05982E+01 +8.35478E+00 -1.23594E+01 +5.40548E+00 -1.20157E+01 +2.02852E+00 -9.50663E+00
 -9.89360E-01 -5.20287E+00 -3.01305E+00 +1.62246E-01 -3.69274E+00 +5.63776E+00 -3.02765E+00 +1.02450E+01
 -1.34772E+00 +1.31723E+01 +7.80041E-01 +1.39329E+01 +2.69707E+00 +1.24546E+01 +3.81585E+00 +9.08224E+00
 +3.76175E+00 +4.49608E+00 +2.46183E+00 -4.35120E-01 +1.61082E-01 -4.83289E+00 -2.63616E+00 -7.98096E+00
 -5.28511E+00 -9.45445E+00 -7.15106E+00 -9.18118E+00 -7.75676E+00 -7.42584E+00 -6.89277E+00 -4.70521E+00
 -4.66628E+00 -1.65726E+00 -1.47850E+00 +1.10407E+00 +2.06303E+00 +3.11505E+00 +5.27599E+00 +4.14266E+00
 +7.54833E+00 +4.20460E+00 +8.46401E+00 +3.52923E+00 +7.88253E+00 +2.47006E+00 +5.95632E+00 +1.39897E+00
 +3.08517E+00 +6.06495E-01 -1.79054E-01 +2.33510E-01 -3.25327E+00 +2.49706E-01 -5.64128E+00 +4.81299E-01
 -7.02272E+00 +6.77731E-01 -7.29536E+00 +5.97345E-01 -6.56525E+00 +8.77878E-02 -5.09218E+00 -8.60969E-01
 -3.20827E+00 -2.10525E+00 -1.23276E+00 -3.38074E+00 +5.94810E-01 -4.37094E+00 +2.14743E+00 -4.79220E+00
 +3.40434E+00 -4.47255E+00 +4.41183E+00 -3.40257E+00 +5.22647E+00 -1.74457E+00 +5.86099E+00 +2.03275E-01
 +6.25170E+00 +2.07853E+00 +6.25981E+00 +3.54349E+00 +5.70859E+00 +4.36788E+00 +4.44716E+00 +4.48315E+00
