 Created: 19-Jan-2021
 $NMID
 ID='D:\BASISSIMULATI'
 FMTDAT='(8E13.5)'
 VOLUME=   1.00000E+00
 TRAMP=   1.00000E+00
 $END
 +7.40885E+01 +1.65517E+00 +5.90173E+01 +4.39045E+01 +2.14651E+01 +6.75832E+01 -2.16677E+01 +6.28940E+01
 -5.12591E+01 +3.31153E+01 -5.48690E+01 -7.10746E+00 -3.24023E+01 -3.87810E+01 +4.10779E+00 -4.75257E+01
 +3.64249E+01 -3.02207E+01 +4.88628E+01 +3.78408E+00 +3.56769E+01 +3.73889E+01 +3.59612E+00 +5.40725E+01
 -3.16460E+01 +4.58052E+01 -5.30428E+01 +1.67715E+01 -5.05539E+01 -1.88334E+01 -2.58882E+01 -4.38087E+01
 +8.43838E+00 -4.63399E+01 +3.52711E+01 -2.57236E+01 +4.12056E+01 +7.32068E+00 +2.31402E+01 +3.58772E+01
 -1.01615E+01 +4.50634E+01 -4.22438E+01 +2.92931E+01 -5.68565E+01 -4.91826E+00 -4.57881E+01 -4.19536E+01
 -1.28838E+01 -6.44631E+01 +2.76679E+01 -6.15832E+01 +5.79579E+01 -3.40941E+01 +6.47332E+01 +5.92733E+00
 +4.55551E+01 +4.07708E+01 +9.83979E+00 +5.53663E+01 -2.56690E+01 +4.42429E+01 -4.48065E+01 +1.39041E+01
 -3.95070E+01 -2.04477E+01 -1.33934E+01 -4.22180E+01 +2.02004E+01 -4.12499E+01 +4.47541E+01 -1.84654E+01
 +4.84671E+01 +1.48299E+01 +2.97698E+01 +4.25609E+01 -2.14507E+00 +5.16650E+01 -3.19455E+01 +3.82934E+01
 -4.56498E+01 +9.49283E+00 -3.73554E+01 -2.03775E+01 -1.19856E+01 -3.67063E+01 +1.72204E+01 -3.17356E+01
 +3.52170E+01 -8.29410E+00 +3.24967E+01 +2.16122E+01 +9.73125E+00 +4.26402E+01 -2.25068E+01 +4.35501E+01
 -4.87870E+01 +2.26684E+01 -5.61954E+01 -1.12331E+01 -4.05080E+01 -4.30479E+01 -8.22840E+00 -5.84529E+01
 +2.64592E+01 -5.06390E+01 +4.83453E+01 -2.34652E+01 +4.82838E+01 +1.04266E+01 +2.73638E+01 +3.55999E+01
 -3.76920E+00 +4.10450E+01 -3.00609E+01 +2.52150E+01 -3.91738E+01 -3.46283E+00 -2.72003E+01 -3.07698E+01
 -2.93336E-01 -4.35182E+01 +2.84810E+01 -3.57419E+01 +4.54907E+01 -1.13398E+01 +4.30144E+01 +1.80147E+01
 +2.27688E+01 +3.86125E+01 -5.13539E+00 +4.12974E+01 -2.72283E+01 +2.57456E+01 -3.32302E+01 +4.33732E-01
 -2.09577E+01 -2.16219E+01 +2.74136E+00 -2.92469E+01 +2.54182E+01 -1.85228E+01 +3.51197E+01 +5.35302E+00
 +2.61984E+01 +3.06153E+01 +2.05396E+00 +4.46244E+01 -2.64793E+01 +3.99518E+01 -4.62933E+01 +1.79490E+01
 -4.82258E+01 -1.18824E+01 -3.13740E+01 -3.63812E+01 -3.47401E+00 -4.49137E+01 +2.27921E+01 -3.43123E+01
 +3.57676E+01 -1.02466E+01 +3.02269E+01 +1.55677E+01 +9.67691E+00 +3.09483E+01 -1.54757E+01 +2.89384E+01
 -3.29549E+01 +1.09337E+01 -3.44123E+01 -1.41796E+01 -1.92447E+01 -3.43863E+01 +5.32450E+00 -4.02715E+01
 +2.78566E+01 -2.93830E+01 +3.82090E+01 -7.19526E+00 +3.22948E+01 +1.57055E+01 +1.38472E+01 +2.87913E+01
 -7.58092E+00 +2.66091E+01 -2.13496E+01 +1.12576E+01 -2.08821E+01 -8.80394E+00 -6.76490E+00 -2.29754E+01
 +1.36474E+01 -2.36903E+01 +2.98737E+01 -1.00550E+01 +3.34028E+01 +1.17633E+01 +2.17889E+01 +3.15374E+01
 -1.93701E-01 +3.98915E+01 -2.28474E+01 +3.27583E+01 -3.61595E+01 +1.32706E+01 -3.45073E+01 -9.77400E+00
 -1.92302E+01 -2.60970E+01 +2.10816E+00 -2.87558E+01 +1.93667E+01 -1.73116E+01 +2.46092E+01 +2.11159E+00
 +1.57538E+01 +1.98418E+01 -2.60291E+00 +2.72669E+01 -2.15082E+01 +2.08339E+01 -3.19584E+01 +3.57628E+00
 -2.91122E+01 -1.64874E+01 -1.44352E+01 -3.02493E+01 +5.18062E+00 -3.18079E+01 +2.08230E+01 -2.11285E+01
 +2.58163E+01 -3.85836E+00 +1.87917E+01 +1.15378E+01 +4.15196E+00 +1.78908E+01 -1.02210E+01 +1.27058E+01
 -1.68526E+01 -7.79743E-01 -1.22691E+01 -1.53026E+01 +1.40663E+00 -2.31654E+01 +1.75692E+01 -1.99605E+01
 +2.83657E+01 -6.65025E+00 +2.84677E+01 +1.09508E+01 +1.75781E+01 +2.49917E+01 +5.10251E-01 +2.93172E+01
 -1.51488E+01 +2.23326E+01 -2.26350E+01 +7.66379E+00 -1.91433E+01 -7.64637E+00 -7.03531E+00 -1.65042E+01
 +7.39924E+00 -1.50723E+01 +1.69878E+01 -4.46881E+00 +1.70498E+01 +9.89608E+00 +7.51125E+00 +2.09706E+01
 -7.19429E+00 +2.34001E+01 -2.03265E+01 +1.59716E+01 -2.60456E+01 +2.04621E+00 -2.20924E+01 -1.21575E+01
 -1.07026E+01 -2.05548E+01 +2.61323E+00 -2.00159E+01 +1.17772E+01 -1.16975E+01 +1.30168E+01 -3.12234E-01
 +6.54321E+00 +8.24796E+00 -3.71285E+00 +9.75856E+00 -1.21174E+01 +3.61808E+00 -1.40896E+01 -6.98061E+00
 -8.27112E+00 -1.66863E+01 +2.89844E+00 -2.06018E+01 +1.44233E+01 -1.66074E+01 +2.11679E+01 -6.30686E+00
 +2.02736E+01 +5.80745E+00 +1.24377E+01 +1.45252E+01 +1.48780E+00 +1.63617E+01 -7.49409E+00 +1.11205E+01
 -1.05738E+01 +1.87060E+00 -6.75226E+00 -6.59779E+00 +1.67680E+00 -1.00671E+01 +1.03144E+01 -6.83860E+00
 +1.47814E+01 +1.56371E+00 +1.27556E+01 +1.12127E+01 +4.97761E+00 +1.76827E+01 -5.20281E+00 +1.81098E+01
 -1.34687E+01 +1.24461E+01 -1.65546E+01 +3.35751E+00 -1.36885E+01 -5.12708E+00 -6.81261E+00 -9.53362E+00
 +4.63187E-01 -8.50976E+00 +4.62982E+00 -3.32906E+00 +3.91233E+00 +2.85241E+00 -9.87122E-01 +6.58182E+00
 -7.34130E+00 +5.75791E+00 -1.17779E+01 +5.69620E-01 -1.19004E+01 -6.68050E+00 -7.38172E+00 -1.27345E+01
 -4.54658E-02 -1.49337E+01 +7.05753E+00 -1.24279E+01 +1.11011E+01 -6.49311E+00 +1.07660E+01 +1.48762E-01
 +6.76667E+00 +4.64434E+00 +1.41552E+00 +5.31984E+00 -2.52583E+00 +2.38319E+00 -3.14317E+00 -2.27542E+00
 -2.09288E-01 -6.04617E+00 +4.79520E+00 -6.84252E+00 +9.44528E+00 -4.03914E+00 +1.15265E+01 +1.30817E+00
 +1.00313E+01 +7.02061E+00 +5.55215E+00 +1.08330E+01 -7.26820E-02 +1.14083E+01 -4.65202E+00 +8.87133E+00
 -6.63524E+00 +4.64953E+00 -5.74921E+00 +7.39546E-01 -3.01500E+00 -1.22963E+00 -1.80275E-01 -6.99039E-01
 +1.13438E+00 +1.65314E+00 +1.68629E-01 +4.31648E+00 -2.68711E+00 +5.70054E+00 -6.14205E+00 +4.86968E+00
 -8.64358E+00 +1.93127E+00 -9.08846E+00 -2.07065E+00 -7.28357E+00 -5.67107E+00 -3.97089E+00 -7.64800E+00
 -4.40582E-01 -7.52915E+00 +2.06399E+00 -5.73142E+00 +2.87098E+00 -3.30297E+00 +2.11216E+00 -1.41493E+00
 +5.87730E-01 -8.45324E-01 -6.44334E-01 -1.67876E+00 -7.52751E-01 -3.33063E+00 +5.22420E-01 -4.85511E+00
 +2.79752E+00 -5.37963E+00 +5.24962E+00 -4.47125E+00 +6.98565E+00 -2.28941E+00 +7.40841E+00 +5.16776E-01
 +6.43139E+00 +3.09943E+00 +4.47137E+00 +4.75550E+00 +2.24456E+00 +5.18191E+00 +4.65804E-01 +4.55159E+00
 -4.23687E-01 +3.39925E+00 -3.99090E-01 +2.37886E+00 +1.76539E-01 +1.99581E+00 +7.27053E-01 +2.41590E+00
 +7.08934E-01 +3.41596E+00 -1.66680E-01 +4.48600E+00 -1.81606E+00 +5.03849E+00 -3.80950E+00 +4.64512E+00
 -5.53120E+00 +3.21326E+00 -6.41375E+00 +1.03590E+00 -6.16030E+00 -1.30635E+00 -4.86887E+00 -3.15908E+00
 -3.00585E+00 -4.04539E+00 -1.23099E+00 -3.85684E+00 -1.36217E-01 -2.90301E+00 -6.32875E-04 -1.79036E+00
 -6.65826E-01 -1.17001E+00 -1.59299E+00 -1.45374E+00 -2.08929E+00 -2.61936E+00 -1.61536E+00 -4.19706E+00
 -4.26186E-02 -5.45537E+00 +2.25854E+00 -5.71612E+00 +4.55047E+00 -4.66469E+00 +6.03387E+00 -2.51399E+00
 +6.19772E+00 +6.15159E-02 +5.05570E+00 +2.20412E+00 +3.15394E+00 +3.24653E+00 +1.33559E+00 +3.01229E+00
 +3.60615E-01 +1.89986E+00 +5.52725E-01 +7.01721E-01 +1.64068E+00 +2.32836E-01 +2.87685E+00 +9.36632E-01
 +3.38760E+00 +2.65506E+00 +2.59730E+00 +4.67891E+00 +5.26102E-01 +6.06527E+00 -2.18633E+00 +6.08056E+00
 -4.55290E+00 +4.56142E+00 -5.68756E+00 +2.01768E+00 -5.22193E+00 -5.81108E-01 -3.48953E+00 -2.24393E+00
 -1.38271E+00 -2.41885E+00 +5.87072E-02 -1.25657E+00 +1.37662E-01 +4.53819E-01 -1.16328E+00 +1.65404E+00
 -3.16244E+00 +1.52104E+00 -4.79245E+00 -1.31439E-01 -5.10300E+00 -2.74740E+00 -3.71621E+00 -5.27420E+00
 -1.01735E+00 -6.64690E+00 +2.01276E+00 -6.28357E+00 +4.24666E+00 -4.35640E+00 +4.92865E+00 -1.70859E+00
 +4.01637E+00 +5.43875E-01 +2.18327E+00 +1.53581E+00 +4.81962E-01 +1.05150E+00 -1.68659E-01 -3.91388E-01
 +5.74710E-01 -1.81115E+00 +2.32134E+00 -2.25221E+00 +4.14607E+00 -1.25796E+00 +5.04796E+00 +9.02875E-01
 +4.44392E+00 +3.36485E+00 +2.45706E+00 +5.08505E+00 -1.39417E-01 +5.34773E+00 -2.29397E+00 +4.10844E+00
 -3.18158E+00 +2.01123E+00 -2.59583E+00 +7.25002E-02 -1.03846E+00 -8.12681E-01 +5.34446E-01 -3.00887E-01
 +1.18364E+00 +1.24077E+00 +4.44580E-01 +2.92128E+00 -1.44927E+00 +3.76352E+00 -3.68243E+00 +3.17822E+00
 -5.25136E+00 +1.24492E+00 -5.44164E+00 -1.33173E+00 -4.15712E+00 -3.56239E+00 -1.94684E+00 -4.63913E+00
 +2.74473E-01 -4.29999E+00 +1.66773E+00 -2.92008E+00 +1.85433E+00 -1.29568E+00 +1.06067E+00 -2.38099E-01
 -3.71640E-02 -1.82845E-01 -6.79115E-01 -1.00432E+00 -4.07499E-01 -2.11767E+00 +7.18460E-01 -2.80382E+00
 +2.17906E+00 -2.58532E+00 +3.28113E+00 -1.46171E+00 +3.52053E+00 +1.08523E-01 +2.83288E+00 +1.45992E+00
 +1.60853E+00 +2.06812E+00 +4.72973E-01 +1.81185E+00 -4.60419E-02 +1.01684E+00 +2.11300E-01 +2.66319E-01
 +9.67501E-01 +8.37641E-02 +1.66915E+00 +6.56967E-01 +1.78811E+00 +1.74602E+00 +1.10102E+00 +2.81802E+00
 -1.98641E-01 +3.33144E+00 -1.60975E+00 +3.01640E+00 -2.58986E+00 +2.00351E+00 -2.83265E+00 +7.37904E-01
 -2.40856E+00 -2.68590E-01 -1.69751E+00 -7.08693E-01 -1.15708E+00 -6.26066E-01 -1.05855E+00 -3.59778E-01
 -1.33930E+00 -3.22355E-01 -1.65416E+00 -7.39716E-01 -1.59616E+00 -1.50312E+00 -9.60239E-01 -2.22134E+00
 +1.03833E-01 -2.44866E+00 +1.14503E+00 -1.96211E+00 +1.65183E+00 -9.27475E-01 +1.35226E+00 +1.51265E-01
 +4.03331E-01 +6.86940E-01 -6.48700E-01 +3.38944E-01 -1.13490E+00 -7.63624E-01 -6.26943E-01 -2.04087E+00
 +7.96998E-01 -2.73418E+00 +2.53924E+00 -2.30359E+00 +3.75159E+00 -7.43449E-01 +3.76382E+00 +1.36171E+00
 +2.45360E+00 +3.09255E+00 +3.54817E-01 +3.64895E+00 -1.57326E+00 +2.77539E+00 -2.41801E+00 +9.29472E-01
 -1.79362E+00 -9.14234E-01 -7.55491E-02 -1.74654E+00 +1.75166E+00 -1.05703E+00 +2.57969E+00 +8.60023E-01
 +1.76186E+00 +3.00445E+00 -5.02905E-01 +4.15043E+00 -3.20421E+00 +3.48263E+00 -4.98467E+00 +1.06565E+00
 -4.82334E+00 -2.11103E+00 -2.59772E+00 -4.56720E+00 +7.76168E-01 -5.05475E+00 +3.72859E+00 -3.21635E+00
 +4.78501E+00 +1.63483E-01 +3.32061E+00 +3.47195E+00 -6.42330E-02 +5.02444E+00 -3.76356E+00 +3.90834E+00
 -5.90720E+00 +4.92089E-01 -5.28157E+00 -3.67852E+00 -1.97661E+00 -6.58131E+00 +2.58253E+00 -6.69816E+00
 +6.26944E+00 -3.79840E+00 +7.27462E+00 +8.78049E-01 +5.01860E+00 +5.16109E+00 +4.98044E-01 +6.98145E+00
 -4.13626E+00 +5.40153E+00 -6.59637E+00 +1.13137E+00 -5.58987E+00 -3.75243E+00 -1.50829E+00 -6.78218E+00
 +3.69282E+00 -6.31448E+00 +7.39981E+00 -2.39039E+00 +7.61728E+00 +3.20509E+00 +3.99558E+00 +7.75038E+00
