 Created: 16-Jan-2021
 $NMID
 ID='D:\BASISSIMULATI'
 FMTDAT='(8E13.5)'
 VOLUME=   1.00000E+00
 TRAMP=   1.00000E+00
 $END
 +3.89801E+01 +3.10299E+00 +2.71159E+01 +2.65039E+01 +3.00459E+00 +3.47556E+01 -1.88857E+01 +2.41176E+01
 -2.61246E+01 +2.26298E+00 -1.57361E+01 -1.69050E+01 +4.53148E+00 -2.19822E+01 +2.15340E+01 -1.07671E+01
 +2.49844E+01 +9.05214E+00 +1.33777E+01 +2.52345E+01 -5.84553E+00 +2.86284E+01 -2.15057E+01 +1.82810E+01
 -2.56040E+01 +1.15735E+00 -1.76044E+01 -1.28033E+01 -3.80029E+00 -1.67963E+01 +7.24799E+00 -1.06185E+01
 +9.94817E+00 +2.22495E-01 +4.36352E+00 +8.58826E+00 -4.84056E+00 +1.00391E+01 -1.19127E+01 +4.79665E+00
 -1.34361E+01 -3.37646E+00 -9.63803E+00 -1.00700E+01 -3.29250E+00 -1.27566E+01 +2.51018E+00 -1.15303E+01
 +6.04315E+00 -8.11229E+00 +7.19556E+00 -4.30118E+00 +6.64695E+00 -1.08851E+00 +4.99371E+00 +1.19393E+00
 +2.58767E+00 +2.26598E+00 -7.21100E-04 +1.67554E+00 -1.62603E+00 -7.23131E-01 -9.51470E-01 -4.07173E+00
 +2.52304E+00 -6.42374E+00 +7.60267E+00 -5.68064E+00 +1.15922E+01 -1.07914E+00 +1.17211E+01 +5.85288E+00
 +7.00174E+00 +1.17615E+01 -7.67227E-01 +1.33086E+01 -7.71483E+00 +9.31710E+00 -1.00794E+01 +1.78204E+00
 -6.56006E+00 -5.06099E+00 +6.93777E-01 -7.17847E+00 +7.19574E+00 -3.22393E+00 +8.75054E+00 +4.51592E+00
 +4.00953E+00 +1.13763E+01 -4.63822E+00 +1.30586E+01 -1.24210E+01 +8.20510E+00 -1.49819E+01 -7.68345E-01
 -1.09300E+01 -9.08352E+00 -2.61948E+00 -1.23935E+01 +5.27681E+00 -9.27609E+00 +8.50642E+00 -1.96587E+00
 +5.64623E+00 +5.04990E+00 -1.20582E+00 +7.67480E+00 -7.78046E+00 +4.50751E+00 -1.01541E+01 -2.49796E+00
 -6.93570E+00 -9.30242E+00 +9.46650E-02 -1.21489E+01 +7.15581E+00 -9.62545E+00 +1.06664E+01 -3.29116E+00
 +9.17943E+00 +3.37724E+00 +4.00350E+00 +7.00807E+00 -1.72394E+00 +6.13840E+00 -4.87399E+00 +1.83378E+00
 -3.99762E+00 -3.10677E+00 +5.48462E-02 -5.80152E+00 +4.79770E+00 -4.82561E+00 +7.57646E+00 -8.29742E-01
 +6.97790E+00 +3.99605E+00 +3.44678E+00 +7.20952E+00 -1.12732E+00 +7.39914E+00 -4.52300E+00 +4.79658E+00
 -5.34463E+00 +9.80366E-01 -3.62639E+00 -2.06909E+00 -6.44527E-01 -3.00282E+00 +1.86692E+00 -1.69360E+00
 +2.62728E+00 +8.53036E-01 +1.38045E+00 +3.13141E+00 -1.10532E+00 +3.92809E+00 -3.52807E+00 +2.87014E+00
 -4.73049E+00 +5.04637E-01 -4.22264E+00 -2.05977E+00 -2.33275E+00 -3.72208E+00 +2.82734E-02 -3.88385E+00
 +1.83202E+00 -2.66302E+00 +2.39739E+00 -7.71525E-01 +1.65867E+00 +8.51734E-01 +1.45190E-01 +1.47388E+00
 -1.29487E+00 +8.81482E-01 -1.89552E+00 -5.49658E-01 -1.32327E+00 -2.04897E+00 +1.75079E-01 -2.82095E+00
 +1.89442E+00 -2.42505E+00 +3.01146E+00 -9.89794E-01 +2.98698E+00 +8.45461E-01 +1.83552E+00 +2.24196E+00
 +1.22449E-01 +2.57932E+00 -1.31980E+00 +1.76959E+00 -1.81758E+00 +3.01052E-01 -1.20336E+00 -1.01879E+00
 +1.02565E-01 -1.49039E+00 +1.32399E+00 -8.92062E-01 +1.75154E+00 +4.08754E-01 +1.12601E+00 +1.66441E+00
 -2.28095E-01 +2.16104E+00 -1.59065E+00 +1.60792E+00 -2.24774E+00 +2.87011E-01 -1.88067E+00 -1.11608E+00
 -7.26075E-01 -1.89870E+00 +5.75684E-01 -1.72407E+00 +1.34934E+00 -7.86984E-01 +1.25662E+00 +3.22476E-01
 +4.62620E-01 +9.68511E-01 -4.87815E-01 +8.26695E-01 -1.00046E+00 +4.66626E-02 -7.71371E-01 -8.62112E-01
 +5.77081E-02 -1.34212E+00 +1.00697E+00 -1.10845E+00 +1.55251E+00 -2.94214E-01 +1.42682E+00 +6.52536E-01
 +7.52052E-01 +1.24551E+00 -6.01512E-02 +1.23934E+00 -5.68574E-01 +7.48969E-01 -5.59398E-01 +1.50554E-01
 -1.49908E-01 -1.62171E-01 +3.10697E-01 -1.22051E-02 +4.69341E-01 +4.73353E-01 +1.81023E-01 +9.62972E-01
 -4.19382E-01 +1.13334E+00 -1.01623E+00 +8.60038E-01 -1.31008E+00 +2.75799E-01 -1.18841E+00 -3.25875E-01
 -7.73076E-01 -6.71186E-01 -3.29478E-01 -6.58168E-01 -1.03576E-01 -3.96727E-01 -1.86278E-01 -1.26517E-01
 -4.76619E-01 -7.20198E-02 -7.51593E-01 -3.20145E-01 -7.93190E-01 -7.81240E-01 -5.02004E-01 -1.24276E+00
 +5.54071E-02 -1.47896E+00 +6.79972E-01 -1.36061E+00 +1.13310E+00 -9.16999E-01 +1.24734E+00 -3.26454E-01
 +1.00881E+00 +1.61042E-01 +5.74270E-01 +3.40307E-01 +2.07313E-01 +1.58587E-01 +1.51081E-01 -2.39511E-01
 +4.91488E-01 -5.65592E-01 +1.08466E+00 -5.30535E-01 +1.60398E+00 -1.32021E-02 +1.70305E+00 +8.40460E-01
 +1.21762E+00 +1.66141E+00 +2.89297E-01 +2.04281E+00 -6.78315E-01 +1.77452E+00 -1.22781E+00 +9.88121E-01
 -1.11201E+00 +1.10733E-01 -4.55700E-01 -3.64919E-01 +2.95058E-01 -1.68928E-01 +6.21631E-01 +5.72692E-01
 +2.39199E-01 +1.39431E+00 -7.23846E-01 +1.75349E+00 -1.78718E+00 +1.34814E+00 -2.38899E+00 +2.97954E-01
 -2.20582E+00 -9.19212E-01 -1.33282E+00 -1.73699E+00 -2.21999E-01 -1.81464E+00 +5.77041E-01 -1.21335E+00
 +7.17097E-01 -3.41921E-01 +2.24226E-01 +2.82466E-01 -5.42969E-01 +3.12756E-01 -1.10339E+00 -2.62316E-01
 -1.10527E+00 -1.13846E+00 -4.88823E-01 -1.86873E+00 +5.06311E-01 -2.08571E+00 +1.47029E+00 -1.66465E+00
 +2.01446E+00 -7.65563E-01 +1.93942E+00 +2.47922E-01 +1.31684E+00 +9.70021E-01 +4.58062E-01 +1.12987E+00
 -2.20358E-01 +7.15995E-01 -3.86699E-01 -7.36660E-03 +3.90489E-02 -6.12992E-01 +8.26680E-01 -7.16727E-01
 +1.53353E+00 -1.83517E-01 +1.72820E+00 +7.80444E-01 +1.22910E+00 +1.71780E+00 +2.19298E-01 +2.16049E+00
 -8.42641E-01 +1.89052E+00 -1.47550E+00 +1.06439E+00 -1.44422E+00 +1.19466E-01 -8.79299E-01 -4.83367E-01
 -1.74705E-01 -5.18875E-01 +2.62408E-01 -9.64066E-02 +2.41191E-01 +4.52147E-01 -1.49274E-01 +8.00949E-01
 -6.60370E-01 +8.08571E-01 -1.07301E+00 +5.33424E-01 -1.30302E+00 +1.10501E-01 -1.35840E+00 -3.77491E-01
 -1.22265E+00 -9.11247E-01 -8.08761E-01 -1.42724E+00 -6.21673E-02 -1.72073E+00 +8.64049E-01 -1.50600E+00
 +1.54775E+00 -6.50052E-01 +1.48676E+00 +5.86148E-01 +4.75960E-01 +1.54013E+00 -1.09202E+00 +1.48635E+00
 -2.29292E+00 +1.64024E-01 -2.17642E+00 -1.87384E+00 -4.46467E-01 -3.42084E+00 +2.15653E+00 -3.30352E+00
 +4.13023E+00 -1.21020E+00 +4.08583E+00 +1.91184E+00 +1.71577E+00 +4.26247E+00 -1.81423E+00 +4.25568E+00
 -4.41670E+00 +1.61082E+00 -4.33658E+00 -2.28148E+00 -1.34561E+00 -5.06563E+00 +2.93860E+00 -4.85134E+00
 +5.91786E+00 -1.48668E+00 +5.60214E+00 +3.18890E+00 +1.93411E+00 +6.36700E+00 -3.04022E+00 +5.99398E+00
 -6.34254E+00 +2.11838E+00 -5.89244E+00 -3.03269E+00 -1.84926E+00 -6.35829E+00 +3.41277E+00 -5.78769E+00
 +6.72181E+00 -1.58953E+00 +6.05081E+00 +3.75595E+00 +1.76910E+00 +7.05996E+00 -3.58402E+00 +6.36912E+00
 -6.85718E+00 +2.13817E+00 -6.19567E+00 -3.08529E+00 -2.11869E+00 -6.23931E+00 +2.86982E+00 -5.58617E+00
 +5.84415E+00 -1.68279E+00 +5.19338E+00 +3.06268E+00 +1.47896E+00 +5.90189E+00 -3.03986E+00 +5.35268E+00
 -5.82924E+00 +1.94280E+00 -5.53351E+00 -2.27014E+00 -2.60855E+00 -5.00070E+00 +1.13719E+00 -5.01620E+00
 +3.69385E+00 -2.66734E+00 +3.94555E+00 +5.23826E-01 +2.10898E+00 +2.83897E+00 -6.07299E-01 +3.26621E+00
 -2.78182E+00 +1.85955E+00 -3.48750E+00 -5.08441E-01 -2.58594E+00 -2.71458E+00 -5.92148E-01 -3.89799E+00
 +1.67242E+00 -3.70301E+00 +3.40250E+00 -2.27050E+00 +4.01288E+00 -1.16722E-01 +3.26605E+00 +2.00530E+00
 +1.37717E+00 +3.28099E+00 -9.48637E-01 +3.10349E+00 -2.67108E+00 +1.40096E+00 -2.82712E+00 -1.15895E+00
 -1.07423E+00 -3.30971E+00 +1.94669E+00 -3.73984E+00 +4.74143E+00 -1.84420E+00 +5.65371E+00 +1.76240E+00
 +3.81544E+00 +5.36616E+00 -1.95638E-01 +6.97617E+00 -4.46709E+00 +5.46408E+00 -6.69660E+00 +1.35927E+00
 -5.51055E+00 -3.25120E+00 -1.39025E+00 -5.78223E+00 +3.41657E+00 -4.63783E+00 +6.06271E+00 -2.61161E-01
 +4.74728E+00 +4.94272E+00 -1.18284E-01 +7.87494E+00 -5.97778E+00 +6.53703E+00 -9.49378E+00 +1.30409E+00
 -8.47928E+00 -5.13638E+00 -3.26643E+00 -9.23798E+00 +3.35385E+00 -8.65112E+00 +7.66961E+00 -3.67203E+00
 +7.21163E+00 +2.82499E+00 +2.26355E+00 +7.00396E+00 -4.22380E+00 +6.32012E+00 -8.32110E+00 +1.06871E+00
 -7.44055E+00 -5.73019E+00 -1.89839E+00 -1.00843E+01 +5.24150E+00 -9.39022E+00 +9.97180E+00 -3.98229E+00
 +9.71375E+00 +3.07569E+00 +4.82145E+00 +7.82965E+00 -1.68601E+00 +7.78297E+00 -5.97857E+00 +3.32552E+00
 -5.70069E+00 -2.60039E+00 -1.29474E+00 -6.34416E+00 +4.40118E+00 -5.73094E+00 +7.95894E+00 -1.25202E+00
 +7.40346E+00 +4.40168E+00 +3.24696E+00 +8.07395E+00 -2.03146E+00 +8.00613E+00 -5.61232E+00 +4.69745E+00
 -5.98095E+00 +3.46683E-01 -3.60195E+00 -2.62810E+00 -3.43933E-01 -2.98399E+00 +1.81680E+00 -1.13717E+00
 +1.91370E+00 +1.40388E+00 +2.87003E-01 +3.11536E+00 -1.94464E+00 +3.28044E+00 -3.70976E+00 +2.11199E+00
 -4.50154E+00 +2.95644E-01 -4.34659E+00 -1.55660E+00 -3.45337E+00 -3.11824E+00 -1.96610E+00 -4.18911E+00
 -5.03197E-02 -4.48144E+00 +1.85085E+00 -3.68626E+00 +2.96870E+00 -1.83834E+00 +2.59009E+00 +3.65056E-01
 +6.74252E-01 +1.70572E+00 -1.80314E+00 +1.13274E+00 -3.19885E+00 -1.40386E+00 -2.18104E+00 -4.62067E+00
 +1.26023E+00 -6.46788E+00 +5.52612E+00 -5.37404E+00 +8.19575E+00 -1.39065E+00 +7.50361E+00 +3.59515E+00
 +3.57387E+00 +6.85893E+00 -1.46341E+00 +6.50847E+00 -4.66520E+00 +2.76359E+00 -4.09156E+00 -2.03998E+00
 -8.92674E-02 -4.81364E+00 +4.82500E+00 -3.63111E+00 +7.46712E+00 +1.02031E+00 +5.95331E+00 +6.47667E+00
 +8.90374E-01 +9.50334E+00 -4.97165E+00 +8.27093E+00 -8.40875E+00 +3.46394E+00 -7.66586E+00 -2.15938E+00
 -3.47130E+00 -5.45744E+00 +1.47281E+00 -4.77960E+00 +4.16148E+00 -8.81605E-01 +3.06448E+00 +3.62617E+00
 -1.05332E+00 +5.89336E+00 -5.69581E+00 +4.49210E+00 -8.16232E+00 +1.54542E-01 -7.08580E+00 -4.77145E+00
 -3.10637E+00 -7.73488E+00 +1.62203E+00 -7.39438E+00 +4.71088E+00 -4.25100E+00 +4.83075E+00 -2.33499E-01
 +2.32786E+00 +2.43671E+00 -1.08978E+00 +2.43332E+00 -3.34179E+00 -4.92524E-02 -3.07717E+00 -3.49354E+00
 -3.33383E-01 -5.90993E+00 +3.53602E+00 -5.87681E+00 +6.58780E+00 -3.25519E+00 +7.29342E+00 +7.55900E-01
 +5.32657E+00 +4.24044E+00 +1.74099E+00 +5.55885E+00 -1.56829E+00 +4.21864E+00 -2.86986E+00 +1.16169E+00
 -1.55266E+00 -1.71898E+00 +1.49729E+00 -2.61487E+00 +4.35270E+00 -8.41174E-01 +5.12653E+00 +2.72154E+00
 +3.08382E+00 +6.08257E+00 -8.78312E-01 +7.27721E+00 -4.70831E+00 +5.53552E+00 -6.39197E+00 +1.77286E+00
 -5.15639E+00 -1.92808E+00 -1.94278E+00 -3.55809E+00 +1.16435E+00 -2.39385E+00 +2.21419E+00 +5.73933E-01
 +5.81350E-01 +3.27126E+00 -2.67403E+00 +3.83600E+00 -5.49721E+00 +1.76006E+00 -6.12984E+00 -1.83603E+00
