 Created: 16-Jan-2021
 $NMID
 ID='D:\BASISSIMULATI'
 FMTDAT='(8E13.5)'
 VOLUME=   1.00000E+00
 TRAMP=   1.00000E+00
 $END
 +2.96621E+01 +1.49260E+00 +1.84160E+01 +2.32530E+01 -5.32859E+00 +2.91419E+01 -2.53890E+01 +1.51934E+01
 -2.81292E+01 -9.05481E+00 -1.17288E+01 -2.70829E+01 +1.26085E+01 -2.66437E+01 +2.83083E+01 -8.08230E+00
 +2.47131E+01 +1.59302E+01 +4.31680E+00 +2.90466E+01 -1.89646E+01 +2.23722E+01 -2.92877E+01 +4.96835E-01
 -1.96630E+01 -2.16616E+01 +3.31241E+00 -2.90300E+01 +2.39771E+01 -1.66334E+01 +2.82804E+01 +7.04629E+00
 +1.33363E+01 +2.58736E+01 -1.06417E+01 +2.70541E+01 -2.73210E+01 +9.82924E+00 -2.53744E+01 -1.40384E+01
 -6.17275E+00 -2.82970E+01 +1.71794E+01 -2.32720E+01 +2.87874E+01 -2.42972E+00 +2.07847E+01 +2.00129E+01
 -1.33582E+00 +2.87863E+01 -2.24922E+01 +1.79569E+01 -2.82961E+01 -5.05979E+00 -1.48381E+01 -2.45769E+01
 +8.67912E+00 -2.73276E+01 +2.62337E+01 -1.14829E+01 +2.58998E+01 +1.21329E+01 +7.94941E+00 +2.74364E+01
 -1.53632E+01 +2.40391E+01 -2.81670E+01 +4.29861E+00 -2.17793E+01 -1.83163E+01 -5.93076E-01 -2.84154E+01
 +2.09434E+01 -1.91608E+01 +2.81799E+01 +3.10395E+00 +1.62300E+01 +2.32015E+01 -6.72971E+00 +2.74667E+01
 -2.50541E+01 +1.30381E+01 -2.62905E+01 -1.02230E+01 -9.64070E+00 -2.64719E+01 +1.35250E+01 -2.46735E+01
 +2.74327E+01 -6.09656E+00 +2.26455E+01 +1.65807E+01 +2.46662E+00 +2.79227E+01 -1.93394E+01 +2.02429E+01
 -2.79359E+01 -1.18702E+00 -1.75085E+01 -2.17558E+01 +4.80218E+00 -2.74744E+01 +2.37904E+01 -1.44903E+01
 +2.65484E+01 +8.31763E+00 +1.12411E+01 +2.54106E+01 -1.16742E+01 +2.51761E+01 -2.65910E+01 +7.81717E+00
 -2.33829E+01 -1.48155E+01 -4.27762E+00 -2.73137E+01 +1.76894E+01 -2.12015E+01 +2.75688E+01 -6.83151E-01
 +1.86708E+01 +2.02484E+01 -2.90491E+00 +2.73542E+01 -2.24505E+01 +1.58356E+01 -2.66760E+01 -6.42562E+00
 -1.27456E+01 -2.42602E+01 +9.81952E+00 -2.55480E+01 +2.56487E+01 -9.45455E+00 +2.39916E+01 +1.30296E+01
 +6.01937E+00 +2.65944E+01 -1.60022E+01 +2.20354E+01 -2.70836E+01 +2.49916E+00 -1.97147E+01 -1.86880E+01
 +1.04587E+00 -2.71102E+01 +2.10429E+01 -1.70707E+01 +2.66762E+01 +4.55535E+00 +1.41499E+01 +2.30285E+01
 -7.96984E+00 +2.57910E+01 -2.46129E+01 +1.10033E+01 -2.44722E+01 -1.12318E+01 -7.68566E+00 -2.57712E+01
 +1.42866E+01 -2.27442E+01 +2.64858E+01 -4.25403E+00 +2.06385E+01 +1.70834E+01 +7.67340E-01 +2.67470E+01
 -1.95759E+01 +1.81927E+01 -2.65524E+01 -2.71491E+00 -1.54501E+01 -2.17234E+01 +6.13357E+00 -2.59076E+01
 +2.34910E+01 -1.24588E+01 +2.48260E+01 +9.43089E+00 +9.27080E+00 +2.48506E+01 -1.25515E+01 +2.33280E+01
 -2.57813E+01 +5.94129E+00 -2.14413E+01 -1.54431E+01 -2.52754E+00 -2.62693E+01 +1.80580E+01 -1.91997E+01
 +2.63086E+01 +9.12035E-01 +1.66431E+01 +2.03529E+01 -4.31887E+00 +2.59007E+01 -2.22905E+01 +1.38167E+01
 -2.50548E+01 -7.63525E+00 -1.07697E+01 -2.38398E+01 +1.08053E+01 -2.37876E+01 +2.49762E+01 -7.55495E+00
 +2.21225E+01 +1.37759E+01 +4.22800E+00 +2.56827E+01 -1.64975E+01 +2.00900E+01 -2.59492E+01 +8.45913E-01
 -1.77263E+01 -1.89252E+01 +2.53359E+00 -2.57736E+01 +2.10193E+01 -1.50733E+01 +2.51610E+01 +5.85311E+00
 +1.21776E+01 +2.27457E+01 -9.05654E+00 +2.41240E+01 -2.40770E+01 +9.08950E+00 -2.26824E+01 -1.20901E+01
 -5.86245E+00 -2.49927E+01 +1.49030E+01 -2.08626E+01 +2.54791E+01 -2.55200E+00 +1.86976E+01 +1.74486E+01
 -7.85219E-01 +2.55302E+01 -1.96850E+01 +1.62257E+01 -2.51474E+01 -4.09236E+00 -1.34906E+01 -2.15758E+01
 +7.31340E+00 -2.43392E+01 +2.30905E+01 -1.05400E+01 +2.31216E+01 +1.03940E+01 +7.42510E+00 +2.42054E+01
 -1.32826E+01 +2.15173E+01 -2.49034E+01 +4.19970E+00 -1.95555E+01 -1.59311E+01 -9.19127E-01 -2.51749E+01
 +1.82956E+01 -1.72713E+01 +2.50173E+01 +2.36062E+00 +1.47051E+01 +2.03375E+01 -5.58381E+00 +2.44355E+01
 -2.20236E+01 +1.19019E+01 -2.34415E+01 -8.69598E+00 -8.91064E+00 -2.33271E+01 +1.16448E+01 -2.20542E+01
 +2.42278E+01 -5.78297E+00 +2.02992E+01 +1.43810E+01 +2.57273E+00 +2.47123E+01 -1.68592E+01 +1.82081E+01
 -2.47746E+01 -6.65122E-01 -1.58181E+01 -1.90385E+01 +3.87544E+00 -2.44156E+01 +2.08835E+01 -1.31715E+01
 +2.36437E+01 +7.00382E+00 +1.03143E+01 +2.23644E+01 -9.99753E+00 +2.24739E+01 -2.34579E+01 +7.29620E+00
 -2.09282E+01 -1.28064E+01 -4.16929E+00 -2.41475E+01 +1.53836E+01 -1.90347E+01 +2.44233E+01 -9.87231E-01
 +1.68274E+01 +1.76865E+01 -2.19565E+00 +2.42828E+01 -1.96774E+01 +1.43452E+01 -2.37305E+01 -5.32526E+00
 -1.16317E+01 -2.13240E+01 +8.34872E+00 -2.27778E+01 +2.26001E+01 -8.73427E+00 +2.14429E+01 +1.12152E+01
 +5.70295E+00 +2.34859E+01 -1.38767E+01 +1.97504E+01 -2.39682E+01 +2.58994E+00 -1.77309E+01 -1.62892E+01
 +5.51457E-01 -2.40409E+01 +1.84128E+01 -1.54202E+01 +2.37048E+01 +3.66774E+00 +1.28592E+01 +2.02130E+01
 -6.70608E+00 +2.29676E+01 -2.16607E+01 +1.00925E+01 -2.18440E+01 -9.61526E+00 -7.16829E+00 -2.27332E+01
 +1.23465E+01 -2.03549E+01 +2.34141E+01 -4.13692E+00 +1.85274E+01 +1.48543E+01 +1.05046E+00 +2.36938E+01
 -1.70971E+01 +1.63944E+01 -2.35696E+01 -2.03836E+00 -1.39935E+01 -1.90383E+01 +5.07707E+00 -2.30455E+01
 +2.06463E+01 -1.13669E+01 +2.21326E+01 +8.01429E+00 +8.56037E+00 +2.18954E+01 -1.08006E+01 +2.08482E+01
 -2.27663E+01 +5.62249E+00 -1.92161E+01 -1.33895E+01 -2.60382E+00 -2.32461E+01 +1.57379E+01 -1.72657E+01
 +2.33285E+01 +4.43951E-01 +1.50318E+01 +1.78072E+01 -3.46890E+00 +2.30142E+01 -1.95636E+01 +1.25537E+01
 -2.23105E+01 -6.41975E+00 -9.87473E+00 -2.09788E+01 +9.24674E+00 -2.12313E+01 +2.20305E+01 -7.04144E+00
 +1.97968E+01 +1.19025E+01 +4.10273E+00 +2.27026E+01 -1.43427E+01 +1.80331E+01 -2.29857E+01 +1.10905E+00
 -1.59720E+01 -1.65269E+01 +1.88846E+00 -2.28769E+01 +1.84195E+01 -1.36498E+01 +2.23799E+01 +4.83886E+00
 +1.11074E+01 +1.99897E+01 -7.69225E+00 +2.15053E+01 -2.12123E+01 +8.38898E+00 -2.02696E+01 -1.04007E+01
 -5.54170E+00 -2.20685E+01 +1.29188E+01 -1.86958E+01 +2.25454E+01 -2.61455E+00 +1.68123E+01 +1.52048E+01
 -3.42340E-01 +2.26370E+01 -1.72211E+01 +1.46526E+01 -2.23435E+01 -3.27859E+00 -1.22548E+01 -1.89346E+01
 +6.14442E+00 -2.16719E+01 +2.03179E+01 -9.66080E+00 +2.06354E+01 +8.89149E+00 +6.91569E+00 +2.13491E+01
 -1.14737E+01 +1.92536E+01 -2.20124E+01 +4.06685E+00 -1.75516E+01 -1.38481E+01 -1.16321E+00 -2.22985E+01
 +1.59753E+01 -1.55600E+01 +2.22042E+01 +1.74563E+00 +1.33140E+01 +1.78204E+01 -4.61024E+00 +2.17332E+01
 -1.93535E+01 +1.08531E+01 -2.08954E+01 -7.38216E+00 -8.22008E+00 -2.05502E+01 +1.00148E+01 -1.97067E+01
 +2.13917E+01 -5.46066E+00 +1.81892E+01 +1.24640E+01 +2.62231E+00 +2.18656E+01 -1.46893E+01 +1.63703E+01
 -2.19656E+01 -2.46369E-01 -1.42824E+01 -1.66538E+01 +3.09648E+00 -2.16919E+01 +1.83255E+01 -1.19624E+01
 +2.10511E+01 +5.87969E+00 +9.45072E+00 +1.96775E+01 -8.54905E+00 +2.00559E+01 -2.06885E+01 +6.79110E+00
 -1.87249E+01 -1.10598E+01 -4.02943E+00 -2.13429E+01 +1.33701E+01 -1.70825E+01 +2.16314E+01 -1.21316E+00
 +1.51581E+01 +1.54416E+01 -1.60960E+00 +2.15510E+01 -1.72404E+01 +1.29859E+01 -2.11049E+01 -4.39087E+00
 -1.06039E+01 -1.87373E+01 +7.08359E+00 -2.03024E+01 +1.99083E+01 -8.05370E+00 +1.91591E+01 +9.64247E+00
 +5.37947E+00 +2.07353E+01 -1.20247E+01 +1.76959E+01 -2.12059E+01 +2.62725E+00 -1.59395E+01 -1.41907E+01
 +1.55795E-01 -2.13138E+01 +1.61048E+01 -1.39211E+01 +2.10591E+01 +2.92224E+00 +1.16764E+01 +1.77356E+01
 -5.62517E+00 +2.04479E+01 -1.90570E+01 +9.24446E+00 -1.94923E+01 -8.21899E+00 -6.66770E+00 -2.00480E+01
 +1.06602E+01 -1.82104E+01 +2.06934E+01 -3.99058E+00 +1.66256E+01 +1.29080E+01 +1.25910E+00 +2.09840E+01
 -1.49253E+01 +1.47662E+01 -2.09167E+01 -1.48009E+00 -1.26653E+01 -1.66789E+01 +4.18039E+00 -2.04943E+01
 +1.81403E+01 -1.03598E+01 +1.97259E+01 +6.79614E+00 +7.88983E+00 +1.92862E+01 -9.28331E+00 +1.86263E+01
 -2.00987E+01 +5.29820E+00 -1.72157E+01 -1.16003E+01 -2.62956E+00 -2.05657E+01 +1.37086E+01 -1.55197E+01
 +2.06810E+01 +7.03823E-02 +1.35685E+01 +1.55734E+01 -2.75559E+00 +2.04443E+01 -1.71643E+01 +1.13966E+01
 -1.98615E+01 -5.38051E+00 -9.04198E+00 -1.84556E+01 +7.90087E+00 -1.89442E+01 +1.94269E+01 -6.54555E+00
 +1.77097E+01 +1.02744E+01 +3.95043E+00 +2.00633E+01 -1.24614E+01 +1.61804E+01 -2.03557E+01 +1.30121E+00
 -1.43840E+01 -1.44258E+01 +1.35683E+00 -2.03007E+01 +1.61352E+01 -1.23522E+01 +1.99012E+01 +3.97849E+00
 +1.01207E+01 +1.75620E+01 -6.51942E+00 +1.91655E+01 -1.86832E+01 +7.72847E+00 -1.81079E+01 -8.93685E+00
 -5.21693E+00 -1.94814E+01 +1.11903E+01 -1.67480E+01 +1.99446E+01 -2.62936E+00 +1.51104E+01 +1.32424E+01
 +1.00935E-02 +2.00667E+01 -1.50592E+01 +1.32243E+01 -1.98473E+01 -2.59621E+00 -1.11230E+01 -1.66111E+01
 +5.14535E+00 -1.92917E+01 +1.78729E+01 -8.84323E+00 +1.84112E+01 +7.59428E+00 +6.42467E+00 +1.88248E+01
 -9.90192E+00 +1.72224E+01 -1.94521E+01 +3.90908E+00 -1.57469E+01 -1.20298E+01 -1.33970E+00 -1.97458E+01
 +1.39426E+01 -1.40112E+01 +1.97026E+01 +1.23957E+00 +1.20463E+01 +1.56089E+01 -3.78484E+00 +1.93249E+01
 -1.70017E+01 +9.88651E+00 -1.86207E+01 -6.25304E+00 -7.56962E+00 -1.80987E+01 +8.60264E+00 -1.76037E+01
 +1.88827E+01 -5.13574E+00 +1.62928E+01 +1.07943E+01 +2.62682E+00 +1.93420E+01 -1.27916E+01 +1.47116E+01
 -1.94704E+01 +8.58495E-02 -1.28884E+01 -1.45616E+01 +2.44384E+00 -1.92673E+01 +1.60753E+01 -1.08554E+01
 +1.87379E+01 +4.91933E+00 +8.64818E+00 +1.73083E+01 -7.29883E+00 +1.78929E+01 -1.82411E+01 +6.30510E+00
 -1.67481E+01 -9.54240E+00 -3.86664E+00 -1.88593E+01 +1.16126E+01 -1.53245E+01 +1.91540E+01 -1.37473E+00
 +1.36477E+01 +1.34751E+01 -1.12805E+00 +1.91218E+01 -1.50994E+01 +1.17475E+01 -1.87649E+01 -3.59912E+00
 -9.65716E+00 -1.64590E+01 +5.99665E+00 -1.80911E+01 +1.75322E+01 -7.41327E+00 +1.71132E+01 +8.28028E+00
 +5.05470E+00 +1.83021E+01 -1.04118E+01 +1.58495E+01 -1.87573E+01 +2.62207E+00 -1.43229E+01 -1.23557E+01
 -1.57094E-01 -1.88914E+01 +1.40800E+01 -1.25606E+01 +1.87040E+01 +2.29819E+00 +1.05938E+01 +1.55564E+01
 -4.70212E+00 +1.81998E+01 -1.67612E+01 +8.45679E+00 -1.73888E+01 -7.01411E+00 -6.18687E+00 -1.76751E+01
 +9.19535E+00 -1.62866E+01 +1.82842E+01 -3.82322E+00 +1.49131E+01 +1.12094E+01 +1.40647E+00 +1.85796E+01
 -1.30230E+01 +1.32932E+01 -1.85579E+01 -1.02206E+00 -1.14556E+01 -1.46062E+01 +3.42104E+00 -1.82209E+01
