 Created: 16-Jan-2021
 $NMID
 ID='D:\BASISSIMULATI'
 FMTDAT='(8E13.5)'
 VOLUME=   1.00000E+00
 TRAMP=   1.00000E+00
 $END
 +2.75887E+01 +1.29663E+00 +1.64187E+01 +2.18516E+01 -6.39752E+00 +2.46191E+01 -2.11047E+01 +8.04469E+00
 -1.55896E+01 -1.24481E+01 +4.05104E+00 -1.84500E+01 +1.92911E+01 -4.96417E+00 +1.58973E+01 +1.53961E+01
 -3.44890E+00 +2.39369E+01 -2.17756E+01 +1.26318E+01 -2.31055E+01 -8.88142E+00 -6.60700E+00 -2.21039E+01
 +1.29331E+01 -1.61879E+01 +1.84880E+01 +2.63496E+00 +5.89781E+00 +1.69412E+01 -1.27296E+01 +1.38094E+01
 -2.01169E+01 -3.79041E+00 -9.28934E+00 -1.99354E+01 +1.03934E+01 -2.01326E+01 +2.18148E+01 -4.16160E+00
 +1.53921E+01 +1.39828E+01 -2.61185E+00 +1.87384E+01 -1.59760E+01 +6.74447E+00 -1.30914E+01 -1.04882E+01
 +2.87807E+00 -1.71311E+01 +1.71484E+01 -7.17878E+00 +1.66953E+01 +1.04308E+01 +1.77977E+00 +2.00520E+01
 -1.45484E+01 +1.33270E+01 -1.82544E+01 -3.58138E+00 -6.71917E+00 -1.57648E+01 +9.24649E+00 -1.29311E+01
 +1.53011E+01 +1.64670E+00 +6.33749E+00 +1.43962E+01 -9.24548E+00 +1.37316E+01 -1.73244E+01 +2.65342E-01
 -1.06952E+01 -1.40287E+01 +4.72495E+00 -1.66733E+01 +1.54465E+01 -5.70436E+00 +1.24864E+01 +8.88536E+00
 -8.64078E-01 +1.42852E+01 -1.23154E+01 +6.22393E+00 -1.16892E+01 -7.53693E+00 +1.66637E-01 -1.44236E+01
 +1.24563E+01 -8.29785E+00 +1.42553E+01 +5.31104E+00 +4.14342E+00 +1.44175E+01 -8.83057E+00 +1.13153E+01
 -1.34259E+01 -7.93528E-01 -6.14131E+00 -1.09779E+01 +5.99087E+00 -1.04399E+01 +1.19636E+01 -1.60448E-01
 +6.61510E+00 +1.03193E+01 -5.03909E+00 +1.15967E+01 -1.25736E+01 +2.67188E+00 -9.49803E+00 -8.46893E+00
 +1.19706E+00 -1.21761E+01 +1.00157E+01 -5.63842E+00 +9.51108E+00 +4.93722E+00 +7.00639E-01 +1.01253E+01
 -8.19042E+00 +5.65649E+00 -9.23779E+00 -4.07454E+00 -1.73951E+00 -1.02308E+01 +7.48094E+00 -7.45491E+00
 +1.03604E+01 +1.60191E+00 +4.67815E+00 +8.94601E+00 -4.28480E+00 +8.43958E+00 -8.69691E+00 +1.03663E+00
 -5.09917E+00 -6.40931E+00 +2.82729E+00 -7.40417E+00 +7.84301E+00 -1.43056E+00 +5.62945E+00 +5.92817E+00
 -1.62302E+00 +8.16505E+00 -7.47082E+00 +3.53625E+00 -7.02376E+00 -3.70249E+00 -1.06428E+00 -7.31591E+00
 +4.97863E+00 -4.56866E+00 +5.99055E+00 +1.65863E+00 +1.53362E+00 +5.72240E+00 -4.10709E+00 +4.24680E+00
 -5.93188E+00 -1.14685E+00 -2.55468E+00 -5.58942E+00 +2.88253E+00 -5.35743E+00 +5.72576E+00 -9.48157E-01
 +3.86586E+00 +3.68014E+00 -7.02251E-01 +4.73509E+00 -3.92271E+00 +1.75665E+00 -3.26704E+00 -2.31387E+00
 +3.06621E-01 -3.92457E+00 +3.50729E+00 -1.93074E+00 +3.68343E+00 +1.71094E+00 +9.35300E-01 +3.89220E+00
 -2.28238E+00 +3.02167E+00 -3.42930E+00 +1.26134E-01 -1.92019E+00 -2.30949E+00 +6.84736E-01 -2.50731E+00
 +2.21562E+00 -6.78443E-01 +1.65887E+00 +1.45297E+00 -2.67867E-01 +2.20602E+00 -1.94845E+00 +1.18045E+00
 -2.19459E+00 -6.87260E-01 -9.90544E-01 -2.02435E+00 +7.20112E-01 -2.01557E+00 +1.80786E+00 -8.11065E-01
 +1.65968E+00 +7.29044E-01 +4.54689E-01 +1.61689E+00 -9.93199E-01 +1.29193E+00 -1.69113E+00 -5.53021E-02
 -1.06081E+00 -1.52470E+00 +5.95968E-01 -1.99661E+00 +2.13118E+00 -9.18820E-01 +2.26778E+00 +1.11891E+00
 +6.37696E-01 +2.60833E+00 -1.69377E+00 +2.21545E+00 -2.86006E+00 -7.27157E-03 -1.70145E+00 -2.39266E+00
 +1.05877E+00 -2.86620E+00 +3.15049E+00 -7.62600E-01 +2.58633E+00 +2.34126E+00 -4.71165E-01 +3.73899E+00
 -3.55628E+00 +1.92671E+00 -3.86601E+00 -1.85152E+00 -8.00507E-01 -4.40609E+00 +3.22536E+00 -3.31027E+00
 +4.67138E+00 +7.81808E-01 +2.01280E+00 +4.41636E+00 -2.65782E+00 +4.24309E+00 -5.21793E+00 +1.09567E-01
 -3.12909E+00 -4.51109E+00 +2.08891E+00 -5.40474E+00 +5.91929E+00 -1.43221E+00 +4.76093E+00 +4.17875E+00
 -6.96049E-01 +6.46430E+00 -5.79220E+00 +3.15094E+00 -5.89514E+00 -3.07480E+00 -6.46614E-01 -6.70023E+00
 +5.43615E+00 -4.25861E+00 +6.79832E+00 +2.36575E+00 +1.87552E+00 +7.33986E+00 -5.23745E+00 +5.99070E+00
 -8.20848E+00 -8.53289E-01 -4.13067E+00 -7.31632E+00 +3.64429E+00 -7.57318E+00 +8.24959E+00 -1.16619E+00
 +5.39856E+00 +6.31780E+00 -2.58104E+00 +8.06232E+00 -8.56558E+00 +2.18872E+00 -6.91977E+00 -6.30136E+00
 +1.29351E+00 -9.77788E+00 +8.98578E+00 -4.82028E+00 +9.23878E+00 +4.49054E+00 +1.60124E+00 +9.98001E+00
 -7.25316E+00 +6.65224E+00 -9.33056E+00 -2.65062E+00 -2.54272E+00 -9.55052E+00 +7.17714E+00 -7.56149E+00
 +1.09844E+01 +1.93430E+00 +5.06560E+00 +1.06571E+01 -5.71637E+00 +1.07074E+01 -1.19391E+01 +1.74600E+00
 -8.01401E+00 -8.45743E+00 +2.63601E+00 -1.08209E+01 +1.04206E+01 -3.14650E+00 +8.11202E+00 +7.68792E+00
 -2.51770E+00 +1.17137E+01 -1.20366E+01 +4.83984E+00 -1.16858E+01 -7.25326E+00 -1.33953E+00 -1.39731E+01
 +1.01398E+01 -9.26243E+00 +1.26805E+01 +2.81075E+00 +4.07464E+00 +1.14907E+01 -7.84776E+00 +8.91376E+00
 -1.20852E+01 -2.69976E+00 -4.37248E+00 -1.28178E+01 +8.77707E+00 -1.19458E+01 +1.56966E+01 -2.61206E-01
 +9.99073E+00 +1.23029E+01 -3.56975E+00 +1.47986E+01 -1.31192E+01 +5.11150E+00 -1.02656E+01 -7.97008E+00
 +2.26914E+00 -1.25004E+01 +1.29093E+01 -4.13085E+00 +1.15418E+01 +9.79498E+00 -1.28237E+00 +1.66437E+01
 -1.46055E+01 +9.80987E+00 -1.67327E+01 -5.18958E+00 -5.75077E+00 -1.54513E+01 +8.59158E+00 -1.21722E+01
 +1.34937E+01 +1.36951E+00 +4.60794E+00 +1.26079E+01 -9.90403E+00 +1.09165E+01 -1.65514E+01 -2.73131E+00
 -8.63313E+00 -1.64209E+01 +7.56819E+00 -1.78504E+01 +1.82072E+01 -5.41058E+00 +1.42003E+01 +1.01997E+01
 -5.59043E-01 +1.54245E+01 -1.25655E+01 +6.00425E+00 -1.07750E+01 -9.09178E+00 +3.38379E+00 -1.56153E+01
 +1.71184E+01 -6.86328E+00 +1.76578E+01 +1.01253E+01 +3.78284E+00 +2.06813E+01 -1.28920E+01 +1.55807E+01
 -1.81747E+01 -6.11802E-01 -7.99183E+00 -1.35078E+01 +7.88358E+00 -1.17412E+01 +1.45331E+01 +2.77323E+00
 +5.32414E+00 +1.64427E+01 -1.19793E+01 +1.61493E+01 -2.20162E+01 +1.12131E+00 -1.55583E+01 -1.61762E+01
 +2.11904E+00 -2.10564E+01 +1.58188E+01 -9.73959E+00 +1.39624E+01 +7.19753E+00 -1.01095E+00 +1.42484E+01
 -1.47726E+01 +4.91263E+00 -1.39572E+01 -1.23610E+01 +1.73221E+00 -2.16474E+01 +1.90728E+01 -1.38311E+01
 +2.30382E+01 +5.09262E+00 +1.02483E+01 +1.92223E+01 -7.92714E+00 +1.68957E+01 -1.54840E+01 +1.12723E+00
 -6.12080E+00 -1.30703E+01 +1.10618E+01 -1.21653E+01 +1.96850E+01 +3.65859E+00 +1.08310E+01 +2.05269E+01
 -8.81151E+00 +2.32251E+01 -2.27702E+01 +8.85918E+00 -1.94431E+01 -1.04453E+01 -2.47455E+00 -1.83001E+01
 +1.24896E+01 -8.68627E+00 +1.18285E+01 +8.66053E+00 -3.79136E+00 +1.69943E+01 -1.99438E+01 +7.65019E+00
 -2.13563E+01 -1.20466E+01 -5.67160E+00 -2.52030E+01 +1.43027E+01 -2.04201E+01 +2.19365E+01 -2.01262E+00
 +1.15936E+01 +1.38089E+01 -6.35960E+00 +1.34247E+01 -1.48818E+01 -2.00031E+00 -5.59862E+00 -1.75677E+01
 +1.35964E+01 -1.80442E+01 +2.55357E+01 -1.62114E+00 +1.91441E+01 +1.83202E+01 -5.86117E-01 +2.50691E+01
 -1.69797E+01 +1.34767E+01 -1.65333E+01 -5.46786E+00 -9.45455E-01 -1.45036E+01 +1.44700E+01 -5.58627E+00
 +1.45877E+01 +1.28806E+01 -1.86938E+00 +2.35777E+01 -2.10727E+01 +1.58366E+01 -2.63916E+01 -4.70769E+00
 -1.32516E+01 -2.10503E+01 +6.76836E+00 -1.99411E+01 +1.62849E+01 -3.65890E+00 +7.64363E+00 +1.21136E+01
 -1.02785E+01 +1.24158E+01 -2.01011E+01 -3.52283E+00 -1.16063E+01 -2.15476E+01 +8.99971E+00 -2.52450E+01
 +2.45398E+01 -1.06649E+01 +2.21577E+01 +1.00954E+01 +4.75181E+00 +1.96594E+01 -1.16844E+01 +1.08445E+01
 -1.24218E+01 -7.01442E+00 +2.81620E+00 -1.65419E+01 +1.96456E+01 -7.98878E+00 +2.19696E+01 +1.19561E+01
 +6.46781E+00 +2.61002E+01 -1.43548E+01 +2.21026E+01 -2.32820E+01 +3.48945E+00 -1.36959E+01 -1.35221E+01
 +4.62119E+00 -1.45254E+01 +1.43603E+01 +2.50217E-01 +6.25555E+00 +1.62595E+01 -1.26036E+01 +1.77854E+01
 -2.51427E+01 +2.10688E+00 -1.96186E+01 -1.79975E+01 -1.51329E-01 -2.56293E+01 +1.69422E+01 -1.48169E+01
 +1.76941E+01 +4.23863E+00 +2.86859E+00 +1.43725E+01 -1.28765E+01 +6.83343E+00 -1.42463E+01 -1.09474E+01
 +9.25363E-01 -2.21111E+01 +1.97196E+01 -1.55523E+01 +2.56939E+01 +4.08978E+00 +1.35704E+01 +2.05482E+01
 -6.09453E+00 +2.04194E+01 -1.63874E+01 +5.03159E+00 -9.12591E+00 -1.08962E+01 +7.94978E+00 -1.25363E+01
 +1.82639E+01 +1.75945E+00 +1.13561E+01 +1.90431E+01 -7.71198E+00 +2.34286E+01 -2.28776E+01 +1.03359E+01
 -2.14132E+01 -9.42539E+00 -5.21699E+00 -1.93256E+01 +1.10049E+01 -1.18216E+01 +1.29563E+01 +5.05944E+00
 -5.07858E-01 +1.50785E+01 -1.64910E+01 +8.41713E+00 -1.97255E+01 -9.53653E+00 -6.29499E+00 -2.30587E+01
 +1.28662E+01 -2.01759E+01 +2.17529E+01 -3.32388E+00 +1.35255E+01 +1.29095E+01 -3.53222E+00 +1.48473E+01
 -1.35801E+01 +1.85238E+00 -7.44830E+00 -1.32870E+01 +9.22493E+00 -1.59578E+01 +2.11568E+01 -2.85313E+00
 +1.71643E+01 +1.51000E+01 +1.50574E-01 +2.25474E+01 -1.55461E+01 +1.33914E+01 -1.69668E+01 -3.88602E+00
 -3.99244E+00 -1.39269E+01 +1.07492E+01 -8.23630E+00 +1.33296E+01 +7.34948E+00 +9.99614E-01 +1.80587E+01
 -1.54366E+01 +1.35020E+01 -2.13706E+01 -3.04467E+00 -1.14468E+01 -1.76309E+01 +5.74483E+00 -1.81062E+01
 +1.54345E+01 -4.86437E+00 +9.84261E+00 +9.69283E+00 -5.03384E+00 +1.23635E+01 -1.49864E+01 +9.19938E-01
 -1.04066E+01 -1.40453E+01 +5.15487E+00 -1.87280E+01 +1.82598E+01 -8.47988E+00 +1.76299E+01 +8.11569E+00
 +4.13666E+00 +1.69911E+01 -1.01329E+01 +1.11213E+01 -1.27623E+01 -3.37608E+00 -2.02606E+00 -1.29081E+01
 +1.17603E+01 -8.63773E+00 +1.56288E+01 +5.69472E+00 +5.58298E+00 +1.72604E+01 -9.92122E+00 +1.56815E+01
 -1.76221E+01 +2.24119E+00 -1.12693E+01 -1.13976E+01 +2.95742E+00 -1.36715E+01 +1.21459E+01 -3.34466E+00
 +8.23273E+00 +9.60108E+00 -4.91706E+00 +1.30559E+01 -1.51531E+01 +3.61600E+00 -1.29967E+01 -1.04988E+01
 -5.44006E-02 -1.69115E+01 +1.25496E+01 -1.01365E+01 +1.41673E+01 +3.66593E+00 +4.02964E+00 +1.23444E+01
 -8.27741E+00 +8.62203E+00 -1.15278E+01 -3.56372E+00 -2.86132E+00 -1.27917E+01 +9.82652E+00 -1.04639E+01
 +1.50925E+01 +1.58240E+00 +8.17720E+00 +1.28670E+01 -4.87836E+00 +1.36980E+01 -1.27686E+01 +3.72986E+00
 -9.01436E+00 -7.92408E+00 +2.42569E+00 -1.09564E+01 +1.09058E+01 -3.01264E+00 +8.68856E+00 +8.40475E+00
 -2.24294E+00 +1.28119E+01 -1.21360E+01 +6.11949E+00 -1.22686E+01 -5.85565E+00 -2.65221E+00 -1.27297E+01
 +8.16163E+00 -8.81826E+00 +1.08231E+01 +1.96106E+00 +3.45000E+00 +9.78959E+00 -6.90766E+00 +7.77552E+00
