 Created: 16-Jan-2021
 $NMID
 ID='D:\BASISSIMULATI'
 FMTDAT='(8E13.5)'
 VOLUME=   1.00000E+00
 TRAMP=   1.00000E+00
 $END
 +3.60428E+01 +3.78893E+00 +3.42790E+01 +1.09944E+01 +3.07981E+01 +1.74924E+01 +2.58558E+01 +2.28598E+01
 +1.98111E+01 +2.67604E+01 +1.30981E+01 +2.89687E+01 +6.19271E+00 +2.93864E+01 -4.24160E-01 +2.80477E+01
 -6.30295E+00 +2.51149E+01 -1.10591E+01 +2.08638E+01 -1.44009E+01 +1.56611E+01 -1.61504E+01 +9.93391E+00
 -1.62540E+01 +4.13651E+00 -1.47842E+01 -1.28561E+00 -1.19306E+01 -5.92977E+00 -7.98268E+00 -9.46619E+00
 -3.30441E+00 -1.16618E+01 +1.69626E+00 -1.23956E+01 +6.60066E+00 -1.16655E+01 +1.10128E+01 -9.58439E+00
 +1.45902E+01 -6.36828E+00 +1.70696E+01 -2.31559E+00 +1.82858E+01 +2.21929E+00 +1.81816E+01 +6.85643E+00
 +1.68098E+01 +1.12221E+01 +1.43247E+01 +1.49794E+01 +1.09663E+01 +1.78545E+01 +7.03813E+00 +1.96578E+01
 +2.87932E+00 +2.02971E+01 -1.16469E+00 +1.97824E+01 -4.77176E+00 +1.82221E+01 -7.66992E+00 +1.58107E+01
 -9.65933E+00 +1.28102E+01 -1.06278E+01 +9.52514E+00 -1.05583E+01 +6.27557E+00 -9.52841E+00 +3.36836E+00
 -7.70171E+00 +1.07062E+00 -5.31155E+00 -4.13148E-01 -2.63944E+00 -9.58222E-01 +1.05883E-02 -5.29646E-01
 +2.33923E+00 +8.15614E-01 +4.07846E+00 +2.93449E+00 +5.01518E+00 +5.61101E+00 +5.00986E+00 +8.57568E+00
 +4.00879E+00 +1.15293E+01 +2.04889E+00 +1.41694E+01 -7.45302E-01 +1.62165E+01 -4.17210E+00 +1.74387E+01
 -7.96969E+00 +1.76718E+01 -1.18383E+01 +1.68343E+01 -1.54653E+01 +1.49343E+01 -1.85520E+01 +1.20700E+01
 -2.08383E+01 +8.42190E+00 -2.21253E+01 +4.23846E+00 -2.22917E+01 -1.83968E-01 -2.13048E+01 -4.52520E+00
 -1.92235E+01 -8.46724E+00 -1.61939E+01 -1.17201E+01 -1.24383E+01 -1.40454E+01 -8.23772E+00 -1.52755E+01
 -3.90910E+00 -1.53276E+01 +2.19261E-01 -1.42098E+01 +3.83386E+00 -1.20211E+01 +6.66066E+00 -8.94336E+00
 +8.48647E+00 -5.22698E+00 +9.17550E+00 -1.17116E+00 +8.67962E+00 +2.89957E+00 +7.04165E+00 +6.66062E+00
 +4.39153E+00 +9.81251E+00 +9.35606E-01 +1.21037E+01 -3.05984E+00 +1.33496E+01 -7.28969E+00 +1.34460E+01
 -1.14337E+01 +1.23762E+01 -1.51813E+01 +1.02113E+01 -1.82550E+01 +7.10327E+00 -2.04311E+01 +3.27229E+00
 -2.15558E+01 -1.01105E+00 -2.15556E+01 -5.44740E+00 -2.04414E+01 -9.73188E+00 -1.83058E+01 -1.35774E+01
 -1.53141E+01 -1.67360E+01 -1.16901E+01 -1.90168E+01 -7.69765E+00 -2.02992E+01 -3.61931E+00 -2.05400E+01
 +2.65740E-01 -1.97743E+01 +3.70295E+00 -1.81111E+01 +6.48118E+00 -1.57220E+01 +8.44757E+00 -1.28261E+01
 +9.51739E+00 -9.67203E+00 +9.67831E+00 -6.51671E+00 +8.98876E+00 -3.60579E+00 +7.57083E+00 -1.15449E+00
 +5.59834E+00 +6.68116E-01 +3.28117E+00 +1.75075E+00 +8.47286E-01 +2.04659E+00 -1.47616E+00 +1.57452E+00
 -3.48095E+00 +4.15206E-01 -4.99383E+00 -1.29785E+00 -5.88917E+00 -3.39101E+00 -6.09731E+00 -5.66614E+00
 -5.60816E+00 -7.91767E+00 -4.46974E+00 -9.94958E+00 -2.78211E+00 -1.15912E+01 -6.87188E-01 -1.27101E+01
 +1.64444E+00 -1.32218E+01 +4.02868E+00 -1.30948E+01 +6.28362E+00 -1.23515E+01 +8.24454E+00 -1.10641E+01
 +9.77699E+00 -9.34703E+00 +1.07869E+01 -7.34573E+00 +1.12270E+01 -5.22365E+00 +1.10991E+01 -3.14783E+00
 +1.04524E+01 -1.27476E+00 +9.37725E+00 +2.62331E-01 +7.99686E+00 +1.36389E+00 +6.45524E+00 +1.97129E+00
 +4.90463E+00 +2.07042E+00 +3.49233E+00 +1.69143E+00 +2.34844E+00 +9.04717E-01 +1.57536E+00 -1.86251E-01
 +1.24006E+00 -1.45473E+00 +1.36949E+00 -2.76208E+00 +1.94951E+00 -3.96988E+00 +2.92727E+00 -4.95151E+00
 +4.21687E+00 -5.60246E+00 +5.70747E+00 -5.84849E+00 +7.27330E+00 -5.65088E+00 +8.78462E+00 -5.00863E+00
 +1.01186E+01 -3.95743E+00 +1.11691E+01 -2.56555E+00 +1.18554E+01 -9.27191E-01 +1.21273E+01 +8.46090E-01
 +1.19688E+01 +2.63513E+00 +1.13980E+01 +4.32314E+00 +1.04643E+01 +5.80517E+00 +9.24325E+00 +6.99621E+00
 +7.82940E+00 +7.83726E+00 +6.32780E+00 +8.29909E+00 +4.84499E+00 +8.38330E+00 +3.48028E+00 +8.12081E+00
 +2.31804E+00 +7.56793E+00 +1.42149E+00 +6.80055E+00 +8.28671E-01 +5.90696E+00 +5.50633E-01 +4.97995E+00
 +5.71979E-01 +4.10895E+00 +8.53617E-01 +3.37291E+00 +1.33734E+00 +2.83433E+00 +1.95176E+00 +2.53510E+00
 +2.61904E+00 +2.49427E+00 +3.26171E+00 +2.70790E+00 +3.80914E+00 +3.15084E+00 +4.20293E+00 +3.78023E+00
 +4.40097E+00 +4.54030E+00 +4.37979E+00 +5.36788E+00 +4.13516E+00 +6.19827E+00 +3.68100E+00 +6.97074E+00
 +3.04674E+00 +7.63331E+00 +2.27359E+00 +8.14637E+00 +1.41000E+00 +8.48491E+00 +5.06951E-01 +8.63933E+00
 -3.86682E-01 +8.61469E+00 -1.22804E+00 +8.42876E+00 -1.98335E+00 +8.10909E+00 -2.62975E+00 +7.68940E+00
 -3.15598E+00 +7.20584E+00 -3.56180E+00 +6.69338E+00 -3.85639E+00 +6.18271E+00 -4.05601E+00 +5.69796E+00
 -4.18115E+00 +5.25543E+00 -4.25361E+00 +4.86333E+00 -4.29382E+00 +4.52240E+00 -4.31864E+00 +4.22748E+00
 -4.33997E+00 +3.96952E+00 -4.36415E+00 +3.73790E+00 -4.39228E+00 +3.52267E+00 -4.42131E+00 +3.31647E+00
 -4.44567E+00 +3.11580E+00 -4.45931E+00 +2.92162E+00 -4.45775E+00 +2.73906E+00 -4.43983E+00 +2.57636E+00
 -4.40903E+00 +2.44324E+00 -4.37401E+00 +2.34875E+00 -4.34830E+00 +2.29909E+00 -4.34921E+00 +2.29552E+00
 -4.39588E+00 +2.33278E+00 -4.50692E+00 +2.39824E+00 -4.69756E+00 +2.47193E+00 -4.97704E+00 +2.52760E+00
 -5.34619E+00 +2.53464E+00 -5.79585E+00 +2.46093E+00 -6.30613E+00 +2.27613E+00 -6.84688E+00 +1.95529E+00
 -7.37926E+00 +1.48221E+00 -7.85855E+00 +8.52383E-01 -8.23773E+00 +7.49437E-02 -8.47182E+00 -8.26535E-01
 -8.52240E+00 -1.81461E+00 -8.36189E+00 -2.83998E+00 -7.97724E+00 -3.84482E+00 -7.37250E+00 -4.76724E+00
 -6.57000E+00 -5.54652E+00 -5.60991E+00 -6.12864E+00 -4.54805E+00 -6.47163E+00 -3.45224E+00 -6.55017E+00
 -2.39707E+00 -6.35905E+00 -1.45789E+00 -5.91496E+00 -7.04236E-01 -5.25649E+00 -1.93395E-01 -4.44204E+00
 +3.53396E-02 -3.54600E+00 -3.48847E-02 -2.65307E+00 -3.95761E-01 -1.85151E+00 -1.01319E+00 -1.22562E+00
 -1.82892E+00 -8.48161E-01 -2.76435E+00 -7.73460E-01 -3.72637E+00 -1.03174E+00 -4.61474E+00 -1.62529E+00
 -5.33043E+00 -2.52696E+00 -5.78428E+00 -3.68106E+00 -5.90512E+00 -5.00688E+00 -5.64678E+00 -6.40445E+00
 -4.99317E+00 -7.76232E+00 -3.96101E+00 -8.96656E+00 -2.59977E+00 -9.91042E+00 -9.88925E-01 -1.05037E+01
 +7.67633E-01 -1.06812E+01 +2.54936E+00 -1.04091E+01 +4.22864E+00 -9.68917E+00 +5.68121E+00 -8.55994E+00
 +6.79682E+00 -7.09488E+00 +7.48893E+00 -5.39740E+00 +7.70282E+00 -3.59336E+00 +7.42128E+00 -1.82122E+00
 +6.66728E+00 -2.20929E-01 +5.50334E+00 +1.07766E+00 +4.02766E+00 +1.96596E+00 +2.36699E+00 +2.36634E+00
 +6.67024E-01 +2.23948E+00 -9.19118E-01 +1.58881E+00 -2.24334E+00 +4.61430E-01 -3.17492E+00 -1.05449E+00
 -3.61181E+00 -2.83585E+00 -3.48976E+00 -4.73375E+00 -2.78862E+00 -6.58505E+00 -1.53512E+00 -8.22531E+00
 +1.98101E-01 -9.50220E+00 +2.29730E+00 -1.02881E+01 +4.61589E+00 -1.04913E+01 +6.98556E+00 -1.00637E+01
 +9.22935E+00 -9.00624E+00 +1.11758E+01 -7.36942E+00 +1.26726E+01 -5.25036E+00 +1.35995E+01 -2.78581E+00
 +1.38780E+01 -1.41910E-01 +1.34789E+01 +2.49861E+00 +1.24245E+01 +4.95080E+00 +1.07883E+01 +7.04214E+00
 +8.68900E+00 +8.62645E+00 +6.28225E+00 +9.59581E+00 +3.74804E+00 +9.88946E+00 +1.27679E+00 +9.49905E+00
 -9.45807E-01 +8.46964E+00 -2.75363E+00 +6.89643E+00 -4.01353E+00 +4.91737E+00 -4.63610E+00 +2.70230E+00
 -4.58298E+00 +4.39364E-01 -3.87011E+00 -1.68001E+00 -2.56650E+00 -3.47659E+00 -7.88695E-01 -4.79781E+00
 +1.30857E+00 -5.53016E+00 +3.54498E+00 -5.60842E+00 +5.72929E+00 -5.02092E+00 +7.67496E+00 -3.81055E+00
 +9.21539E+00 -2.07114E+00 +1.02176E+01 +6.02237E-02 +1.05931E+01 +2.41452E+00 +1.03052E+01 +4.80479E+00
 +9.37182E+00 +7.04156E+00 +7.86432E+00 +8.94860E+00 +5.90114E+00 +1.03775E+01 +3.63809E+00 +1.12201E+01
 +1.25529E+00 +1.14175E+01 -1.05792E+00 +1.09648E+01 -3.11893E+00 +9.91202E+00 -4.76721E+00 +8.35933E+00
 -5.87795E+00 +6.44911E+00 -6.37270E+00 +4.35383E+00 -6.22621E+00 +2.26148E+00 -5.46874E+00 +3.59691E-01
 -4.18386E+00 -1.18031E+00 -2.50158E+00 -2.21841E+00 -5.87628E-01 -2.65782E+00 +1.37044E+00 -2.45371E+00
 +3.17903E+00 -1.61762E+00 +4.65501E+00 -2.17059E-01 +5.64148E+00 +1.62954E+00 +6.02147E+00 +3.76222E+00
 +5.72853E+00 +5.99250E+00 +4.75313E+00 +8.11891E+00 +3.14439E+00 +9.94381E+00 +1.00702E+00 +1.12901E+01
 -1.50655E+00 +1.20165E+01 -4.20796E+00 +1.20300E+01 -6.88797E+00 +1.12944E+01 -9.33339E+00 +9.83446E+00
 -1.13446E+01 +7.73514E+00 -1.27521E+01 +5.13553E+00 -1.34310E+01 +2.21862E+00 -1.33121E+01 -8.02802E-01
 -1.23882E+01 -3.70287E+00 -1.07161E+01 -6.26063E+00 -8.41289E+00 -8.27786E+00 -5.64745E+00 -9.59530E+00
 -2.62809E+00 -1.01060E+01 +4.13646E-01 -9.76448E+00 +3.24094E+00 -8.59133E+00 +5.63034E+00 -6.67236E+00
 +7.38952E+00 -4.15264E+00 +8.37275E+00 -1.22582E+00 +8.49280E+00 +1.88055E+00 +7.72833E+00 +4.92247E+00
 +6.12613E+00 +7.65837E+00 +3.79799E+00 +9.86798E+00 +9.12516E-01 +1.13695E+01 -2.31769E+00 +1.20341E+01
 -5.65223E+00 +1.17958E+01 -8.84141E+00 +1.06573E+01 -1.16455E+01 +8.68949E+00 -1.38533E+01 +6.02648E+00
 -1.52983E+01 +2.85498E+00 -1.58716E+01 -5.99950E-01 -1.55304E+01 -4.09238E+00 -1.43006E+01 -7.37453E+00
 -1.22749E+01 -1.02158E+01 -9.60544E+00 -1.24208E+01 -6.49112E+00 -1.38436E+01 -3.16238E+00 -1.43994E+01
 +1.37232E-01 -1.40701E+01 +3.16999E+00 -1.29054E+01 +5.72253E+00 -1.10178E+01 +7.62222E+00 -8.57347E+00
 +8.75025E+00 -5.77856E+00 +9.05025E+00 -2.86227E+00 +8.53197E+00 -5.85573E-02 +7.26957E+00 +2.41252E+00
 +5.39482E+00 +4.36212E+00 +3.08570E+00 +5.64727E+00 +5.51486E-01 +6.18170E+00 -1.98465E+00 +5.94198E+00
 -4.30390E+00 +4.96850E+00 -6.20955E+00 +3.36126E+00 -7.54278E+00 +1.27088E+00 -8.19516E+00 -1.11446E+00
 -8.11691E+00 -3.58502E+00 -7.32030E+00 -5.92712E+00 -5.87787E+00 -7.94089E+00 -3.91572E+00 -9.45679E+00
 -1.60240E+00 -1.03494E+01 +8.65584E-01 -1.05477E+01 +3.28055E+00 -1.00400E+01 +5.44116E+00 -8.87532E+00
 +7.16941E+00 -7.15797E+00 +8.32546E+00 -5.03897E+00 +8.81930E+00 -2.70283E+00 +8.61819E+00 -3.51859E-01
 +7.74922E+00 +1.81104E+00 +6.29696E+00 +3.59958E+00 +4.39620E+00 +4.85982E+00 +2.22060E+00 +5.48325E+00
 -3.20176E-02 +5.41601E+00 -2.15630E+00 +4.66357E+00 -3.95669E+00 +3.29047E+00 -5.26393E+00 +1.41507E+00
 -5.94942E+00 -8.00075E-01 -5.93623E+00 -3.16166E+00 -5.20582E+00 -5.46155E+00 -3.80000E+00 -7.49409E+00
