 Created: 16-Jan-2021
 $NMID
 ID='D:\BASISSIMULATI'
 FMTDAT='(8E13.5)'
 VOLUME=   1.00000E+00
 TRAMP=   1.00000E+00
 $END
 +2.23539E+01 +2.13015E+00 +1.85257E+01 +1.22250E+01 +1.01749E+01 +1.87562E+01 +4.10847E-03 +1.99326E+01
 -8.79555E+00 +1.57712E+01 -1.36370E+01 +8.03386E+00 -1.33917E+01 -4.33642E-01 -8.71592E+00 -6.71530E+00
 -1.74970E+00 -8.82910E+00 +4.68636E+00 -6.37364E+00 +8.10234E+00 -6.03798E-01 +7.19965E+00 +6.07174E+00
 +2.28721E+00 +1.09769E+01 -4.87593E+00 +1.21172E+01 -1.17365E+01 +8.85967E+00 -1.58558E+01 +2.11802E+00
 -1.57477E+01 -6.00269E+00 -1.13590E+01 -1.29579E+01 -4.04188E+00 -1.66373E+01 +3.95123E+00 -1.60553E+01
 +1.02555E+01 -1.16299E+01 +1.31822E+01 -4.97395E+00 +1.22394E+01 +1.70601E+00 +8.21976E+00 +6.37803E+00
 +2.85060E+00 +7.85036E+00 -1.85137E+00 +6.11283E+00 -4.28392E+00 +2.25681E+00 -3.77860E+00 -1.97449E+00
 -7.69431E-01 -4.83022E+00 +3.42532E+00 -5.15955E+00 +7.11070E+00 -2.77790E+00 +8.82195E+00 +1.51812E+00
 +7.81838E+00 +6.27105E+00 +4.30401E+00 +9.88918E+00 -6.83091E-01 +1.11891E+01 -5.65492E+00 +9.77043E+00
 -9.18517E+00 +6.10788E+00 -1.03694E+01 +1.34766E+00 -9.08419E+00 -3.10433E+00 -5.97200E+00 -6.05223E+00
 -2.17691E+00 -6.87844E+00 +1.06551E+00 -5.69575E+00 +2.83767E+00 -3.24868E+00 +2.81432E+00 -6.14298E-01
 +1.32065E+00 +1.18446E+00 -8.29324E-01 +1.51929E+00 -2.64590E+00 +3.41760E-01 -3.31449E+00 -1.83720E+00
 -2.46627E+00 -4.15338E+00 -2.84483E-01 -5.70136E+00 +2.57845E+00 -5.84371E+00 +5.23494E+00 -4.41627E+00
 +6.86270E+00 -1.76826E+00 +6.97043E+00 +1.36692E+00 +5.54461E+00 +4.11985E+00 +3.03588E+00 +5.76607E+00
 +1.97191E-01 +5.94817E+00 -2.16737E+00 +4.77034E+00 -3.45854E+00 +2.74105E+00 -3.46025E+00 +5.88758E-01
 -2.38655E+00 -9.84427E-01 -7.87190E-01 -1.52964E+00 +6.52079E-01 -9.85888E-01 +1.34611E+00 +3.17844E-01
 +1.00553E+00 +1.78952E+00 -2.72151E-01 +2.78472E+00 -2.04275E+00 +2.82994E+00 -3.67101E+00 +1.78463E+00
 -4.54814E+00 -1.10280E-01 -4.29863E+00 -2.31169E+00 -2.90823E+00 -4.15385E+00 -7.31674E-01 -5.06773E+00
 +1.62134E+00 -4.76767E+00 +3.48332E+00 -3.34415E+00 +4.34377E+00 -1.23295E+00 +4.01094E+00 +9.27963E-01
 +2.66798E+00 +2.50581E+00 +8.06318E-01 +3.07576E+00 -9.40453E-01 +2.55276E+00 -2.00604E+00 +1.20991E+00
 -2.07498E+00 -4.20616E-01 -1.18021E+00 -1.72997E+00 +3.15863E-01 -2.23667E+00 +1.84865E+00 -1.74494E+00
 +2.84309E+00 -4.06207E-01 +2.90590E+00 +1.33478E+00 +1.95541E+00 +2.88940E+00 +2.47860E-01 +3.71965E+00
 -1.70639E+00 +3.51394E+00 -3.30759E+00 +2.28768E+00 -4.05794E+00 +3.78175E-01 -3.71804E+00 -1.66248E+00
 -2.38010E+00 -3.24041E+00 -4.36641E-01 -3.90323E+00 +1.54280E+00 -3.47654E+00 +2.98692E+00 -2.11265E+00
 +3.49494E+00 -2.39161E-01 +2.95388E+00 +1.57467E+00 +1.56691E+00 +2.79138E+00 -2.13372E-01 +3.06592E+00
 -1.82497E+00 +2.34605E+00 -2.76702E+00 +8.84158E-01 -2.75033E+00 -8.41593E-01 -1.78423E+00 -2.27272E+00
 -1.74599E-01 -2.93975E+00 +1.56632E+00 -2.60611E+00 +2.87281E+00 -1.34446E+00 +3.29772E+00 +4.78087E-01
 +2.65336E+00 +2.30339E+00 +1.07900E+00 +3.54693E+00 -9.88247E-01 +3.77682E+00 -2.93455E+00 +2.85434E+00
 -4.15058E+00 +9.91353E-01 -4.22092E+00 -1.29742E+00 -3.06351E+00 -3.33884E+00 -9.72752E-01 -4.50356E+00
 +1.45364E+00 -4.40606E+00 +3.48834E+00 -3.03878E+00 +4.49962E+00 -7.92922E-01 +4.15856E+00 +1.64826E+00
 +2.55930E+00 +3.51732E+00 +2.06996E-01 +4.20952E+00 -2.13088E+00 +3.48932E+00 -3.66874E+00 +1.58460E+00
 -3.86596E+00 -8.69929E-01 -2.62055E+00 -3.03011E+00 -3.23159E-01 -4.12102E+00 +2.25500E+00 -3.70588E+00
 +4.21076E+00 -1.85170E+00 +4.81507E+00 +8.71192E-01 +3.77298E+00 +3.56415E+00 +1.34445E+00 +5.29693E+00
 -1.72265E+00 +5.42819E+00 -4.43204E+00 +3.83827E+00 -5.87430E+00 +9.88964E-01 -5.54334E+00 -2.21738E+00
 -3.52225E+00 -4.73712E+00 -4.68428E-01 -5.74248E+00 +2.60274E+00 -4.91228E+00 +4.66467E+00 -2.55153E+00
 +5.03723E+00 +5.06961E-01 +3.62837E+00 +3.18866E+00 +9.71436E-01 +4.55334E+00 -1.95882E+00 +4.12840E+00
 -4.08944E+00 +2.07981E+00 -4.63097E+00 -8.42950E-01 -3.36143E+00 -3.57079E+00 -7.09482E-01 -5.09555E+00
 +2.39489E+00 -4.83121E+00 +4.85016E+00 -2.82591E+00 +5.77590E+00 +2.52488E-01 +4.82707E+00 +3.35289E+00
 +2.31669E+00 +5.41482E+00 -8.97299E-01 +5.74493E+00 -3.71982E+00 +4.26055E+00 -5.20934E+00 +1.51300E+00
 -4.91006E+00 -1.51657E+00 -3.00615E+00 -3.77311E+00 -2.44038E-01 -4.50563E+00 +2.34658E+00 -3.52990E+00
 +3.82939E+00 -1.28253E+00 +3.69777E+00 +1.35058E+00 +2.04928E+00 +3.36539E+00 -4.62530E-01 +4.00768E+00
 -2.87759E+00 +3.04316E+00 -4.28554E+00 +8.33143E-01 -4.15704E+00 -1.80815E+00 -2.52962E+00 -3.91830E+00
 +1.63064E-02 -4.73914E+00 +2.57831E+00 -3.98740E+00 +4.26472E+00 -1.94698E+00 +4.51554E+00 +6.46574E-01
 +3.29524E+00 +2.88218E+00 +1.09058E+00 +4.00545E+00 -1.28031E+00 +3.68484E+00 -2.97301E+00 +2.11696E+00
 -3.42196E+00 -6.23150E-02 -2.53505E+00 -2.02300E+00 -7.10400E-01 -3.04843E+00 +1.32498E+00 -2.79167E+00
 +2.79054E+00 -1.38969E+00 +3.13812E+00 +6.01524E-01 +2.24478E+00 +2.42149E+00 +4.45942E-01 +3.38703E+00
 -1.59768E+00 +3.13760E+00 -3.14609E+00 +1.75734E+00 -3.64694E+00 -2.65867E-01 -2.92744E+00 -2.22379E+00
 -1.24579E+00 -3.44378E+00 +8.11203E-01 -3.52393E+00 +2.54231E+00 -2.46541E+00 +3.37881E+00 -6.59556E-01
 +3.07657E+00 +1.26033E+00 +1.78876E+00 +2.64546E+00 -1.18502E-03 +3.05504E+00 -1.65757E+00 +2.39983E+00
 -2.61598E+00 +9.59810E-01 -2.57417E+00 -7.24838E-01 -1.58684E+00 -2.04758E+00 -3.59960E-02 -2.54518E+00
 +1.50852E+00 -2.05220E+00 +2.48757E+00 -7.50572E-01 +2.54240E+00 +8.98593E-01 +1.63302E+00 +2.31472E+00
 +4.84311E-02 +2.99381E+00 -1.69178E+00 +2.67592E+00 -3.00999E+00 +1.43021E+00 -3.46016E+00 -3.68085E-01
 -2.87317E+00 -2.15980E+00 -1.41204E+00 -3.38273E+00 +4.80027E-01 -3.65307E+00 +2.22179E+00 -2.88946E+00
 +3.28100E+00 -1.34008E+00 +3.34682E+00 +4.96557E-01 +2.43204E+00 +2.03272E+00 +8.71039E-01 +2.78383E+00
 -7.87956E-01 +2.53020E+00 -1.96386E+00 +1.39439E+00 -2.23929E+00 -1.93876E-01 -1.50796E+00 -1.63740E+00
 -2.14322E-02 -2.37319E+00 +1.68495E+00 -2.07039E+00 +2.96725E+00 -7.56871E-01 +3.29426E+00 +1.17265E+00
 +2.44062E+00 +3.07590E+00 +5.83169E-01 +4.27524E+00 -1.73874E+00 +4.29357E+00 -3.79249E+00 +3.03224E+00
 -4.89850E+00 +8.24988E-01 -4.67044E+00 -1.65844E+00 -3.16308E+00 -3.63263E+00 -8.69887E-01 -4.46850E+00
 +1.43674E+00 -3.92162E+00 +2.97286E+00 -2.23176E+00 +3.22595E+00 -5.09404E-02 +2.15070E+00 +1.78235E+00
 +2.01093E-01 +2.54714E+00 -1.82102E+00 +1.91380E+00 -3.05378E+00 +8.42881E-02 -2.89900E+00 -2.25977E+00
 -1.26255E+00 -4.19146E+00 +1.38273E+00 -4.87665E+00 +4.14387E+00 -3.89392E+00 +6.01949E+00 -1.41579E+00
 +6.26736E+00 +1.82385E+00 +4.69248E+00 +4.77358E+00 +1.74377E+00 +6.43790E+00 -1.62527E+00 +6.24574E+00
 -4.28969E+00 +4.27538E+00 -5.36287E+00 +1.24533E+00 -4.53173E+00 -1.73471E+00 -2.18813E+00 -3.56830E+00
 +7.00668E-01 -3.58526E+00 +2.94339E+00 -1.80763E+00 +3.57310E+00 +1.03762E+00 +2.22624E+00 +3.77315E+00
 -6.93754E-01 +5.20649E+00 -4.13826E+00 +4.58752E+00 -6.78499E+00 +1.91595E+00 -7.52773E+00 -2.02321E+00
 -5.90361E+00 -5.91913E+00 -2.29464E+00 -8.40229E+00 +2.18011E+00 -8.55035E+00 +6.05100E+00 -6.24429E+00
 +8.02715E+00 -2.23650E+00 +7.47433E+00 +2.10306E+00 +4.66162E+00 +5.27672E+00 +6.78510E-01 +6.20827E+00
 -2.95499E+00 +4.64785E+00 -4.84682E+00 +1.27799E+00 -4.25563E+00 -2.52562E+00 -1.38183E+00 -5.19718E+00
 +2.68654E+00 -5.56572E+00 +6.36025E+00 -3.30582E+00 +8.13091E+00 +9.16301E-01 +7.13624E+00 +5.66183E+00
 +3.49891E+00 +9.22935E+00 -1.69064E+00 +1.02727E+01 -6.74697E+00 +8.30043E+00 -9.98655E+00 +3.87211E+00
 -1.03330E+01 -1.58587E+00 -7.70938E+00 -6.28103E+00 -3.07177E+00 -8.69302E+00 +1.93036E+00 -8.11769E+00
 +5.54633E+00 -4.91823E+00 +6.55437E+00 -3.90708E-01 +4.70098E+00 +3.70830E+00 +7.89386E-01 +5.80116E+00
 -3.61514E+00 +5.06360E+00 -6.75636E+00 +1.72591E+00 -7.32729E+00 -3.00807E+00 -4.94790E+00 -7.39415E+00
 -3.08238E-01 -9.77587E+00 +5.07335E+00 -9.18043E+00 +9.38811E+00 -5.66847E+00 +1.11762E+01 -3.14047E-01
 +9.83814E+00 +5.17515E+00 +5.83730E+00 +9.05824E+00 +5.25365E-01 +1.01662E+01 -4.34210E+00 +8.29648E+00
 -7.22336E+00 +4.26164E+00 -7.32047E+00 -4.20188E-01 -4.83610E+00 -4.07508E+00 -8.72356E-01 -5.46494E+00
 +2.98436E+00 -4.21083E+00 +5.23852E+00 -9.02902E-01 +5.01399E+00 +3.13396E+00 +2.35094E+00 +6.32740E+00
 -1.82679E+00 +7.41966E+00 -6.05371E+00 +5.90527E+00 -8.84521E+00 +2.19472E+00 -9.21322E+00 -2.54500E+00
 -6.99554E+00 -6.80749E+00 -2.89078E+00 -9.26864E+00 +1.80320E+00 -9.22900E+00 +5.64650E+00 -6.82716E+00
 +7.54535E+00 -2.95944E+00 +7.10255E+00 +1.05481E+00 +4.71595E+00 +3.93703E+00 +1.40212E+00 +4.87819E+00
 -1.58205E+00 +3.78749E+00 -3.18160E+00 +1.28445E+00 -2.89550E+00 -1.55114E+00 -9.22868E-01 -3.57455E+00
 +1.93684E+00 -3.97553E+00 +4.58416E+00 -2.54571E+00 +6.00912E+00 +2.70575E-01 +5.63416E+00 +3.54899E+00
 +3.49685E+00 +6.21298E+00 +2.18630E-01 +7.39916E+00 -3.22003E+00 +6.73641E+00 -5.81392E+00 +4.44975E+00
 -6.86067E+00 +1.26291E+00 -6.17365E+00 -1.85833E+00 -4.11577E+00 -4.02965E+00 -1.45184E+00 -4.72887E+00
 +9.22909E-01 -3.94378E+00 +2.28291E+00 -2.14534E+00 +2.30129E+00 -1.03586E-01 +1.13623E+00 +1.38587E+00
 -6.47230E-01 +1.77092E+00 -2.28682E+00 +9.19586E-01 -3.09003E+00 -8.49951E-01 -2.66862E+00 -2.89007E+00
 -1.06492E+00 -4.45032E+00 +1.26795E+00 -4.93230E+00 +3.62125E+00 -4.08848E+00 +5.26680E+00 -2.10172E+00
 +5.69545E+00 +4.77745E-01 +4.77989E+00 +2.91419E+00 +2.81060E+00 +4.52557E+00 +3.95435E-01 +4.90121E+00
 -1.74211E+00 +4.02769E+00 -2.99869E+00 +2.28313E+00 -3.08355E+00 +3.03854E-01 -2.10507E+00 -1.23141E+00
 -5.24280E-01 -1.82794E+00 +1.00830E+00 -1.33723E+00 +1.87736E+00 -1.59948E-03 +1.71410E+00 +1.63302E+00
 +5.23558E-01 +2.90674E+00 -1.31488E+00 +3.27421E+00 -3.17422E+00 +2.49536E+00 -4.39177E+00 +7.23895E-01
 -4.49554E+00 -1.53699E+00 -3.36871E+00 -3.59764E+00 -1.29646E+00 -4.81007E+00 +1.12178E+00 -4.78482E+00
 +3.16643E+00 -3.52361E+00 +4.23371E+00 -1.42262E+00 +4.03486E+00 +8.55837E-01 +2.69134E+00 +2.60101E+00
 +6.93687E-01 +3.28822E+00 -1.26280E+00 +2.75178E+00 -2.51093E+00 +1.23803E+00 -2.63508E+00 -6.79547E-01
