 Created: 16-Jan-2021
 $NMID
 ID='D:\BASISSIMULATI'
 FMTDAT='(8E13.5)'
 VOLUME=   1.00000E+00
 TRAMP=   1.00000E+00
 $END
 +4.93764E+01 +2.47574E+00 +2.98619E+01 +3.71557E+01 -8.19064E+00 +4.16478E+01 -3.19913E+01 +1.52289E+01
 -2.42331E+01 -1.58020E+01 +2.42992E+00 -2.45947E+01 +2.05582E+01 -8.66612E+00 +1.59419E+01 +1.10559E+01
 -3.27502E-01 +1.42244E+01 -6.80015E+00 +2.08886E+00 +3.64228E+00 -6.09205E+00 +1.60831E+01 +3.74454E+00
 +1.08342E+01 +2.33021E+01 -1.32136E+01 +2.97197E+01 -3.47300E+01 +1.04672E+01 -3.07126E+01 -2.10912E+01
 -8.74358E-01 -3.67220E+01 +2.98619E+01 -2.07094E+01 +3.42624E+01 +1.39290E+01 +8.65480E+00 +3.70726E+01
 -2.38628E+01 +2.96912E+01 -3.57758E+01 +8.27511E-01 -2.05945E+01 -2.27859E+01 +3.42346E+00 -2.30995E+01
 +1.35242E+01 -6.42957E+00 +4.98998E+00 +6.19731E+00 -6.78784E+00 +2.40292E+00 -5.30961E+00 -9.41447E+00
 +8.18865E+00 -1.12328E+01 +1.62946E+01 +3.06074E+00 +5.42582E+00 +1.94326E+01 -1.74931E+01 +1.80358E+01
 -3.01197E+01 -4.81059E+00 -1.70948E+01 -3.04529E+01 +1.31867E+01 -3.49170E+01 +3.51323E+01 -1.24400E+01
 +2.99073E+01 +1.82230E+01 +3.13152E+00 +3.12667E+01 -2.10466E+01 +1.78050E+01 -2.31631E+01 -7.12742E+00
 -5.73000E+00 -2.05825E+01 +1.17948E+01 -1.38303E+01 +1.38228E+01 +1.44506E+00 +3.34546E+00 +7.74220E+00
 -3.83937E+00 +7.02716E-01 +2.06798E+00 -7.51801E+00 +1.37069E+01 -3.20138E+00 +1.49145E+01 +1.24097E+01
 -6.05235E-01 +2.31593E+01 -2.05960E+01 +1.49333E+01 -2.54234E+01 -8.28295E+00 -8.07193E+00 -2.64997E+01
 +1.76197E+01 -2.25891E+01 +2.93387E+01 +8.50488E-01 +1.72521E+01 +2.36063E+01 -7.13642E+00 +2.68608E+01
 -2.26102E+01 +1.02568E+01 -1.83038E+01 -9.38726E+00 -2.37322E+00 -1.54091E+01 +8.28957E+00 -6.71459E+00
 +5.62366E+00 +3.67390E+00 -2.93021E+00 +3.99246E+00 -4.55458E+00 -3.84947E+00 +3.82682E+00 -7.63023E+00
 +1.19278E+01 +4.08589E-01 +7.72243E+00 +1.37584E+01 -8.35556E+00 +1.76686E+01 -2.21366E+01 +4.89336E+00
 -1.93152E+01 -1.54378E+01 -2.06626E-01 -2.55308E+01 +1.95441E+01 -1.58775E+01 +2.33437E+01 +5.44620E+00
 +8.97687E+00 +2.03583E+01 -1.00365E+01 +1.75788E+01 -1.78215E+01 +2.16321E+00 -1.06048E+01 -1.09197E+01
 +1.67441E+00 -1.17761E+01 +6.96261E+00 -3.87022E+00 +3.16520E+00 +1.84968E+00 -1.49735E+00 -3.78262E-01
 +8.66541E-01 -5.41120E+00 +8.31902E+00 -4.04460E+00 +1.10915E+01 +5.58093E+00 +2.79826E+00 +1.47079E+01
 -1.13701E+01 +1.26641E+01 -1.85969E+01 -1.47435E+00 -1.09153E+01 -1.66130E+01 +6.41050E+00 -1.95536E+01
 +1.92171E+01 -7.42125E+00 +1.73401E+01 +9.63608E+00 +3.50689E+00 +1.79472E+01 -1.00604E+01 +1.25185E+01
 -1.33460E+01 +2.94512E-01 -6.84223E+00 -7.78168E+00 +9.96698E-01 -7.19328E+00 +3.33840E+00 -2.47193E+00
 +1.24154E+00 -4.97169E-01 +6.74016E-01 -2.50572E+00 +4.47135E+00 -3.41679E+00 +8.48004E+00 +1.33401E+00
 +6.14580E+00 +9.40989E+00 -3.53769E+00 +1.29542E+01 -1.35245E+01 +6.59252E+00 -1.47742E+01 -6.28453E+00
 -5.00546E+00 -1.57095E+01 +8.63093E+00 -1.39575E+01 +1.56979E+01 -2.48178E+00 +1.15010E+01 +9.59899E+00
 +5.16481E-01 +1.36866E+01 -8.45907E+00 +8.60302E+00 -1.01473E+01 +1.43016E-01 -6.13808E+00 -5.25434E+00
 -1.49039E+00 -5.93294E+00 +8.97618E-01 -4.65863E+00 +2.17807E+00 -4.04441E+00 +4.48138E+00 -3.37971E+00
 +7.11771E+00 -2.20782E-01 +6.69298E+00 +5.52151E+00 +1.09788E+00 +1.00293E+01 -7.13659E+00 +8.71291E+00
 -1.20911E+01 +9.75841E-01 -9.47101E+00 -8.37639E+00 -5.86322E-01 -1.27645E+01 +8.52951E+00 -9.19598E+00
 +1.19759E+01 -4.70816E-01 +8.33257E+00 +7.46335E+00 +9.23026E-01 +1.02089E+01 -5.50241E+00 +7.49173E+00
 -8.18583E+00 +2.06315E+00 -7.16177E+00 -3.09918E+00 -3.79550E+00 -6.42488E+00 +6.53763E-01 -7.40479E+00
 +5.06458E+00 -5.73813E+00 +7.86549E+00 -1.49554E+00 +7.35914E+00 +3.99430E+00 +3.11886E+00 +8.08372E+00
 -3.02824E+00 +8.29624E+00 -7.79220E+00 +4.22773E+00 -8.56599E+00 -1.96073E+00 -5.10215E+00 -6.97710E+00
 +6.01247E-01 -8.47102E+00 +5.78477E+00 -6.08560E+00 +8.33618E+00 -1.09743E+00 +7.30354E+00 +4.45304E+00
 +2.91556E+00 +8.32714E+00 -3.27462E+00 +8.56271E+00 -8.42498E+00 +4.43208E+00 -9.48693E+00 -2.48337E+00
 -5.27745E+00 -8.45182E+00 +2.07587E+00 -9.72336E+00 +8.09024E+00 -5.36401E+00 +9.07335E+00 +1.73968E+00
 +4.92419E+00 +6.97366E+00 -1.00120E+00 +7.56096E+00 -4.89317E+00 +4.39009E+00 -5.48790E+00 +5.07059E-01
 -4.23924E+00 -1.99810E+00 -2.85264E+00 -3.41667E+00 -1.18639E+00 -4.84588E+00 +1.99054E+00 -5.75930E+00
 +6.31034E+00 -3.94935E+00 +8.66050E+00 +1.63962E+00 +5.65299E+00 +8.31899E+00 -2.36092E+00 +1.08172E+01
 -1.01730E+01 +5.93443E+00 -1.15359E+01 -3.70548E+00 -4.83654E+00 -1.10395E+01 +4.93458E+00 -1.04676E+01
 +1.02929E+01 -2.86958E+00 +7.82768E+00 +5.23824E+00 +9.26084E-01 +7.75663E+00 -3.98001E+00 +4.37164E+00
 -3.77544E+00 -1.54679E-02 -1.13118E+00 -9.65534E-01 -7.02490E-01 +8.36275E-01 -3.36405E+00 +9.24337E-01
 -4.95614E+00 -3.12815E+00 -1.16873E+00 -7.98309E+00 +6.67446E+00 -7.46925E+00 +1.16223E+01 +4.75311E-01
 +7.69187E+00 +1.03051E+01 -3.42138E+00 +1.32275E+01 -1.28119E+01 +5.69446E+00 -1.23044E+01 -6.50406E+00
 -2.31335E+00 -1.31461E+01 +8.34603E+00 -9.05916E+00 +1.07936E+01 +1.14963E+00 +4.37688E+00 +7.88851E+00
 -3.35344E+00 +6.06874E+00 -4.80879E+00 -3.54255E-01 -1.15920E-01 -3.30758E+00 +3.62515E+00 +3.63711E-01
 +6.84696E-01 +5.45303E+00 -6.40610E+00 +4.33892E+00 -9.10834E+00 -3.98475E+00 -2.25710E+00 -1.17224E+01
 +9.36766E+00 -9.88304E+00 +1.47773E+01 +1.88506E+00 +7.65779E+00 +1.37223E+01 -6.62454E+00 +1.45982E+01
 -1.55014E+01 +3.23738E+00 -1.11748E+01 -1.02240E+01 +1.82002E+00 -1.38854E+01 +1.11888E+01 -5.52709E+00
 +9.05427E+00 +5.66397E+00 -6.10874E-01 +8.76466E+00 -6.78467E+00 +2.17775E+00 -3.27099E+00 -5.32758E+00
 +4.86426E+00 -4.53577E+00 +7.09782E+00 +3.93105E+00 -6.59471E-01 +1.00396E+01 -1.08774E+01 +5.28224E+00
 -1.18702E+01 -7.40492E+00 -4.43315E-01 -1.56200E+01 +1.36562E+01 -9.95454E+00 +1.67620E+01 +5.74845E+00
 +5.04182E+00 +1.72985E+01 -1.11105E+01 +1.38564E+01 -1.69275E+01 -1.25853E+00 -7.68584E+00 -1.37492E+01
 +6.87153E+00 -1.24706E+01 +1.26029E+01 -2.22252E-01 +5.19879E+00 +9.72154E+00 -6.00847E+00 +7.60754E+00
 -8.42356E+00 -2.86349E+00 +2.50552E-01 -8.97414E+00 +9.60478E+00 -3.03327E+00 +7.89946E+00 +8.91741E+00
 -4.77031E+00 +1.31995E+01 -1.56845E+01 +3.26538E+00 -1.24392E+01 -1.24405E+01 +3.61799E+00 -1.82805E+01
 +1.77143E+01 -7.35306E+00 +1.60265E+01 +1.08286E+01 -2.96801E-01 +1.92191E+01 -1.59169E+01 +1.00397E+01
 -1.63903E+01 -7.51256E+00 -2.35733E+00 -1.65722E+01 +1.15662E+01 -9.48157E+00 +1.19466E+01 +4.98015E+00
 +6.95336E-02 +1.12737E+01 -1.00565E+01 +3.46664E+00 -6.95169E+00 -8.81101E+00 +5.94514E+00 -1.10005E+01
 +1.38893E+01 +4.16979E-01 +6.77432E+00 +1.36055E+01 -9.40452E+00 +1.35978E+01 -1.79887E+01 -1.52305E+00
 -8.82173E+00 -1.75998E+01 +1.05811E+01 -1.82562E+01 +2.18112E+01 -1.72159E+00 +1.38349E+01 +1.67740E+01
 -5.78343E+00 +1.98740E+01 -1.83100E+01 +5.30894E+00 -1.25000E+01 -1.20592E+01 +4.48259E+00 -1.54272E+01
 +1.49259E+01 -2.88240E+00 +8.93557E+00 +1.13276E+01 -5.73003E+00 +1.21509E+01 -1.24210E+01 -4.41186E-01
 -3.60264E+00 -1.17092E+01 +1.09133E+01 -8.16821E+00 +1.43176E+01 +7.54351E+00 +9.90770E-01 +1.88250E+01
 -1.66870E+01 +1.24138E+01 -2.04958E+01 -7.11523E+00 -5.28039E+00 -2.10805E+01 +1.50122E+01 -1.53375E+01
 +2.08154E+01 +5.11910E+00 +6.48807E+00 +2.07444E+01 -1.39963E+01 +1.68127E+01 -2.10984E+01 -2.06692E+00
 -9.18746E+00 -1.70208E+01 +8.39400E+00 -1.42308E+01 +1.36198E+01 +1.39736E+00 +2.43568E+00 +1.21245E+01
 -1.15662E+01 +6.40238E+00 -1.20764E+01 -8.97790E+00 +2.23087E+00 -1.63384E+01 +1.59705E+01 -6.30406E+00
 +1.33107E+01 +1.15619E+01 -4.74194E+00 +1.81821E+01 -2.03860E+01 +4.97008E+00 -1.68830E+01 -1.64151E+01
 +3.96091E+00 -2.51164E+01 +2.28818E+01 -1.20130E+01 +2.20972E+01 +1.08227E+01 +2.97509E+00 +2.19791E+01
 -1.55397E+01 +1.19261E+01 -1.60725E+01 -7.93677E+00 +5.95392E-02 -1.74245E+01 +1.51029E+01 -8.18836E+00
 +1.37746E+01 +8.42702E+00 -1.00880E+00 +1.40940E+01 -1.18630E+01 +3.18063E+00 -5.96838E+00 -1.13385E+01
 +1.07921E+01 -1.19485E+01 +1.96754E+01 +4.19752E+00 +9.01273E+00 +2.13354E+01 -1.26432E+01 +2.10031E+01
 -2.42962E+01 +1.55034E+00 -1.36931E+01 -1.91499E+01 +9.75087E+00 -2.10932E+01 +2.37988E+01 -2.17419E+00
 +1.52942E+01 +1.95656E+01 -7.02726E+00 +2.38424E+01 -2.17047E+01 +8.01292E+00 -1.61453E+01 -1.11346E+01
 +1.43845E+00 -1.50951E+01 +1.16081E+01 -2.35217E+00 +4.37139E+00 +1.11063E+01 -1.07359E+01 +9.51947E+00
 -1.54986E+01 -5.59057E+00 -3.11670E+00 -1.70690E+01 +1.38593E+01 -1.07613E+01 +1.64169E+01 +8.57702E+00
 -4.85671E-01 +2.11795E+01 -2.14541E+01 +1.24459E+01 -2.54552E+01 -1.13432E+01 -7.10902E+00 -2.83252E+01
 +1.73311E+01 -2.24477E+01 +2.56841E+01 +6.03742E-01 +1.14915E+01 +1.90998E+01 -1.01834E+01 +1.67634E+01
 -1.83822E+01 -1.72578E+00 -7.09167E+00 -1.66295E+01 +9.87974E+00 -1.38265E+01 +1.43860E+01 +1.27608E+00
 +3.16594E+00 +1.06667E+01 -9.32531E+00 +3.67508E+00 -7.15119E+00 -1.13507E+01 +9.22727E+00 -1.60371E+01
 +2.26039E+01 -2.17016E+00 +1.69616E+01 +1.83813E+01 -4.94119E+00 +2.49470E+01 -2.30132E+01 +9.32963E+00
 -1.94674E+01 -1.48955E+01 +3.13151E+00 -2.50580E+01 +2.39070E+01 -1.15634E+01 +2.39551E+01 +1.27711E+01
 +4.49410E+00 +2.55677E+01 -1.52141E+01 +1.67876E+01 -1.75902E+01 -2.39493E+00 -3.76307E+00 -1.21797E+01
 +9.16539E+00 -4.63684E+00 +7.00643E+00 +9.11616E+00 -6.61615E+00 +1.19714E+01 -1.48669E+01 -1.66510E-01
 -6.59647E+00 -1.37273E+01 +1.07539E+01 -1.21609E+01 +1.82416E+01 +5.57710E+00 +5.43331E+00 +2.25278E+01
 -1.75828E+01 +2.04583E+01 -2.91758E+01 -1.12648E+00 -1.75135E+01 -2.34239E+01 +7.33161E+00 -2.63012E+01
 +2.29461E+01 -7.87672E+00 +1.62793E+01 +1.39424E+01 -4.27153E+00 +1.93211E+01 -1.81895E+01 +5.56333E+00
 -1.35754E+01 -1.16293E+01 +1.93669E+00 -1.52236E+01 +1.06680E+01 -4.15505E+00 +4.15123E+00 +6.86931E+00
 -8.25014E+00 +4.18291E+00 -1.01713E+01 -9.61140E+00 +3.27871E+00 -1.82595E+01 +1.92610E+01 -9.59296E+00
 +2.01712E+01 +1.04446E+01 +2.50549E+00 +2.26638E+01 -1.82163E+01 +1.39095E+01 -2.21459E+01 -8.95369E+00
 -4.82138E+00 -2.49831E+01 +1.81034E+01 -1.93837E+01 +2.60131E+01 +2.23688E+00 +1.31440E+01 +1.97930E+01
