 Created: 16-Jan-2021
 $NMID
 ID='D:\BASISSIMULATI'
 FMTDAT='(8E13.5)'
 VOLUME=   1.00000E+00
 TRAMP=   1.00000E+00
 $END
 +1.19570E+02 +1.05856E+01 +1.05219E+02 +5.61952E+01 +7.35479E+01 +9.16235E+01 +3.05399E+01 +1.10586E+02
 -1.57378E+01 +1.09980E+02 -5.67138E+01 +9.04570E+01 -8.49776E+01 +5.62592E+01 -9.57039E+01 +1.43515E+01
 -8.75568E+01 -2.69731E+01 -6.28967E+01 -5.97341E+01 -2.72586E+01 -7.78235E+01 +1.17926E+01 -7.81781E+01
 +4.61917E+01 -6.13328E+01 +6.89838E+01 -3.12538E+01 +7.56917E+01 +5.50919E+00 +6.51705E+01 +4.11741E+01
 +3.97858E+01 +6.83057E+01 +4.88572E+00 +8.13043E+01 -3.23180E+01 +7.75059E+01 -6.42287E+01 +5.76785E+01
 -8.44018E+01 +2.58205E+01 -8.88298E+01 -1.16894E+01 -7.67176E+01 -4.74118E+01 -5.06001E+01 -7.43643E+01
 -1.57819E+01 -8.74267E+01 +2.07764E+01 -8.43514E+01 +5.18959E+01 -6.61762E+01 +7.16431E+01 -3.69638E+01
 +7.65215E+01 -2.92571E+00 +6.61517E+01 +2.88831E+01 +4.33029E+01 +5.20282E+01 +1.32769E+01 +6.20171E+01
 -1.72250E+01 +5.72081E+01 -4.15152E+01 +3.91211E+01 -5.43206E+01 +1.20922E+01 -5.28826E+01 -1.76567E+01
 -3.75286E+01 -4.33353E+01 -1.16011E+01 -5.90194E+01 +1.92426E+01 -6.09038E+01 +4.82135E+01 -4.81156E+01
 +6.88131E+01 -2.29184E+01 +7.62009E+01 +9.73343E+00 +6.82262E+01 +4.32031E+01 +4.59077E+01 +7.05336E+01
 +1.32637E+01 +8.58871E+01 -2.34792E+01 +8.57637E+01 -5.71360E+01 +6.97510E+01 -8.10214E+01 +4.06462E+01
 -9.03165E+01 +3.92326E+00 -8.30664E+01 -3.33489E+01 -6.06035E+01 -6.39220E+01 -2.73059E+01 -8.18295E+01
 +1.02619E+01 -8.35984E+01 +4.46560E+01 -6.89645E+01 +6.90447E+01 -4.09435E+01 +7.85850E+01 -5.24163E+00
 +7.14044E+01 +3.08785E+01 +4.89898E+01 +6.00504E+01 +1.59031E+01 +7.62822E+01 -2.11230E+01 +7.61654E+01
 -5.45263E+01 +5.95684E+01 -7.74275E+01 +2.96760E+01 -8.50096E+01 -7.63557E+00 -7.54875E+01 -4.49629E+01
 -5.04746E+01 -7.48467E+01 -1.46703E+01 -9.12569E+01 +2.50661E+01 -9.07924E+01 +6.10730E+01 -7.33593E+01
 +8.64018E+01 -4.21891E+01 +9.61883E+01 -3.19754E+00 +8.86071E+01 +3.61888E+01 +6.52199E+01 +6.85018E+01
 +3.06497E+01 +8.77028E+01 -8.34989E+00 +9.03630E+01 -4.42437E+01 +7.63185E+01 -7.02097E+01 +4.86723E+01
 -8.14806E+01 +1.31467E+01 -7.62656E+01 -2.30800E+01 -5.60711E+01 -5.28172E+01 -2.53595E+01 -7.02954E+01
 +9.37916E+00 -7.23010E+01 +4.09538E+01 -5.87890E+01 +6.29261E+01 -3.28532E+01 +7.08994E+01 -6.60596E-02
 +6.33846E+01 +3.26751E+01 +4.20708E+01 +5.85580E+01 +1.14524E+01 +7.22364E+01 -2.21089E+01 +7.09024E+01
 -5.16926E+01 +5.48359E+01 -7.12306E+01 +2.73249E+01 -7.67361E+01 -6.02547E+00 -6.71008E+01 -3.84483E+01
 -4.43023E+01 -6.33994E+01 -1.29828E+01 -7.58878E+01 +2.05111E+01 -7.34821E+01 +4.94306E+01 -5.67911E+01
 +6.80012E+01 -2.93220E+01 +7.25942E+01 +3.24970E+00 +6.24546E+01 +3.42498E+01 +3.98412E+01 +5.73724E+01
 +9.54993E+00 +6.79663E+01 -2.20778E+01 +6.39790E+01 -4.84587E+01 +4.63666E+01 -6.41175E+01 +1.88885E+01
 -6.58062E+01 -1.26705E+01 -5.31662E+01 -4.16903E+01 -2.87992E+01 -6.20737E+01 +2.26707E+00 -6.94973E+01
 +3.36084E+01 -6.22982E+01 +5.87183E+01 -4.18181E+01 +7.23391E+01 -1.21334E+01 +7.15395E+01 +2.07716E+01
 +5.63180E+01 +5.02218E+01 +2.96109E+01 +7.02090E+01 -3.29716E+00 +7.66168E+01 -3.58413E+01 +6.80606E+01
 -6.15044E+01 +4.61755E+01 -7.51379E+01 +1.52906E+01 -7.40054E+01 -1.84419E+01 -5.83388E+01 -4.82887E+01
 -3.12942E+01 -6.82939E+01 +1.68378E+00 -7.44823E+01 +3.39607E+01 -6.56614E+01 +5.90506E+01 -4.36613E+01
 +7.19244E+01 -1.29640E+01 +7.00233E+01 +2.02029E+01 +5.37721E+01 +4.91239E+01 +2.64907E+01 +6.79512E+01
 -6.27989E+00 +7.28831E+01 -3.78978E+01 +6.29289E+01 -6.19625E+01 +4.01045E+01 -7.36059E+01 +9.02183E+00
 -7.04724E+01 -2.40459E+01 -5.31904E+01 -5.24322E+01 -2.52408E+01 -7.04229E+01 +7.74939E+00 -7.44074E+01
 +3.91461E+01 -6.36037E+01 +6.26482E+01 -4.02106E+01 +7.35572E+01 -8.95930E+00 +6.97225E+01 +2.38459E+01
 +5.19696E+01 +5.16025E+01 +2.39276E+01 +6.87418E+01 -8.70878E+00 +7.18501E+01 -3.93323E+01 +6.03528E+01
 -6.17582E+01 +3.66239E+01 -7.14707E+01 +5.50113E+00 -6.65308E+01 -2.66958E+01 -4.79618E+01 -5.34428E+01
 -1.95365E+01 -6.93282E+01 +1.29893E+01 -7.11418E+01 +4.30421E+01 -5.85176E+01 +6.45572E+01 -3.40015E+01
 +7.32007E+01 -2.53149E+00 +6.72387E+01 +2.95624E+01 +4.78801E+01 +5.58371E+01 +1.90262E+01 +7.10346E+01
 -1.35223E+01 +7.21375E+01 -4.32385E+01 +5.89703E+01 -6.41859E+01 +3.42265E+01 -7.22111E+01 +2.91704E+00
 -6.57749E+01 -2.86458E+01 -4.62526E+01 -5.41239E+01 -1.76471E+01 -6.84300E+01 +1.42269E+01 -6.87467E+01
 +4.29205E+01 -5.50866E+01 +6.26523E+01 -3.02782E+01 +6.94702E+01 +6.14529E-01 +6.20406E+01 +3.13206E+01
 +4.19065E+01 +5.56306E+01 +1.31650E+01 +6.86468E+01 -1.83685E+01 +6.77644E+01 -4.63386E+01 +5.31861E+01
 -6.51327E+01 +2.78689E+01 -7.10069E+01 -3.08465E+00 -6.28312E+01 -3.34640E+01 -4.23027E+01 -5.72074E+01
 -1.35886E+01 -6.96216E+01 +1.75284E+01 -6.83195E+01 +4.48251E+01 -5.36866E+01 +6.28962E+01 -2.87860E+01
 +6.82400E+01 +1.27855E+00 +5.99529E+01 +3.04075E+01 +3.98939E+01 +5.27469E+01 +1.22893E+01 +6.38725E+01
 -1.71411E+01 +6.16772E+01 -4.23556E+01 +4.67846E+01 -5.82223E+01 +2.24042E+01 -6.15587E+01 -6.33653E+00
 -5.17706E+01 -3.34490E+01 -3.09617E+01 -5.33095E+01 -3.49214E+00 -6.18074E+01 +2.49202E+01 -5.71803E+01
 +4.83732E+01 -4.03677E+01 +6.19880E+01 -1.48138E+01 +6.29056E+01 +1.42416E+01 +5.08691E+01 +4.08360E+01
 +2.82749E+01 +5.95034E+01 -3.17976E-01 +6.63908E+01 -2.91181E+01 +6.00447E+01 -5.22835E+01 +4.17086E+01
 -6.51124E+01 +1.50699E+01 -6.50025E+01 -1.44903E+01 -5.19822E+01 -4.09923E+01 -2.87063E+01 -5.90752E+01
 +8.18489E-02 -6.50892E+01 +2.85148E+01 -5.78401E+01 +5.07934E+01 -3.88347E+01 +6.23675E+01 -1.19783E+01
 +6.08635E+01 +1.72164E+01 +4.65714E+01 +4.27476E+01 +2.23920E+01 +5.93432E+01 -6.74590E+00 +6.35343E+01
 -3.48803E+01 +5.43649E+01 -5.62220E+01 +3.35933E+01 -6.63278E+01 +5.34575E+00 -6.30042E+01 -2.47103E+01
 -4.67584E+01 -5.05050E+01 -2.07051E+01 -6.67891E+01 +1.00515E+01 -7.01921E+01 +3.94379E+01 -5.99057E+01
 +6.16269E+01 -3.78512E+01 +7.22044E+01 -8.29994E+00 +6.90537E+01 +2.29781E+01 +5.27786E+01 +4.98662E+01
 +2.65815E+01 +6.71207E+01 -4.37854E+00 +7.14153E+01 -3.40179E+01 +6.19994E+01 -5.65430E+01 +4.08396E+01
 -6.76035E+01 +1.22181E+01 -6.51531E+01 -1.81317E+01 -4.98456E+01 -4.41754E+01 -2.48896E+01 -6.07837E+01
 +4.60747E+00 -6.47517E+01 +3.26726E+01 -5.54277E+01 +5.36679E+01 -3.48266E+01 +6.34181E+01 -7.20919E+00
 +6.00371E+01 +2.17874E+01 +4.42914E+01 +4.62901E+01 +1.94278E+01 +6.13700E+01 -9.49584E+00 +6.40267E+01
 -3.66394E+01 +5.37770E+01 -5.65604E+01 +3.27350E+01 -6.53054E+01 +5.16755E+00 -6.11946E+01 -2.33794E+01
 -4.51428E+01 -4.72075E+01 -2.04549E+01 -6.16147E+01 +7.85956E+00 -6.38348E+01 +3.41114E+01 -5.35801E+01
 +5.30862E+01 -3.30780E+01 +6.10953E+01 -6.59960E+00 +5.67095E+01 +2.04236E+01 +4.10299E+01 +4.25112E+01
 +1.74430E+01 +5.52480E+01 -9.08673E+00 +5.61748E+01 -3.30420E+01 +4.52750E+01 -4.94833E+01 +2.49614E+01
 -5.50567E+01 -4.32871E-01 -4.86721E+01 -2.55529E+01 -3.17176E+01 -4.51250E+01 -7.76476E+00 -5.50396E+01
 +1.81704E+01 -5.31927E+01 +4.06609E+01 -3.99145E+01 +5.49838E+01 -1.78999E+01 +5.80906E+01 +8.34520E+00
 +4.92337E+01 +3.34273E+01 +3.01223E+01 +5.21698E+01 +4.57737E+00 +6.06736E+01 -2.22465E+01 +5.71174E+01
 -4.49102E+01 +4.21341E+01 -5.87997E+01 +1.86878E+01 -6.10680E+01 -8.52439E+00 -5.12188E+01 -3.40244E+01
 -3.12133E+01 -5.26653E+01 -5.07699E+00 -6.06776E+01 +2.19127E+01 -5.64372E+01 +4.42945E+01 -4.07998E+01
 +5.75303E+01 -1.69322E+01 +5.89260E+01 +1.03251E+01 +4.81812E+01 +3.54343E+01 +2.74539E+01 +5.32801E+01
 +9.29575E-01 +6.02053E+01 -2.60216E+01 +5.47520E+01 -4.79265E+01 +3.79612E+01 -6.03135E+01 +1.31665E+01
 -6.06158E+01 -1.46733E+01 -4.86908E+01 -3.99704E+01 -2.68526E+01 -5.76315E+01 +5.90612E-01 -6.40809E+01
 +2.81997E+01 -5.79803E+01 +5.04951E+01 -4.04969E+01 +6.30542E+01 -1.50692E+01 +6.33957E+01 +1.32828E+01
 +5.14735E+01 +3.89640E+01 +2.96807E+01 +5.69243E+01 +2.36477E+00 +6.36659E+01 -2.50473E+01 +5.79376E+01
 -4.71383E+01 +4.09764E+01 -5.95836E+01 +1.62488E+01 -6.00109E+01 -1.12533E+01 -4.84652E+01 -3.60197E+01
 -2.73855E+01 -5.31294E+01 -1.10232E+00 -5.92330E+01 +2.50435E+01 -5.32159E+01 +4.57798E+01 -3.64085E+01
 +5.69627E+01 -1.23027E+01 +5.64038E+01 +1.41637E+01 +4.42989E+01 +3.76110E+01 +2.31738E+01 +5.33045E+01
 -2.63900E+00 +5.81064E+01 -2.78856E+01 +5.10991E+01 -4.74571E+01 +3.37585E+01 -5.74214E+01 +9.64175E+00
 -5.58112E+01 -1.63431E+01 -4.30117E+01 -3.89373E+01 -2.16699E+01 -5.35969E+01 +3.85316E+00 -5.74093E+01
 +2.83741E+01 -4.96743E+01 +4.69417E+01 -3.20347E+01 +5.58393E+01 -8.13186E+00 +5.33326E+01 +1.71425E+01
 +4.00119E+01 +3.86449E+01 +1.86622E+01 +5.20249E+01 -6.31228E+00 +5.46058E+01 -2.97893E+01 +4.59217E+01
 -4.69729E+01 +2.78037E+01 -5.43678E+01 +3.99958E+00 -5.04861E+01 -2.05947E+01 -3.61448E+01 -4.09345E+01
 -1.42931E+01 -5.28535E+01 +1.05915E+01 -5.39098E+01 +3.34179E+01 -4.38796E+01 +4.95179E+01 -2.47992E+01
 +5.55950E+01 -5.47636E-01 +5.03932E+01 +2.39436E+01 +3.49504E+01 +4.36941E+01 +1.23854E+01 +5.46861E+01
 -1.27366E+01 +5.46794E+01 -3.53315E+01 +4.36651E+01 -5.08278E+01 +2.38650E+01 -5.60928E+01 -7.19488E-01
 -5.00665E+01 -2.51201E+01 -3.39743E+01 -4.44085E+01 -1.10773E+01 -5.46944E+01 +1.39906E+01 -5.39117E+01
 +3.61610E+01 -4.22349E+01 +5.09576E+01 -2.20407E+01 +5.54007E+01 +2.57485E+00 +4.86077E+01 +2.66275E+01
 +3.19689E+01 +4.52540E+01 +8.86295E+00 +5.46947E+01 -1.60292E+01 +5.30528E+01 -3.76725E+01 +4.06743E+01
 -5.16966E+01 +2.00746E+01 -5.52776E+01 -4.57330E+00 -4.77064E+01 -2.82853E+01 -3.05284E+01 -4.62748E+01
 -7.22707E+00 -5.49196E+01 +1.74835E+01 -5.24918E+01 +3.86135E+01 -3.95033E+01 +5.19061E+01 -1.85985E+01
 +5.46963E+01 +5.98489E+00 +4.64460E+01 +2.92746E+01 +2.88487E+01 +4.65704E+01 +5.48275E+00 +5.43927E+01
 -1.89155E+01 +5.11839E+01 -3.94112E+01 +3.76185E+01 -5.18684E+01 +1.64627E+01 -5.37842E+01 -7.98904E+00
 -4.47909E+01 -3.07846E+01 -2.67266E+01 -4.73162E+01 -3.25852E+00 -5.42508E+01 +2.08607E+01 -5.02003E+01
 +4.07558E+01 -3.59988E+01 +5.24133E+01 -1.45290E+01 +5.34909E+01 +9.86378E+00 +4.37866E+01 +3.22520E+01
