 Created: 16-Jan-2021
 $NMID
 ID='D:\BASISSIMULATI'
 FMTDAT='(8E13.5)'
 VOLUME=   1.00000E+00
 TRAMP=   1.00000E+00
 $END
 +5.51782E+01 +5.63327E+00 +4.88810E+01 +1.83803E+01 +3.30377E+01 +2.81635E+01 +1.16480E+01 +3.37596E+01
 -9.90585E+00 +3.45561E+01 -2.63881E+01 +3.06243E+01 -3.41760E+01 +2.27683E+01 -3.22255E+01 +1.25023E+01
 -2.22595E+01 +1.89148E+00 -8.14497E+00 -6.78817E+00 +5.32892E+00 -1.15491E+01 +1.38831E+01 -1.12466E+01
 +1.49585E+01 -6.02134E+00 +8.35781E+00 +2.54919E+00 -3.83441E+00 +1.17070E+01 -1.79806E+01 +1.81777E+01
 -3.00073E+01 +1.90974E+01 -3.65537E+01 +1.29425E+01 -3.58209E+01 +1.62660E-01 -2.79108E+01 -1.67237E+01
 -1.46202E+01 -3.36615E+01 +1.18139E+00 -4.61144E+01 +1.63585E+01 -5.03570E+01 +2.82526E+01 -4.46187E+01
 +3.51777E+01 -2.97148E+01 +3.65927E+01 -8.94133E+00 +3.29884E+01 +1.27716E+01 +2.55980E+01 +3.02150E+01
 +1.60579E+01 +3.93698E+01 +6.10866E+00 +3.85461E+01 -2.62917E+00 +2.88425E+01 -8.82687E+00 +1.37850E+01
 -1.16032E+01 -1.74564E+00 -1.06827E+01 -1.29702E+01 -6.52983E+00 -1.66062E+01 -3.88056E-01 -1.17863E+01
 +5.85479E+00 -2.36132E-01 +1.00200E+01 +1.43172E+01 +1.01772E+01 +2.73003E+01 +5.24815E+00 +3.46458E+01
 -4.51167E+00 +3.39326E+01 -1.73441E+01 +2.49916E+01 -3.02537E+01 +9.83693E+00 -3.97015E+01 -8.00759E+00
 -4.25716E+01 -2.45425E+01 -3.71399E+01 -3.63585E+01 -2.37352E+01 -4.14305E+01 -4.85048E+00 -3.94524E+01
 +1.53868E+01 -3.16823E+01 +3.22736E+01 -2.04152E+01 +4.18323E+01 -8.29156E+00 +4.19663E+01 +2.34428E+00
 +3.31086E+01 +9.87882E+00 +1.81420E+01 +1.35986E+01 +1.58999E+00 +1.36298E+01 -1.16933E+01 +1.07414E+01
 -1.79459E+01 +6.10872E+00 -1.56018E+01 +1.10071E+00 -5.73735E+00 -2.89904E+00 +8.27369E+00 -4.66575E+00
 +2.17882E+01 -3.33217E+00 +3.02871E+01 +1.38829E+00 +3.07088E+01 +9.00539E+00 +2.23233E+01 +1.81730E+01
 +6.90191E+00 +2.68196E+01 -1.18448E+01 +3.25306E+01 -2.93628E+01 +3.31407E+01 -4.15359E+01 +2.73955E+01
 -4.57696E+01 +1.54796E+01 -4.15777E+01 -7.89624E-01 -3.05413E+01 -1.82298E+01 -1.57089E+01 -3.30109E+01
 -6.63015E-01 -4.16583E+01 +1.14463E+01 -4.20595E+01 +1.86264E+01 -3.41606E+01 +2.03588E+01 -2.01045E+01
 +1.74843E+01 -3.72373E+00 +1.17629E+01 +1.05003E+01 +5.29203E+00 +1.87212E+01 -3.37638E-02 +1.88712E+01
 -2.89092E+00 +1.13058E+01 -2.68112E+00 -1.26589E+00 +4.93482E-01 -1.45635E+01 +5.95723E+00 -2.40052E+01
 +1.26174E+01 -2.60851E+01 +1.91146E+01 -1.94382E+01 +2.39760E+01 -5.26892E+00 +2.58068E+01 +1.29855E+01
 +2.35417E+01 +3.06482E+01 +1.67383E+01 +4.31460E+01 +5.83824E+00 +4.72947E+01 -7.71421E+00 +4.21469E+01
 -2.15982E+01 +2.91706E+01 -3.30297E+01 +1.17347E+01 -3.94078E+01 -5.90962E+00 -3.90398E+01 -1.98252E+01
 -3.17254E+01 -2.74049E+01 -1.89880E+01 -2.79293E+01 -3.82395E+00 -2.25507E+01 +1.00151E+01 -1.37650E+01
 +1.90376E+01 -4.58173E+00 +2.10348E+01 +2.33661E+00 +1.57925E+01 +5.31935E+00 +5.24467E+00 +3.97168E+00
 -7.01777E+00 -9.19162E-01 -1.67675E+01 -7.75792E+00 -2.04023E+01 -1.46366E+01 -1.60653E+01 -1.97938E+01
 -4.27453E+00 -2.19352E+01 +1.21496E+01 -2.03857E+01 +2.88528E+01 -1.51072E+01 +4.11907E+01 -6.64405E+00
 +4.55740E+01 +3.95678E+00 +4.05107E+01 +1.52391E+01 +2.70323E+01 +2.54726E+01 +8.38118E+00 +3.28690E+01
 -1.09333E+01 +3.58950E+01 -2.64159E+01 +3.36451E+01 -3.48145E+01 +2.61780E+01 -3.49387E+01 +1.46890E+01
 -2.78472E+01 +1.40634E+00 -1.63879E+01 -1.08334E+01 -4.26476E+00 -1.92651E+01 +5.06033E+00 -2.19631E+01
 +9.30025E+00 -1.84671E+01 +7.85551E+00 -1.00420E+01 +1.80260E+00 +5.55858E-01 -6.58058E+00 +9.79224E+00
 -1.45609E+01 +1.43690E+01 -1.97216E+01 +1.22471E+01 -2.05413E+01 +3.35646E+00 -1.66538E+01 -1.02524E+01
 -8.77964E+00 -2.48989E+01 +1.58516E+00 -3.62871E+01 +1.25837E+01 -4.07562E+01 +2.23880E+01 -3.63912E+01
 +2.94838E+01 -2.36474E+01 +3.28331E+01 -5.28702E+00 +3.19476E+01 +1.43657E+01 +2.69181E+01 +3.06331E+01
 +1.84240E+01 +3.97947E+01 +7.70923E+00 +4.01064E+01 -3.51945E+00 +3.22293E+01 -1.33182E+01 +1.89529E+01
 -1.98642E+01 +4.31439E+00 -2.18933E+01 -7.60311E+00 -1.91025E+01 -1.38251E+01 -1.23721E+01 -1.32553E+01
 -3.68562E+00 -6.85587E+00 +4.29303E+00 +2.77639E+00 +8.91768E+00 +1.22704E+01 +8.35146E+00 +1.84927E+01
 +2.21152E+00 +1.94054E+01 -8.16067E+00 +1.45366E+01 -1.99348E+01 +4.97334E+00 -2.95124E+01 -7.06626E+00
 -3.35508E+01 -1.89053E+01 -2.99934E+01 -2.81047E+01 -1.87839E+01 -3.29914E+01 -2.02144E+00 -3.29113E+01
 +1.65243E+01 -2.81995E+01 +3.24193E+01 -1.99471E+01 +4.18051E+01 -9.67899E+00 +4.25026E+01 +9.55269E-01
 +3.46417E+01 +1.04193E+01 +2.06199E+01 +1.74534E+01 +4.39865E+00 +2.11932E+01 -9.65116E+00 +2.12758E+01
 -1.80040E+01 +1.79333E+01 -1.89577E+01 +1.20404E+01 -1.30497E+01 +5.05142E+00 -2.80181E+00 -1.22082E+00
 +8.10476E+00 -4.99006E+00 +1.59573E+01 -4.97730E+00 +1.80928E+01 -8.56098E-01 +1.36162E+01 +6.49635E+00
 +3.56705E+00 +1.50705E+01 -9.47686E+00 +2.21600E+01 -2.22009E+01 +2.50827E+01 -3.14942E+01 +2.19994E+01
 -3.52486E+01 +1.25778E+01 -3.28054E+01 -1.72804E+00 -2.49667E+01 -1.79161E+01 -1.36297E+01 -3.21669E+01
 -1.19853E+00 -4.08811E+01 +1.00281E+01 -4.17239E+01 +1.83282E+01 -3.43546E+01 +2.27965E+01 -2.05990E+01
 +2.33522E+01 -3.98821E+00 +2.05817E+01 +1.12187E+01 +1.55102E+01 +2.12450E+01 +9.37957E+00 +2.38753E+01
 +3.46702E+00 +1.90769E+01 -1.06399E+00 +8.97254E+00 -3.30921E+00 -2.82654E+00 -2.78399E+00 -1.23184E+01
 +4.19344E-01 -1.63045E+01 +5.53376E+00 -1.33180E+01 +1.11546E+01 -4.01558E+00 +1.54667E+01 +9.06764E+00
 +1.66590E+01 +2.23025E+01 +1.34465E+01 +3.20348E+01 +5.55314E+00 +3.56084E+01 -6.01496E+00 +3.20488E+01
 -1.90403E+01 +2.22290E+01 -3.05485E+01 +8.51365E+00 -3.75612E+01 -5.97464E+00 -3.79494E+01 -1.82186E+01
 -3.11289E+01 -2.60444E+01 -1.83611E+01 -2.85435E+01 -2.52932E+00 -2.61075E+01 +1.25845E+01 -2.01277E+01
 +2.33338E+01 -1.24997E+01 +2.72510E+01 -5.10483E+00 +2.37815E+01 +5.91859E-01 +1.44701E+01 +3.75315E+00
 +2.52431E+00 +4.19653E+00 -8.12727E+00 +2.29400E+00 -1.40031E+01 -1.18078E+00 -1.31105E+01 -5.20430E+00
 -5.54231E+00 -8.63964E+00 +6.55156E+00 -1.03767E+01 +1.96077E+01 -9.50414E+00 +2.97058E+01 -5.51831E+00
 +3.37142E+01 +1.46604E+00 +3.01808E+01 +1.05792E+01 +1.97117E+01 +2.02210E+01 +4.74424E+00 +2.83048E+01
 -1.11910E+01 +3.27129E+01 -2.44770E+01 +3.18690E+01 -3.23778E+01 +2.52698E+01 -3.36900E+01 +1.37912E+01
 -2.89178E+01 -3.69093E-01 -1.99656E+01 -1.41511E+01 -9.48522E+00 -2.44042E+01 -1.02664E-01 -2.87641E+01
 +6.24456E+00 -2.63729E+01 +8.68991E+00 -1.82018E+01 +7.47975E+00 -6.84649E+00 +3.72338E+00 +4.17732E+00
 -1.02377E+00 +1.14477E+01 -5.19655E+00 +1.26623E+01 -7.55885E+00 +7.35813E+00 -7.38939E+00 -2.90483E+00
 -4.52338E+00 -1.49702E+01 +6.99967E-01 -2.50025E+01 +7.52803E+00 -2.96233E+01 +1.48917E+01 -2.69221E+01
 +2.15126E+01 -1.70353E+01 +2.60492E+01 -2.11937E+00 +2.73073E+01 +1.42673E+01 +2.45080E+01 +2.81804E+01
 +1.75605E+01 +3.63916E+01 +7.24571E+00 +3.72492E+01 -4.78718E+00 +3.10542E+01 -1.62732E+01 +1.98649E+01
 -2.48191E+01 +6.82004E+00 -2.85216E+01 -4.79099E+00 -2.65439E+01 -1.24245E+01 -1.94587E+01 -1.48888E+01
 -9.21227E+00 -1.25146E+01 +1.32555E+00 -6.88663E+00 +9.13364E+00 -2.62751E-01 +1.19209E+01 +5.11472E+00
 +8.85052E+00 +7.60749E+00 +8.67420E-01 +6.52162E+00 -9.50027E+00 +2.14913E+00 -1.88354E+01 -4.44315E+00
 -2.38315E+01 -1.17672E+01 -2.23016E+01 -1.82846E+01 -1.38852E+01 -2.26997E+01 -2.25970E-01 -2.41348E+01
 +1.54465E+01 -2.21993E+01 +2.92147E+01 -1.69945E+01 +3.75839E+01 -9.09230E+00 +3.84716E+01 +5.02441E-01
 +3.17804E+01 +1.04262E+01 +1.93876E+01 +1.91057E+01 +4.56739E+00 +2.50048E+01 -8.96884E+00 +2.69513E+01
 -1.81162E+01 +2.44727E+01 -2.11949E+01 +1.80338E+01 -1.83140E+01 +9.06412E+00 -1.12021E+01 -2.87497E-01
 -2.58924E+00 -7.65441E+00 +4.64591E+00 -1.10957E+01 +8.29623E+00 -9.69910E+00 +7.38031E+00 -3.94363E+00
 +2.29776E+00 +4.32445E+00 -5.41407E+00 +1.23397E+01 -1.36045E+01 +1.71902E+01 -2.01297E+01 +1.67000E+01
 -2.33843E+01 +1.01519E+01 -2.26131E+01 -1.38680E+00 -1.79644E+01 -1.52650E+01 -1.03253E+01 -2.79393E+01
 -1.03583E+00 -3.59679E+01 +8.41542E+00 -3.70131E+01 +1.66398E+01 -3.05456E+01 +2.25152E+01 -1.80312E+01
 +2.52867E+01 -2.53397E+00 +2.46326E+01 +1.21479E+01 +2.07183E+01 +2.25550E+01 +1.42265E+01 +2.65248E+01
 +6.32749E+00 +2.37530E+01 -1.45870E+00 +1.57976E+01 -7.52781E+00 +5.54490E+00 -1.05587E+01 -3.68805E+00
 -9.89646E+00 -9.12954E+00 -5.82902E+00 -9.31781E+00 +3.61813E-01 -4.44011E+00 +6.64217E+00 +3.82572E+00
 +1.07379E+01 +1.28853E+01 +1.07956E+01 +2.00172E+01 +6.00144E+00 +2.31321E+01 -3.04808E+00 +2.12852E+01
 -1.43706E+01 +1.48259E+01 -2.50538E+01 +5.18478E+00 -3.20385E+01 -5.59331E+00 -3.30119E+01 -1.54031E+01
 -2.71390E+01 -2.25577E+01 -1.53960E+01 -2.60797E+01 -3.80231E-01 -2.57732E+01 +1.43684E+01 -2.21150E+01
 +2.53461E+01 -1.60450E+01 +3.00742E+01 -8.73885E+00 +2.77992E+01 -1.41550E+00 +1.96899E+01 +4.80796E+00
 +8.46958E+00 +9.03357E+00 -2.40386E+00 +1.06963E+01 -9.75915E+00 +9.67926E+00 -1.16244E+01 +6.40301E+00
 -7.76068E+00 +1.83412E+00 +3.32287E-01 -2.63920E+00 +9.92126E+00 -5.48591E+00 +1.78849E+01 -5.42842E+00
 +2.16325E+01 -1.85841E+00 +1.98223E+01 +4.86200E+00 +1.26799E+01 +1.33408E+01 +1.85293E+00 +2.14059E+01
 -1.01209E+01 +2.66382E+01 -2.05453E+01 +2.70578E+01 -2.72704E+01 +2.17657E+01 -2.91744E+01 +1.13307E+01
 -2.63178E+01 -2.22999E+00 -1.97724E+01 -1.59064E+01 -1.12238E+01 -2.64848E+01 -2.49419E+00 -3.14481E+01
 +4.87206E+00 -2.97164E+01 +9.86869E+00 -2.19941E+01 +1.21079E+01 -1.05992E+01 +1.17569E+01 +1.18832E+00
 +9.39743E+00 +1.00739E+01 +5.87013E+00 +1.37070E+01 +2.13729E+00 +1.13617E+01 -8.36828E-01 +4.13001E+00
 -2.21089E+00 -5.42756E+00 -1.41418E+00 -1.40654E+01 +1.69223E+00 -1.88275E+01 +6.68521E+00 -1.79164E+01
 +1.25470E+01 -1.11998E+01 +1.77904E+01 -2.14546E-01 +2.07599E+01 +1.23136E+01 +2.00635E+01 +2.32714E+01
 +1.50254E+01 +3.00291E+01 +6.01458E+00 +3.11229E+01 -5.48566E+00 +2.65659E+01 -1.71337E+01 +1.77282E+01
 -2.62822E+01 +6.85970E+00 -3.06909E+01 -3.57313E+00 -2.91948E+01 -1.15279E+01 -2.21128E+01 -1.58297E+01
 -1.12468E+01 -1.63232E+01 +5.61269E-01 -1.37392E+01 +1.02065E+01 -9.36348E+00 +1.52115E+01 -4.63747E+00
