 Created: 16-Jan-2021
 $NMID
 ID='D:\BASISSIMULATI'
 FMTDAT='(8E13.5)'
 VOLUME=   1.00000E+00
 TRAMP=   1.00000E+00
 $END
 +1.84838E+01 +1.91705E+00 +1.75481E+01 +6.04327E+00 +1.57052E+01 +9.84586E+00 +1.30527E+01 +1.31285E+01
 +9.73028E+00 +1.57224E+01 +5.91178E+00 +1.74947E+01 +1.79641E+00 +1.83556E+01 -2.40176E+00 +1.82629E+01
 -6.46488E+00 +1.72237E+01 -1.01827E+01 +1.52943E+01 -1.33633E+01 +1.25768E+01 -1.58432E+01 +9.21425E+00
 -1.74956E+01 +5.38246E+00 -1.82369E+01 +1.28127E+00 -1.80309E+01 -2.87604E+00 -1.68908E+01 -6.87383E+00
 -1.48780E+01 -1.05053E+01 -1.20989E+01 -1.35830E+01 -8.69966E+00 -1.59489E+01 -4.85796E+00 -1.74821E+01
 -7.74073E-01 -1.81052E+01 +3.33969E+00 -1.77881E+01 +7.27000E+00 -1.65498E+01 +1.08136E+01 -1.44567E+01
 +1.37877E+01 -1.16194E+01 +1.60396E+01 -8.18689E+00 +1.74544E+01 -4.33861E+00 +1.79609E+01 -2.75081E-01
 +1.75350E+01 +3.79251E+00 +1.62012E+01 +7.65329E+00 +1.40309E+01 +1.11076E+01 +1.11387E+01 +1.39775E+01
 +7.67634E+00 +1.61156E+01 +3.82475E+00 +1.74130E+01 -2.15435E-01 +1.78044E+01 -4.23431E+00 +1.72719E+01
 -8.02360E+00 +1.58453E+01 -1.13875E+01 +1.36010E+01 -1.41525E+01 +1.06572E+01 -1.61771E+01 +7.16838E+00
 -1.73579E+01 +3.31671E+00 -1.76360E+01 -6.97219E-01 -1.69991E+01 -4.66494E+00 -1.54826E+01 -8.38087E+00
 -1.31674E+01 -1.16530E+01 -1.01754E+01 -1.43129E+01 -6.66340E+00 -1.62241E+01 -2.81481E+00 -1.72895E+01
 +1.17003E+00 -1.74560E+01 +5.08422E+00 -1.67172E+01 +8.72502E+00 -1.51136E+01 +1.19044E+01 -1.27306E+01
 +1.44587E+01 -9.69359E+00 +1.62570E+01 -6.16174E+00 +1.72081E+01 -2.31935E+00 +1.72648E+01 +1.63363E+00
 +1.64264E+01 +5.49201E+00 +1.47385E+01 +9.05600E+00 +1.22909E+01 +1.21416E+01 +9.21223E+00 +1.45900E+01
 +5.66377E+00 +1.62760E+01 +1.83062E+00 +1.71140E+01 -2.08781E+00 +1.70628E+01 -5.88817E+00 +1.61272E+01
 -9.37376E+00 +1.43579E+01 -1.23647E+01 +1.18488E+01 -1.47071E+01 +8.73171E+00 -1.62813E+01 +5.16984E+00
 -1.70075E+01 +1.34891E+00 -1.68503E+01 -2.53235E+00 -1.58199E+01 -6.27259E+00 -1.39721E+01 -9.67829E+00
 -1.14046E+01 -1.25737E+01 -8.25238E+00 -1.48101E+01 -4.68026E+00 -1.62731E+01 -8.74493E-01 -1.68889E+01
 +2.96706E+00 -1.66276E+01 +6.64516E+00 -1.55051E+01 +9.96955E+00 -1.35816E+01 +1.27688E+01 -1.09589E+01
 +1.48991E+01 -7.77464E+00 +1.62517E+01 -4.19538E+00 +1.67585E+01 -4.07631E-01 +1.63952E+01 +3.39175E+00
 +1.51830E+01 +7.00576E+00 +1.31867E+01 +1.02475E+01 +1.05119E+01 +1.29500E+01 +7.29884E+00 +1.49743E+01
 +3.71551E+00 +1.62173E+01 -5.14244E-02 +1.66165E+01 -3.80624E+00 +1.61534E+01 -7.35433E+00 +1.48540E+01
 -1.05123E+01 +1.27879E+01 -1.31173E+01 +1.00640E+01 -1.50359E+01 +6.82534E+00 -1.61702E+01 +3.24096E+00
 -1.64634E+01 -5.02432E-01 -1.59025E+01 -4.21038E+00 -1.45185E+01 -7.69077E+00 -1.23855E+01 -1.07637E+01
 -9.61575E+00 -1.32710E+01 -6.35449E+00 -1.50841E+01 -2.77202E+00 -1.61106E+01 +9.45162E-01 -1.62994E+01
 +4.60402E+00 -1.56429E+01 +8.01502E+00 -1.41770E+01 +1.10020E+01 -1.19800E+01 +1.34111E+01 -9.16738E+00
 +1.51190E+01 -5.88664E+00 +1.60388E+01 -2.30898E+00 +1.61249E+01 +1.37939E+00 +1.53749E+01 +4.98700E+00
 +1.38298E+01 +8.32704E+00 +1.15716E+01 +1.12270E+01 +8.71929E+00 +1.35377E+01 +5.42210E+00 +1.51409E+01
 +1.85211E+00 +1.59551E+01 -1.80492E+00 +1.59402E+01 -5.35921E+00 +1.50991E+01 -8.62677E+00 +1.34773E+01
 -1.14389E+01 +1.11609E+01 -1.36510E+01 +8.27185E+00 -1.51500E+01 +4.96121E+00 -1.58598E+01 +1.40170E+00
 -1.57457E+01 -2.22154E+00 -1.48156E+01 -5.72053E+00 -1.31198E+01 -8.91419E+00 -1.07482E+01 -1.16377E+01
 -7.82543E+00 -1.37512E+01 -4.50428E+00 -1.51464E+01 -9.57983E-01 -1.57531E+01 +2.62908E+00 -1.55415E+01
 +6.07084E+00 -1.45249E+01 +9.18927E+00 -1.27579E+01 +1.18235E+01 -1.03339E+01 +1.38382E+01 -7.38035E+00
 +1.51305E+01 -4.05162E+00 +1.56353E+01 -5.21220E-01 +1.53282E+01 +3.02734E+00 +1.42273E+01 +6.41006E+00
 +1.23917E+01 +9.45200E+00 +9.91831E+00 +1.19963E+01 +6.93698E+00 +1.39124E+01 +3.60353E+00 +1.51025E+01
 +9.16452E-02 +1.55067E+01 -3.41617E+00 +1.51060E+01 -6.73810E+00 +1.39233E+01 -9.70239E+00 +1.20217E+01
 -1.21563E+01 +9.50181E+00 -1.39739E+01 +6.49564E+00 -1.50625E+01 +3.16029E+00 -1.53676E+01 -3.30513E-01
 -1.48753E+01 -3.79542E+00 -1.36131E+01 -7.05488E+00 -1.16484E+01 -9.94044E+00 -9.08476E+00 -1.23035E+01
 -6.05665E+00 -1.40228E+01 -2.72218E+00 -1.50108E+01 +7.45039E-01 -1.52183E+01 +4.16493E+00 -1.46363E+01
 +7.36034E+00 -1.32971E+01 +1.01662E+01 -1.12719E+01 +1.24380E+01 -8.66752E+00 +1.40593E+01 -5.62035E+00
 +1.49477E+01 -2.28947E+00 +1.50591E+01 +1.15172E+00 +1.43895E+01 +4.52458E+00 +1.29757E+01 +7.65442E+00
 +1.08928E+01 +1.03796E+01 +8.25044E+00 +1.25599E+01 +5.18704E+00 +1.40836E+01 +1.86243E+00 +1.48735E+01
 -1.55037E+00 +1.48903E+01 -4.87424E+00 +1.41352E+01 -7.93709E+00 +1.26493E+01 -1.05808E+01 +1.05113E+01
 -1.26694E+01 +7.83386E+00 -1.40960E+01 +4.75702E+00 -1.47883E+01 +1.44131E+00 -1.47122E+01 -1.94079E+00
 -1.38737E+01 -5.21379E+00 -1.23181E+01 -8.20830E+00 -1.01279E+01 -1.07698E+01 -7.41810E+00 -1.27666E+01
 -4.33059E+00 -1.40965E+01 -1.02635E+00 -1.46924E+01 +2.32280E+00 -1.45252E+01 +5.54314E+00 -1.36054E+01
 +8.46805E+00 -1.19826E+01 +1.09466E+01 -9.74277E+00 +1.28516E+01 -7.00349E+00 +1.40855E+01 -3.90805E+00
 +1.45862E+01 -6.17780E-01 +1.43294E+01 +2.69625E+00 +1.33305E+01 +5.86219E+00 +1.16431E+01 +8.71630E+00
 +9.35639E+00 +1.11114E+01 +6.59037E+00 +1.29245E+01 +3.48966E+00 +1.40631E+01 +2.15829E-01 +1.44698E+01
 -3.06097E+00 +1.41253E+01 -6.17087E+00 +1.30496E+01 -8.95307E+00 +1.13000E+01 -1.12642E+01 +8.96906E+00
 -1.29856E+01 +6.17903E+00 -1.40295E+01 +3.07570E+00 -1.43435E+01 -1.79291E-01 -1.39132E+01 -3.41681E+00
 -1.27627E+01 -6.46909E+00 -1.09536E+01 -9.17835E+00 -8.58112E+00 -1.14050E+01 -5.76979E+00 -1.30349E+01
 -2.66643E+00 -1.39850E+01 +5.67373E-01 -1.42077E+01 +3.76364E+00 -1.36933E+01 +6.75679E+00 -1.24704E+01
 +9.39216E+00 -1.06042E+01 +1.15340E+01 -8.19289E+00 +1.30726E+01 -5.36295E+00 +1.39297E+01 -2.26211E+00
 +1.40625E+01 +9.48220E-01 +1.34661E+01 +4.10133E+00 +1.21730E+01 +7.03392E+00 +1.02522E+01 +9.59453E+00
 +7.80470E+00 +1.16513E+01 +4.95880E+00 +1.30990E+01 +1.86298E+00 +1.38640E+01 -1.32165E+00 +1.39084E+01
 -4.42976E+00 +1.32317E+01 -7.30045E+00 +1.18707E+01 -9.78548E+00 +9.89788E+00 -1.17570E+01 +7.41687E+00
 -1.31141E+01 +4.55762E+00 -1.37880E+01 +1.46928E+00 -1.37455E+01 -1.68748E+00 -1.29905E+01 -4.74883E+00
 -1.15640E+01 -7.55633E+00 -9.54163E+00 -9.96507E+00 -7.02971E+00 -1.18512E+01 -4.15969E+00 -1.31182E+01
 -1.08124E+00 -1.37021E+01 +2.04554E+00 -1.35741E+01 +5.05843E+00 -1.27429E+01 +7.80153E+00 -1.12531E+01
 +1.01333E+01 -9.18376E+00 +1.19340E+01 -6.64353E+00 +1.31115E+01 -3.76528E+00 +1.36063E+01 -6.99073E-01
 +1.33946E+01 +2.39568E+00 +1.24891E+01 +5.35847E+00 +1.09384E+01 +8.03605E+00 +8.82458E+00 +1.02903E+01
 +6.25862E+00 +1.20055E+01 +3.37466E+00 +1.30941E+01 +3.23001E-01 +1.35011E+01 -2.73774E+00 +1.32072E+01
 -5.64888E+00 +1.22295E+01 -8.25988E+00 +1.06202E+01 -1.04362E+01 +8.46442E+00 -1.20660E+01 +5.87528E+00
 -1.30662E+01 +2.98808E+00 -1.33866E+01 -4.67782E-02 -1.30123E+01 -3.07159E+00 -1.19643E+01 -5.92958E+00
 -1.02988E+01 -8.47302E+00 -8.10358E+00 -1.05708E+01 -5.49380E+00 -1.21154E+01 -2.60578E+00 -1.30281E+01
 +4.10070E-01 -1.32631E+01 +3.39709E+00 -1.28100E+01 +6.20052E+00 -1.16940E+01 +8.67548E+00 -9.97455E+00
 +1.06945E+01 -7.74238E+00 +1.21541E+01 -5.11446E+00 +1.29799E+01 -2.22801E+00 +1.31309E+01 +7.66690E-01
 +1.26007E+01 +3.71413E+00 +1.14187E+01 +6.46164E+00 +9.64776E+00 +8.86728E+00 +7.38111E+00 +1.08072E+01
 +4.73753E+00 +1.21821E+01 +1.85500E+00 +1.29220E+01 -1.11646E+00 +1.29902E+01 -4.02258E+00 +1.23848E+01
 -6.71289E+00 +1.11389E+01 -9.04846E+00 +9.31875E+00 -1.09091E+01 +7.02009E+00 -1.21996E+01 +4.36328E+00
 -1.28544E+01 +1.48697E+00 -1.28412E+01 -1.45921E+00 -1.21624E+01 -4.32236E+00 -1.08548E+01 -6.95425E+00
 -8.98781E+00 -9.21903E+00 -6.65959E+00 -1.10002E+01 -3.99198E+00 -1.22067E+01 -1.12413E+00 -1.27774E+01
 +1.79479E+00 -1.26843E+01 +4.61335E+00 -1.19339E+01 +7.18568E+00 -1.05668E+01 +9.37906E+00 -8.65527E+00
 +1.10807E+01 -6.29990E+00 +1.22037E+01 -3.62387E+00 +1.26913E+01 -7.66700E-01 +1.25197E+01 +2.12304E+00
 +1.16996E+01 +4.89548E+00 +1.02750E+01 +7.40718E+00 +8.32141E+00 +9.52860E+00 +5.94131E+00 +1.11507E+01
 +3.25920E+00 +1.21908E+01 +4.14872E-01 +1.25963E+01 -2.44382E+00 +1.23477E+01 -5.16866E+00 +1.14598E+01
 -7.61872E+00 +9.97997E+00 -9.66769E+00 +7.98654E+00 -1.12104E+01 +5.58410E+00 -1.21680E+01 +2.89822E+00
 -1.24925E+01 +6.88391E-02 -1.21686E+01 -2.75700E+00 -1.12147E+01 -5.43284E+00 -9.68185E+00 -7.82032E+00
 -7.65094E+00 -9.79642E+00 -5.22852E+00 -1.12597E+01 -2.54114E+00 -1.21357E+01 +2.71216E-01 -1.23803E+01
 +3.06246E+00 -1.19826E+01 +5.68794E+00 -1.09647E+01 +8.01198E+00 -9.38097E+00 +9.91486E+00 -7.31491E+00
 +1.12990E+01 -4.87485E+00 +1.20939E+01 -2.18821E+00 +1.22599E+01 +6.05118E-01 +1.17900E+01 +3.36007E+00
 +1.07100E+01 +5.93392E+00 +9.07763E+00 +8.19371E+00 +6.97874E+00 +1.00231E+01 +4.52335E+00 +1.13283E+01
 +1.83964E+00 +1.20430E+01 -9.32700E-01 +1.21315E+01 -3.64973E+00 +1.15910E+01 -6.17074E+00 +1.04510E+01
 -8.36554E+00 +8.77212E+00 -1.01212E+01 +6.64269E+00 -1.13477E+01 +4.17425E+00 -1.19830E+01 +1.49563E+00
 -1.19954E+01 -1.25380E+00 -1.13860E+01 -3.93134E+00 -1.01880E+01 -6.39836E+00 -8.46473E+00 -8.52751E+00
 -6.30704E+00 -1.02093E+01 -3.82782E+00 -1.13576E+01 -1.15639E+00 -1.19142E+01 +1.56828E+00 -1.18519E+01
 +4.20481E+00 -1.11753E+01 +6.61675E+00 -9.92109E+00 +8.67964E+00 -8.15575E+00 +1.02874E+01 -5.97207E+00
 +1.13579E+01 -3.48428E+00 +1.18368E+01 -8.22119E-01 +1.17010E+01 +1.87598E+00 +1.09590E+01 +4.47005E+00
 +9.65072E+00 +6.82590E+00 +7.84546E+00 +8.82198E+00 +5.63803E+00 +1.03557E+01 +3.14387E+00 +1.13488E+01
 +4.93001E-01 +1.17511E+01 -2.17677E+00 +1.15432E+01 -4.72700E+00 +1.07375E+01 -7.02579E+00 +9.37715E+00
 -8.95460E+00 +7.53413E+00 -1.04144E+01 +5.30518E+00 -1.13306E+01 +2.80681E+00 -1.16572E+01 +1.69218E-01
 -1.13787E+01 -2.47053E+00 -1.05110E+01 -4.97558E+00 -9.10064E+00 -7.21642E+00 -7.22204E+00 -9.07755E+00
