 Created: 16-Jan-2021
 $NMID
 ID='D:\BASISSIMULATI'
 FMTDAT='(8E13.5)'
 VOLUME=   1.00000E+00
 TRAMP=   1.00000E+00
 $END
 +3.66944E+01 +3.71622E+00 +3.13329E+01 +1.23371E+01 +1.73325E+01 +1.83176E+01 -1.40476E+00 +2.06311E+01
 -1.96361E+01 +1.88338E+01 -3.22999E+01 +1.31296E+01 -3.59724E+01 +4.41263E+00 -2.98237E+01 -5.76065E+00
 -1.57946E+01 -1.53322E+01 +2.03771E+00 -2.20824E+01 +1.86922E+01 -2.41259E+01 +2.97263E+01 -2.04609E+01
 +3.24541E+01 -1.14038E+01 +2.65947E+01 +1.26791E+00 +1.41965E+01 +1.45830E+01 -1.08982E+00 +2.50515E+01
 -1.51293E+01 +2.96027E+01 -2.44548E+01 +2.65255E+01 -2.71213E+01 +1.61115E+01 -2.30529E+01 +7.58409E-01
 -1.38462E+01 -1.55563E+01 -2.15830E+00 -2.83263E+01 +9.08848E+00 -3.38072E+01 +1.74390E+01 -3.01620E+01
 +2.13900E+01 -1.80954E+01 +2.05530E+01 -7.54442E-01 +1.55339E+01 +1.71102E+01 +7.63714E+00 +3.04900E+01
 -1.47714E+00 +3.55773E+01 -1.00925E+01 +3.08928E+01 -1.66601E+01 +1.77348E+01 -1.99656E+01 -1.92501E-01
 -1.92795E+01 -1.78613E+01 -1.45075E+01 -3.03831E+01 -6.31439E+00 -3.44106E+01 +3.84626E+00 -2.90582E+01
 +1.38784E+01 -1.60815E+01 +2.14074E+01 +7.16209E-01 +2.43297E+01 +1.66430E+01 +2.14252E+01 +2.74774E+01
 +1.28462E+01 +3.06158E+01 +2.91871E-01 +2.56888E+01 -1.32546E+01 +1.45019E+01 -2.42188E+01 +3.73282E-01
 -2.94042E+01 -1.28895E+01 -2.69645E+01 -2.20456E+01 -1.70718E+01 -2.52063E+01 -2.03567E+00 -2.21629E+01
 +1.42168E+01 -1.42263E+01 +2.71894E+01 -3.69801E+00 +3.31073E+01 +6.82201E+00 +3.00619E+01 +1.50748E+01
 +1.86500E+01 +1.95724E+01 +1.88494E+00 +1.97603E+01 -1.56182E+01 +1.59492E+01 -2.89581E+01 +9.10779E+00
 -3.43723E+01 +6.16712E-01 -3.03404E+01 -7.95529E+00 -1.80282E+01 -1.50406E+01 -9.38539E-01 -1.92558E+01
 +1.61244E+01 -1.96082E+01 +2.84565E+01 -1.57258E+01 +3.27966E+01 -8.05742E+00 +2.82114E+01 +2.04585E+00
 +1.62757E+01 +1.24617E+01 +5.19854E-01 +2.06818E+01 -1.46557E+01 +2.44090E+01 -2.52545E+01 +2.22256E+01
 -2.87621E+01 +1.41307E+01 -2.47275E+01 +1.74273E+00 -1.47214E+01 -1.19572E+01 -1.73682E+00 -2.33327E+01
 +1.07416E+01 -2.90846E+01 +1.96987E+01 -2.72494E+01 +2.33067E+01 -1.78875E+01 +2.12333E+01 -3.21559E+00
 +1.45172E+01 +1.29039E+01 +5.11775E+00 +2.60053E+01 -4.67752E+00 +3.23027E+01 -1.28026E+01 +2.98301E+01
 -1.77900E+01 +1.90805E+01 -1.89328E+01 +2.92949E+00 -1.62650E+01 -1.41559E+01 -1.04380E+01 -2.73970E+01
 -2.56555E+00 -3.30909E+01 +5.92785E+00 -2.96858E+01 +1.34641E+01 -1.82189E+01 +1.85080E+01 -1.98881E+00
 +1.98262E+01 +1.44309E+01 +1.67897E+01 +2.65295E+01 +9.64448E+00 +3.11413E+01 -3.59884E-01 +2.72930E+01
 -1.10859E+01 +1.63828E+01 -1.99123E+01 +1.67068E+00 -2.43719E+01 -1.27350E+01 -2.28696E+01 -2.30662E+01
 -1.52620E+01 -2.69024E+01 -3.08550E+00 -2.37189E+01 +1.06946E+01 -1.48600E+01 +2.24006E+01 -3.00130E+00
 +2.86534E+01 +8.68929E+00 +2.73893E+01 +1.74207E+01 +1.85645E+01 +2.14300E+01 +4.29951E+00 +2.02711E+01
 -1.16218E+01 +1.47237E+01 -2.47826E+01 +6.41910E+00 -3.14043E+01 -2.65660E+00 -2.94764E+01 -1.06264E+01
 -1.93935E+01 -1.60486E+01 -3.88928E+00 -1.80767E+01 +1.27279E+01 -1.64866E+01 +2.58158E+01 -1.16310E+01
 +3.17442E+01 -4.37026E+00 +2.89391E+01 +4.01205E+00 +1.83130E+01 +1.19348E+01 +2.95908E+00 +1.77281E+01
 -1.27854E+01 +1.99399E+01 -2.46110E+01 +1.77049E+01 -2.94553E+01 +1.10789E+01 -2.63119E+01 +1.21175E+00
 -1.64083E+01 -9.75461E+00 -2.73685E+00 -1.91053E+01 +1.08852E+01 -2.42263E+01 +2.09201E+01 -2.33648E+01
 +2.50459E+01 -1.62455E+01 +2.26711E+01 -4.32150E+00 +1.49224E+01 +9.47005E+00 +4.16766E+00 +2.14300E+01
 -6.73550E+00 +2.81201E+01 -1.52174E+01 +2.73935E+01 -1.95833E+01 +1.91095E+01 -1.92829E+01 +5.28910E+00
 -1.48505E+01 -1.03741E+01 -7.60411E+00 -2.35293E+01 +7.60173E-01 -3.04223E+01 +8.54982E+00 -2.90109E+01
 +1.43533E+01 -1.95958E+01 +1.71978E+01 -4.76580E+00 +1.66194E+01 +1.13383E+01 +1.26908E+01 +2.42231E+01
 +6.03230E+00 +3.03427E+01 -2.20908E+00 +2.81101E+01 -1.04564E+01 +1.83169E+01 -1.69217E+01 +3.85044E+00
 -1.99558E+01 -1.11923E+01 -1.84771E+01 -2.27091E+01 -1.23644E+01 -2.77484E+01 -2.66966E+00 -2.52771E+01
 +8.47067E+00 -1.63577E+01 +1.82669E+01 -3.71925E+00 +2.39802E+01 +9.11007E+00 +2.37190E+01 +1.88233E+01
 +1.70868E+01 +2.32008E+01 +5.45240E+00 +2.15915E+01 -8.28645E+00 +1.49138E+01 -2.04277E+01 +5.23721E+00
 -2.74942E+01 -4.88252E+00 -2.72712E+01 -1.30938E+01 -1.95289E+01 -1.77732E+01 -6.18637E+00 -1.82750E+01
 +9.16397E+00 -1.49024E+01 +2.22531E+01 -8.67517E+00 +2.93671E+01 -1.01147E+00 +2.84433E+01 +6.57562E+00
 +1.96939E+01 +1.27088E+01 +5.56080E+00 +1.63017E+01 -9.99087E+00 +1.66687E+01 -2.26269E+01 +1.36213E+01
 -2.88968E+01 +7.55371E+00 -2.72082E+01 -5.19517E-01 -1.82367E+01 -9.03222E+00 -4.66425E+00 -1.60943E+01
 +9.65513E+00 -1.98804E+01 +2.08315E+01 -1.91125E+01 +2.60299E+01 -1.35054E+01 +2.41970E+01 -4.01497E+00
 +1.62364E+01 +7.23666E+00 +4.61912E+00 +1.74029E+01 -7.41261E+00 +2.36414E+01 -1.67820E+01 +2.39402E+01
 -2.13749E+01 +1.77916E+01 -2.04872E+01 +6.48026E+00 -1.48388E+01 -7.14632E+00 -6.21159E+00 -1.94004E+01
 +3.13206E+00 -2.67846E+01 +1.10544E+01 -2.70315E+01 +1.60054E+01 -1.98294E+01 +1.72534E+01 -6.99360E+00
 +1.48842E+01 +7.99441E+00 +9.63507E+00 +2.09615E+01 +2.65863E+00 +2.82485E+01 -4.70591E+00 +2.77833E+01
 -1.11191E+01 +1.96947E+01 -1.53934E+01 +6.27629E+00 -1.66398E+01 -8.68873E+00 -1.44271E+01 -2.10347E+01
 -8.93705E+00 -2.74159E+01 -1.05661E+00 -2.62425E+01 +7.66496E+00 -1.80786E+01 +1.52509E+01 -5.40212E+00
 +1.97200E+01 +8.17720E+00 +1.96174E+01 +1.89852E+01 +1.45062E+01 +2.43084E+01 +5.24921E+00 +2.30797E+01
 -6.05475E+00 +1.60500E+01 -1.65190E+01 +5.43795E+00 -2.32177E+01 -5.79535E+00 -2.40362E+01 -1.48018E+01
 -1.83661E+01 -1.95753E+01 -7.40748E+00 -1.93651E+01 +6.05180E+00 -1.47025E+01 +1.83543E+01 -7.09279E+00
 +2.60003E+01 +1.48522E+00 +2.66836E+01 +9.10284E+00 +2.00178E+01 +1.42852E+01 +7.71332E+00 +1.62236E+01
 -6.86786E+00 +1.48007E+01 -1.96613E+01 +1.04869E+01 -2.70758E+01 +4.18217E+00 -2.70402E+01 -2.94219E+00
 -1.96048E+01 -9.58786E+00 -6.91450E+00 -1.44781E+01 +7.43473E+00 -1.65381E+01 +1.94536E+01 -1.51128E+01
 +2.59095E+01 -1.01853E+01 +2.52220E+01 -2.51980E+00 +1.78488E+01 +6.35698E+00 +6.06589E+00 +1.43965E+01
 -6.76122E+00 +1.94812E+01 -1.71765E+01 +1.99982E+01 -2.25923E+01 +1.53719E+01 -2.19329E+01 +6.37435E+00
 -1.58037E+01 -4.92671E+00 -6.17753E+00 -1.56204E+01 +4.26027E+00 -2.27167E+01 +1.28878E+01 -2.40152E+01
 +1.78086E+01 -1.88165E+01 +1.82315E+01 -8.23675E+00 +1.45095E+01 +5.00470E+00 +7.88307E+00 +1.72955E+01
 +5.74611E-02 +2.51498E+01 -7.24209E+00 +2.62364E+01 -1.26173E+01 +2.01010E+01 -1.51909E+01 +8.34828E+00
 -1.46567E+01 -5.78645E+00 -1.12340E+01 -1.83590E+01 -5.58345E+00 -2.58580E+01 +1.28536E+00 -2.62230E+01
 +8.11798E+00 -1.94310E+01 +1.35602E+01 -7.47784E+00 +1.63689E+01 +6.23127E+00 +1.56834E+01 +1.78901E+01
 +1.13019E+01 +2.43860E+01 +3.87105E+00 +2.41551E+01 -5.11018E+00 +1.75531E+01 -1.35355E+01 +6.65762E+00
 -1.91702E+01 -5.40942E+00 -2.02617E+01 -1.54112E+01 -1.61078E+01 -2.08889E+01 -7.39270E+00 -2.07640E+01
 +3.85393E+00 -1.55027E+01 +1.47122E+01 -6.83985E+00 +2.21459E+01 +2.80884E+00 +2.38852E+01 +1.10443E+01
 +1.91493E+01 +1.60805E+01 +8.97100E+00 +1.70925E+01 -4.00647E+00 +1.42646E+01 -1.62296E+01 +8.58494E+00
 -2.42416E+01 +1.49593E+00 -2.56987E+01 -5.47457E+00 -2.00857E+01 -1.10057E+01 -8.90145E+00 -1.41603E+01
 +4.75199E+00 -1.44569E+01 +1.70606E+01 -1.18801E+01 +2.46039E+01 -6.86429E+00 +2.53407E+01 -2.64249E-01
 +1.91797E+01 +6.71205E+00 +7.96891E+00 +1.26441E+01 -5.08038E+00 +1.61376E+01 -1.63500E+01 +1.61441E+01
 -2.28538E+01 +1.22906E+01 -2.30499E+01 +5.11180E+00 -1.71975E+01 -3.92603E+00 -7.17955E+00 -1.26723E+01
 +4.12365E+00 -1.87933E+01 +1.36944E+01 -2.04145E+01 +1.92053E+01 -1.67192E+01 +1.95799E+01 -8.30692E+00
 +1.51521E+01 +2.83749E+00 +7.42714E+00 +1.37989E+01 -1.44206E+00 +2.15126E+01 -9.27493E+00 +2.36542E+01
 -1.43965E+01 +1.93710E+01 -1.59535E+01 +9.61343E+00 -1.39724E+01 -3.05826E+00 -9.20115E+00 -1.51619E+01
 -2.83062E+00 -2.32836E+01 +3.80207E+00 -2.50792E+01 +9.45411E+00 -1.99789E+01 +1.31362E+01 -9.37594E+00
 +1.42060E+01 +3.76593E+00 +1.24289E+01 +1.57718E+01 +8.02697E+00 +2.33217E+01 +1.70680E+00 +2.44018E+01
 -5.37212E+00 +1.88575E+01 -1.17337E+01 +8.39046E+00 -1.58492E+01 -3.98370E+00 -1.65000E+01 -1.48388E+01
 -1.31557E+01 -2.13203E+01 -6.24389E+00 -2.19141E+01 +2.80564E+00 -1.67879E+01 +1.18108E+01 -7.63405E+00
 +1.83566E+01 +2.90528E+00 +2.04633E+01 +1.20307E+01 +1.72118E+01 +1.75480E+01 +9.11996E+00 +1.83870E+01
 -1.87810E+00 +1.47571E+01 -1.28852E+01 +7.94179E+00 -2.08238E+01 -1.60473E-01 -2.33301E+01 -7.58283E+00
 -1.94880E+01 -1.27613E+01 -1.01674E+01 -1.48199E+01 +2.16091E+00 -1.36375E+01 +1.40972E+01 -9.73466E+00
 +2.22837E+01 -4.06242E+00 +2.43863E+01 +2.22585E+00 +1.97872E+01 +7.96547E+00 +9.77503E+00 +1.21229E+01
 -2.82941E+00 +1.39084E+01 -1.44978E+01 +1.28845E+01 -2.20191E+01 +9.07414E+00 -2.34144E+01 +3.04294E+00
 -1.84707E+01 -4.09981E+00 -8.74534E+00 -1.08329E+01 +2.94252E+00 -1.55090E+01 +1.33615E+01 -1.67567E+01
 +1.97929E+01 -1.39014E+01 +2.07550E+01 -7.26955E+00 +1.63297E+01 +1.74972E+00 +8.02367E+00 +1.09549E+01
 -1.75534E+00 +1.78661E+01 -1.04242E+01 +2.04151E+01 -1.59227E+01 +1.75915E+01 -1.71914E+01 +9.83503E+00
 -1.43224E+01 -9.76182E-01 -8.38637E+00 -1.19750E+01 -1.03581E+00 -2.00865E+01 +5.97054E+00 -2.29206E+01
 +1.11791E+01 -1.95072E+01 +1.36965E+01 -1.06365E+01 +1.32643E+01 +1.31498E+00 +1.01886E+01 +1.30402E+01
 +5.19263E+00 +2.12491E+01 -7.46622E-01 +2.36281E+01 -6.54235E+00 +1.95175E+01 -1.11242E+01 +1.01021E+01
 -1.35687E+01 -1.94328E+00 -1.32510E+01 -1.32433E+01 -1.00088E+01 -2.07035E+01 -4.27378E+00 -2.23864E+01
 +2.89631E+00 -1.80256E+01 +9.94498E+00 -9.03653E+00 +1.51219E+01 +1.95782E+00 +1.69196E+01 +1.19226E+01
 +1.45324E+01 +1.82780E+01 +8.19135E+00 +1.95797E+01 -7.58657E-01 +1.58284E+01 -1.01079E+01 +8.35106E+00
 -1.73276E+01 -6.74425E-01 -2.02765E+01 -8.87831E+00 -1.78641E+01 -1.43347E+01 -1.04556E+01 -1.59989E+01
 +1.31874E-01 -1.38527E+01 +1.10723E+01 -8.76359E+00 +1.93072E+01 -2.14706E+00 +2.24335E+01 +4.44008E+00
