 Created: 16-Jan-2021
 $NMID
 ID='D:\BASISSIMULATI'
 FMTDAT='(8E13.5)'
 VOLUME=   1.00000E+00
 TRAMP=   1.00000E+00
 $END
 +6.10250E+01 +5.29216E+00 +4.90868E+01 +3.39625E+01 +2.42346E+01 +5.05512E+01 -3.68820E+00 +5.05135E+01
 -2.46390E+01 +3.62853E+01 -3.26958E+01 +1.55208E+01 -2.80520E+01 -2.88019E+00 -1.59477E+01 -1.28232E+01
 -3.40834E+00 -1.31646E+01 +4.30847E+00 -7.14334E+00 +5.72489E+00 +2.13891E-01 +2.81928E+00 +5.04746E+00
 -1.06458E+00 +6.33331E+00 -3.60084E+00 +5.55281E+00 -4.70565E+00 +4.88939E+00 -6.01118E+00 +5.29023E+00
 -9.13458E+00 +5.67869E+00 -1.40075E+01 +3.77541E+00 -1.84307E+01 -2.07592E+00 -1.91961E+01 -1.13254E+01
 -1.40988E+01 -2.09717E+01 -3.57448E+00 -2.69143E+01 +9.11022E+00 -2.61618E+01 +1.93279E+01 -1.85974E+01
 +2.34406E+01 -7.22493E+00 +2.06984E+01 +3.31229E+00 +1.35895E+01 +9.14130E+00 +6.41779E+00 +9.15017E+00
 +2.89872E+00 +5.43608E+00 +4.12569E+00 +1.96028E+00 +8.05132E+00 +2.17479E+00 +1.07700E+01 +6.96635E+00
 +8.87159E+00 +1.40803E+01 +1.53713E+00 +1.93519E+01 -8.80473E+00 +1.90601E+01 -1.76363E+01 +1.20987E+01
 -2.06986E+01 +7.66389E-01 -1.62599E+01 -1.02584E+01 -6.09483E+00 -1.62094E+01 +5.32636E+00 -1.45777E+01
 +1.29831E+01 -6.30532E+00 +1.36571E+01 +4.73877E+00 +7.31215E+00 +1.36532E+01 -3.10967E+00 +1.67530E+01
 -1.32435E+01 +1.30531E+01 -1.93205E+01 +4.35756E+00 -1.96288E+01 -5.91173E+00 -1.48062E+01 -1.43961E+01
 -7.03169E+00 -1.90944E+01 +1.25911E+00 -1.97188E+01 +8.37523E+00 -1.71578E+01 +1.36302E+01 -1.25720E+01
 +1.69272E+01 -6.75725E+00 +1.81421E+01 -1.18782E-01 +1.68401E+01 +6.86691E+00 +1.25602E+01 +1.31714E+01
 +5.46639E+00 +1.71900E+01 -3.13888E+00 +1.73295E+01 -1.09020E+01 +1.29222E+01 -1.52177E+01 +4.91041E+00
 -1.43989E+01 -4.19277E+00 -8.60036E+00 -1.11758E+01 +4.57492E-02 -1.34707E+01 +8.23048E+00 -1.03073E+01
 +1.28563E+01 -3.08421E+00 +1.23463E+01 +5.24748E+00 +7.24280E+00 +1.14903E+01 -1.72612E-01 +1.35539E+01
 -7.00435E+00 +1.12131E+01 -1.10282E+01 +5.95710E+00 -1.15114E+01 +8.96326E-02 -9.23154E+00 -4.40347E+00
 -5.79225E+00 -6.63933E+00 -2.68115E+00 -6.94011E+00 -5.90628E-01 -6.31180E+00 +6.85287E-01 -5.68028E+00
 +1.81905E+00 -5.34544E+00 +3.31589E+00 -4.93219E+00 +5.08607E+00 -3.79907E+00 +6.46578E+00 -1.60195E+00
 +6.64029E+00 +1.35391E+00 +5.18532E+00 +4.18560E+00 +2.38929E+00 +5.87312E+00 -8.32817E-01 +5.79777E+00
 -3.37451E+00 +4.06325E+00 -4.46324E+00 +1.42654E+00 -3.98187E+00 -1.10107E+00 -2.42742E+00 -2.73986E+00
 -5.66897E-01 -3.24194E+00 +9.83519E-01 -2.86390E+00 +2.00737E+00 -2.07339E+00 +2.64346E+00 -1.20194E+00
 +3.11671E+00 -2.69036E-01 +3.44903E+00 +9.23327E-01 +3.35693E+00 +2.50737E+00 +2.41470E+00 +4.28232E+00
 +3.86741E-01 +5.66078E+00 -2.48297E+00 +5.89439E+00 -5.42205E+00 +4.47110E+00 -7.38573E+00 +1.46292E+00
 -7.50709E+00 -2.38174E+00 -5.51592E+00 -5.87471E+00 -1.91026E+00 -7.85272E+00 +2.21009E+00 -7.65002E+00
 +5.56890E+00 -5.35807E+00 +7.19609E+00 -1.76302E+00 +6.75278E+00 +1.98896E+00 +4.57720E+00 +4.82770E+00
 +1.47185E+00 +6.10156E+00 -1.63563E+00 +5.70445E+00 -3.99484E+00 +3.98461E+00 -5.19002E+00 +1.53023E+00
 -5.13950E+00 -1.04424E+00 -4.00211E+00 -3.22836E+00 -2.07679E+00 -4.65382E+00 +2.54196E-01 -5.08865E+00
 +2.54615E+00 -4.44385E+00 +4.32286E+00 -2.81177E+00 +5.15706E+00 -5.05370E-01 +4.79593E+00 +1.95690E+00
 +3.27885E+00 +3.95688E+00 +9.76378E-01 +4.95689E+00 -1.49309E+00 +4.68636E+00 -3.45337E+00 +3.24921E+00
 -4.39476E+00 +1.09567E+00 -4.13849E+00 -1.13550E+00 -2.87351E+00 -2.83831E+00 -1.05759E+00 -3.63125E+00
 +7.64970E-01 -3.44596E+00 +2.14610E+00 -2.49239E+00 +2.84626E+00 -1.13617E+00 +2.84939E+00 +2.45035E-01
 +2.30146E+00 +1.36610E+00 +1.42095E+00 +2.07368E+00 +4.25644E-01 +2.33146E+00 -5.05148E-01 +2.18293E+00
 -1.24046E+00 +1.71903E+00 -1.69870E+00 +1.05893E+00 -1.85177E+00 +3.35363E-01 -1.72892E+00 -3.26828E-01
 -1.40792E+00 -8.38701E-01 -9.86560E-01 -1.16817E+00 -5.43371E-01 -1.33687E+00 -1.10056E-01 -1.38853E+00
 +3.23582E-01 -1.34497E+00 +7.70086E-01 -1.17966E+00 +1.19331E+00 -8.32917E-01 +1.48333E+00 -2.68540E-01
 +1.48558E+00 +4.58969E-01 +1.08187E+00 +1.17270E+00 +2.85107E-01 +1.61172E+00 -7.08923E-01 +1.53761E+00
 -1.55696E+00 +8.64791E-01 -1.89325E+00 -2.53693E-01 -1.49666E+00 -1.44203E+00 -4.20317E-01 -2.23124E+00
 +9.88737E-01 -2.25616E+00 +2.20650E+00 -1.43169E+00 +2.74569E+00 -1.90737E-02 +2.37329E+00 +1.46193E+00
 +1.22801E+00 +2.44725E+00 -2.26640E-01 +2.57665E+00 -1.40195E+00 +1.85987E+00 -1.84990E+00 +6.76592E-01
 -1.47116E+00 -3.97537E-01 -5.62714E-01 -8.62695E-01 +3.23665E-01 -5.36637E-01 +6.49657E-01 +3.51806E-01
 +1.58401E-01 +1.26724E+00 -9.88329E-01 +1.62411E+00 -2.27292E+00 +1.07317E+00 -3.05663E+00 -3.20349E-01
 -2.87360E+00 -2.09262E+00 -1.64371E+00 -3.58150E+00 +2.93900E-01 -4.21160E+00 +2.33341E+00 -3.72733E+00
 +3.85671E+00 -2.27025E+00 +4.46241E+00 -2.81799E-01 +4.06815E+00 +1.69888E+00 +2.86333E+00 +3.22845E+00
 +1.17215E+00 +4.05423E+00 -6.73993E-01 +4.09406E+00 -2.38307E+00 +3.36061E+00 -3.66991E+00 +1.91876E+00
 -4.21658E+00 -7.34187E-02 -3.71384E+00 -2.27040E+00 -2.01628E+00 -4.09105E+00 +6.53430E-01 -4.81925E+00
 +3.59125E+00 -3.87797E+00 +5.72463E+00 -1.17916E+00 +5.98410E+00 +2.64087E+00 +3.81162E+00 +6.28496E+00
 -4.37007E-01 +8.21782E+00 -5.44195E+00 +7.31715E+00 -9.32911E+00 +3.46464E+00 -1.04204E+01 -2.23699E+00
 -8.00453E+00 -7.79171E+00 -2.75004E+00 -1.10959E+01 +3.48170E+00 -1.08500E+01 +8.38779E+00 -7.16588E+00
 +1.02168E+01 -1.55471E+00 +8.53823E+00 +3.72991E+00 +4.41021E+00 +6.70082E+00 -1.46506E-01 +6.51758E+00
 -3.11707E+00 +3.81118E+00 -3.42742E+00 +2.99221E-01 -1.38686E+00 -2.10536E+00 +1.56666E+00 -2.23527E+00
 +3.66413E+00 -1.86347E-01 +3.71728E+00 +2.83048E+00 +1.67218E+00 +5.19126E+00 -1.45943E+00 +5.71837E+00
 -4.21289E+00 +4.23743E+00 -5.46208E+00 +1.56003E+00 -4.95026E+00 -1.05067E+00 -3.29455E+00 -2.59272E+00
 -1.51354E+00 -2.80202E+00 -3.98676E-01 -2.14477E+00 -1.18682E-01 -1.38286E+00 -2.77619E-01 -1.02638E+00
 -3.46681E-01 -1.04180E+00 -1.45795E-01 -1.00265E+00 -1.79332E-02 -5.64925E-01 -5.43952E-01 +8.52580E-02
 -1.96623E+00 +1.73269E-01 -3.72291E+00 -1.20973E+00 -4.48014E+00 -4.36600E+00 -2.77173E+00 -8.43453E+00
 +2.03706E+00 -1.14579E+01 +9.01555E+00 -1.11910E+01 +1.56815E+01 -6.32429E+00 +1.89211E+01 +2.52301E+00
 +1.64645E+01 +1.26559E+01 +8.19526E+00 +2.02352E+01 -3.43968E+00 +2.19491E+01 -1.42501E+01 +1.66422E+01
 -2.00643E+01 +6.06118E+00 -1.86260E+01 -5.73580E+00 -1.06920E+01 -1.41011E+01 +2.44009E-01 -1.58585E+01
 +9.50676E+00 -1.07111E+01 +1.33346E+01 -1.30934E+00 +1.05033E+01 +8.04167E+00 +2.71113E+00 +1.33820E+01
 -6.40654E+00 +1.28127E+01 -1.30769E+01 +7.11752E+00 -1.50669E+01 -9.25886E-01 -1.24271E+01 -8.08510E+00
 -7.03460E+00 -1.22000E+01 -1.31944E+00 -1.29200E+01 +3.03966E+00 -1.13743E+01 +5.73102E+00 -9.11388E+00
 +7.48440E+00 -7.04801E+00 +9.13647E+00 -5.02894E+00 +1.07713E+01 -2.28578E+00 +1.15332E+01 +1.65294E+00
 +1.02478E+01 +6.22734E+00 +6.43476E+00 +9.86549E+00 +1.00428E+00 +1.08257E+01 -3.91371E+00 +8.37383E+00
 -6.02949E+00 +3.52899E+00 -4.27624E+00 -1.19329E+00 +3.29436E-01 -3.03163E+00 +4.96785E+00 -5.84000E-01
 +6.42291E+00 +5.16884E+00 +2.91405E+00 +1.11115E+01 -4.67849E+00 +1.35188E+01 -1.29753E+01 +1.01120E+01
 -1.76968E+01 +1.52020E+00 -1.59305E+01 -8.73676E+00 -7.85722E+00 -1.58651E+01 +3.06201E+00 -1.62462E+01
 +1.16497E+01 -9.44109E+00 +1.35926E+01 +1.36260E+00 +7.71405E+00 +1.07817E+01 -3.27552E+00 +1.38743E+01
 -1.39952E+01 +8.64373E+00 -1.89922E+01 -2.89151E+00 -1.54045E+01 -1.56259E+01 -4.33243E+00 -2.38198E+01
 +9.75350E+00 -2.38141E+01 +2.12139E+01 -1.56387E+01 +2.58771E+01 -2.75928E+00 +2.27687E+01 +9.79515E+00
 +1.41390E+01 +1.78561E+01 +3.94433E+00 +1.98156E+01 -4.26298E+00 +1.68155E+01 -8.84928E+00 +1.15304E+01
 -1.02882E+01 +6.41238E+00 -1.01247E+01 +2.48040E+00 -9.53258E+00 -6.99949E-01 -8.45941E+00 -3.99623E+00
 -5.90476E+00 -7.46373E+00 -1.09539E+00 -9.81480E+00 +5.30497E+00 -9.05770E+00 +1.08850E+01 -3.96299E+00
 +1.24680E+01 +4.59304E+00 +7.94283E+00 +1.33865E+01 -2.11794E+00 +1.80824E+01 -1.41205E+01 +1.54300E+01
 -2.28026E+01 +5.24027E+00 -2.37219E+01 -9.03687E+00 -1.56091E+01 -2.16244E+01 -1.27948E+00 -2.70769E+01
 +1.34950E+01 -2.29557E+01 +2.26681E+01 -1.11052E+01 +2.28121E+01 +3.19078E+00 +1.47234E+01 +1.37804E+01
 +2.90334E+00 +1.66254E+01 -6.80450E+00 +1.16532E+01 -1.01660E+01 +2.54480E+00 -6.55324E+00 -5.37314E+00
 +1.01766E+00 -7.96430E+00 +7.73962E+00 -4.32941E+00 +9.68708E+00 +2.97495E+00 +5.84398E+00 +9.56164E+00
 -1.55923E+00 +1.17053E+01 -8.47645E+00 +8.30672E+00 -1.13554E+01 +1.30083E+00 -9.00870E+00 -5.60917E+00
 -3.05346E+00 -9.07709E+00 +3.21355E+00 -7.86300E+00 +6.75461E+00 -3.26582E+00 +6.38706E+00 +1.89045E+00
 +3.16089E+00 +5.01079E+00 -5.87064E-01 +5.14087E+00 -2.82047E+00 +3.23376E+00 -3.01120E+00 +1.21051E+00
 -2.23938E+00 +4.96824E-01 -2.18467E+00 +1.01471E+00 -3.71625E+00 +1.29008E+00 -6.04463E+00 -3.91199E-01
 -7.04696E+00 -4.53404E+00 -4.63256E+00 -9.66930E+00 +1.66975E+00 -1.28635E+01 +9.92344E+00 -1.13198E+01
 +1.63981E+01 -4.18540E+00 +1.73796E+01 +6.51901E+00 +1.12396E+01 +1.64996E+01 -3.94529E-01 +2.11269E+01
 -1.30929E+01 +1.77490E+01 -2.15627E+01 +7.15800E+00 -2.21240E+01 -6.60120E+00 -1.44642E+01 -1.80291E+01
 -1.77561E+00 -2.26826E+01 +1.07768E+01 -1.91400E+01 +1.84532E+01 -9.46736E+00 +1.89905E+01 +1.97075E+00
 +1.33293E+01 +1.06692E+01 +4.77452E+00 +1.39750E+01 -2.84036E+00 +1.19585E+01 -6.96102E+00 +6.86751E+00
 -7.19342E+00 +1.63117E+00 -4.94947E+00 -1.68130E+00 -2.24667E+00 -2.63157E+00 -4.60016E-01 -2.12988E+00
 +2.58366E-01 -1.44637E+00 +6.60054E-01 -1.22793E+00 +1.52157E+00 -1.14129E+00 +2.86042E+00 -3.06505E-01
 +3.78801E+00 +1.83845E+00 +3.09477E+00 +4.86959E+00 +1.72016E-01 +7.39150E+00 -4.35469E+00 +7.77156E+00
 -8.73646E+00 +5.15723E+00 -1.09514E+01 +1.36612E-01 -9.82139E+00 -5.40412E+00 -5.73461E+00 -9.19935E+00
 -5.19348E-01 -9.80035E+00 +3.49703E+00 -7.36630E+00 +4.73417E+00 -3.58153E+00 +3.20968E+00 -7.23188E-01
 +5.07648E-01 -3.90200E-01 -1.12850E+00 -2.60321E+00 -7.86729E-02 -5.78211E+00 +3.70796E+00 -7.61854E+00
