 Created: 16-Jan-2021
 $NMID
 ID='D:\BASISSIMULATI'
 FMTDAT='(8E13.5)'
 VOLUME=   1.00000E+00
 TRAMP=   1.00000E+00
 $END
 +3.30609E+01 +3.02073E+00 +2.95143E+01 +1.44066E+01 +2.19842E+01 +2.34252E+01 +1.18253E+01 +2.87200E+01
 +8.12465E-01 +2.96492E+01 -9.21391E+00 +2.63864E+01 -1.67068E+01 +1.98539E+01 -2.07006E+01 +1.15075E+01
 -2.09704E+01 +3.01902E+00 -1.80326E+01 -4.07275E+00 -1.29917E+01 -8.66893E+00 -7.26886E+00 -1.03119E+01
 -2.27584E+00 -9.24112E+00 +8.96778E-01 -6.29546E+00 +1.70781E+00 -2.68813E+00 +2.63848E-01 +2.93949E-01
 -2.73100E+00 +1.59824E+00 -6.15972E+00 +6.54296E-01 -8.76819E+00 -2.49280E+00 -9.46948E+00 -7.19111E+00
 -7.60913E+00 -1.23292E+01 -3.13259E+00 -1.65883E+01 +3.38140E+00 -1.87436E+01 +1.08287E+01 -1.79472E+01
 +1.78051E+01 -1.39323E+01 +2.29001E+01 -7.09277E+00 +2.49959E+01 +1.57788E+00 +2.35072E+01 +1.06755E+01
 +1.85116E+01 +1.86619E+01 +1.07434E+01 +2.41702E+01 +1.45155E+00 +2.62743E+01 -7.84451E+00 +2.46679E+01
 -1.56522E+01 +1.97152E+01 -2.07917E+01 +1.23664E+01 -2.26131E+01 +3.95702E+00 -2.11002E+01 -4.06422E+00
 -1.68437E+01 -1.04215E+01 -1.08919E+01 -1.42517E+01 -4.51468E+00 -1.52499E+01 +1.06726E+00 -1.36931E+01
 +4.92991E+00 -1.03418E+01 +6.61858E+00 -6.24439E+00 +6.21156E+00 -2.48995E+00 +4.26522E+00 +3.60235E-02
 +1.65659E+00 +8.39596E-01 -6.38773E-01 -8.84872E-02 -1.78285E+00 -2.29220E+00 -1.27280E+00 -4.97460E+00
 +9.42666E-01 -7.19698E+00 +4.45217E+00 -8.10702E+00 +8.47631E+00 -7.14464E+00 +1.20455E+01 -4.18051E+00
 +1.42203E+01 +4.42738E-01 +1.43061E+01 +5.97449E+00 +1.20144E+01 +1.14103E+01 +7.53633E+00 +1.57023E+01
 +1.51369E+00 +1.79790E+01 -5.08551E+00 +1.77289E+01 -1.11598E+01 +1.49078E+01 -1.56934E+01 +9.94856E+00
 -1.79551E+01 +3.67349E+00 -1.76365E+01 -2.87163E+00 -1.49013E+01 -8.62486E+00 -1.03380E+01 -1.27131E+01
 -4.82892E+00 -1.46122E+01 +6.35288E-01 -1.42304E+01 +5.15477E+00 -1.19011E+01 +8.09140E+00 -8.28851E+00
 +9.17715E+00 -4.23170E+00 +8.53966E+00 -5.60099E-01 +6.64348E+00 +2.07763E+00 +4.16341E+00 +3.33635E+00
 +1.82006E+00 +3.22463E+00 +2.15101E-01 +2.07480E+00 -2.98126E-01 +4.43231E-01 +3.18291E-01 -1.03451E+00
 +1.79413E+00 -1.79962E+00 +3.62828E+00 -1.50223E+00 +5.21625E+00 -8.12997E-02 +5.99785E+00 +2.22398E+00
 +5.59161E+00 +4.93173E+00 +3.88624E+00 +7.42918E+00 +1.06998E+00 +9.11270E+00 -2.40730E+00 +9.52431E+00
 -5.92937E+00 +8.45487E+00 -8.84444E+00 +5.99205E+00 -1.06021E+01 +2.50383E+00 -1.08668E+01 -1.43734E+00
 -9.58447E+00 -5.17213E+00 -6.98832E+00 -8.08736E+00 -3.54608E+00 -9.73600E+00 +1.39938E-01 -9.91901E+00
 +3.45618E+00 -8.71340E+00 +5.89803E+00 -6.44259E+00 +7.16180E+00 -3.59798E+00 +7.19031E+00 -7.30389E-01
 +6.16503E+00 +1.66414E+00 +4.44910E+00 +3.23971E+00 +2.49625E+00 +3.85785E+00 +7.47100E-01 +3.59675E+00
 -4.64046E-01 +2.71321E+00 -9.72302E-01 +1.56862E+00 -8.03153E-01 +5.37317E-01 -1.49257E-01 -8.13187E-02
 +6.89100E-01 -1.27617E-01 +1.38440E+00 +3.89923E-01 +1.66375E+00 +1.30690E+00 +1.37358E+00 +2.35101E+00
 +5.13187E-01 +3.21297E+00 -7.69006E-01 +3.62309E+00 -2.21385E+00 +3.41558E+00 -3.51433E+00 +2.56645E+00
 -4.38740E+00 +1.19750E+00 -4.63804E+00 -4.53271E-01 -4.20123E+00 -2.08665E+00 -3.15337E+00 -3.40901E+00
 -1.69162E+00 -4.19552E+00 -8.73602E-02 -4.33541E+00 +1.37461E+00 -3.85014E+00 +2.45680E+00 -2.88154E+00
 +3.01603E+00 -1.65413E+00 +3.02681E+00 -4.21464E-01 +2.57716E+00 +5.90413E-01 +1.83935E+00 +1.22953E+00
 +1.02391E+00 +1.44441E+00 +3.28324E-01 +1.28562E+00 -1.07241E-01 +8.83590E-01 -2.27223E-01 +4.09495E-01
 -6.57277E-02 +2.94581E-02 +2.70533E-01 -1.36507E-01 +6.35895E-01 -4.12244E-02 +8.86807E-01 +2.82922E-01
 +9.19757E-01 +7.37804E-01 +6.96799E-01 +1.18936E+00 +2.52879E-01 +1.50517E+00 -3.16082E-01 +1.58987E+00
 -8.80541E-01 +1.40965E+00 -1.31258E+00 +9.99678E-01 -1.51977E+00 +4.53387E-01 -1.46887E+00 -1.03454E-01
 -1.19355E+00 -5.46644E-01 -7.84279E-01 -7.86607E-01 -3.63224E-01 -7.91972E-01 -5.08270E-02 -5.97603E-01
 +6.72722E-02 -2.94972E-01 -3.56762E-02 -7.32696E-03 -3.18793E-01 +1.44035E-01 -6.82661E-01 +7.37586E-02
 -9.94221E-01 -2.42117E-01 -1.12142E+00 -7.55973E-01 -9.69006E-01 -1.35670E+00 -5.06383E-01 -1.89453E+00
 +2.19704E-01 -2.21683E+00 +1.09131E+00 -2.20630E+00 +1.94336E+00 -1.81215E+00 +2.60016E+00 -1.06637E+00
 +2.91605E+00 -8.07194E-02 +2.81024E+00 +9.75336E-01 +2.28748E+00 +1.91107E+00 +1.43921E+00 +2.55680E+00
 +4.24528E-01 +2.80223E+00 -5.64913E-01 +2.62156E+00 -1.34800E+00 +2.07931E+00 -1.79522E+00 +1.31501E+00
 -1.85790E+00 +5.10305E-01 -1.57851E+00 -1.54234E-01 -1.07932E+00 -5.42181E-01 -5.31844E-01 -5.94169E-01
 -1.13969E-01 -3.42471E-01 +3.51204E-02 +9.65088E-02 -1.48526E-01 +5.50522E-01 -6.34568E-01 +8.34243E-01
 -1.30184E+00 +7.96667E-01 -1.96418E+00 +3.61950E-01 -2.41312E+00 -4.46202E-01 -2.46810E+00 -1.50293E+00
 -2.02241E+00 -2.60457E+00 -1.07433E+00 -3.51065E+00 +2.64527E-01 -3.99644E+00 +1.78616E+00 -3.90460E+00
 +3.22560E+00 -3.18394E+00 +4.31447E+00 -1.90640E+00 +4.83731E+00 -2.57757E-01 +4.67814E+00 +1.49659E+00
 +3.84694E+00 +3.06368E+00 +2.47983E+00 +4.18185E+00 +8.12502E-01 +4.67370E+00 -8.67378E-01 +4.48158E+00
 -2.27884E+00 +3.67777E+00 -3.20441E+00 +2.44711E+00 -3.53286E+00 +1.04591E+00 -3.27850E+00 -2.53734E-01
 -2.57304E+00 -1.22211E+00 -1.63204E+00 -1.71949E+00 -7.03562E-01 -1.72287E+00 -1.06391E-02 -1.32608E+00
 +2.99406E-01 -7.13406E-01 +1.87534E-01 -1.12987E-01 -2.69877E-01 +2.59414E-01 -9.00857E-01 +2.53389E-01
 -1.48006E+00 -1.78448E-01 -1.78382E+00 -9.66748E-01 -1.64543E+00 -1.93892E+00 -9.98228E-01 -2.85696E+00
 +1.03623E-01 -3.47128E+00 +1.49147E+00 -3.57854E+00 +2.91461E+00 -3.07062E+00 +4.09196E+00 -1.96355E+00
 +4.77174E+00 -3.99884E-01 +4.78618E+00 +1.37637E+00 +4.08925E+00 +3.06715E+00 +2.76918E+00 +4.37987E+00
 +1.03287E+00 +5.08644E+00 -8.34457E-01 +5.06907E+00 -2.52573E+00 +4.34324E+00 -3.77255E+00 +3.05298E+00
 -4.39701E+00 +1.43988E+00 -4.34371E+00 -2.07402E-01 -3.68594E+00 -1.61200E+00 -2.60481E+00 -2.56342E+00
 -1.34683E+00 -2.95641E+00 -1.69354E-01 -2.80606E+00 +7.13993E-01 -2.23684E+00 +1.17599E+00 -1.44845E+00
 +1.19783E+00 -6.66962E-01 +8.66122E-01 -9.22412E-02 +3.46586E-01 +1.46554E-01 -1.59279E-01 +1.76963E-02
 -4.64136E-01 -4.09575E-01 -4.40067E-01 -9.84918E-01 -4.90155E-02 -1.51510E+00 +6.48170E-01 -1.81152E+00
 +1.50573E+00 -1.73615E+00 +2.32649E+00 -1.23548E+00 +2.90709E+00 -3.55077E-01 +3.08459E+00 +7.68399E-01
 +2.77409E+00 +1.93554E+00 +1.98911E+00 +2.92651E+00 +8.40404E-01 +3.54775E+00 -4.86135E-01 +3.67285E+00
 -1.76752E+00 +3.26883E+00 -2.78900E+00 +2.40228E+00 -3.38692E+00 +1.22460E+00 -3.47984E+00 -6.00236E-02
 -3.08184E+00 -1.23665E+00 -2.29548E+00 -2.12223E+00 -1.28693E+00 -2.59984E+00 -2.49180E-01 -2.63762E+00
 +6.38329E-01 -2.28890E+00 +1.24465E+00 -1.67460E+00 +1.50979E+00 -9.52567E-01 +1.45040E+00 -2.81253E-01
 +1.14855E+00 +2.14002E-01 +7.27067E-01 +4.64778E-01 +3.17828E-01 +4.68839E-01 +3.05587E-02 +2.83718E-01
 -7.07616E-02 +7.12897E-03 +2.09976E-02 -2.50448E-01 +2.59277E-01 -3.94115E-01 +5.59596E-01 -3.67165E-01
 +8.23428E-01 -1.62940E-01 +9.64016E-01 +1.76211E-01 +9.27830E-01 +5.71911E-01 +7.06742E-01 +9.30872E-01
 +3.38468E-01 +1.16862E+00 -1.04236E-01 +1.22992E+00 -5.32434E-01 +1.10117E+00 -8.62941E-01 +8.11984E-01
 -1.03781E+00 +4.26278E-01 -1.03673E+00 +2.53987E-02 -8.79589E-01 -3.12090E-01 -6.19134E-01 -5.28839E-01
 -3.25901E-01 -6.00865E-01 -6.96969E-02 -5.40685E-01 +9.75880E-02 -3.91101E-01 +1.53508E-01 -2.11664E-01
 +1.08218E-01 -6.16768E-02 -1.17456E-03 +1.56620E-02 -1.23179E-01 +3.81607E-03 -2.07757E-01 -8.44655E-02
 -2.20968E-01 -2.12910E-01 -1.54401E-01 -3.34033E-01 -2.68092E-02 -4.04413E-01 +1.22441E-01 -3.98511E-01
 +2.46232E-01 -3.17047E-01 +3.05188E-01 -1.87384E-01 +2.81325E-01 -5.56086E-02 +1.85731E-01 +2.77133E-02
 +5.77128E-02 +2.42131E-02 -4.49093E-02 -7.78932E-02 -6.21933E-02 -2.56080E-01 +4.89988E-02 -4.55233E-01
 +2.98680E-01 -5.99196E-01 +6.54831E-01 -6.09871E-01 +1.04509E+00 -4.29395E-01 +1.36968E+00 -3.97375E-02
 +1.52326E+00 +5.25709E-01 +1.42105E+00 +1.18236E+00 +1.02287E+00 +1.80759E+00 +3.49009E-01 +2.26475E+00
 -5.16797E-01 +2.43313E+00 -1.43901E+00 +2.23713E+00 -2.25508E+00 +1.66765E+00 -2.80842E+00 +7.89948E-01
 -2.98250E+00 -2.64630E-01 -2.72821E+00 -1.32237E+00 -2.07773E+00 -2.20168E+00 -1.14116E+00 -2.75107E+00
 -8.55594E-02 -2.88216E+00 +8.99337E-01 -2.58979E+00 +1.64167E+00 -1.95426E+00 +2.02508E+00 -1.12441E+00
 +2.01472E+00 -2.84625E-01 +1.66518E+00 +3.87001E-01 +1.10786E+00 +7.60124E-01 +5.20006E-01 +7.83450E-01
 +8.19756E-02 +4.98195E-01 -6.77076E-02 +2.98423E-02 +1.31069E-01 -4.40761E-01 +6.40761E-01 -7.21037E-01
 +1.32963E+00 -6.55439E-01 +1.99822E+00 -1.68067E-01 +2.42389E+00 +7.11192E-01 +2.41381E+00 +1.84402E+00
 +1.85478E+00 +3.00646E+00 +7.47980E-01 +3.93333E+00 -7.79990E-01 +4.37526E+00 -2.49374E+00 +4.15624E+00
 -4.09109E+00 +3.21863E+00 -5.26239E+00 +1.64505E+00 -5.75503E+00 -3.48932E-01 -5.42906E+00 -2.45091E+00
 -4.29158E+00 -4.31011E+00 -2.50160E+00 -5.60626E+00 -3.43221E-01 -6.11450E+00 +1.82794E+00 -5.75216E+00
 +3.65440E+00 -4.59707E+00 +4.84800E+00 -2.87261E+00 +5.24720E+00 -9.02287E-01 +4.84823E+00 +9.56975E-01
 +3.80283E+00 +2.38874E+00 +2.38272E+00 +3.18210E+00 +9.18376E-01 +3.27372E+00 -2.74801E-01 +2.75736E+00
 -9.66663E-01 +1.85851E+00 -1.06318E+00 +8.79549E-01 -6.26411E-01 +1.27280E-01 +1.41328E-01 -1.60965E-01
 +9.46046E-01 +1.24008E-01 +1.47299E+00 +9.33452E-01 +1.46426E+00 +2.06715E+00 +7.85506E-01 +3.21559E+00
 -5.33576E-01 +4.02928E+00 -2.29514E+00 +4.20028E+00 -4.16749E+00 +3.53800E+00 -5.75137E+00 +2.02207E+00
 -6.66474E+00 -1.80380E-01 -6.62780E+00 -2.73798E+00 -5.52967E+00 -5.21525E+00 -3.46167E+00 -7.15774E+00
 -7.08905E-01 -8.18450E+00 +2.29912E+00 -8.06831E+00 +5.06937E+00 -6.78617E+00 +7.14117E+00 -4.52882E+00
 +8.17707E+00 -1.66650E+00 +8.02949E+00 +1.32250E+00 +6.76890E+00 +3.94571E+00 +4.66730E+00 +5.79330E+00
 +2.14037E+00 +6.61735E+00 -3.39583E-01 +6.37688E+00 -2.34121E+00 +5.23911E+00 -3.56149E+00 +3.53685E+00
 -3.88416E+00 +1.69145E+00 -3.39670E+00 +1.18095E-01 -2.36248E+00 -8.65695E-01 -1.15446E+00 -1.10852E+00
