 Created: 16-Jan-2021
 $NMID
 ID='D:\BASISSIMULATI'
 FMTDAT='(8E13.5)'
 VOLUME=   1.00000E+00
 TRAMP=   1.00000E+00
 $END
 +4.28682E+01 +3.63187E+00 +3.00404E+01 +3.00458E+01 +3.47195E+00 +4.10130E+01 -2.26312E+01 +3.18826E+01
 -3.52567E+01 +8.99078E+00 -2.97116E+01 -1.46375E+01 -1.14517E+01 -2.71069E+01 +8.07429E+00 -2.41182E+01
 +1.85879E+01 -1.03854E+01 +1.66163E+01 +4.33228E+00 +6.41430E+00 +1.16292E+01 -3.81451E+00 +9.15744E+00
 -7.51523E+00 +1.00866E+00 -3.53941E+00 -5.88356E+00 +3.99795E+00 -6.55743E+00 +9.12346E+00 -8.92512E-01
 +8.07572E+00 +6.97619E+00 +1.39385E+00 +1.18201E+01 -6.97550E+00 +1.06772E+01 -1.25026E+01 +4.28247E+00
 -1.27297E+01 -3.96768E+00 -8.15234E+00 -1.03780E+01 -1.19945E+00 -1.28757E+01 +5.53480E+00 -1.14169E+01
 +1.04286E+01 -7.10532E+00 +1.27938E+01 -1.12934E+00 +1.22083E+01 +5.53978E+00 +8.21650E+00 +1.16644E+01
 +8.94934E-01 +1.53003E+01 -8.20781E+00 +1.42635E+01 -1.58294E+01 +7.54510E+00 -1.81647E+01 -3.28920E+00
 -1.30612E+01 -1.40035E+01 -1.84760E+00 -1.94585E+01 +1.06626E+01 -1.64650E+01 +1.84010E+01 -5.97466E+00
 +1.73996E+01 +6.97589E+00 +8.23730E+00 +1.58261E+01 -4.06918E+00 +1.61772E+01 -1.28476E+01 +8.37088E+00
 -1.36279E+01 -2.69907E+00 -6.72512E+00 -1.05098E+01 +3.06669E+00 -1.08112E+01 +9.49179E+00 -4.10594E+00
 +8.68920E+00 +4.81316E+00 +1.49876E+00 +9.94927E+00 -7.18092E+00 +7.86154E+00 -1.15271E+01 -2.33797E-01
 -8.43345E+00 -9.27716E+00 +5.87498E-01 -1.35217E+01 +1.03506E+01 -1.00440E+01 +1.51303E+01 -4.77766E-01
 +1.20282E+01 +9.99776E+00 +2.57983E+00 +1.57017E+01 -8.24496E+00 +1.36512E+01 -1.49158E+01 +5.07494E+00
 -1.43348E+01 -5.49486E+00 -7.27558E+00 -1.28436E+01 +2.36981E+00 -1.38108E+01 +9.88627E+00 -8.65358E+00
 +1.21635E+01 -4.88928E-01 +8.96974E+00 +6.62448E+00 +2.60057E+00 +9.76345E+00 -3.63664E+00 +8.30106E+00
 -7.12652E+00 +3.75233E+00 -6.97212E+00 -1.34302E+00 -4.01362E+00 -4.75120E+00 -8.10160E-02 -5.42509E+00
 +2.98615E+00 -3.66703E+00 +4.07703E+00 -7.08170E-01 +3.09032E+00 +1.96203E+00 +7.91767E-01 +3.20866E+00
 -1.59672E+00 +2.63255E+00 -2.91189E+00 +6.60080E-01 -2.52185E+00 -1.65925E+00 -6.10268E-01 -3.10053E+00
 +1.86271E+00 -2.82562E+00 +3.56907E+00 -8.32762E-01 +3.46438E+00 +1.95369E+00 +1.38177E+00 +4.07265E+00
 -1.77306E+00 +4.26415E+00 -4.40084E+00 +2.19056E+00 -5.02365E+00 -1.27691E+00 -3.11688E+00 -4.42502E+00
 +5.20885E-01 -5.57340E+00 +4.11215E+00 -3.99796E+00 +5.81145E+00 -3.78271E-01 +4.69661E+00 +3.50975E+00
 +1.28649E+00 +5.71191E+00 -2.71460E+00 +5.12773E+00 -5.31207E+00 +2.08755E+00 -5.26384E+00 -1.83925E+00
 -2.70245E+00 -4.68858E+00 +9.86266E-01 -5.12547E+00 +3.93339E+00 -3.09363E+00 +4.76470E+00 +2.34227E-01
 +3.25896E+00 +3.13595E+00 +3.65924E-01 +4.24954E+00 -2.37348E+00 +3.22236E+00 -3.65292E+00 +7.88988E-01
 -3.02582E+00 -1.70694E+00 -1.03284E+00 -3.04625E+00 +1.17869E+00 -2.72433E+00 +2.49444E+00 -1.11741E+00
 +2.38162E+00 +8.08841E-01 +1.08407E+00 +2.04909E+00 -5.90745E-01 +2.06313E+00 -1.73928E+00 +9.91716E-01
 -1.82443E+00 -4.89107E-01 -9.06469E-01 -1.56297E+00 +4.45308E-01 -1.69709E+00 +1.48447E+00 -8.85156E-01
 +1.67759E+00 +3.91742E-01 +9.57552E-01 +1.44228E+00 -2.72392E-01 +1.72575E+00 -1.36745E+00 +1.11466E+00
 -1.77593E+00 -6.26795E-02 -1.30950E+00 -1.20740E+00 -2.19767E-01 -1.75951E+00 +9.46570E-01 -1.47258E+00
 +1.63115E+00 -5.19474E-01 +1.53817E+00 +6.14932E-01 +7.63269E-01 +1.38903E+00 -2.78817E-01 +1.47215E+00
 -1.07919E+00 +8.90135E-01 -1.28981E+00 -1.53915E-02 -8.79359E-01 -7.80064E-01 -1.20536E-01 -1.05434E+00
 +5.71028E-01 -7.64397E-01 +8.54117E-01 -1.23791E-01 +6.24316E-01 +4.96738E-01 +4.72471E-02 +7.65775E-01
 -5.42515E-01 +5.53546E-01 -8.17689E-01 -1.49603E-02 -6.20370E-01 -6.33252E-01 -3.45409E-02 -9.69974E-01
 +6.59562E-01 -8.30865E-01 +1.12213E+00 -2.50769E-01 +1.11486E+00 +5.23671E-01 +6.11984E-01 +1.14910E+00
 -1.88191E-01 +1.34336E+00 -9.54781E-01 +1.01312E+00 -1.37524E+00 +2.92729E-01 -1.29450E+00 -5.22882E-01
 -7.76079E-01 -1.11817E+00 -5.65282E-02 -1.29995E+00 +5.80993E-01 -1.07132E+00 +9.45052E-01 -6.00358E-01
 +1.01006E+00 -1.05888E-01 +8.87244E-01 +2.69506E-01 +7.16074E-01 +5.20789E-01 +5.50629E-01 +7.38912E-01
 +3.20639E-01 +9.96489E-01 -1.00391E-01 +1.24256E+00 -7.60614E-01 +1.28865E+00 -1.52151E+00 +9.12538E-01
 -2.06278E+00 +2.66263E-02 -2.02234E+00 -1.19537E+00 -1.20615E+00 -2.32805E+00 +2.52724E-01 -2.86088E+00
 +1.89026E+00 -2.44692E+00 +3.08573E+00 -1.10118E+00 +3.33475E+00 +7.65715E-01 +2.48157E+00 +2.50565E+00
 +7.91117E-01 +3.50484E+00 -1.17067E+00 +3.43131E+00 -2.77630E+00 +2.34097E+00 -3.56928E+00 +6.10480E-01
 -3.38594E+00 -1.24061E+00 -2.34152E+00 -2.73240E+00 -7.33317E-01 -3.53316E+00 +1.06057E+00 -3.48451E+00
 +2.64339E+00 -2.58952E+00 +3.63858E+00 -1.01221E+00 +3.75096E+00 +9.10596E-01 +2.86869E+00 +2.69337E+00
 +1.16273E+00 +3.81233E+00 -9.01218E-01 +3.89446E+00 -2.69661E+00 +2.89810E+00 -3.68420E+00 +1.16545E+00
 -3.64781E+00 -7.17833E-01 -2.76952E+00 -2.19977E+00 -1.48105E+00 -3.01363E+00 -1.78183E-01 -3.23638E+00
 +1.00462E+00 -3.10694E+00 +2.18338E+00 -2.73333E+00 +3.46334E+00 -1.92471E+00 +4.61627E+00 -3.24885E-01
 +4.98004E+00 +2.18899E+00 +3.75421E+00 +5.11031E+00 +5.91803E-01 +7.25434E+00 -3.87736E+00 +7.23046E+00
 -8.01159E+00 +4.26459E+00 -9.79119E+00 -1.10117E+00 -7.87972E+00 -6.93819E+00 -2.52799E+00 -1.06864E+01
 +4.27669E+00 -1.04286E+01 +9.63311E+00 -5.99453E+00 +1.11597E+01 +7.88855E-01 +8.25781E+00 +6.93789E+00
 +2.45227E+00 +9.83510E+00 -3.43633E+00 +8.58206E+00 -6.83772E+00 +4.38567E+00 -6.79063E+00 -2.58198E-01
 -4.30365E+00 -3.08678E+00 -1.51791E+00 -3.35713E+00 -2.25036E-01 -2.10155E+00 -7.06254E-01 -1.21502E+00
 -1.65034E+00 -1.99780E+00 -1.19945E+00 -4.13932E+00 +1.58199E+00 -5.84653E+00 +5.81981E+00 -5.06315E+00
 +9.16446E+00 -9.88040E-01 +9.18720E+00 +5.12621E+00 +4.96622E+00 +1.04687E+01 -2.15990E+00 +1.22011E+01
 -9.17639E+00 +9.09199E+00 -1.29729E+01 +2.25096E+00 -1.19607E+01 -5.46622E+00 -6.77756E+00 -1.09751E+01
 +2.56470E-01 -1.24578E+01 +6.47725E+00 -9.98523E+00 +1.01216E+01 -5.05023E+00 +1.07790E+01 +4.96764E-01
 +8.98504E+00 +5.31742E+00 +5.48596E+00 +8.76152E+00 +8.40204E-01 +1.04682E+01 -4.38567E+00 +9.96808E+00
 -9.15895E+00 +6.80254E+00 -1.18871E+01 +1.15253E+00 -1.10477E+01 -5.58638E+00 -6.25764E+00 -1.09612E+01
 +1.01198E+00 -1.25485E+01 +7.79589E+00 -9.41445E+00 +1.11005E+01 -2.94125E+00 +9.65800E+00 +3.71725E+00
 +4.78457E+00 +7.40362E+00 -3.74219E-01 +6.88669E+00 -2.86420E+00 +3.63278E+00 -1.91632E+00 +7.71013E-01
 +5.00190E-01 +8.27879E-01 +1.09080E+00 +3.74902E+00 -2.22150E+00 +6.67661E+00 -8.36519E+00 +5.84029E+00
 -1.32959E+01 -5.65188E-01 -1.24352E+01 -1.04810E+01 -3.93864E+00 -1.85667E+01 +9.39186E+00 -1.92024E+01
 +2.10487E+01 -1.01701E+01 +2.43320E+01 +5.37102E+00 +1.64136E+01 +2.00957E+01 +3.97552E-01 +2.64239E+01
 -1.60625E+01 +2.08709E+01 -2.49180E+01 +6.16943E+00 -2.22094E+01 -1.02064E+01 -1.01692E+01 -2.02746E+01
 +4.30927E+00 -1.99767E+01 +1.38427E+01 -1.11381E+01 +1.47514E+01 +1.33127E-01 +8.72993E+00 +7.45545E+00
 +1.12431E+00 +7.97879E+00 -2.87196E+00 +3.63077E+00 -1.53884E+00 -7.94858E-01 +2.63817E+00 -1.23806E+00
 +5.12057E+00 +2.82270E+00 +2.73328E+00 +8.17729E+00 -4.02532E+00 +1.02842E+01 -1.12851E+01 +6.51486E+00
 -1.43967E+01 -1.98175E+00 -1.09778E+01 -1.09768E+01 -2.37904E+00 -1.58282E+01 +7.28455E+00 -1.42514E+01
 +1.37112E+01 -7.40156E+00 +1.47794E+01 +1.24673E+00 +1.12166E+01 +8.21066E+00 +5.41049E+00 +1.18042E+01
 -4.79512E-01 +1.23191E+01 -5.60644E+00 +1.08003E+01 -1.00319E+01 +7.68741E+00 -1.34485E+01 +2.57333E+00
 -1.43923E+01 -4.71458E+00 -1.09052E+01 -1.27360E+01 -2.34682E+00 -1.82003E+01 +9.07634E+00 -1.75174E+01
 +1.85588E+01 -9.33165E+00 +2.10512E+01 +3.77607E+00 +1.44359E+01 +1.59433E+01 +1.37533E+00 +2.10535E+01
 -1.16896E+01 +1.64124E+01 -1.80915E+01 +4.65702E+00 -1.49358E+01 -7.56801E+00 -4.94017E+00 -1.35573E+01
 +5.23321E+00 -1.06850E+01 +9.22798E+00 -2.02498E+00 +5.12236E+00 +5.71828E+00 -3.30773E+00 +6.71799E+00
 -9.12536E+00 +4.07238E-02 -6.99098E+00 -9.54175E+00 +2.98013E+00 -1.46037E+01 +1.48888E+01 -1.00779E+01
 +2.06170E+01 +3.04303E+00 +1.50833E+01 +1.78268E+01 -1.87365E-01 +2.54154E+01 -1.75476E+01 +2.04738E+01
 -2.75638E+01 +4.64563E+00 -2.45544E+01 -1.41822E+01 -9.91986E+00 -2.63672E+01 +8.73712E+00 -2.59860E+01
 +2.20634E+01 -1.39848E+01 +2.41843E+01 +2.76928E+00 +1.55792E+01 +1.57328E+01 +2.09605E+00 +1.94834E+01
 -8.95605E+00 +1.42050E+01 -1.30172E+01 +4.65485E+00 -1.02598E+01 -3.33234E+00 -4.47146E+00 -6.36449E+00
 +6.16501E-03 -4.89431E+00 +1.06887E+00 -1.98168E+00 -3.54438E-01 -6.51937E-01 -1.67293E+00 -1.81416E+00
 -8.81318E-01 -4.03614E+00 +2.00686E+00 -5.02000E+00 +5.21709E+00 -3.46890E+00 +6.71837E+00 +5.23002E-02
 +5.69331E+00 +3.73778E+00 +2.89218E+00 +5.96216E+00 -2.26321E-01 +6.30518E+00 -2.70625E+00 +5.43718E+00
 -4.60077E+00 +4.12506E+00 -6.39479E+00 +2.34722E+00 -7.94175E+00 -6.17245E-01 -7.98582E+00 -5.12980E+00
 -4.90446E+00 -1.00836E+01 +1.72669E+00 -1.28648E+01 +9.96972E+00 -1.07665E+01 +1.59055E+01 -3.06829E+00
 +1.56853E+01 +7.71870E+00 +8.10069E+00 +1.65935E+01 -4.07215E+00 +1.86701E+01 -1.50927E+01 +1.21700E+01
 -1.92930E+01 -1.36936E-01 -1.43859E+01 -1.21523E+01 -2.96596E+00 -1.77788E+01 +8.84611E+00 -1.44115E+01
 +1.48958E+01 -4.43526E+00 +1.25290E+01 +6.23373E+00 +4.00734E+00 +1.16948E+01 -5.04778E+00 +9.51849E+00
 -9.18235E+00 +2.00076E+00 -6.39785E+00 -5.50002E+00 +8.14899E-01 -8.03004E+00 +7.25559E+00 -4.11003E+00
 +8.40310E+00 +3.47581E+00 +3.25390E+00 +9.57239E+00 -5.12151E+00 +9.95265E+00 -1.15532E+01 +3.93627E+00
 -1.19624E+01 -5.24141E+00 -5.78143E+00 -1.24269E+01 +3.79941E+00 -1.35945E+01 +1.17716E+01 -8.08387E+00
 +1.41538E+01 +1.20776E+00 +1.00473E+01 +9.61648E+00 +1.83029E+00 +1.32876E+01 -6.40084E+00 +1.10307E+01
 -1.10662E+01 +4.55078E+00 -1.07255E+01 -2.81473E+00 -6.35627E+00 -7.93028E+00 -4.20529E-01 -9.21770E+00
 +4.53202E+00 -6.97151E+00 +6.92493E+00 -2.75977E+00 +6.48735E+00 +1.52869E+00 +3.96796E+00 +4.44119E+00
 +6.04003E-01 +5.29083E+00 -2.34513E+00 +4.14771E+00 -3.91474E+00 +1.68453E+00 -3.66353E+00 -1.03449E+00
