 Created: 16-Jan-2021
 $NMID
 ID='D:\BASISSIMULATI'
 FMTDAT='(8E13.5)'
 VOLUME=   1.00000E+00
 TRAMP=   1.00000E+00
 $END
 +6.03616E+01 +6.11227E+00 +5.55714E+01 +2.24324E+01 +4.53759E+01 +3.60442E+01 +3.10971E+01 +4.53242E+01
 +1.45396E+01 +4.92424E+01 -2.26398E+00 +4.74870E+01 -1.73328E+01 +4.04861E+01 -2.90012E+01 +2.93228E+01
 -3.61271E+01 +1.55620E+01 -3.82189E+01 +1.01630E+00 -3.54627E+01 -1.25123E+01 -2.86540E+01 -2.34757E+01
 -1.90457E+01 -3.07728E+01 -8.14140E+00 -3.38675E+01 +2.53294E+00 -3.28178E+01 +1.16441E+01 -2.82185E+01
 +1.82216E+01 -2.10699E+01 +2.17614E+01 -1.25988E+01 +2.22514E+01 -4.06235E+00 +2.01222E+01 +3.43658E+00
 +1.61356E+01 +9.09295E+00 +1.12332E+01 +1.24853E+01 +6.37183E+00 +1.35949E+01 +2.37243E+00 +1.27609E+01
 -1.96253E-01 +1.05851E+01 -1.08285E+00 +7.80382E+00 -3.62604E-01 +5.15157E+00 +1.60633E+00 +3.23775E+00
 +4.26796E+00 +2.45466E+00 +6.97806E+00 +2.92868E+00 +9.11925E+00 +4.51866E+00 +1.02030E+01 +6.85768E+00
 +9.94390E+00 +9.42824E+00 +8.29735E+00 +1.16566E+01 +5.45721E+00 +1.30105E+01 +1.81750E+00 +1.30848E+01
 -2.09386E+00 +1.16642E+01 -5.69746E+00 +8.75461E+00 -8.44818E+00 +4.58150E+00 -9.91211E+00 -4.42362E-01
 -9.82504E+00 -5.77344E+00 -8.12588E+00 -1.08091E+01 -4.96264E+00 -1.49645E+01 -6.71908E-01 -1.77444E+01
 +4.26402E+00 -1.88026E+01 +9.27609E+00 -1.79816E+01 +1.37760E+01 -1.53300E+01 +1.72246E+01 -1.10966E+01
 +1.91933E+01 -5.70249E+00 +1.94133E+01 +3.05187E-01 +1.78065E+01 +6.31265E+00 +1.44961E+01 +1.17056E+01
 +9.79569E+00 +1.59359E+01 +4.17693E+00 +1.85812E+01 -1.77981E+00 +1.93916E+01 -7.44835E+00 +1.83188E+01
 -1.22259E+01 +1.55223E+01 -1.56016E+01 +1.13531E+01 -1.72159E+01 +6.31420E+00 -1.69042E+01 +1.00337E+00
 -1.47188E+01 -3.95735E+00 -1.09245E+01 -7.99617E+00 -5.96897E+00 -1.06614E+01 -4.29236E-01 -1.16774E+01
 +5.05839E+00 -1.09788E+01 +9.87733E+00 -8.71813E+00 +1.35078E+01 -5.24464E+00 +1.55914E+01 -1.05686E+00
 +1.59748E+01 +3.26520E+00 +1.47253E+01 +7.13912E+00 +1.21162E+01 +1.00594E+01 +8.58412E+00 +1.16655E+01
 +4.66371E+00 +1.17893E+01 +9.09411E-01 +1.04743E+01 -2.18397E+00 +7.96423E+00 -4.25054E+00 +4.66235E+00
 -5.10189E+00 +1.06851E+00 -4.74795E+00 -2.29746E+00 -3.38733E+00 -4.97359E+00 -1.36887E+00 -6.62325E+00
 +8.69121E-01 -7.08199E+00 +2.87224E+00 -6.37684E+00 +4.24435E+00 -4.71543E+00 +4.71109E+00 -2.44712E+00
 +4.16286E+00 -2.73674E-03 +2.67055E+00 +2.17738E+00 +4.71943E-01 +3.71535E+00 -2.06855E+00 +4.35646E+00
 -4.52042E+00 +4.00906E+00 -6.45770E+00 +2.75765E+00 -7.52870E+00 +8.47416E-01 -7.51366E+00 -1.35695E+00
 -6.36144E+00 -3.43149E+00 -4.19961E+00 -4.96242E+00 -1.31670E+00 -5.61399E+00 +1.88058E+00 -5.18404E+00
 +4.92823E+00 -3.63888E+00 +7.37469E+00 -1.12213E+00 +8.84858E+00 +2.06349E+00 +9.11451E+00 +5.49861E+00
 +8.10860E+00 +8.70730E+00 +5.94871E+00 +1.12257E+01 +2.91827E+00 +1.26694E+01 -5.73777E-01 +1.27886E+01
 -4.05069E+00 +1.15056E+01 -7.03483E+00 +8.92607E+00 -9.11418E+00 +5.32658E+00 -9.99891E+00 +1.11719E+00
 -9.56055E+00 -3.21304E+00 -7.84830E+00 -7.16091E+00 -5.08096E+00 -1.02749E+01 -1.61588E+00 -1.22128E+01
 +2.10023E+00 -1.27843E+01 +5.59162E+00 -1.19717E+01 +8.41655E+00 -9.92839E+00 +1.02244E+01 -6.95378E+00
 +1.07996E+01 -3.45072E+00 +1.00864E+01 +1.30036E-01 +8.19208E+00 +3.34964E+00 +5.36853E+00 +5.83751E+00
 +1.97535E+00 +7.33669E+00 -1.57024E+00 +7.73253E+00 -4.84946E+00 +7.06127E+00 -7.49642E+00 +5.49811E+00
 -9.24355E+00 +3.32697E+00 -9.95233E+00 +8.96526E-01 -9.62541E+00 -1.43084E+00 -8.39917E+00 -3.33017E+00
 -6.51829E+00 -4.55782E+00 -4.29634E+00 -4.98240E+00 -2.06840E+00 -4.59861E+00 -1.42570E-01 -3.52267E+00
 +1.24277E+00 -1.97026E+00 +1.94995E+00 -2.20794E-01 +1.95716E+00 +1.42662E+00 +1.35592E+00 +2.69892E+00
 +3.31806E-01 +3.38974E+00 -8.68497E-01 +3.38921E+00 -1.97848E+00 +2.69862E+00 -2.75520E+00 +1.42809E+00
 -3.01816E+00 -2.22146E-01 -2.67798E+00 -1.99381E+00 -1.75058E+00 -3.61101E+00 -3.54900E-01 -4.82296E+00
 +1.30522E+00 -5.44237E+00 +2.97235E+00 -5.37408E+00 +4.37495E+00 -4.62946E+00 +5.26925E+00 -3.32473E+00
 +5.47702E+00 -1.66352E+00 +4.91385E+00 +9.36971E-02 +3.60354E+00 +1.66853E+00 +1.67671E+00 +2.80632E+00
 -6.46287E-01 +3.31422E+00 -3.08552E+00 +3.09024E+00 -5.34037E+00 +2.13900E+00 -7.13142E+00 +5.71971E-01
 -8.23946E+00 -1.40775E+00 -8.53598E+00 -3.53389E+00 -8.00088E+00 -5.51456E+00 -6.72501E+00 -7.07358E+00
 -4.89718E+00 -7.98966E+00 -2.77762E+00 -8.12801E+00 -6.61568E-01 -7.45983E+00 +1.16180E+00 -6.06719E+00
 +2.44956E+00 -4.13236E+00 +3.03866E+00 -1.91334E+00 +2.86842E+00 +2.91291E-01 +1.98872E+00 +2.18331E+00
 +5.52896E-01 +3.50595E+00 -1.20393E+00 +4.07959E+00 -2.99807E+00 +3.82714E+00 -4.53759E+00 +2.78550E+00
 -5.56422E+00 +1.10137E+00 -5.89115E+00 -9.88159E-01 -5.43129E+00 -3.18781E+00 -4.21206E+00 -5.18489E+00
 -2.37423E+00 -6.69318E+00 -1.54704E-01 -7.49381E+00 +2.14470E+00 -7.46751E+00 +4.19856E+00 -6.61335E+00
 +5.70357E+00 -5.05111E+00 +6.42240E+00 -3.00658E+00 +6.21938E+00 -7.81239E-01 +5.08270E+00 +1.28959E+00
 +3.12951E+00 +2.88447E+00 +5.92694E-01 +3.74279E+00 -2.20921E+00 +3.70393E+00 -4.91522E+00 +2.73293E+00
 -7.17211E+00 +9.28259E-01 -8.68454E+00 -1.48964E+00 -9.25772E+00 -4.20807E+00 -8.82603E+00 -6.86589E+00
 -7.46312E+00 -9.10525E+00 -5.37164E+00 -1.06237E+01 -2.85374E+00 -1.12184E+01 -2.66627E-01 -1.08167E+01
 +2.03039E+00 -9.48646E+00 +3.72913E+00 -7.42574E+00 +4.61797E+00 -4.93307E+00 +4.61232E+00 -2.36183E+00
 +3.76535E+00 -6.67829E-02 +2.25715E+00 +1.64942E+00 +3.64099E-01 +2.58118E+00 -1.58668E+00 +2.64920E+00
 -3.27039E+00 +1.90946E+00 -4.41667E+00 +5.40538E-01 -4.85210E+00 -1.18846E+00 -4.52638E+00 -2.96409E+00
 -3.51801E+00 -4.48105E+00 -2.01855E+00 -5.49232E+00 -2.98570E-01 -5.84870E+00 +1.33910E+00 -5.52116E+00
 +2.61064E+00 -4.60274E+00 +3.29848E+00 -3.28978E+00 +3.28663E+00 -1.84613E+00 +2.57822E+00 -5.56637E-01
 +1.29279E+00 +3.21997E-01 -3.55932E-01 +6.04544E-01 -2.09753E+00 +2.07544E-01 -3.65092E+00 -8.38337E-01
 -4.77086E+00 -2.39552E+00 -5.28698E+00 -4.24451E+00 -5.12892E+00 -6.12196E+00 -4.33376E+00 -7.76461E+00
 -3.03516E+00 -8.95170E+00 -1.43681E+00 -9.53823E+00 +2.24506E-01 -9.47403E+00 +1.71920E+00 -8.80582E+00
 +2.86147E+00 -7.66298E+00 +3.53579E+00 -6.23016E+00 +3.70929E+00 -4.71272E+00 +3.42872E+00 -3.30136E+00
 +2.80349E+00 -2.14253E+00 +1.97911E+00 -1.31970E+00 +1.10642E+00 -8.47957E-01 +3.13148E-01 -6.82165E-01
 -3.17223E-01 -7.35891E-01 -7.55302E-01 -9.06564E-01 -1.02341E+00 -1.10127E+00 -1.18218E+00 -1.25780E+00
 -1.30980E+00 -1.35676E+00 -1.47860E+00 -1.42268E+00 -1.73445E+00 -1.51443E+00 -2.08322E+00 -1.70741E+00
 -2.48720E+00 -2.07186E+00 -2.87200E+00 -2.65210E+00 -3.14234E+00 -3.45146E+00 -3.20307E+00 -4.42609E+00
 -2.98085E+00 -5.48908E+00 -2.44183E+00 -6.52404E+00 -1.60145E+00 -7.40521E+00 -5.24349E-01 -8.01993E+00
 +6.85511E-01 -8.28871E+00 +1.90249E+00 -8.17883E+00 +3.00079E+00 -7.70874E+00 +3.87538E+00 -6.94251E+00
 +4.45792E+00 -5.97594E+00 +4.72460E+00 -4.91730E+00 +4.69434E+00 -3.86729E+00 +4.41836E+00 -2.90244E+00
 +3.96363E+00 -2.06578E+00 +3.39450E+00 -1.36649E+00 +2.75688E+00 -7.88461E-01 +2.06908E+00 -3.05413E-01
 +1.32163E+00 +1.01385E-01 +4.86511E-01 +4.27480E-01 -4.66126E-01 +6.36157E-01 -1.54778E+00 +6.59021E-01
 -2.73288E+00 +4.07247E-01 -3.94668E+00 -2.07967E-01 -5.06398E+00 -1.24955E+00 -5.92052E+00 -2.72872E+00
 -6.33656E+00 -4.58528E+00 -6.14916E+00 -6.67934E+00 -5.24763E+00 -8.79801E+00 -3.60515E+00 -1.06779E+01
 -1.29981E+00 -1.20409E+01 +1.48049E+00 -1.26386E+01 +4.45204E+00 -1.22963E+01 +7.26762E+00 -1.09517E+01
 +9.56329E+00 -8.67641E+00 +1.10125E+01 -5.67917E+00 +1.13791E+01 -2.28594E+00 +1.05593E+01 +1.10023E+00
 +8.60567E+00 +4.05428E+00 +5.72824E+00 +6.19081E+00 +2.27009E+00 +7.22251E+00 -1.33802E+00 +7.00558E+00
 -4.63819E+00 +5.56426E+00 -7.21146E+00 +3.09010E+00 -8.73891E+00 -8.46479E-02 -9.04790E+00 -3.53531E+00
 -8.13593E+00 -6.80746E+00 -6.16826E+00 -9.48363E+00 -3.44983E+00 -1.12437E+01 -3.76250E-01 -1.19091E+01
 +2.62810E+00 -1.14639E+01 +5.17436E+00 -1.00504E+01 +6.96575E+00 -7.93979E+00 +7.83721E+00 -5.48382E+00
 +7.77238E+00 -3.05619E+00 +6.89596E+00 -9.93019E-01 +5.44368E+00 +4.57221E-01 +3.71596E+00 +1.16668E+00
 +2.02360E+00 +1.13921E+00 +6.35244E-01 +4.98797E-01 -2.64644E-01 -5.41596E-01 -6.00645E-01 -1.72435E+00
 -4.10617E-01 -2.79642E+00 +1.70311E-01 -3.55454E+00 +9.42138E-01 -3.87881E+00 +1.68222E+00 -3.74925E+00
 +2.18936E+00 -3.24324E+00 +2.32175E+00 -2.51533E+00 +2.02234E+00 -1.76371E+00 +1.32761E+00 -1.19010E+00
 +3.58860E-01 -9.60409E-01 -7.01676E-01 -1.17320E+00 -1.64509E+00 -1.84128E+00 -2.27398E+00 -2.88910E+00
 -2.43777E+00 -4.16590E+00 -2.05911E+00 -5.47165E+00 -1.14719E+00 -6.59092E+00 +2.03695E-01 -7.32854E+00
 +1.82948E+00 -7.54104E+00 +3.52244E+00 -7.15886E+00 +5.06320E+00 -6.19618E+00 +6.25318E+00 -4.74748E+00
 +6.94242E+00 -2.97206E+00 +7.04864E+00 -1.06994E+00 +6.56535E+00 +7.46832E-01 +5.55856E+00 +2.28252E+00
 +4.15373E+00 +3.38160E+00 +2.51575E+00 +3.94524E+00 +8.25640E-01 +3.93864E+00 -7.42396E-01 +3.38939E+00
 -2.04026E+00 +2.37818E+00 -2.95961E+00 +1.02433E+00 -3.43879E+00 -5.31241E-01 -3.46341E+00 -2.14282E+00
 -3.06154E+00 -3.67440E+00 -2.29538E+00 -5.01058E+00 -1.25110E+00 -6.06341E+00 -2.85570E-02 -6.77534E+00
 +1.26813E+00 -7.11925E+00 +2.53838E+00 -7.09622E+00 +3.69134E+00 -6.73212E+00 +4.65062E+00 -6.07351E+00
 +5.35791E+00 -5.18313E+00 +5.77561E+00 -4.13511E+00 +5.88859E+00 -3.00957E+00 +5.70472E+00 -1.88681E+00
 +5.25388E+00 -8.41106E-01 +4.58512E+00 +6.53752E-02 +3.76171E+00 +7.87838E-01 +2.85449E+00 +1.30242E+00
 +1.93396E+00 +1.60727E+00 +1.06236E+00 +1.72074E+00 +2.86860E-01 +1.67645E+00 -3.64829E-01 +1.51619E+00
 -8.85458E-01 +1.28135E+00 -1.28552E+00 +1.00484E+00 -1.58706E+00 +7.04750E-01 -1.81517E+00 +3.81492E-01
 -1.98862E+00 +1.90621E-02 -2.11185E+00 -4.09365E-01 -2.16995E+00 -9.32378E-01 -2.12824E+00 -1.56940E+00
 -1.93696E+00 -2.32005E+00 -1.54083E+00 -3.15623E+00 -8.91876E-01 -4.01875E+00 +3.64346E-02 -4.82015E+00
 +1.23667E+00 -5.45371E+00 +2.65906E+00 -5.80795E+00 +4.20952E+00 -5.78443E+00 +5.75522E+00 -5.31618E+00
