 Created: 16-Jan-2021
 $NMID
 ID='D:\BASISSIMULATI'
 FMTDAT='(8E13.5)'
 VOLUME=   1.00000E+00
 TRAMP=   1.00000E+00
 $END
 +5.60722E+01 +6.07371E+00 +4.26400E+01 +1.79539E+01 +9.71373E+00 +2.21916E+01 -2.48506E+01 +1.80107E+01
 -4.30315E+01 +7.93703E+00 -3.67527E+01 -3.34147E+00 -1.18415E+01 -1.07171E+01 +1.62060E+01 -1.06672E+01
 +3.16779E+01 -2.97435E+00 +2.74023E+01 +8.68919E+00 +7.75814E+00 +1.80396E+01 -1.52140E+01 +1.92009E+01
 -2.95048E+01 +1.01203E+01 -2.96238E+01 -5.66841E+00 -1.82749E+01 -2.04012E+01 -3.08101E+00 -2.62352E+01
 +8.72306E+00 -1.99348E+01 +1.39788E+01 -5.12981E+00 +1.37904E+01 +9.55715E+00 +1.10326E+01 +1.56376E+01
 +7.65740E+00 +1.00203E+01 +3.86521E+00 -3.01030E+00 -6.78181E-01 -1.45143E+01 -5.14611E+00 -1.66538E+01
 -7.21395E+00 -7.74638E+00 -4.61187E+00 +6.73243E+00 +2.64196E+00 +1.78639E+01 +1.12825E+01 +1.92063E+01
 +1.62096E+01 +1.09204E+01 +1.35649E+01 -6.54508E-01 +3.41227E+00 -7.58455E+00 -9.89739E+00 -5.84364E+00
 -2.00480E+01 +2.09366E+00 -2.23064E+01 +9.30377E+00 -1.60468E+01 +9.56270E+00 -4.77027E+00 +1.88548E+00
 +6.15188E+00 -8.76867E+00 +1.23847E+01 -1.50900E+01 +1.24095E+01 -1.27082E+01 +7.45262E+00 -3.38170E+00
 +1.73315E-01 +6.19777E+00 -6.67365E+00 +9.13974E+00 -1.08433E+01 +3.27097E+00 -1.06702E+01 -7.24914E+00
 -5.32579E+00 -1.47588E+01 +4.40399E+00 -1.33921E+01 +1.54017E+01 -3.15916E+00 +2.26638E+01 +9.99450E+00
 +2.14539E+01 +1.81411E+01 +1.03336E+01 +1.65857E+01 -6.90982E+00 +6.81011E+00 -2.22409E+01 -4.72941E+00
 -2.73801E+01 -1.09654E+01 -1.87768E+01 -8.70163E+00 -3.95669E-01 -2.86365E-01 +1.78496E+01 +8.38062E+00
 +2.55363E+01 +1.18750E+01 +1.79345E+01 +8.49949E+00 -9.13651E-01 +7.72047E-01 -2.03477E+01 -6.76778E+00
 -2.93198E+01 -1.05920E+01 -2.29010E+01 -9.94796E+00 -5.03233E+00 -6.47460E+00 +1.41206E+01 -2.44895E+00
 +2.44181E+01 +7.48902E-01 +2.15933E+01 +2.88685E+00 +9.12718E+00 +4.05962E+00 -4.69281E+00 +3.91479E+00
 -1.22596E+01 +1.85200E+00 -1.09825E+01 -1.94214E+00 -3.88470E+00 -5.72165E+00 +3.40101E+00 -6.73494E+00
 +6.73425E+00 -3.08492E+00 +5.74226E+00 +4.39354E+00 +2.99947E+00 +1.18789E+01 +1.22311E+00 +1.45680E+01
 +9.27842E-01 +9.86725E+00 +3.65179E-01 -4.24130E-01 -2.39686E+00 -1.07035E+01 -7.14871E+00 -1.48642E+01
 -1.10472E+01 -1.02679E+01 -1.05417E+01 +3.14027E-01 -4.31517E+00 +1.02597E+01 +5.09340E+00 +1.32743E+01
 +1.24426E+01 +7.45531E+00 +1.31231E+01 -3.48692E+00 +6.38390E+00 -1.26872E+01 -3.89143E+00 -1.46019E+01
 -1.15244E+01 -8.48590E+00 -1.19699E+01 +1.41146E+00 -5.17337E+00 +8.92397E+00 +4.55323E+00 +1.00837E+01
 +1.14612E+01 +5.43816E+00 +1.20211E+01 -8.70644E-01 +6.83386E+00 -4.36901E+00 -3.18326E-01 -3.37356E+00
 -5.34718E+00 +2.34663E-01 -6.47282E+00 +2.93773E+00 -4.79917E+00 +2.54817E+00 -2.73673E+00 -1.30046E-01
 -1.77243E+00 -2.18054E+00 -1.43732E+00 -1.20678E+00 -2.07973E-01 +2.44398E+00 +2.57282E+00 +5.70809E+00
 +5.53202E+00 +5.16290E+00 +6.01945E+00 -6.85367E-02 +2.32888E+00 -7.17108E+00 -4.38514E+00 -1.13054E+01
 -1.02139E+01 -9.02944E+00 -1.08800E+01 -1.00874E+00 -4.85366E+00 +8.05398E+00 +5.09434E+00 +1.23928E+01
 +1.32457E+01 +9.06654E+00 +1.44953E+01 +4.73693E-02 +7.76728E+00 -8.99231E+00 -3.09964E+00 -1.23969E+01
 -1.17024E+01 -8.20539E+00 -1.31355E+01 +7.02886E-01 -7.04327E+00 +8.69448E+00 +2.36089E+00 +1.11600E+01
 +9.23024E+00 +7.35187E+00 +9.89047E+00 +4.37661E-01 +4.92557E+00 -5.03720E+00 -1.72939E+00 -6.29825E+00
 -5.81733E+00 -3.85734E+00 -5.62252E+00 -5.10828E-01 -2.67627E+00 +1.15460E+00 -2.68066E-02 +7.05766E-01
 +3.90118E-01 -1.98284E-01 -8.23203E-01 +3.46670E-01 -1.35196E+00 +2.50778E+00 +5.32574E-01 +4.32642E+00
 +4.15391E+00 +3.32987E+00 +6.66284E+00 -1.12588E+00 +5.25454E+00 -6.74993E+00 -3.27350E-01 -9.54893E+00
 -7.04153E+00 -6.69110E+00 -1.03462E+01 +1.08028E+00 -7.39773E+00 +9.41232E+00 +6.56813E-01 +1.29690E+01
 +9.07623E+00 +9.03202E+00 +1.25094E+01 -4.39775E-01 +8.57668E+00 -9.84023E+00 -4.46316E-01 -1.34534E+01
 -9.05806E+00 -9.14486E+00 -1.21207E+01 +2.91261E-01 -8.15278E+00 +9.02416E+00 -1.00776E-01 +1.19889E+01
 +6.84407E+00 +8.00702E+00 +8.76365E+00 +1.91130E-01 +5.39675E+00 -6.45551E+00 -1.56515E-01 -8.41809E+00
 -3.98037E+00 -5.66406E+00 -4.14484E+00 -1.04290E+00 -1.73025E+00 +2.18510E+00 +5.07792E-01 +2.69746E+00
 +6.10388E-01 +1.62331E+00 -9.94716E-01 +1.04919E+00 -2.02298E+00 +1.91711E+00 -4.96314E-01 +3.11878E+00
 +3.26782E+00 +2.54547E+00 +6.54077E+00 -7.91267E-01 +6.17501E+00 -5.39137E+00 +1.23776E+00 -7.94587E+00
 -5.79648E+00 -5.74706E+00 -1.03920E+01 +9.44891E-01 -9.04495E+00 +8.49564E+00 -1.94236E+00 +1.20141E+01
 +6.81082E+00 +8.67089E+00 +1.17215E+01 -1.15920E-01 +9.53893E+00 -9.29158E+00 +1.48655E+00 -1.33110E+01
 -7.47748E+00 -9.74289E+00 -1.18889E+01 -8.70342E-01 -9.29202E+00 +7.81956E+00 -1.67003E+00 +1.12206E+01
 +6.09032E+00 +7.81714E+00 +9.52301E+00 +3.83698E-01 +7.35468E+00 -6.16641E+00 +1.90578E+00 -8.15122E+00
 -2.93143E+00 -5.32865E+00 -4.49852E+00 -5.28212E-01 -2.91303E+00 +2.78926E+00 -3.98812E-01 +3.09077E+00
 +8.29593E-01 +1.55491E+00 +3.42512E-01 +6.45867E-01 -4.47661E-01 +1.76206E+00 +1.34188E-01 +3.91582E+00
 +2.23323E+00 +4.53574E+00 +4.04824E+00 +1.76545E+00 +3.24519E+00 -3.60523E+00 -8.85558E-01 -8.23218E+00
 -6.32898E+00 -8.46227E+00 -9.38465E+00 -3.16378E+00 -7.28058E+00 +5.00127E+00 -4.73106E-01 +1.09769E+01
 +7.19728E+00 +1.05813E+01 +1.08455E+01 +3.42797E+00 +7.87445E+00 -6.57207E+00 -4.98464E-02 -1.35640E+01
 -7.88679E+00 -1.34246E+01 -1.04939E+01 -6.31341E+00 -6.08189E+00 +3.55902E+00 +2.54436E+00 +1.06951E+01
 +9.85098E+00 +1.16820E+01 +1.12750E+01 +6.96185E+00 +6.21094E+00 +2.36911E-02 -1.74894E+00 -5.15230E+00
 -7.41632E+00 -6.49488E+00 -7.56667E+00 -4.53973E+00 -2.96333E+00 -1.28760E+00 +2.48774E+00 +1.57593E+00
 +4.71590E+00 +3.62050E+00 +2.38146E+00 +5.19623E+00 -2.37098E+00 +6.25349E+00 -5.73213E+00 +5.76207E+00
 -5.16877E+00 +2.46072E+00 -1.27174E+00 -3.59448E+00 +2.81968E+00 -1.00988E+01 +3.91123E+00 -1.33135E+01
 +1.24239E+00 -1.04261E+01 -2.91201E+00 -1.88759E+00 -4.96963E+00 +8.13121E+00 -2.79035E+00 +1.38712E+01
 +2.61898E+00 +1.15629E+01 +7.72875E+00 +2.10232E+00 +8.99488E+00 -9.12163E+00 +5.41728E+00 -1.53647E+01
 -7.16195E-01 -1.27021E+01 -5.43094E+00 -2.51953E+00 -5.83983E+00 +9.34764E+00 -2.09514E+00 +1.62735E+01
 +2.84064E+00 +1.48851E+01 +5.36512E+00 +6.86521E+00 +3.73520E+00 -2.53933E+00 -8.76638E-01 -8.11844E+00
 -5.41804E+00 -7.88288E+00 -7.20032E+00 -3.76099E+00 -5.66037E+00 +3.98118E-01 -2.42863E+00 +1.82881E+00
 +1.72019E-01 +6.02684E-01 +9.17570E-01 -1.02606E+00 +3.76174E-01 -9.48630E-01 +7.91382E-02 +7.83242E-01
 +9.85188E-01 +1.92671E+00 +2.58326E+00 +5.92330E-02 +3.39546E+00 -4.97978E+00 +2.43385E+00 -1.02658E+01
 +3.21785E-01 -1.14726E+01 -9.82349E-01 -6.03102E+00 +2.23695E-01 +4.51228E+00 +3.72120E+00 +1.48181E+01
 +7.08294E+00 +1.88225E+01 +7.23087E+00 +1.36434E+01 +2.83356E+00 +1.70873E+00 -4.27740E+00 -1.04198E+01
 -9.93974E+00 -1.58891E+01 -1.03981E+01 -1.16550E+01 -5.09528E+00 -2.67924E-01 +2.57165E+00 +1.17163E+01
 +7.29711E+00 +1.76107E+01 +5.47893E+00 +1.43162E+01 -2.08745E+00 +3.72636E+00 -1.04333E+01 -8.75153E+00
 -1.35972E+01 -1.73548E+01 -8.69532E+00 -1.88072E+01 +1.91916E+00 -1.33899E+01 +1.19954E+01 -4.09950E+00
 +1.54288E+01 +5.15248E+00 +1.03184E+01 +1.11380E+01 +2.73482E-01 +1.21304E+01 -7.95716E+00 +8.08459E+00
 -8.95948E+00 +5.72677E-01 -2.22261E+00 -7.44113E+00 +7.58498E+00 -1.22906E+01 +1.37752E+01 -1.09995E+01
 +1.20667E+01 -2.99922E+00 +3.30768E+00 +8.86277E+00 -7.24882E+00 +1.90562E+01 -1.35008E+01 +2.19647E+01
 -1.24100E+01 +1.51295E+01 -5.68681E+00 +1.15125E+00 +1.71138E+00 -1.32306E+01 +5.04785E+00 -2.06923E+01
 +2.80786E+00 -1.75470E+01 -2.69420E+00 -6.01919E+00 -7.26398E+00 +6.97734E+00 -7.77335E+00 +1.39263E+01
 -4.03800E+00 +1.11568E+01 +1.48800E+00 +8.69199E-01 +5.70194E+00 -1.04921E+01 +6.94080E+00 -1.63751E+01
 +5.72978E+00 -1.40346E+01 +3.89596E+00 -5.74904E+00 +2.96043E+00 +3.23323E+00 +3.10786E+00 +8.38478E+00
 +3.40379E+00 +8.60912E+00 +2.87159E+00 +6.22736E+00 +1.41320E+00 +4.54799E+00 -1.90330E-01 +5.04422E+00
 -1.10495E+00 +6.32427E+00 -1.28628E+00 +5.61169E+00 -1.54267E+00 +1.47843E+00 -2.73473E+00 -4.42350E+00
 -4.82014E+00 -8.15151E+00 -6.64053E+00 -6.36956E+00 -6.74703E+00 +7.57329E-01 -4.65236E+00 +8.95504E+00
 -1.44581E+00 +1.22613E+01 +8.63778E-01 +7.02739E+00 +8.91711E-01 -5.21361E+00 -8.83060E-01 -1.81224E+01
 -2.27046E+00 -2.41612E+01 -9.83336E-01 -1.92264E+01 +3.41136E+00 -5.33796E+00 +8.74844E+00 +1.03792E+01
 +1.15003E+01 +1.98132E+01 +9.29150E+00 +1.85244E+01 +2.90304E+00 +8.11486E+00 -3.84435E+00 -4.99526E+00
 -6.50115E+00 -1.34384E+01 -3.15706E+00 -1.29652E+01 +3.89578E+00 -4.37967E+00 +9.37533E+00 +7.46627E+00
 +8.49444E+00 +1.66372E+01 +4.21616E-01 +1.91200E+01 -1.07386E+01 +1.43170E+01 -1.83180E+01 +4.65584E+00
 -1.73833E+01 -5.96751E+00 -8.11748E+00 -1.38545E+01 +4.06364E+00 -1.66179E+01 +1.18640E+01 -1.36847E+01
 +1.07868E+01 -6.39115E+00 +2.05454E+00 +2.29066E+00 -8.18156E+00 +8.58970E+00 -1.28337E+01 +9.40598E+00
 -8.44128E+00 +3.95798E+00 +2.67172E+00 -5.34204E+00 +1.39900E+01 -1.36356E+01 +1.90049E+01 -1.59832E+01
 +1.52197E+01 -1.02025E+01 +5.41653E+00 +1.55017E+00 -4.44804E+00 +1.36469E+01 -9.13463E+00 +2.00329E+01
 -7.18596E+00 +1.77093E+01 -1.30837E+00 +8.48524E+00 +3.87387E+00 -2.16384E+00 +4.94326E+00 -8.45437E+00
 +1.58339E+00 -7.73596E+00 -3.78539E+00 -1.82611E+00 -8.02139E+00 +4.53777E+00 -9.31476E+00 +6.98009E+00
 -7.90956E+00 +4.24041E+00 -5.29137E+00 -1.40114E+00 -2.76948E+00 -6.13570E+00 -6.55451E-01 -7.47929E+00
 +1.44509E+00 -5.86325E+00 +3.71328E+00 -3.88084E+00 +5.54589E+00 -3.89241E+00 +5.92307E+00 -5.91388E+00
 +4.41253E+00 -7.47492E+00 +1.87926E+00 -5.61346E+00 +1.47498E-01 +4.96602E-01 +7.19891E-01 +8.35234E+00
 +3.50097E+00 +1.34409E+01 +6.59013E+00 +1.22955E+01 +7.45630E+00 +5.15192E+00 +4.73475E+00 -3.78348E+00
 -6.66878E-01 -8.83124E+00 -6.03408E+00 -6.53056E+00 -8.62736E+00 +1.95572E+00 -7.52770E+00 +1.14010E+01
 -4.20270E+00 +1.57398E+01 -1.36729E+00 +1.18666E+01 -9.72970E-01 +1.54215E+00 -2.81701E+00 -9.77700E+00
