 Created: 16-Jan-2021
 $NMID
 ID='D:\BASISSIMULATI'
 FMTDAT='(8E13.5)'
 VOLUME=   1.00000E+00
 TRAMP=   1.00000E+00
 $END
 +4.15454E+01 +3.10389E+00 +2.98414E+01 +2.78065E+01 +5.25757E+00 +3.83052E+01 -1.91187E+01 +2.99875E+01
 -3.08141E+01 +8.40704E+00 -2.47114E+01 -1.40634E+01 -5.54601E+00 -2.52102E+01 +1.50826E+01 -1.96190E+01
 +2.53392E+01 -1.32942E+00 +1.96252E+01 +1.87970E+01 +1.34467E+00 +2.93136E+01 -1.93732E+01 +2.44374E+01
 -3.14852E+01 +6.88752E+00 -2.90068E+01 -1.40405E+01 -1.38835E+01 -2.78252E+01 +5.59010E+00 -2.83596E+01
 +1.96261E+01 -1.68071E+01 +2.21947E+01 -3.46962E-01 +1.38050E+01 +1.21661E+01 +5.43228E-01 +1.50124E+01
 -9.75171E+00 +8.25273E+00 -1.18208E+01 -2.98833E+00 -5.44187E+00 -1.18443E+01 +5.08846E+00 -1.35442E+01
 +1.37991E+01 -7.64045E+00 +1.63785E+01 +2.35340E+00 +1.21415E+01 +1.13526E+01 +3.78526E+00 +1.55270E+01
 -4.57007E+00 +1.39766E+01 -9.69440E+00 +8.56444E+00 -1.05991E+01 +2.35880E+00 -8.39835E+00 -2.16956E+00
 -5.11069E+00 -4.14266E+00 -2.35186E+00 -4.11259E+00 -7.16061E-01 -3.16795E+00 -1.25695E-02 -2.09212E+00
 +8.83958E-02 -1.12586E+00 -3.62462E-01 -3.16356E-01 -1.45688E+00 +3.13645E-02 -2.94072E+00 -6.83015E-01
 -3.91115E+00 -2.85744E+00 -3.11989E+00 -6.03854E+00 +1.80794E-01 -8.72492E+00 +5.40693E+00 -8.97183E+00
 +1.05074E+01 -5.57181E+00 +1.28251E+01 +9.09992E-01 +1.05923E+01 +8.01278E+00 +4.18594E+00 +1.24451E+01
 -3.71342E+00 +1.18624E+01 -9.33333E+00 +6.34863E+00 -9.82799E+00 -1.35166E+00 -4.97715E+00 -7.13621E+00
 +2.48081E+00 -7.75999E+00 +8.19717E+00 -2.73586E+00 +8.58274E+00 +5.21393E+00 +2.89311E+00 +1.15133E+01
 -6.18740E+00 +1.22199E+01 -1.38733E+01 +6.27899E+00 -1.58463E+01 -3.74593E+00 -1.06613E+01 -1.29369E+01
 -6.33770E-01 -1.66307E+01 +9.32321E+00 -1.29521E+01 +1.43056E+01 -3.86299E+00 +1.20469E+01 +5.86987E+00
 +4.12267E+00 +1.12361E+01 -4.93116E+00 +9.66909E+00 -1.00978E+01 +2.39096E+00 -8.59174E+00 -6.30917E+00
 -1.32438E+00 -1.14455E+01 +7.65273E+00 -1.00421E+01 +1.33885E+01 -2.70311E+00 +1.27079E+01 +6.77836E+00
 +5.86914E+00 +1.35113E+01 -3.65896E+00 +1.41257E+01 -1.11202E+01 +8.49906E+00 -1.30058E+01 -3.00567E-01
 -8.82627E+00 -7.75296E+00 -1.21255E+00 -1.03088E+01 +5.62858E+00 -7.18012E+00 +8.20180E+00 -5.82476E-01
 +5.50450E+00 +5.61324E+00 -6.08894E-01 +8.01631E+00 -6.58495E+00 +5.46491E+00 -9.14461E+00 -5.07496E-01
 -6.98099E+00 -6.64729E+00 -1.31069E+00 -9.78606E+00 +4.92622E+00 -8.47194E+00 +8.69818E+00 -3.58977E+00
 +8.43180E+00 +2.27193E+00 +4.68334E+00 +6.27495E+00 -3.38154E-01 +6.78375E+00 -4.04536E+00 +4.06843E+00
 -4.81401E+00 -3.11915E-02 -2.69674E+00 -3.20462E+00 +7.90496E-01 -3.89169E+00 +3.60117E+00 -1.98940E+00
 +4.25551E+00 +1.25849E+00 +2.52668E+00 +4.03998E+00 -5.83246E-01 +4.94930E+00 -3.47987E+00 +3.64286E+00
 -4.83042E+00 +8.87312E-01 -4.18180E+00 -1.94627E+00 -2.06769E+00 -3.61844E+00 +3.77811E-01 -3.59401E+00
 +2.04149E+00 -2.19468E+00 +2.35135E+00 -3.19372E-01 +1.46077E+00 +1.06784E+00 +6.07274E-02 +1.40119E+00
 -1.03186E+00 +7.15826E-01 -1.27949E+00 -4.63519E-01 -6.35173E-01 -1.44486E+00 +5.06726E-01 -1.71864E+00
 +1.55502E+00 -1.17042E+00 +2.01970E+00 -8.24317E-02 +1.72203E+00 +1.04353E+00 +8.37513E-01 +1.73662E+00
 -2.22751E-01 +1.76115E+00 -1.01878E+00 +1.19264E+00 -1.27684E+00 +3.49452E-01 -9.90571E-01 -3.74083E-01
 -3.94100E-01 -6.91000E-01 +1.69675E-01 -5.40064E-01 +4.19347E-01 -9.14352E-02 +2.64015E-01 +3.55882E-01
 -1.66876E-01 +5.31620E-01 -6.03142E-01 +3.29450E-01 -7.80658E-01 -1.45640E-01 -5.80362E-01 -6.39561E-01
 -8.85627E-02 -8.87451E-01 +4.52066E-01 -7.55384E-01 +7.74223E-01 -3.10515E-01 +7.29563E-01 +2.17638E-01
 +3.66278E-01 +5.63475E-01 -1.01584E-01 +5.69748E-01 -4.15629E-01 +2.70300E-01 -4.17315E-01 -1.34587E-01
 -1.33815E-01 -3.95668E-01 +2.42470E-01 -3.58036E-01 +4.68326E-01 -4.86977E-02 +3.92167E-01 +3.41187E-01
 +4.27589E-02 +5.68651E-01 -3.86507E-01 +4.80981E-01 -6.48462E-01 +1.05725E-01 -5.84175E-01 -3.62938E-01
 -2.14566E-01 -6.73321E-01 +2.70545E-01 -6.57916E-01 +6.18880E-01 -3.26609E-01 +6.56045E-01 +1.40932E-01
 +3.79806E-01 +4.97743E-01 -4.38644E-02 +5.67106E-01 -3.78210E-01 +3.36891E-01 -4.48988E-01 -4.09319E-02
 -2.37643E-01 -3.41988E-01 +1.16316E-01 -3.97365E-01 +4.01029E-01 -1.84314E-01 +4.53687E-01 +1.69302E-01
 +2.47431E-01 +4.64625E-01 -1.03010E-01 +5.45644E-01 -4.14686E-01 +3.80810E-01 -5.41440E-01 +6.88082E-02
 -4.48484E-01 -2.28459E-01 -2.16894E-01 -3.80800E-01 +1.74136E-02 -3.55238E-01 +1.47530E-01 -2.17295E-01
 +1.49922E-01 -7.49003E-02 +8.00835E-02 -6.03268E-03 +1.96217E-02 -1.73302E-02 +1.51212E-02 -5.66708E-02
 +5.11335E-02 -6.50958E-02 +7.33922E-02 -2.75665E-02 +4.20823E-02 +1.52266E-02 -2.65147E-02 +2.72549E-03
 -6.36352E-02 -8.85830E-02 +1.89781E-03 -2.10977E-01 +1.80866E-01 -2.64176E-01 +3.94873E-01 -1.60732E-01
 +5.09137E-01 +1.03063E-01 +4.13819E-01 +4.21421E-01 +1.05045E-01 +6.24411E-01 -2.89774E-01 +5.75245E-01
 -5.67749E-01 +2.63006E-01 -5.63011E-01 -1.69823E-01 -2.52191E-01 -4.90973E-01 +2.13267E-01 -5.04541E-01
 +5.75320E-01 -1.69609E-01 +6.06679E-01 +3.60162E-01 +2.42213E-01 +8.05579E-01 -3.71917E-01 +9.07037E-01
 -9.43883E-01 +5.67377E-01 -1.18467E+00 -8.77304E-02 -9.59796E-01 -7.67667E-01 -3.61627E-01 -1.16342E+00
 +3.36801E-01 -1.10430E+00 +8.20757E-01 -6.41585E-01 +8.90642E-01 -1.72115E-02 +5.55219E-01 +4.62028E-01
 +1.74701E-02 +5.75964E-01 -4.32571E-01 +2.91355E-01 -5.58229E-01 -2.33250E-01 -2.80501E-01 -7.30675E-01
 +2.96582E-01 -9.48154E-01 +9.39488E-01 -7.51772E-01 +1.38361E+00 -1.73161E-01 +1.43250E+00 +6.08765E-01
 +1.02527E+00 +1.33343E+00 +2.58367E-01 +1.74544E+00 -6.38748E-01 +1.67990E+00 -1.36953E+00 +1.12715E+00
 -1.66850E+00 +2.57329E-01 -1.40978E+00 -6.15709E-01 -6.86345E-01 -1.13910E+00 +1.87854E-01 -1.07216E+00
 +7.82459E-01 -4.24893E-01 +7.42619E-01 +4.94186E-01 -9.52548E-03 +1.17555E+00 -1.17360E+00 +1.13875E+00
 -2.15361E+00 +2.00438E-01 -2.32232E+00 -1.36263E+00 -1.35831E+00 -2.87148E+00 +5.20410E-01 -3.53704E+00
 +2.57784E+00 -2.86631E+00 +3.86997E+00 -9.74266E-01 +3.71671E+00 +1.38881E+00 +2.09675E+00 +3.15294E+00
 -2.65038E-01 +3.45933E+00 -2.20616E+00 +2.13989E+00 -2.70774E+00 -1.26436E-01 -1.45797E+00 -2.10294E+00
 +9.14796E-01 -2.61779E+00 +3.10053E+00 -1.21017E+00 +3.76189E+00 +1.55240E+00 +2.26140E+00 +4.28891E+00
 -9.29032E-01 +5.47941E+00 -4.38439E+00 +4.26963E+00 -6.40660E+00 +9.79809E-01 -5.89885E+00 -2.97714E+00
 -2.97782E+00 -5.76327E+00 +1.01959E+00 -6.04764E+00 +4.17260E+00 -3.72095E+00 +4.95134E+00 -1.67073E-03
 +3.02910E+00 +3.15208E+00 -5.05312E-01 +4.04457E+00 -3.67287E+00 +2.14577E+00 -4.61905E+00 -1.58516E+00
 -2.60148E+00 -5.14871E+00 +1.57055E+00 -6.51798E+00 +5.89432E+00 -4.70294E+00 +8.16779E+00 -3.10200E-01
 +7.11960E+00 +4.70924E+00 +3.09010E+00 +8.01514E+00 -2.10094E+00 +8.05744E+00 -6.04885E+00 +4.87382E+00
 -6.97217E+00 +8.66897E-02 -4.61591E+00 -3.91085E+00 -3.81001E-01 -5.17004E+00 +3.39378E+00 -3.18071E+00
 +4.63351E+00 +8.68082E-01 +2.59728E+00 +4.69838E+00 -1.73297E+00 +6.11355E+00 -6.14426E+00 +4.12933E+00
 -8.31258E+00 -5.11985E-01 -6.97820E+00 -5.70330E+00 -2.58030E+00 -9.02081E+00 +2.96329E+00 -8.92217E+00
 +7.20809E+00 -5.49146E+00 +8.37721E+00 -3.67706E-01 +6.19911E+00 +4.08774E+00 +1.98545E+00 +5.95210E+00
 -2.06425E+00 +4.64898E+00 -3.96245E+00 +1.16881E+00 -2.88718E+00 -2.47699E+00 +4.64537E-01 -4.27153E+00
 +4.26491E+00 -3.16934E+00 +6.46573E+00 +4.26711E-01 +5.77762E+00 +4.88808E+00 +2.26095E+00 +8.14420E+00
 -2.72228E+00 +8.64085E+00 -7.14167E+00 +6.03270E+00 -9.20767E+00 +1.31634E+00 -8.14719E+00 -3.62869E+00
 -4.51720E+00 -6.86864E+00 +6.08791E-02 -7.24849E+00 +3.61936E+00 -4.87741E+00 +4.70633E+00 -1.06693E+00
 +3.02796E+00 +2.25240E+00 -4.06271E-01 +3.39624E+00 -3.71443E+00 +1.70929E+00 -4.98835E+00 -2.08216E+00
 -3.20248E+00 -6.13384E+00 +1.22590E+00 -8.29002E+00 +6.51736E+00 -7.10344E+00 +1.02737E+01 -2.60287E+00
 +1.05892E+01 +3.58811E+00 +7.01996E+00 +8.90399E+00 +9.14960E-01 +1.10127E+01 -5.11832E+00 +8.97177E+00
 -8.42145E+00 +3.77642E+00 -7.60456E+00 -2.03451E+00 -3.30519E+00 -5.58651E+00 +2.05073E+00 -5.12486E+00
 +5.43114E+00 -9.72677E-01 +4.76330E+00 +4.54558E+00 +7.82853E-02 +8.23866E+00 -6.39657E+00 +7.70032E+00
 -1.13026E+01 +2.62849E+00 -1.18626E+01 -4.90520E+00 -7.36107E+00 -1.14251E+01 +4.01978E-01 -1.37944E+01
 +7.95742E+00 -1.08348E+01 +1.19019E+01 -3.96590E+00 +1.06273E+01 +3.49263E+00 +5.13630E+00 +8.00943E+00
 -1.49031E+00 +7.64433E+00 -5.70140E+00 +3.02333E+00 -5.31681E+00 -3.02173E+00 -6.41761E-01 -6.95352E+00
 +5.71753E+00 -6.37859E+00 +1.02243E+01 -1.28361E+00 +1.02413E+01 +5.96864E+00 +5.37269E+00 +1.18560E+01
 -2.35287E+00 +1.34780E+01 -9.51903E+00 +9.98464E+00 -1.30182E+01 +2.94906E+00 -1.15409E+01 -4.46262E+00
 -6.13281E+00 -9.06593E+00 +4.11026E-01 -9.17416E+00 +4.96460E+00 -5.32444E+00 +5.57979E+00 +9.56316E-02
 +2.36078E+00 +4.08599E+00 -2.67748E+00 +4.50652E+00 -6.65026E+00 +1.08051E+00 -7.21688E+00 -4.51727E+00
 -3.69791E+00 -9.49104E+00 +2.60740E+00 -1.12593E+01 +9.02576E+00 -8.67114E+00 +1.27434E+01 -2.55260E+00
 +1.21016E+01 +4.65572E+00 +7.36604E+00 +1.00036E+01 +6.17183E-01 +1.13782E+01 -5.19953E+00 +8.48021E+00
 -7.64188E+00 +2.96739E+00 -5.92732E+00 -2.32237E+00 -1.32128E+00 -4.73221E+00 +3.46037E+00 -3.09727E+00
 +5.58516E+00 +1.63834E+00 +3.54699E+00 +6.83801E+00 -2.00224E+00 +9.46501E+00 -8.48724E+00 +7.63870E+00
 -1.26453E+01 +1.66920E+00 -1.21755E+01 -5.99165E+00 -6.96263E+00 -1.19106E+01 +7.83089E-01 -1.33884E+01
 +7.58955E+00 -9.85142E+00 +1.04710E+01 -3.17562E+00 +8.45767E+00 +3.26292E+00 +3.08796E+00 +6.33686E+00
 -2.41869E+00 +4.79984E+00 -4.88596E+00 -7.41206E-02 -2.88394E+00 -5.19787E+00 +2.50713E+00 -7.35245E+00
 +8.28778E+00 -4.93620E+00 +1.11637E+01 +1.16533E+00 +9.31851E+00 +8.05505E+00 +3.37413E+00 +1.23748E+01
 -3.96749E+00 +1.20766E+01 -9.38037E+00 +7.45517E+00 -1.06536E+01 +9.05541E-01 -7.76929E+00 -4.41802E+00
 -2.76774E+00 -6.27650E+00 +1.46705E+00 -4.43778E+00 +2.78925E+00 -6.31840E-01 +8.66156E-01 +2.53503E+00
 -2.79733E+00 +3.05090E+00 -5.81910E+00 +5.32880E-01 -6.28835E+00 -3.69592E+00 -3.74316E+00 -7.44438E+00
