 Created: 16-Jan-2021
 $NMID
 ID='D:\BASISSIMULATI'
 FMTDAT='(8E13.5)'
 VOLUME=   1.00000E+00
 TRAMP=   1.00000E+00
 $END
 +1.87620E+01 +1.76342E+00 +1.70674E+01 +7.93314E+00 +1.34096E+01 +1.31729E+01 +8.21520E+00 +1.68809E+01
 +2.08680E+00 +1.86337E+01 -4.26678E+00 +1.82341E+01 -1.01126E+01 +1.57336E+01 -1.47779E+01 +1.14256E+01
 -1.77280E+01 +5.81130E+00 -1.86271E+01 -4.58782E-01 -1.73767E+01 -6.66023E+00 -1.41263E+01 -1.20784E+01
 -9.25568E+00 -1.60905E+01 -3.33030E+00 -1.82378E+01 +2.96412E+00 -1.82773E+01 +8.90104E+00 -1.62098E+01
 +1.37970E+01 -1.22788E+01 +1.70902E+01 -6.94230E+00 +1.84050E+01 -8.18897E-01 +1.75949E+01 +5.38354E+00
 +1.47586E+01 +1.09498E+01 +1.02281E+01 +1.52399E+01 +4.52985E+00 +1.77624E+01 -1.67623E+00 +1.82310E+01
 -7.67351E+00 +1.65968E+01 -1.27712E+01 +1.30535E+01 -1.63838E+01 +8.01438E+00 -1.80987E+01 +2.06403E+00
 -1.77230E+01 -4.10931E+00 -1.53052E+01 -9.79346E+00 -1.11291E+01 -1.43344E+01 -5.68063E+00 -1.72115E+01
 +4.09035E-01 -1.80973E+01 +6.43626E+00 -1.68948E+01 +1.17064E+01 -1.37476E+01 +1.56139E+01 -9.02366E+00
 +1.77116E+01 -3.27132E+00 +1.77624E+01 +2.84368E+00 +1.57655E+01 +8.61553E+00 +1.19562E+01 +1.33797E+01
 +6.77816E+00 +1.65896E+01 +8.31804E-01 +1.78790E+01 -5.19551E+00 +1.71042E+01 -1.06088E+01 +1.43597E+01
 -1.47855E+01 +9.96665E+00 -1.72474E+01 +4.43576E+00 -1.77148E+01 -1.59258E+00 -1.61390E+01 -7.42221E+00
 -1.27068E+01 -1.23816E+01 -7.81830E+00 -1.59012E+01 -2.04086E+00 -1.75790E+01 +3.95734E+00 -1.72262E+01
 +9.48430E+00 -1.48884E+01 +1.39041E+01 -1.08403E+01 +1.67100E+01 -5.55267E+00 +1.75825E+01 +3.61750E-01
 +1.64261E+01 +6.21963E+00 +1.33790E+01 +1.13458E+01 +8.79731E+00 +1.51513E+01 +3.21299E+00 +1.72006E+01
 -2.72769E+00 +1.72619E+01 -8.33902E+00 +1.53332E+01 -1.29750E+01 +1.16419E+01 -1.61036E+01 +6.61770E+00
 -1.73680E+01 +8.43307E-01 -1.66271E+01 -5.01381E+00 -1.39714E+01 -1.02783E+01 -9.71181E+00 -1.43446E+01
 -4.34334E+00 -1.67472E+01 +1.51233E+00 -1.72133E+01 +7.17897E+00 -1.56938E+01 +1.20038E+01 -1.23691E+01
 +1.54328E+01 -7.62686E+00 +1.70742E+01 -2.01733E+00 +1.67432E+01 +3.81067E+00 +1.44829E+01 +9.18477E+00
 +1.05588E+01 +1.34866E+01 +5.42737E+00 +1.62229E+01 -3.16824E-01 +1.70823E+01 -6.01008E+00 +1.59703E+01
 -1.09962E+01 +1.30202E+01 -1.47023E+01 +8.57650E+00 -1.67042E+01 +3.15532E+00 -1.67755E+01 -2.61599E+00
 -1.49128E+01 -8.07125E+00 -1.13357E+01 -1.25824E+01 -6.46087E+00 -1.56318E+01 -8.53477E-01 -1.68715E+01
 +4.83822E+00 -1.61633E+01 +9.95791E+00 -1.35936E+01 +1.39168E+01 -9.46335E+00 +1.62615E+01 -4.25257E+00
 +1.67258E+01 +1.43535E+00 +1.52608E+01 +6.94353E+00 +1.20403E+01 +1.16375E+01 +7.43995E+00 +1.49781E+01
 +1.99347E+00 +1.65837E+01 -3.66914E+00 +1.62736E+01 -8.89457E+00 +1.40884E+01 -1.30816E+01 +1.02845E+01
 -1.57500E+01 +5.30468E+00 -1.65962E+01 -2.74164E-01 -1.55272E+01 -5.80740E+00 -1.26709E+01 -1.06573E+01
 -8.36109E+00 -1.42665E+01 -3.09831E+00 -1.62220E+01 +2.50843E+00 -1.63027E+01 +7.81193E+00 -1.45038E+01
 +1.22016E+01 -1.10375E+01 +1.51737E+01 -6.30757E+00 +1.63892E+01 -8.62379E-01 +1.57123E+01 +4.66855E+00
 +1.32259E+01 +9.64743E+00 +9.22113E+00 +1.35017E+01 +4.16343E+00 +1.57899E+01 -1.36152E+00 +1.62521E+01
 -6.71566E+00 +1.48397E+01 -1.12822E+01 +1.17202E+01 -1.45367E+01 +7.25747E+00 -1.61073E+01 +1.96932E+00
 -1.58172E+01 -3.53256E+00 -1.37045E+01 -8.61341E+00 -1.00173E+01 -1.26886E+01 -5.18456E+00 -1.52909E+01
 +2.33676E-01 -1.61239E+01 +5.61137E+00 -1.50962E+01 +1.03287E+01 -1.23308E+01 +1.38436E+01 -8.15097E+00
 +1.57538E+01 -3.04197E+00 +1.58431E+01 +2.40486E+00 +1.41060E+01 +7.56080E+00 +1.07471E+01 +1.18322E+01
 +6.15773E+00 +1.47290E+01 +8.70078E-01 +1.59205E+01 -4.50461E+00 +1.52738E+01 -9.34653E+00 +1.28681E+01
 -1.30989E+01 +8.98500E+00 -1.53318E+01 +4.07590E+00 -1.57917E+01 -1.29073E+00 -1.44301E+01 -6.49510E+00
 -1.14085E+01 -1.09377E+01 -7.07932E+00 -1.41083E+01 -1.94493E+00 -1.56445E+01 +3.40077E+00 -1.53735E+01
 +8.34103E+00 -1.33310E+01 +1.23074E+01 -9.75685E+00 +1.48450E+01 -5.06695E+00 +1.56650E+01 +1.95272E-01
 +1.46772E+01 +5.42178E+00 +1.19999E+01 +1.00102E+01 +7.94599E+00 +1.34331E+01 +2.98632E+00 +1.52989E+01
 -2.30515E+00 +1.53965E+01 -7.31761E+00 +1.37190E+01 -1.14739E+01 +1.04642E+01 -1.42972E+01 +6.01129E+00
 -1.54652E+01 +8.76634E-01 -1.48475E+01 -4.34619E+00 -1.25199E+01 -9.05490E+00 -8.75480E+00 -1.27080E+01
 -3.98996E+00 -1.48870E+01 +1.22287E+00 -1.53444E+01 +6.28164E+00 -1.40318E+01 +1.06036E+01 -1.11050E+01
 +1.36924E+01 -6.90540E+00 +1.51950E+01 -1.92032E+00 +1.49422E+01 +3.27361E+00 +1.29676E+01 +8.07714E+00
 +9.50310E+00 +1.19375E+01 +4.95182E+00 +1.44121E+01 -1.58866E-01 +1.52191E+01 -5.23841E+00 +1.42697E+01
 -9.70134E+00 +1.16777E+01 -1.30347E+01 +7.74605E+00 -1.48572E+01 +2.93136E+00 -1.49624E+01 -2.20916E+00
 -1.33425E+01 -7.08212E+00 -1.01886E+01 -1.11264E+01 -5.86818E+00 -1.38780E+01 -8.82108E-01 -1.50229E+01
 +4.19313E+00 -1.44331E+01 +8.77226E+00 -1.21810E+01 +1.23287E+01 -8.53038E+00 +1.44550E+01 -3.90559E+00
 +1.49096E+01 +1.15781E+00 +1.36444E+01 +6.07504E+00 +1.08095E+01 +1.02796E+01 +6.73562E+00 +1.32887E+01
 +1.89553E+00 +1.47583E+01 -3.15092E+00 +1.45229E+01 -7.82148E+00 +1.26140E+01 -1.15787E+01 +9.25585E+00
 -1.39917E+01 +4.83911E+00 -1.47858E+01 -1.24374E-01 -1.38734E+01 -5.06106E+00 -1.13641E+01 -9.40194E+00
 -7.55103E+00 -1.26481E+01 -2.87710E+00 -1.44281E+01 +2.11676E+00 -1.45404E+01 +6.85407E+00 -1.29763E+01
 +1.07894E+01 -9.92026E+00 +1.34711E+01 -5.72831E+00 +1.45931E+01 -8.86555E-01 +1.40301E+01 +4.04525E+00
 +1.18512E+01 +8.49835E+00 +8.31162E+00 +1.19606E+01 +3.82278E+00 +1.40354E+01 -1.09547E+00 +1.44871E+01
 -5.87509E+00 +1.32676E+01 -9.96546E+00 +1.05217E+01 -1.28968E+01 +6.56988E+00 -1.43341E+01 +1.87058E+00
 -1.41154E+01 -3.03255E+00 -1.22701E+01 -7.57380E+00 -9.01494E+00 -1.12306E+01 -4.72879E+00 -1.35836E+01
 +9.17189E-02 -1.43648E+01 +4.88955E+00 -1.34881E+01 +9.11170E+00 -1.10588E+01 +1.22729E+01 -7.36079E+00
 +1.40114E+01 -2.82353E+00 +1.41303E+01 +2.02782E+00 +1.26201E+01 +6.63324E+00 +9.65886E+00 +1.04624E+01
 +5.59163E+00 +1.30760E+01 +8.90028E-01 +1.41756E+01 -3.90237E+00 +1.36384E+01 -8.23289E+00 +1.15303E+01
 -1.16035E+01 +8.09836E+00 -1.36280E+01 +3.74150E+00 -1.40765E+01 -1.03574E+00 -1.29012E+01 -5.68158E+00
 -1.02416E+01 -9.66082E+00 -6.40809E+00 -1.25164E+01 -1.84551E+00 -1.39220E+01 +2.91836E+00 -1.37192E+01
 +7.33386E+00 -1.19354E+01 +1.08929E+01 -8.78021E+00 +1.31872E+01 -4.62081E+00 +1.39557E+01 +6.08227E-02
 +1.31135E+01 +4.72369E+00 +1.07617E+01 +8.83032E+00 +7.17524E+00 +1.19087E+01 +2.77068E+00 +1.36066E+01
 -1.94223E+00 +1.37317E+01 -6.41941E+00 +1.22736E+01 -1.01453E+01 +9.40427E+00 -1.26924E+01 +5.45806E+00
 -1.37700E+01 +8.92581E-01 -1.32575E+01 -3.76434E+00 -1.12180E+01 -7.97563E+00 -7.89048E+00 -1.12569E+01
 -3.66173E+00 -1.32324E+01 +9.78512E-01 -1.36775E+01 +5.49431E+00 -1.25448E+01 +9.36541E+00 -9.96882E+00
 +1.21472E+01 -6.25016E+00 +1.35217E+01 -1.82034E+00 +1.33341E+01 +2.80820E+00 +1.16098E+01 +7.10141E+00
 +8.55150E+00 +1.05652E+01 +4.51512E+00 +1.28024E+01 -3.16123E-02 +1.35582E+01 -4.56329E+00 +1.27491E+01
 -8.55755E+00 +1.04725E+01 -1.15553E+01 +6.99426E+00 -1.32135E+01 +2.71853E+00 -1.33443E+01 -1.85985E+00
 -1.19365E+01 -6.21234E+00 -9.15631E+00 -9.83778E+00 -5.32755E+00 -1.23201E+01 -8.94263E-01 -1.33759E+01
 +3.63098E+00 -1.28872E+01 +7.72631E+00 -1.09141E+01 +1.09207E+01 -7.68784E+00 +1.28482E+01 -3.58346E+00
 +1.32897E+01 +9.23703E-01 +1.21982E+01 +5.31307E+00 +9.70324E+00 +9.07895E+00 +6.09600E+00 +1.17888E+01
 +1.79510E+00 +1.31329E+01 -2.70194E+00 +1.29597E+01 -6.87622E+00 +1.12930E+01 -1.02474E+01 +8.32866E+00
 -1.24288E+01 +4.41169E+00 -1.31720E+01 -4.01667E-03 -1.23949E+01 -4.40817E+00 -1.01909E+01 -8.29312E+00
 -6.81774E+00 -1.12123E+01 -2.66709E+00 -1.28317E+01 +1.78059E+00 -1.29678E+01 +6.01185E+00 -1.16087E+01
 +9.53946E+00 -8.91481E+00 +1.19586E+01 -5.20002E+00 +1.29930E+01 -8.95120E-01 +1.25272E+01 +3.50216E+00
 +1.06184E+01 +7.48469E+00 +7.49030E+00 +1.05944E+01 +3.50666E+00 +1.24751E+01 -8.71220E-01 +1.29129E+01
 -5.13768E+00 +1.18611E+01 -8.80118E+00 +9.44466E+00 -1.14409E+01 +5.94553E+00 -1.27552E+01 +1.76981E+00
 -1.25958E+01 -2.59944E+00 -1.09848E+01 -6.65808E+00 -8.11155E+00 -9.93901E+00 -4.31046E+00 -1.20660E+01
 -2.20322E-02 -1.27967E+01 +4.25818E+00 -1.20504E+01 +8.03677E+00 -9.91691E+00 +1.08794E+01 -6.64557E+00
 +1.24608E+01 -2.61637E+00 +1.26018E+01 +1.70433E+00 +1.12898E+01 +5.81771E+00 +8.67960E+00 +9.25012E+00
 +5.07541E+00 +1.16076E+01 +8.95200E-01 +1.26211E+01 -3.37771E+00 +1.21771E+01 -7.25053E+00 +1.03306E+01
 -1.02778E+01 +7.29776E+00 -1.21127E+01 +3.43131E+00 -1.25467E+01 -8.20974E-01 -1.15333E+01 -4.96795E+00
 -9.19290E+00 -8.53183E+00 -5.79866E+00 -1.11033E+01 -1.74450E+00 -1.23883E+01 +2.50058E+00 -1.22420E+01
 +6.44676E+00 -1.06849E+01 +9.63987E+00 -7.90001E+00 +1.17137E+01 -4.21141E+00 +1.24321E+01 -4.66001E-02
 +1.17155E+01 +4.11313E+00 +9.65019E+00 +7.78827E+00 +6.47765E+00 +1.05564E+01 +2.56636E+00 +1.21007E+01
 -1.63096E+00 +1.22462E+01 -5.62973E+00 +1.09796E+01 -8.96949E+00 +8.45052E+00 -1.12669E+01 +4.95366E+00
 -1.22597E+01 +8.94544E-01 -1.18368E+01 -3.25750E+00 -1.00505E+01 -7.02362E+00 -7.11007E+00 -9.97063E+00
 -3.35740E+00 -1.17609E+01 +7.72880E-01 -1.21909E+01 +4.80370E+00 -1.12145E+01 +8.27065E+00 -8.94779E+00
 +1.07755E+01 -5.65532E+00 +1.20319E+01 -1.71919E+00 +1.18982E+01 +2.40524E+00 +1.03932E+01 +6.24204E+00
 +7.69391E+00 +9.34967E+00 +4.11449E+00 +1.13717E+01 +6.97501E-02 +1.20778E+01 -3.97288E+00 +1.13898E+01
 -7.54738E+00 +9.39058E+00 -1.02429E+01 +6.31388E+00 -1.17509E+01 +2.51706E+00 -1.19005E+01 -1.56038E+00
 -1.06779E+01 -5.44771E+00 -8.22742E+00 -8.69730E+00 -4.83471E+00 -1.09361E+01 -8.93196E-01 -1.19087E+01
 +3.14139E+00 -1.15060E+01 +6.80372E+00 -9.77799E+00 +9.67256E+00 -6.92713E+00 +1.14192E+01 -3.28490E+00
 +1.18451E+01 +7.26857E-01 +1.09044E+01 +4.64476E+00 +8.70914E+00 +8.01739E+00 +5.51541E+00 +1.04574E+01
 +1.69390E+00 +1.16857E+01 -2.31328E+00 +1.15639E+01 -6.04374E+00 +1.01094E+01 -9.06814E+00 +7.49311E+00
