 Created: 16-Jan-2021
 $NMID
 ID='D:\BASISSIMULATI'
 FMTDAT='(8E13.5)'
 VOLUME=   1.00000E+00
 TRAMP=   1.00000E+00
 $END
 +1.65189E+02 +1.54246E+01 +1.48971E+02 +7.00559E+01 +1.13711E+02 +1.14169E+02 +6.52620E+01 +1.41221E+02
 +1.15773E+01 +1.47663E+02 -3.87291E+01 +1.33518E+02 -7.79278E+01 +1.02302E+02 -1.00530E+02 +6.02991E+01
 -1.04202E+02 +1.53502E+01 -9.00780E+01 -2.46278E+01 -6.24175E+01 -5.30939E+01 -2.76841E+01 -6.60383E+01
 +6.76348E+00 -6.26266E+01 +3.41126E+01 -4.52185E+01 +4.93909E+01 -1.87714E+01 +5.03633E+01 +1.02430E+01
 +3.78685E+01 +3.51882E+01 +1.55365E+01 +5.06092E+01 -1.10431E+01 +5.33106E+01 -3.55292E+01 +4.29559E+01
 -5.21676E+01 +2.20779E+01 -5.69903E+01 -4.49574E+00 -4.86358E+01 -3.06795E+01 -2.86300E+01 -5.04178E+01
 -1.07272E+00 -5.89620E+01 +2.82037E+01 -5.38790E+01 +5.28337E+01 -3.55884E+01 +6.72344E+01 -7.31979E+00
 +6.77722E+01 +2.55037E+01 +5.35462E+01 +5.63333E+01 +2.66277E+01 +7.88018E+01 -8.29465E+00 +8.80120E+01
 -4.47987E+01 +8.15469E+01 -7.59698E+01 +5.99995E+01 -9.57562E+01 +2.69131E+01 -1.00172E+02 -1.18619E+01
 -8.81070E+01 -4.92722E+01 -6.15885E+01 -7.84159E+01 -2.54262E+01 -9.38809E+01 +1.36822E+01 -9.28084E+01
 +4.84226E+01 -7.54706E+01 +7.22665E+01 -4.52482E+01 +8.07321E+01 -8.00637E+00 +7.22602E+01 +2.90116E+01
 +4.85334E+01 +5.85632E+01 +1.41756E+01 +7.47929E+01 -2.41149E+01 +7.43595E+01 -5.88308E+01 +5.70873E+01
 -8.30805E+01 +2.60144E+01 -9.18982E+01 -1.31704E+01 -8.31889E+01 -5.31953E+01 -5.81288E+01 -8.65737E+01
 -2.09453E+01 -1.07011E+02 +2.18798E+01 -1.10581E+02 +6.28293E+01 -9.64524E+01 +9.47570E+01 -6.70201E+01
 +1.12214E+02 -2.74357E+01 +1.12439E+02 +1.53848E+01 +9.58359E+01 +5.40716E+01 +6.58382E+01 +8.21804E+01
 +2.82075E+01 +9.53763E+01 -1.01005E+01 +9.21957E+01 -4.22776E+01 +7.42485E+01 -6.29501E+01 +4.58260E+01
 -6.91640E+01 +1.30018E+01 -6.08815E+01 -1.75943E+01 -4.08991E+01 -4.00858E+01 -1.42123E+01 -5.04846E+01
 +1.30419E+01 -4.74313E+01 +3.48498E+01 -3.24013E+01 +4.65413E+01 -9.34029E+00 +4.57234E+01 +1.61915E+01
 +3.27431E+01 +3.81913E+01 +1.05919E+01 +5.14662E+01 -1.57279E+01 +5.27149E+01 -4.02444E+01 +4.12218E+01
 -5.72575E+01 +1.90260E+01 -6.25293E+01 -9.47094E+00 -5.41872E+01 -3.83791E+01 -3.31553E+01 -6.15051E+01
 -3.02745E+00 -7.36115E+01 +3.05980E+01 -7.15010E+01 +6.11933E+01 -5.47082E+01 +8.25766E+01 -2.56595E+01
 +9.01377E+01 +1.07362E+01 +8.17732E+01 +4.79894E+01 +5.83454E+01 +7.92524E+01 +2.35715E+01 +9.86271E+01
 -1.66398E+01 +1.02304E+02 -5.52786E+01 +8.93086E+01 -8.55438E+01 +6.17164E+01 -1.02120E+02 +2.42803E+01
 -1.02177E+02 -1.64475E+01 -8.58991E+01 -5.33386E+01 -5.64446E+01 -8.00202E+01 -1.93367E+01 -9.20612E+01
 +1.85863E+01 -8.77847E+01 +5.04669E+01 -6.85543E+01 +7.07180E+01 -3.84794E+01 +7.60607E+01 -3.60219E+00
 +6.61105E+01 +2.92781E+01 +4.34049E+01 +5.39126E+01 +1.28704E+01 +6.57908E+01 -1.91654E+01 +6.29805E+01
 -4.62194E+01 +4.64611E+01 -6.29160E+01 +1.98889E+01 -6.60200E+01 -1.11540E+01 -5.50433E+01 -4.02786E+01
 -3.23083E+01 -6.15534E+01 -2.46206E+00 -7.06684E+01 +2.84617E+01 -6.57712E+01 +5.42451E+01 -4.78145E+01
 +6.97165E+01 -2.03502E+01 +7.17682E+01 +1.11866E+01 +5.99620E+01 +4.05604E+01 +3.66070E+01 +6.19702E+01
 +6.29598E+00 +7.11947E+01 -2.50063E+01 +6.64221E+01 -5.11422E+01 +4.86033E+01 -6.69753E+01 +2.12610E+01
 -6.94014E+01 -1.02073E+01 -5.79582E+01 -3.95940E+01 -3.49143E+01 -6.11032E+01 -4.82173E+00 -7.04907E+01
 +2.63794E+01 -6.58988E+01 +5.25286E+01 -4.82204E+01 +6.84558E+01 -2.09252E+01 +7.09967E+01 +1.06215E+01
 +5.96155E+01 +4.02107E+01 +3.65124E+01 +6.20069E+01 +6.19489E+00 +7.16929E+01 -2.54022E+01 +6.73178E+01
 -5.20767E+01 +4.96824E+01 -6.85720E+01 +2.21867E+01 -7.16055E+01 -9.83029E+00 -6.05128E+01 -4.01291E+01
 -3.73813E+01 -6.27853E+01 -6.64787E+00 -7.33433E+01 +2.57613E+01 -6.96849E+01 +5.35801E+01 -5.24432E+01
 +7.14183E+01 -2.48813E+01 +7.58066E+01 +7.73939E+00 +6.58673E+01 +3.91784E+01 +4.34824E+01 +6.34243E+01
 +1.29258E+01 +7.58565E+01 -1.99674E+01 +7.41349E+01 -4.89320E+01 +5.86461E+01 -6.84843E+01 +3.24198E+01
 -7.49783E+01 +5.33401E-01 -6.73023E+01 -3.08788E+01 -4.70816E+01 -5.58168E+01 -1.83489E+01 -6.95754E+01
 +1.32504E+01 -6.96491E+01 +4.15633E+01 -5.62049E+01 +6.11273E+01 -3.20341E+01 +6.82289E+01 -1.99330E+00
 +6.16174E+01 +2.79533E+01 +4.27344E+01 +5.19042E+01 +1.54190E+01 +6.51725E+01 -1.48554E+01 +6.51971E+01
 -4.20590E+01 +5.20347E+01 -6.07888E+01 +2.83388E+01 -6.73259E+01 -1.16866E+00 -6.03598E+01 -3.06281E+01
 -4.12403E+01 -5.41936E+01 -1.37087E+01 -6.71784E+01 +1.68379E+01 -6.69711E+01 +4.44039E+01 -5.35454E+01
 +6.35686E+01 -2.94635E+01 +7.05439E+01 +6.25754E-01 +6.39135E+01 +3.08950E+01 +4.49068E+01 +5.54744E+01
 +1.71583E+01 +6.95945E+01 -1.40023E+01 +7.05126E+01 -4.25873E+01 +5.80429E+01 -6.31149E+01 +3.45875E+01
 -7.16715E+01 +4.66488E+00 -6.66658E+01 -2.59726E+01 -4.91299E+01 -5.14577E+01 -2.25091E+01 -6.69467E+01
 +8.01713E+00 -6.95539E+01 +3.65480E+01 -5.89024E+01 +5.76110E+01 -3.71844E+01 +6.72236E+01 -8.72072E+00
 +6.36592E+01 +2.08915E+01 +4.77708E+01 +4.58770E+01 +2.28094E+01 +6.14100E+01 -6.22404E+00 +6.45518E+01
 -3.35672E+01 +5.48153E+01 -5.38289E+01 +3.42483E+01 -6.30450E+01 +7.01981E+00 -5.94513E+01 -2.14068E+01
 -4.38230E+01 -4.53530E+01 -1.93151E+01 -6.00426E+01 +9.16337E+00 -6.25403E+01 +3.59185E+01 -5.23274E+01
 +5.55927E+01 -3.14026E+01 +6.42199E+01 -3.88858E+00 +6.00062E+01 +2.47769E+01 +4.36856E+01 +4.89086E+01
 +1.83805E+01 +6.36890E+01 -1.10059E+01 +6.61152E+01 -3.87450E+01 +5.55905E+01 -5.94005E+01 +3.40472E+01
 -6.88898E+01 +5.57551E+00 -6.52823E+01 -2.43680E+01 -4.91790E+01 -5.00188E+01 -2.35999E+01 -6.64231E+01
 +6.59845E+00 -7.03984E+01 +3.56618E+01 -6.11507E+01 +5.80505E+01 -4.04280E+01 +6.95094E+01 -1.21808E+01
 +6.78863E+01 +1.82033E+01 +5.35431E+01 +4.49414E+01 +2.92785E+01 +6.29715E+01 -2.20091E-01 +6.89252E+01
 -2.92885E+01 +6.17703E+01 -5.23828E+01 +4.29982E+01 -6.51485E+01 +1.63223E+01 -6.52546E+01 -1.30524E+01
 -5.28312E+01 -3.94454E+01 -3.04277E+01 -5.78029E+01 -2.50225E+00 -6.46731E+01 +2.54576E+01 -5.88649E+01
 +4.80083E+01 -4.16625E+01 +6.08093E+01 -1.65582E+01 +6.14616E+01 +1.14437E+01 +4.99620E+01 +3.68142E+01
 +2.86887E+01 +5.45833E+01 +1.92074E+00 +6.13089E+01 -2.50114E+01 +5.57423E+01 -4.67765E+01 +3.90608E+01
 -5.90890E+01 +1.46253E+01 -5.95461E+01 -1.26902E+01 -4.80926E+01 -3.74622E+01 -2.70234E+01 -5.47863E+01
 -5.25611E-01 -6.12400E+01 +2.61503E+01 -5.55528E+01 +4.77257E+01 -3.88522E+01 +5.99325E+01 -1.44376E+01
 +6.03517E+01 +1.28702E+01 +4.88889E+01 +3.76791E+01 +2.77919E+01 +5.50854E+01 +1.20958E+00 +6.16385E+01
 -2.56216E+01 +5.60193E+01 -4.74052E+01 +3.93018E+01 -5.98236E+01 +1.47454E+01 -6.03858E+01 -1.28409E+01
 -4.89189E+01 -3.80366E+01 -2.76062E+01 -5.58697E+01 -5.66038E-01 -6.27882E+01 +2.69481E+01 -5.73565E+01
 +4.95684E+01 -4.05394E+01 +6.28566E+01 -1.55190E+01 +6.41680E+01 +1.29197E+01 +5.31665E+01 +3.93145E+01
 +3.18919E+01 +5.85834E+01 +4.36630E+00 +6.70075E+01 -2.41833E+01 +6.29490E+01 -4.83343E+01 +4.71653E+01
 -6.35144E+01 +2.26589E+01 -6.68803E+01 -5.90614E+00 -5.78592E+01 -3.31077E+01 -3.82505E+01 -5.38127E+01
 -1.18675E+01 -6.41640E+01 +1.62081E+01 -6.23164E+01 +4.06142E+01 -4.87797E+01 +5.67446E+01 -2.63044E+01
 +6.16336E+01 +6.66516E-01 +5.45173E+01 +2.68704E+01 +3.69639E+01 +4.72516E+01 +1.25500E+01 +5.79418E+01
 -1.38519E+01 +5.70029E+01 -3.70334E+01 +4.47890E+01 -5.24709E+01 +2.38599E+01 -5.72056E+01 -1.53680E+00
 -5.04127E+01 -2.63097E+01 -3.35505E+01 -4.55294E+01 -1.00607E+01 -5.53966E+01 +1.53188E+01 -5.39854E+01
 +3.74927E+01 -4.16155E+01 +5.20148E+01 -2.07820E+01 +5.59634E+01 +4.34121E+00 +4.85156E+01 +2.87278E+01
 +3.11088E+01 +4.74908E+01 +7.15708E+00 +5.68455E+01 -1.86198E+01 +5.48564E+01 -4.11234E+01 +4.18194E+01
 -5.58776E+01 +2.02076E+01 -5.99083E+01 -5.81027E+00 -5.23286E+01 -3.11831E+01 -3.45166E+01 -5.09638E+01
 -9.85035E+00 -6.12757E+01 +1.69479E+01 -6.00702E+01 +4.07292E+01 -4.75282E+01 +5.69193E+01 -2.60270E+01
 +6.24074E+01 +3.20532E-01 +5.61504E+01 +2.64638E+01 +3.93740E+01 +4.73949E+01 +1.53338E+01 +5.91194E+01
 -1.13192E+01 +5.94290E+01 -3.54412E+01 +4.83266E+01 -5.23944E+01 +2.80207E+01 -5.89436E+01 +2.49248E+00
 -5.38796E+01 -2.32810E+01 -3.82480E+01 -4.42946E+01 -1.51385E+01 -5.64854E+01 +1.09207E+01 -5.75180E+01
 +3.48468E+01 -4.72310E+01 +5.19904E+01 -2.76610E+01 +5.90368E+01 -2.63852E+00 +5.46438E+01 +2.29621E+01
 +3.96950E+01 +4.41737E+01 +1.71187E+01 +5.69010E+01 -8.68962E+00 +5.87128E+01 -3.27273E+01 +4.93065E+01
 -5.03598E+01 +3.05576E+01 -5.82199E+01 +6.14471E+00 -5.48563E+01 -1.91745E+01 -4.10065E+01 -4.04946E+01
 -1.94421E+01 -5.37182E+01 +5.58184E+00 -5.63497E+01 +2.91639E+01 -4.79742E+01 +4.67167E+01 -3.03274E+01
 +5.48608E+01 -6.94546E+00 +5.20800E+01 +1.75350E+01 +3.90089E+01 +3.82895E+01 +1.82997E+01 +5.12519E+01
 -5.90656E+00 +5.39082E+01 -2.87974E+01 +4.57845E+01 -4.58364E+01 +2.85338E+01 -5.36531E+01 +5.60521E+00
 -5.07037E+01 -1.84369E+01 -3.75709E+01 -3.88123E+01 -1.68481E+01 -5.14642E+01 +7.37166E+00 -5.38562E+01
 +3.02992E+01 -4.54703E+01 +4.73888E+01 -2.79098E+01 +5.52297E+01 -4.58593E+00 +5.22153E+01 +1.99476E+01
 +3.88599E+01 +4.08844E+01 +1.77007E+01 +5.41046E+01 -7.19412E+00 +5.69788E+01 -3.10170E+01 +4.88828E+01
 -4.91554E+01 +3.13209E+01 -5.80883E+01 +7.63458E+00 -5.60702E+01 -1.76452E+01 -4.34692E+01 -3.96772E+01
 -2.26937E+01 -5.42477E+01 +2.27570E+00 -5.85854E+01 +2.66597E+01 -5.18952E+01 +4.58066E+01 -3.55071E+01
 +5.60912E+01 -1.26126E+01 +5.56131E+01 +1.23590E+01 +4.45566E+01 +3.46026E+01 +2.51468E+01 +4.98690E+01
 +1.20836E+00 +5.52856E+01 -2.25842E+01 +4.99063E+01 -4.16175E+01 +3.48852E+01 -5.22357E+01 +1.32409E+01
 -5.24459E+01 -1.07401E+01 -4.22974E+01 -3.23446E+01 -2.38614E+01 -4.73534E+01 -8.17119E-01 -5.28611E+01
 +2.22738E+01 -4.78377E+01 +4.08625E+01 -3.33208E+01 +5.13012E+01 -1.22044E+01 +5.15536E+01 +1.13341E+01
 +4.15866E+01 +3.26549E+01 +2.33709E+01 +4.75654E+01 +4.88998E-01 +5.31387E+01 -2.25697E+01 +4.82821E+01
 -4.12891E+01 +3.39464E+01 -5.20096E+01 +1.29346E+01 -5.26409E+01 -1.06500E+01 -4.30671E+01 -3.22091E+01
