 Created: 16-Jan-2021
 $NMID
 ID='D:\BASISSIMULATI'
 FMTDAT='(8E13.5)'
 VOLUME=   1.00000E+00
 TRAMP=   1.00000E+00
 $END
 +9.63216E+01 +1.01373E+01 +7.77210E+01 +3.23594E+01 +3.33724E+01 +4.92466E+01 -1.16563E+01 +5.80352E+01
 -3.52241E+01 +5.31178E+01 -3.22897E+01 +3.26700E+01 -1.45872E+01 +4.71598E+00 +1.63232E+00 -1.56226E+01
 +7.70639E+00 -1.70292E+01 +5.00152E+00 -1.33987E+00 -1.19157E+00 +1.77595E+01 -7.83501E+00 +2.58239E+01
 -1.44402E+01 +1.84569E+01 -1.95982E+01 +2.55317E+00 -1.99030E+01 -1.16962E+01 -1.34069E+01 -1.93248E+01
 -3.15945E+00 -2.19667E+01 +4.53961E+00 -2.28153E+01 +6.42563E+00 -2.21991E+01 +6.30311E+00 -1.86056E+01
 +1.15340E+01 -1.26567E+01 +2.47530E+01 -7.91390E+00 +3.94809E+01 -6.64265E+00 +4.50450E+01 -5.60503E+00
 +3.66098E+01 +1.96710E+00 +2.02584E+01 +1.87884E+01 +7.57132E+00 +3.81505E+01 +4.77508E+00 +4.77243E+01
 +7.28044E+00 +4.03782E+01 +5.09897E+00 +2.17631E+01 -6.44193E+00 +6.40896E+00 -2.16296E+01 +5.01957E+00
 -2.99738E+01 +1.47417E+01 -2.65228E+01 +2.19068E+01 -1.62773E+01 +1.49103E+01 -8.50136E+00 -4.87109E+00
 -7.28737E+00 -2.42440E+01 -8.32671E+00 -2.99265E+01 -4.91215E+00 -1.96293E+01 +3.70336E+00 -2.77070E+00
 +1.08148E+01 +8.45273E+00 +9.35068E+00 +8.38642E+00 +1.61579E-02 -2.67607E-01 -8.19087E+00 -1.14484E+01
 -5.83499E+00 -2.06818E+01 +8.50659E+00 -2.53102E+01 +2.72311E+01 -2.22182E+01 +4.03390E+01 -8.31798E+00
 +4.25919E+01 +1.51678E+01 +3.47897E+01 +3.97310E+01 +1.99280E+01 +5.32383E+01 +2.36066E-01 +4.87616E+01
 -2.13167E+01 +3.06182E+01 -3.81865E+01 +1.11563E+01 -4.19192E+01 +6.05656E-01 -2.90696E+01 -5.78246E-01
 -6.81760E+00 +2.69865E-01 +1.00253E+01 -2.90287E+00 +1.00560E+01 -8.37235E+00 -5.01038E+00 -9.41099E+00
 -2.14427E+01 -3.01610E+00 -2.51984E+01 +5.19349E+00 -1.37783E+01 +5.71074E+00 +2.61075E+00 -5.02352E+00
 +1.12689E+01 -1.99586E+01 +8.54088E+00 -2.72090E+01 +1.88652E+00 -2.08686E+01 +1.38936E+00 -6.23284E+00
 +9.76034E+00 +5.58875E+00 +2.05017E+01 +8.08481E+00 +2.50195E+01 +4.50476E+00 +2.06812E+01 +3.26623E+00
 +1.19045E+01 +9.01246E+00 +4.39161E+00 +1.85061E+01 -4.37505E-01 +2.47770E+01 -5.04839E+00 +2.42577E+01
 -1.09900E+01 +1.92610E+01 -1.60736E+01 +1.40229E+01 -1.70142E+01 +9.68703E+00 -1.41070E+01 +4.13994E+00
 -1.17923E+01 -3.63057E+00 -1.37231E+01 -1.05386E+01 -1.77717E+01 -1.20421E+01 -1.72575E+01 -7.75625E+00
 -8.05413E+00 -3.20701E+00 +5.76306E+00 -4.69295E+00 +1.44117E+01 -1.21444E+01 +1.14545E+01 -1.80038E+01
 +5.08133E-01 -1.43862E+01 -7.57925E+00 -1.77308E+00 -4.80201E+00 +1.00136E+01 +6.51662E+00 +1.05167E+01
 +1.62944E+01 -1.01167E+00 +1.66917E+01 -1.39586E+01 +9.44071E+00 -1.55290E+01 +3.25526E+00 -2.26053E+00
 +4.29220E+00 +1.69761E+01 +9.63730E+00 +2.90396E+01 +1.04386E+01 +2.76439E+01 +1.27191E+00 +1.72181E+01
 -1.39321E+01 +6.93923E+00 -2.52684E+01 +1.91411E+00 -2.58371E+01 +2.33306E-01 -1.73003E+01 -2.45417E+00
 -7.10064E+00 -7.02696E+00 -1.11235E+00 -1.02562E+01 +5.04439E-01 -9.38816E+00 +8.87112E-01 -5.95529E+00
 +1.51888E+00 -4.15172E+00 +9.05975E-01 -5.78458E+00 -2.00623E+00 -7.97990E+00 -4.60632E+00 -6.64361E+00
 -2.40088E+00 -1.79795E+00 +5.55144E+00 +1.67480E+00 +1.39542E+01 -6.20794E-01 +1.54371E+01 -6.83413E+00
 +8.08531E+00 -9.55981E+00 -1.65485E+00 -3.18245E+00 -4.60194E+00 +9.49348E+00 +2.00561E+00 +1.87511E+01
 +1.11392E+01 +1.69151E+01 +1.23758E+01 +6.04667E+00 +2.14200E+00 -3.62207E+00 -1.23648E+01 -3.38611E+00
 -1.96953E+01 +5.55423E+00 -1.48285E+01 +1.33544E+01 -3.57776E+00 +1.11649E+01 +3.39529E+00 -4.08702E-01
 +7.72970E-01 -1.21948E+01 -7.04512E+00 -1.53916E+01 -1.11524E+01 -9.45727E+00 -7.07153E+00 -1.50687E+00
 +1.58555E+00 +1.32596E+00 +7.66661E+00 -1.63948E+00 +7.71402E+00 -5.44342E+00 +4.34305E+00 -5.64361E+00
 +2.15003E+00 -2.68208E+00 +2.49713E+00 -1.67256E-01 +3.01071E+00 +7.72929E-02 +1.65588E+00 +2.69751E-02
 -8.46833E-02 +2.31024E+00 +9.54781E-01 +6.04629E+00 +4.95323E+00 +7.13529E+00 +7.57065E+00 +3.16374E+00
 +4.19299E+00 -2.74306E+00 -4.30120E+00 -4.21987E+00 -1.10367E+01 +1.56057E+00 -9.47493E+00 +9.86672E+00
 -4.99296E-01 +1.21942E+01 +7.46317E+00 +4.75273E+00 +6.24288E+00 -6.97355E+00 -3.79305E+00 -1.28223E+01
 -1.35107E+01 -7.67309E+00 -1.35342E+01 +3.32625E+00 -3.31192E+00 +9.48632E+00 +8.26765E+00 +4.80050E+00
 +1.13615E+01 -6.36937E+00 +4.37972E+00 -1.36659E+01 -5.02134E+00 -1.06743E+01 -7.74788E+00 -6.08219E-01
 -1.83911E+00 +7.46839E+00 +6.47723E+00 +7.54780E+00 +9.55320E+00 +1.70051E+00 +5.54482E+00 -3.19191E+00
 -9.43712E-01 -2.78489E+00 -4.46179E+00 +1.08471E+00 -3.97649E+00 +3.54491E+00 -2.47336E+00 +2.33455E+00
 -2.32490E+00 -4.06423E-01 -2.35800E+00 -1.56527E+00 +1.90724E-03 -1.04039E+00 +4.45396E+00 -1.37003E+00
 +7.02427E+00 -3.64095E+00 +4.25935E+00 -5.03942E+00 -2.23325E+00 -1.67355E+00 -6.52944E+00 +6.08164E+00
 -4.36936E+00 +1.21291E+01 +1.87285E+00 +9.82919E+00 +5.05726E+00 -8.66536E-01 +7.00000E-01 -1.19972E+01
 -7.67251E+00 -1.42918E+01 -1.13160E+01 -5.92823E+00 -4.99047E+00 +5.40761E+00 +7.11208E+00 +9.60596E+00
 +1.46121E+01 +3.63708E+00 +1.06019E+01 -5.83764E+00 -1.68103E+00 -9.25663E+00 -1.17857E+01 -3.51475E+00
 -1.17235E+01 +5.34374E+00 -2.95924E+00 +8.44071E+00 +5.79688E+00 +2.74578E+00 +7.27974E+00 -6.48185E+00
 +2.05468E+00 -1.13713E+01 -3.21890E+00 -8.95875E+00 -2.99990E+00 -3.02286E+00 +2.13835E+00 +8.32608E-01
 +7.24605E+00 +9.75438E-01 +8.60157E+00 +3.46520E-01 +6.78324E+00 +1.99735E+00 +4.47527E+00 +5.17458E+00
 +2.49475E+00 +6.41881E+00 -8.16484E-01 +4.05013E+00 -6.21222E+00 +4.66755E-01 -1.07475E+01 -6.49018E-01
 -9.78015E+00 +1.01958E+00 -2.26983E+00 +1.62492E+00 +6.63920E+00 -2.33671E+00 +9.54597E+00 -9.08411E+00
 +3.99788E+00 -1.21829E+01 -4.47462E+00 -6.95494E+00 -7.28268E+00 +3.79394E+00 -1.26615E+00 +1.12418E+01
 +7.79919E+00 +8.56069E+00 +1.05982E+01 -2.27261E+00 +3.52728E+00 -1.19489E+01 -7.37693E+00 -1.25267E+01
 -1.18698E+01 -4.89104E+00 -5.04264E+00 +2.44596E+00 +8.28412E+00 +2.00801E+00 +1.83063E+01 -5.16440E+00
 +1.90714E+01 -1.05888E+01 +1.27468E+01 -6.73644E+00 +5.85333E+00 +5.62084E+00 +2.22623E+00 +1.80796E+01
 +1.90259E-01 +2.21226E+01 -3.75630E+00 +1.59414E+01 -9.58500E+00 +4.55908E+00 -1.29672E+01 -5.57564E+00
 -9.89210E+00 -1.13629E+01 -1.39894E+00 -1.30292E+01 +6.89749E+00 -1.11164E+01 +9.98771E+00 -5.24532E+00
 +7.75237E+00 +3.69704E+00 +3.95617E+00 +1.13764E+01 +1.56079E+00 +1.19696E+01 -5.68202E-02 +3.56048E+00
 -2.89779E+00 -8.60377E+00 -6.13783E+00 -1.54560E+01 -5.53644E+00 -1.18921E+01 +1.99410E+00 -1.61793E+00
 +1.34717E+01 +6.11768E+00 +2.07277E+01 +5.17299E+00 +1.74776E+01 -1.79424E+00 +5.94771E+00 -6.21739E+00
 -4.09994E+00 -2.20007E+00 -3.92509E+00 +7.78115E+00 +5.89729E+00 +1.55992E+01 +1.55986E+01 +1.55861E+01
 +1.49810E+01 +9.68951E+00 +2.67495E+00 +4.67702E+00 -1.27229E+01 +4.71953E+00 -2.03737E+01 +7.26328E+00
 -1.62377E+01 +6.32649E+00 -5.26524E+00 -5.68801E-01 +4.27470E+00 -9.28853E+00 +7.97901E+00 -1.30013E+01
 +7.29751E+00 -8.87641E+00 +5.79381E+00 -6.17850E-01 +4.85440E+00 +5.46919E+00 +3.44956E+00 +6.40644E+00
 +1.13258E+00 +4.32635E+00 -2.65680E-01 +2.87066E+00 +1.28901E+00 +2.79779E+00 +4.83469E+00 +1.79699E+00
 +6.59077E+00 -1.67045E+00 +4.17177E+00 -5.41269E+00 +2.70467E-01 -5.25472E+00 +9.31436E-01 +2.99007E-01
 +9.13644E+00 +7.93992E+00 +2.01022E+01 +1.27804E+01 +2.39276E+01 +1.35808E+01 +1.41236E+01 +1.39385E+01
 -5.78689E+00 +1.75752E+01 -2.41951E+01 +2.26483E+01 -3.04836E+01 +2.18734E+01 -2.30310E+01 +9.55622E+00
 -9.10333E+00 -1.10056E+01 +2.45382E+00 -2.77315E+01 +8.17694E+00 -2.86837E+01 +1.02973E+01 -1.21832E+01
 +1.14927E+01 +1.11175E+01 +1.07469E+01 +2.62817E+01 +5.05147E+00 +2.52077E+01 -5.31170E+00 +1.14254E+01
 -1.44539E+01 -4.49987E+00 -1.49840E+01 -1.36339E+01 -4.90617E+00 -1.36527E+01 +9.71722E+00 -7.37036E+00
 +1.93584E+01 +1.51026E+00 +1.86769E+01 +1.04452E+01 +1.01204E+01 +1.70966E+01 +6.25243E-01 +1.86535E+01
 -4.67035E+00 +1.38535E+01 -5.53691E+00 +5.72875E+00 -4.57907E+00 +8.73947E-01 -3.54471E+00 +4.25581E+00
 -2.49327E+00 +1.39909E+01 -2.00344E+00 +2.17951E+01 -4.48862E+00 +1.97495E+01 -1.17711E+01 +7.47658E+00
 -2.11702E+01 -7.20611E+00 -2.53470E+01 -1.50297E+01 -1.79177E+01 -1.30580E+01 -3.13400E-01 -6.17037E+00
 +1.72753E+01 -1.26863E+00 +2.31554E+01 -4.46888E-01 +1.37932E+01 -2.66934E-02 -2.96818E+00 +4.06351E+00
 -1.44332E+01 +1.07634E+01 -1.35653E+01 +1.43502E+01 -4.03262E+00 +1.04574E+01 +4.35794E+00 +1.16750E+00
 +4.95752E+00 -6.36515E+00 -5.14867E-01 -6.48429E+00 -5.02543E+00 -7.51366E-02 -3.60282E+00 +6.96542E+00
 +2.36502E+00 +9.97294E+00 +7.29344E+00 +9.82857E+00 +6.75282E+00 +1.09937E+01 +4.17054E-01 +1.56849E+01
 -9.28884E+00 +2.05977E+01 -1.98483E+01 +1.97057E+01 -2.90781E+01 +1.01918E+01 -3.36562E+01 -4.55778E+00
 -2.92680E+01 -1.76518E+01 -1.41734E+01 -2.39498E+01 +6.83603E+00 -2.26522E+01 +2.32049E+01 -1.56135E+01
 +2.53522E+01 -4.62111E+00 +1.22885E+01 +8.60733E+00 -6.95919E+00 +2.01839E+01 -2.00518E+01 +2.37575E+01
 -2.05579E+01 +1.47314E+01 -1.16674E+01 -4.08203E+00 -1.67663E+00 -2.16997E+01 +3.73691E+00 -2.58543E+01
 +4.98196E+00 -1.27254E+01 +5.34037E+00 +9.14438E+00 +5.66991E+00 +2.49812E+01 +3.26507E+00 +2.51886E+01
 -4.05127E+00 +1.23000E+01 -1.36770E+01 -2.24416E+00 -1.92590E+01 -8.05177E+00 -1.66149E+01 -3.46028E+00
 -8.48669E+00 +5.05424E+00 -2.77061E+00 +9.70176E+00 -5.41403E+00 +7.38217E+00 -1.47393E+01 +1.23610E-01
 -2.27237E+01 -8.52445E+00 -2.19842E+01 -1.62610E+01 -1.18380E+01 -2.15561E+01 +1.84760E+00 -2.21519E+01
 +1.20066E+01 -1.59068E+01 +1.53194E+01 -3.84055E+00 +1.26506E+01 +8.46090E+00 +6.18122E+00 +1.39958E+01
 -2.52737E+00 +1.00182E+01 -1.15647E+01 +7.17750E-01 -1.72105E+01 -6.28132E+00 -1.54078E+01 -6.64031E+00
 -5.83345E+00 -2.74173E+00 +5.87802E+00 -4.44681E-01 +1.14166E+01 -2.55189E+00 +6.67873E+00 -5.79732E+00
 -4.18522E+00 -4.51078E+00 -1.21151E+01 +2.88873E+00 -1.13771E+01 +1.14461E+01 -4.96921E+00 +1.39737E+01
 -1.74107E+00 +7.78888E+00 -7.69189E+00 -2.94734E+00 -1.97026E+01 -1.15150E+01 -2.77637E+01 -1.49309E+01
 -2.36677E+01 -1.57529E+01 -8.10686E+00 -1.78505E+01 +1.00611E+01 -2.10565E+01 +2.10805E+01 -2.07206E+01
