 Created: 16-Jan-2021
 $NMID
 ID='D:\BASISSIMULATI'
 FMTDAT='(8E13.5)'
 VOLUME=   1.00000E+00
 TRAMP=   1.00000E+00
 $END
 +7.81418E+01 +8.70723E+00 +6.03657E+01 +2.80626E+01 +1.84602E+01 +3.93941E+01 -2.34952E+01 +4.06936E+01
 -4.42762E+01 +3.08618E+01 -3.87650E+01 +1.21703E+01 -1.80402E+01 -8.04822E+00 +1.86879E+00 -2.04169E+01
 +1.19154E+01 -2.00960E+01 +1.33142E+01 -1.09187E+01 +1.19253E+01 -2.26932E+00 +1.11901E+01 -7.19819E-01
 +1.04688E+01 -4.10693E+00 +8.62157E+00 -4.02838E+00 +7.13649E+00 +5.27161E+00 +8.57946E+00 +2.01962E+01
 +1.23258E+01 +3.01346E+01 +1.32361E+01 +2.70328E+01 +5.95129E+00 +1.31314E+01 -8.97133E+00 -7.33913E-01
 -2.36365E+01 -4.88228E+00 -2.84342E+01 +6.05505E-01 -1.99334E+01 +6.58624E+00 -3.67486E+00 +4.09633E+00
 +1.07324E+01 -6.76204E+00 +1.73772E+01 -1.66910E+01 +1.73114E+01 -1.57426E+01 +1.48494E+01 -2.34489E+00
 +1.16414E+01 +1.54136E+01 +5.26183E+00 +2.68038E+01 -6.20618E+00 +2.67660E+01 -1.90441E+01 +1.81850E+01
 -2.48013E+01 +7.39006E+00 -1.76068E+01 -1.49282E+00 -1.01574E+00 -7.79486E+00 +1.30788E+01 -1.13457E+01
 +1.37044E+01 -1.02197E+01 +3.13558E-01 -2.72845E+00 -1.62880E+01 +8.50516E+00 -2.27992E+01 +1.59567E+01
 -1.43039E+01 +1.25453E+01 +2.34103E+00 -1.29940E+00 +1.50700E+01 -1.60811E+01 +1.65941E+01 -1.99756E+01
 +8.87391E+00 -8.64920E+00 -8.58945E-01 +1.06416E+01 -7.40273E+00 +2.46691E+01 -1.08417E+01 +2.47306E+01
 -1.35774E+01 +1.27711E+01 -1.56630E+01 -1.81097E+00 -1.41933E+01 -1.08797E+01 -7.35905E+00 -1.33356E+01
 +1.84864E+00 -1.32030E+01 +7.17810E+00 -1.32832E+01 +5.00159E+00 -1.17186E+01 -1.53921E+00 -5.06228E+00
 -4.99180E+00 +5.93462E+00 -8.36250E-01 +1.47703E+01 +7.58606E+00 +1.44076E+01 +1.17274E+01 +4.39793E+00
 +5.92190E+00 -7.52795E+00 -6.84709E+00 -1.17047E+01 -1.72458E+01 -5.09946E+00 -1.78959E+01 +5.89431E+00
 -9.75303E+00 +1.11621E+01 -5.53854E-01 +5.73140E+00 +2.86327E+00 -6.37132E+00 +6.81077E-01 -1.63707E+01
 -1.16421E+00 -1.84557E+01 +2.09596E+00 -1.35567E+01 +8.79617E+00 -6.41527E+00 +1.25610E+01 -7.82873E-02
 +9.02801E+00 +6.01013E+00 +4.83226E-01 +1.27739E+01 -6.38035E+00 +1.76333E+01 -7.16431E+00 +1.53447E+01
 -3.90470E+00 +3.55511E+00 -2.36263E+00 -1.27169E+01 -5.38114E+00 -2.32660E+01 -9.39565E+00 -2.06969E+01
 -7.96401E+00 -7.11673E+00 +1.14862E+00 +7.08400E+00 +1.26697E+01 +1.17591E+01 +1.79962E+01 +5.27241E+00
 +1.30109E+01 -4.90784E+00 +1.92967E+00 -9.47748E+00 -6.58275E+00 -5.38101E+00 -7.20146E+00 +2.62081E+00
 -2.10716E+00 +7.55768E+00 +2.17556E+00 +6.86596E+00 +1.62524E+00 +3.55883E+00 -1.78484E+00 +1.61107E+00
 -3.14761E+00 +1.18505E+00 -5.08654E-01 -9.76119E-01 +2.93155E+00 -6.64726E+00 +2.65272E+00 -1.25230E+01
 -1.58687E+00 -1.24981E+01 -4.72118E+00 -4.01461E+00 -1.48526E+00 +8.11605E+00 +7.43429E+00 +1.49566E+01
 +1.48402E+01 +1.12536E+01 +1.32713E+01 +4.16016E-01 +2.27777E+00 -8.33609E+00 -1.04600E+01 -8.15544E+00
 -1.55610E+01 -4.08296E-01 -1.00003E+01 +7.19734E+00 +7.02822E-01 +8.07790E+00 +7.94229E+00 +2.49573E+00
 +7.62620E+00 -3.68874E+00 +2.74729E+00 -5.35636E+00 -8.84837E-01 -2.84734E+00 -7.75380E-01 -5.11913E-01
 +5.95996E-01 -1.20499E+00 -2.31851E-01 -2.96942E+00 -2.95249E+00 -1.54359E+00 -3.50294E+00 +4.13479E+00
 +1.02844E+00 +9.67173E+00 +8.04714E+00 +9.13104E+00 +1.08644E+01 +1.39884E+00 +5.10516E+00 -7.69996E+00
 -6.20588E+00 -1.02394E+01 -1.43964E+01 -3.63427E+00 -1.26324E+01 +6.58561E+00 -2.18876E+00 +1.15928E+01
 +8.54515E+00 +7.21261E+00 +1.14722E+01 -2.52430E+00 +5.64305E+00 -9.44153E+00 -2.70326E+00 -8.73626E+00
 -6.46924E+00 -2.69819E+00 -3.96591E+00 +2.53385E+00 +7.31877E-01 +3.35959E+00 +2.92651E+00 +1.64107E+00
 +2.11105E+00 +1.57138E+00 +1.50210E+00 +4.34147E+00 +3.29975E+00 +6.59301E+00 +5.32234E+00 +4.35977E+00
 +3.08818E+00 -1.87752E+00 -4.66333E+00 -6.78509E+00 -1.31036E+01 -5.32798E+00 -1.48049E+01 +1.66742E+00
 -6.72026E+00 +7.53211E+00 +6.19793E+00 +5.87792E+00 +1.46931E+01 -2.96554E+00 +1.30843E+01 -1.16524E+01
 +3.99869E+00 -1.22620E+01 -4.43126E+00 -3.47731E+00 -6.07019E+00 +8.27341E+00 -1.79397E+00 +1.46427E+01
 +2.43811E+00 +1.24594E+01 +1.97704E+00 +5.49438E+00 -2.25835E+00 -1.78341E-01 -5.61277E+00 -2.06501E+00
 -5.11778E+00 -2.49879E+00 -2.48877E+00 -4.59697E+00 -1.59929E+00 -7.84139E+00 -3.45611E+00 -8.32171E+00
 -4.48026E+00 -3.39938E+00 -3.62294E-01 +4.44222E+00 +8.39776E+00 +9.13866E+00 +1.53927E+01 +6.85158E+00
 +1.35356E+01 +1.46680E-01 +1.95149E+00 -4.06244E+00 -1.22534E+01 -1.17047E+00 -1.94705E+01 +6.35799E+00
 -1.54846E+01 +1.10149E+01 -4.59107E+00 +7.32755E+00 +4.69559E+00 -2.80308E+00 +7.00391E+00 -1.16809E+01
 +3.67197E+00 -1.27617E+01 -1.80080E-01 -6.27636E+00 -1.32946E+00 +1.66575E+00 -9.24282E-01 +5.18796E+00
 -1.74627E+00 +3.72785E+00 -3.96300E+00 +1.31744E+00 -4.48273E+00 +1.42540E+00 -7.84426E-01 +3.13331E+00
 +5.13606E+00 +2.66011E+00 +7.56005E+00 -1.65727E+00 +2.48838E+00 -6.60124E+00 -7.61552E+00 -6.87629E+00
 -1.50174E+01 -8.23770E-01 -1.33663E+01 +6.97085E+00 -3.68381E+00 +9.30099E+00 +6.20621E+00 +3.00656E+00
 +8.54710E+00 -7.77652E+00 +2.47155E+00 -1.50669E+01 -5.57279E+00 -1.39618E+01 -8.01443E+00 -6.48968E+00
 -2.95256E+00 +1.00245E+00 +4.74317E+00 +3.95458E+00 +8.57029E+00 +3.07288E+00 +6.36164E+00 +2.14911E+00
 +1.35355E+00 +3.13834E+00 -2.06495E+00 +4.01950E+00 -3.00464E+00 +1.63964E+00 -4.23129E+00 -3.85994E+00
 -8.00561E+00 -8.29103E+00 -1.24563E+01 -7.64296E+00 -1.27063E+01 -2.95755E+00 -5.80508E+00 -2.83875E-01
 +5.67670E+00 -4.91560E+00 +1.53062E+01 -1.52285E+01 +1.82196E+01 -2.25431E+01 +1.49282E+01 -1.80355E+01
 +9.78363E+00 -8.64689E-01 +5.94709E+00 +1.99013E+01 +2.32351E+00 +3.15907E+01 -4.22515E+00 +2.71749E+01
 -1.38129E+01 +9.77390E+00 -2.13358E+01 -1.07077E+01 -2.01402E+01 -2.50362E+01 -8.40955E+00 -2.96559E+01
 +8.09937E+00 -2.61354E+01 +2.01360E+01 -1.75158E+01 +2.23909E+01 -6.08203E+00 +1.73739E+01 +5.85452E+00
 +1.21244E+01 +1.46808E+01 +1.10427E+01 +1.67552E+01 +1.18419E+01 +1.17468E+01 +8.47715E+00 +4.19961E+00
 -1.97178E+00 +4.81729E-01 -1.53221E+01 +3.05847E+00 -2.31623E+01 +7.56575E+00 -1.98623E+01 +6.26421E+00
 -7.15545E+00 -4.57255E+00 +7.69465E+00 -2.00752E+01 +1.79438E+01 -2.97110E+01 +2.18078E+01 -2.56208E+01
 +2.17075E+01 -9.08512E+00 +2.01415E+01 +1.05928E+01 +1.69695E+01 +2.35789E+01 +1.06631E+01 +2.64900E+01
 +1.45992E+00 +2.29082E+01 -7.59060E+00 +1.79198E+01 -1.30279E+01 +1.27214E+01 -1.40457E+01 +4.67447E+00
 -1.25646E+01 -7.74893E+00 -1.01042E+01 -2.07896E+01 -5.20476E+00 -2.68390E+01 +5.00236E+00 -2.05763E+01
 +2.00069E+01 -4.04805E+00 +3.30858E+01 +1.41924E+01 +3.46552E+01 +2.51875E+01 +2.01639E+01 +2.55132E+01
 -4.34203E+00 +1.82642E+01 -2.48629E+01 +9.22177E+00 -2.92272E+01 +2.45653E+00 -1.62638E+01 -9.25960E-01
 +3.39713E+00 -1.17529E+00 +1.56699E+01 +1.46565E+00 +1.35461E+01 +5.99867E+00 +1.30505E+00 +9.38396E+00
 -1.02958E+01 +7.67306E+00 -1.29237E+01 -1.96057E-01 -6.10320E+00 -9.57076E+00 +4.29097E+00 -1.22129E+01
 +1.16340E+01 -2.98085E+00 +1.27926E+01 +1.44634E+01 +8.30962E+00 +2.87981E+01 +2.68939E-01 +2.92902E+01
 -8.98242E+00 +1.46760E+01 -1.64707E+01 -5.12595E+00 -1.86127E+01 -1.64263E+01 -1.33103E+01 -1.23158E+01
 -2.73033E+00 +2.42571E+00 +6.64162E+00 +1.58831E+01 +8.14767E+00 +1.86911E+01 +4.17925E-01 +1.05477E+01
 -1.09045E+01 -1.24898E+00 -1.73781E+01 -8.78317E+00 -1.45963E+01 -9.33423E+00 -5.54289E+00 -5.55416E+00
 +2.58903E+00 -1.32435E+00 +5.01399E+00 +1.87459E+00 +3.02890E+00 +4.90899E+00 +1.33211E+00 +8.44898E+00
 +1.97754E+00 +1.14064E+01 +1.43769E+00 +1.20015E+01 -5.78919E+00 +9.74023E+00 -2.02972E+01 +5.64733E+00
 -3.46303E+01 +5.20132E-01 -3.77943E+01 -6.28200E+00 -2.41617E+01 -1.53796E+01 +9.36934E-01 -2.44758E+01
 +2.40646E+01 -2.77770E+01 +3.28575E+01 -1.98493E+01 +2.41476E+01 -1.31568E+00 +4.95028E+00 +1.91723E+01
 -1.35031E+01 +2.98124E+01 -2.32005E+01 +2.42991E+01 -2.28081E+01 +7.01581E+00 -1.60946E+01 -1.01378E+01
 -8.27997E+00 -1.70342E+01 -3.47135E+00 -1.29464E+01 -3.72456E+00 -6.07726E+00 -8.44938E+00 -5.67567E+00
 -1.38148E+01 -1.38425E+01 -1.37122E+01 -2.40392E+01 -3.52307E+00 -2.70546E+01 +1.51051E+01 -1.87168E+01
 +3.28435E+01 -2.76313E+00 +3.75134E+01 +1.27480E+01 +2.28119E+01 +2.14051E+01 -5.76403E+00 +2.15356E+01
 -3.32958E+01 +1.49015E+01 -4.51293E+01 +3.81848E+00 -3.65847E+01 -9.85752E+00 -1.51377E+01 -2.35222E+01
 +6.22690E+00 -3.30078E+01 +1.85325E+01 -3.42744E+01 +2.14281E+01 -2.64912E+01 +2.01305E+01 -1.32476E+01
 +1.88139E+01 -1.89548E-01 +1.70081E+01 +8.92342E+00 +1.17468E+01 +1.39465E+01 +2.31602E+00 +1.63296E+01
 -7.71809E+00 +1.58697E+01 -1.32369E+01 +1.02191E+01 -1.20629E+01 -1.82567E+00 -6.60932E+00 -1.66855E+01
 -1.22303E+00 -2.65835E+01 +1.84423E+00 -2.50798E+01 +3.78705E+00 -1.30037E+01 +6.94887E+00 +1.06602E+00
 +1.17113E+01 +7.12854E+00 +1.59488E+01 +1.90254E+00 +1.73559E+01 -8.33632E+00 +1.57754E+01 -1.29520E+01
 +1.28447E+01 -5.86192E+00 +9.53543E+00 +9.39578E+00 +4.76676E+00 +2.25347E+01 -2.83057E+00 +2.45382E+01
 -1.16837E+01 +1.40119E+01 -1.65409E+01 -2.79178E+00 -1.21315E+01 -1.71698E+01 +1.53219E+00 -2.34014E+01
 +1.74294E+01 -2.05534E+01 +2.59168E+01 -1.09249E+01 +2.20929E+01 +1.95589E+00 +9.79874E+00 +1.39521E+01
 -1.47347E+00 +2.05301E+01 -4.23602E+00 +1.84137E+01 +1.37496E+00 +8.36943E+00 +8.67735E+00 -3.72019E+00
 +1.07795E+01 -9.84116E+00 +6.23598E+00 -5.55601E+00 -7.51750E-01 +6.16853E+00 -4.97172E+00 +1.67650E+01
 -4.78131E+00 +1.85167E+01 -2.48446E+00 +1.03811E+01 -9.36677E-01 -1.70370E+00 -4.05729E-01 -1.00252E+01
 +1.10684E+00 -1.09744E+01 +4.87392E+00 -6.55138E+00 +9.37183E+00 -9.17692E-01 +1.14873E+01 +3.93058E+00
 +9.63244E+00 +8.97449E+00 +5.29026E+00 +1.51622E+01 +1.28200E+00 +2.04223E+01 -1.29015E+00 +2.04706E+01
 -3.93928E+00 +1.30140E+01 -8.39427E+00 +1.05903E+00 -1.35280E+01 -8.46583E+00 -1.52944E+01 -1.00457E+01
 -1.03581E+01 -4.10814E+00 -2.68032E-02 +3.48251E+00 +9.72724E+00 +6.53858E+00 +1.27961E+01 +3.60464E+00
 +8.08740E+00 -1.45701E+00 +4.35879E-01 -3.42300E+00 -3.75215E+00 -1.98001E-01 -2.16195E+00 +6.13706E+00
 +1.67860E+00 +1.19375E+01 +2.05860E+00 +1.50411E+01 -3.43760E+00 +1.52707E+01 -1.17633E+01 +1.27028E+01
