 Created: 16-Jan-2021
 $NMID
 ID='D:\BASISSIMULATI'
 FMTDAT='(8E13.5)'
 VOLUME=   1.00000E+00
 TRAMP=   1.00000E+00
 $END
 +3.07276E+01 +1.40607E+00 +1.77021E+01 +2.37521E+01 -7.56129E+00 +2.46521E+01 -2.08686E+01 +4.25091E+00
 -1.00437E+01 -1.67497E+01 +1.34360E+01 -1.74528E+01 +2.59038E+01 +2.95008E+00 +1.46435E+01 +2.46542E+01
 -9.90263E+00 +2.67222E+01 -2.45517E+01 +7.40180E+00 -1.60097E+01 -1.44371E+01 +6.40305E+00 -1.78769E+01
 +2.01300E+01 -2.43956E-01 +1.14500E+01 +2.05811E+01 -1.13428E+01 +2.38144E+01 -2.62971E+01 +5.97139E+00
 -1.92746E+01 -1.60001E+01 +2.47707E+00 -2.14334E+01 +1.76793E+01 -5.99862E+00 +1.18496E+01 +1.43845E+01
 -8.79139E+00 +1.93094E+01 -2.36954E+01 +3.73262E+00 -1.81337E+01 -1.73863E+01 +2.62825E+00 -2.38946E+01
 +1.87544E+01 -1.00337E+01 +1.52720E+01 +1.02438E+01 -3.54443E+00 +1.71259E+01 -1.86717E+01 +4.21374E+00
 -1.50273E+01 -1.55379E+01 +4.00001E+00 -2.27174E+01 +2.01623E+01 -1.03613E+01 +1.82710E+01 +9.53879E+00
 +8.13498E-01 +1.79849E+01 -1.48051E+01 +7.46146E+00 -1.33863E+01 -1.10441E+01 +3.41790E+00 -1.90497E+01
 +1.90500E+01 -8.60541E+00 +1.83598E+01 +1.02330E+01 +2.21483E+00 +1.94887E+01 -1.36753E+01 +1.07854E+01
 -1.42433E+01 -6.78301E+00 +4.13717E-01 -1.58269E+01 +1.54817E+01 -7.63866E+00 +1.60761E+01 +9.60008E+00
 +1.61811E+00 +1.91072E+01 -1.39355E+01 +1.18961E+01 -1.58935E+01 -4.74015E+00 -3.00711E+00 -1.46547E+01
 +1.16676E+01 -8.62825E+00 +1.37227E+01 +6.92566E+00 +1.32392E+00 +1.65512E+01 -1.33460E+01 +1.08882E+01
 -1.61947E+01 -4.46324E+00 -4.84448E+00 -1.47310E+01 +9.39708E+00 -1.04381E+01 +1.28011E+01 +3.62891E+00
 +2.49520E+00 +1.34373E+01 -1.10901E+01 +9.48348E+00 -1.46519E+01 -4.19290E+00 -4.90113E+00 -1.42948E+01
 +8.57274E+00 -1.13321E+01 +1.29105E+01 +1.37531E+00 +4.43612E+00 +1.12900E+01 -8.11158E+00 +8.99484E+00
 -1.23824E+01 -2.86691E+00 -4.39669E+00 -1.25338E+01 +7.91436E+00 -1.07273E+01 +1.27269E+01 +5.26946E-01
 +5.79943E+00 +1.02356E+01 -5.73409E+00 +9.29420E+00 -1.06179E+01 -8.60668E-01 -4.41198E+00 -1.00258E+01
 +6.51679E+00 -9.34146E+00 +1.15121E+01 +2.75336E-01 +5.99839E+00 +9.39379E+00 -4.38708E+00 +9.43249E+00
 -9.60384E+00 +8.26113E-01 -4.98608E+00 -7.77352E+00 +4.53719E+00 -8.11795E+00 +9.57657E+00 -2.18850E-01
 +5.44683E+00 +8.03869E+00 -3.58127E+00 +8.78255E+00 -8.77539E+00 +1.65653E+00 -5.47414E+00 -6.20589E+00
 +2.68179E+00 -7.34429E+00 +7.64040E+00 -1.08230E+00 +4.82582E+00 +6.18953E+00 -2.70337E+00 +7.46908E+00
 -7.58250E+00 +1.82453E+00 -5.37180E+00 -5.06835E+00 +1.40953E+00 -6.69175E+00 +6.09030E+00 -1.90471E+00
 +4.41507E+00 +4.31659E+00 -1.59348E+00 +5.97682E+00 -5.96457E+00 +1.78787E+00 -4.68133E+00 -3.94235E+00
 +6.77048E-01 -5.76550E+00 +4.83412E+00 -2.29847E+00 +4.05213E+00 +2.79199E+00 -4.90023E-01 +4.62957E+00
 -4.21081E+00 +1.79059E+00 -3.70107E+00 -2.66764E+00 +2.05017E-01 -4.46373E+00 +3.60866E+00 -2.18993E+00
 +3.46753E+00 +1.66838E+00 +3.19163E-01 +3.43895E+00 -2.61073E+00 +1.77903E+00 -2.68697E+00 -1.36382E+00
 -2.04078E-01 -2.94363E+00 +2.26926E+00 -1.73832E+00 +2.54146E+00 +7.98778E-01 +7.17385E-01 +2.25481E+00
 -1.27155E+00 +1.57522E+00 -1.70854E+00 -2.41774E-01 -5.59810E-01 -1.42491E+00 +8.60227E-01 -1.13774E+00
 +1.34194E+00 +3.05254E-02 +7.68925E-01 +9.51689E-01 -1.33409E-01 +1.05339E+00 -6.86345E-01 +5.61111E-01
 -7.40619E-01 -3.85444E-02 -4.58498E-01 -4.80808E-01 +3.76689E-02 -6.73805E-01 +6.20582E-01 -4.65885E-01
 +9.22611E-01 +2.30121E-01 +4.91303E-01 +1.05581E+00 -6.18567E-01 +1.23207E+00 -1.54288E+00 +2.82939E-01
 -1.23847E+00 -1.21346E+00 +3.62459E-01 -1.86007E+00 +1.93483E+00 -7.52591E-01 +1.83040E+00 +1.36387E+00
 -1.92969E-01 +2.49142E+00 -2.39053E+00 +1.26450E+00 -2.50279E+00 -1.45483E+00 -6.83127E-02 -3.08652E+00
 +2.78648E+00 -1.77318E+00 +3.18261E+00 +1.55618E+00 +3.90128E-01 +3.75942E+00 -3.12800E+00 +2.45641E+00
 -3.87313E+00 -1.41124E+00 -8.03211E-01 -4.16795E+00 +3.32661E+00 -2.88980E+00 +4.40060E+00 +1.51594E+00
 +1.02370E+00 +4.86438E+00 -3.80024E+00 +3.66228E+00 -5.34021E+00 -1.27128E+00 -1.80343E+00 -5.27544E+00
 +3.60982E+00 -4.27098E+00 +5.56772E+00 +1.06044E+00 +1.84772E+00 +5.61600E+00 -4.19574E+00 +4.71733E+00
 -6.63652E+00 -1.13711E+00 -2.78159E+00 -6.43397E+00 +3.91400E+00 -5.87842E+00 +6.94890E+00 +2.68961E-01
 +3.12917E+00 +6.13032E+00 -4.03851E+00 +5.79489E+00 -7.49753E+00 -7.52190E-01 -3.52611E+00 -7.29976E+00
 +4.36235E+00 -7.30788E+00 +8.57124E+00 -4.33496E-01 +4.81563E+00 +6.82790E+00 -3.44440E+00 +7.31156E+00
 -8.10882E+00 +3.06528E-01 -4.31814E+00 -7.44980E+00 +4.55743E+00 -8.17131E+00 +9.92905E+00 -7.41818E-01
 +6.32937E+00 +7.89813E+00 -3.02243E+00 +9.33805E+00 -9.08984E+00 +2.00599E+00 -5.78872E+00 -7.01468E+00
 +3.85546E+00 -8.71406E+00 +1.03885E+01 -1.04502E+00 +7.09555E+00 +8.79517E+00 -3.23555E+00 +1.11913E+01
 -1.07613E+01 +3.56866E+00 -8.11469E+00 -6.82706E+00 +2.21521E+00 -9.80681E+00 +1.00509E+01 -2.24988E+00
 +7.38625E+00 +8.58826E+00 -3.61104E+00 +1.19571E+01 -1.24450E+01 +4.15915E+00 -1.04413E+01 -7.58699E+00
 +6.22258E-01 -1.19848E+01 +9.99722E+00 -4.72198E+00 +8.36305E+00 +7.08506E+00 -2.91524E+00 +1.16395E+01
 -1.28636E+01 +4.01623E+00 -1.15065E+01 -8.79106E+00 +2.50190E-01 -1.44825E+01 +1.12525E+01 -7.46842E+00
 +1.08716E+01 +5.46181E+00 -4.95390E-01 +1.15681E+01 -1.15776E+01 +4.60972E+00 -1.11250E+01 -8.84782E+00
 +9.81094E-01 -1.56332E+01 +1.33665E+01 -8.82272E+00 +1.41363E+01 +5.30209E+00 +2.58297E+00 +1.31806E+01
 -9.90494E+00 +7.19509E+00 -1.08445E+01 -6.71127E+00 +1.05111E+00 -1.46417E+01 +1.43892E+01 -8.30068E+00
 +1.60847E+01 +6.72050E+00 +4.21494E+00 +1.61919E+01 -9.89360E+00 +1.10950E+01 -1.25900E+01 -3.42088E+00
 -1.29606E+00 -1.28831E+01 +1.27789E+01 -7.59998E+00 +1.54551E+01 +7.71184E+00 +3.49791E+00 +1.83311E+01
 -1.20186E+01 +1.38519E+01 -1.63752E+01 -1.52126E+00 -5.61593E+00 -1.28957E+01 +9.42048E+00 -9.18196E+00
 +1.35619E+01 +5.94967E+00 +2.17348E+00 +1.74750E+01 -1.41275E+01 +1.36361E+01 -1.96891E+01 -2.44996E+00
 -9.12824E+00 -1.56470E+01 +7.25843E+00 -1.35039E+01 +1.34199E+01 +1.49520E+00 +3.25111E+00 +1.42041E+01
 -1.32895E+01 +1.15560E+01 -1.97722E+01 -4.56191E+00 -9.35957E+00 -1.89712E+01 +8.36456E+00 -1.79382E+01
 +1.66107E+01 -2.65634E+00 +7.77198E+00 +1.17772E+01 -9.02981E+00 +1.10425E+01 -1.67409E+01 -4.33475E+00
 -7.04868E+00 -1.93449E+01 +1.13561E+01 -1.90768E+01 +2.11216E+01 -3.34908E+00 +1.31532E+01 +1.29676E+01
 -4.40947E+00 +1.43873E+01 -1.40377E+01 -2.32465E-02 -5.93386E+00 -1.56184E+01 +1.22848E+01 -1.64187E+01
 +2.29006E+01 -7.86096E-01 +1.53776E+01 +1.68325E+01 -3.25676E+00 +1.99162E+01 -1.51600E+01 +6.02228E+00
 -9.07146E+00 -1.07367E+01 +8.61763E+00 -1.34209E+01 +2.00154E+01 +1.14111E+00 +1.31964E+01 +1.91353E+01
 -6.05623E+00 +2.31679E+01 -1.97779E+01 +9.27016E+00 -1.53157E+01 -9.13541E+00 +2.27348E+00 -1.42733E+01
 +1.50943E+01 -1.39079E+00 +9.88447E+00 +1.65223E+01 -8.95340E+00 +2.13649E+01 -2.35474E+01 +7.63322E+00
 -1.99634E+01 -1.21073E+01 -1.84945E+00 -1.94081E+01 +1.30593E+01 -7.93841E+00 +1.02345E+01 +1.02889E+01
 -7.41532E+00 +1.66167E+01 -2.23203E+01 +3.99558E+00 -1.93871E+01 -1.60468E+01 -7.87226E-01 -2.45861E+01
 +1.60854E+01 -1.37631E+01 +1.55503E+01 +5.50757E+00 -1.04263E+00 +1.41611E+01 -1.66038E+01 +3.60825E+00
 -1.49934E+01 -1.58288E+01 +3.16764E+00 -2.49541E+01 +2.10308E+01 -1.44458E+01 +2.19229E+01 +5.99601E+00
 +5.61900E+00 +1.70708E+01 -1.14220E+01 +8.70115E+00 -1.21261E+01 -1.01211E+01 +4.49737E+00 -2.01102E+01
 +2.23501E+01 -1.05416E+01 +2.39424E+01 +1.02276E+01 +7.47963E+00 +2.28668E+01 -1.13595E+01 +1.59142E+01
 -1.47080E+01 -3.04537E+00 +5.46497E-02 -1.47957E+01 +1.77501E+01 -7.26988E+00 +2.02357E+01 +1.26415E+01
 +4.14680E+00 +2.57963E+01 -1.57857E+01 +1.94792E+01 -2.10858E+01 -1.86489E-01 -7.54100E+00 -1.42160E+01
 +1.07159E+01 -9.29192E+00 +1.50354E+01 +9.24806E+00 +4.82096E-01 +2.26450E+01 -1.93343E+01 +1.70556E+01
 -2.55372E+01 -2.91760E+00 -1.23949E+01 -1.87089E+01 +7.10982E+00 -1.58916E+01 +1.39732E+01 +1.77979E+00
 +1.71866E+00 +1.60868E+01 -1.73100E+01 +1.21709E+01 -2.40323E+01 -6.95018E+00 -1.12711E+01 -2.33335E+01
 +9.25132E+00 -2.16195E+01 +1.83623E+01 -3.98811E+00 +8.12652E+00 +1.20206E+01 -1.04710E+01 +1.06555E+01
 -1.83134E+01 -6.68790E+00 -6.84167E+00 -2.28761E+01 +1.36029E+01 -2.17932E+01 +2.38906E+01 -4.05895E+00
 +1.47537E+01 +1.36128E+01 -4.23455E+00 +1.47387E+01 -1.40727E+01 -8.93133E-01 -4.89575E+00 -1.71010E+01
 +1.44380E+01 -1.71673E+01 +2.50487E+01 -1.58393E-01 +1.64727E+01 +1.82024E+01 -3.17296E+00 +2.08964E+01
 -1.51684E+01 +6.16844E+00 -8.45827E+00 -1.08562E+01 +9.63510E+00 -1.30030E+01 +2.06544E+01 +2.19842E+00
 +1.30626E+01 +2.01698E+01 -6.53161E+00 +2.35612E+01 -1.98794E+01 +9.15636E+00 -1.48955E+01 -9.07136E+00
 +2.63633E+00 -1.36532E+01 +1.48212E+01 -6.39710E-01 +9.16590E+00 +1.66495E+01 -9.27512E+00 +2.07137E+01
 -2.29137E+01 +6.95146E+00 -1.88137E+01 -1.19216E+01 -1.24143E+00 -1.83353E+01 +1.26037E+01 -6.96825E+00
 +9.41043E+00 +1.01840E+01 -7.32823E+00 +1.56253E+01 -2.08440E+01 +3.44091E+00 -1.75163E+01 -1.50139E+01
 -1.13444E-01 -2.22718E+01 +1.50067E+01 -1.17746E+01 +1.38892E+01 +5.84599E+00 -1.49081E+00 +1.32496E+01
 -1.53019E+01 +3.30478E+00 -1.33871E+01 -1.40650E+01 +2.96506E+00 -2.16802E+01 +1.83878E+01 -1.18778E+01
 +1.84785E+01 +6.11234E+00 +3.77236E+00 +1.52744E+01 -1.09281E+01 +7.39664E+00 -1.10792E+01 -9.05187E+00
 +3.46925E+00 -1.73299E+01 +1.84671E+01 -8.79140E+00 +1.92523E+01 +8.77494E+00 +5.00357E+00 +1.88576E+01
 -1.05958E+01 +1.23308E+01 -1.27862E+01 -3.77579E+00 -6.21963E-02 -1.32894E+01 +1.45252E+01 -6.70785E+00
 +1.62186E+01 +9.63989E+00 +2.91899E+00 +1.99112E+01 -1.29020E+01 +1.42365E+01 -1.64581E+01 -1.76795E+00
 -5.00893E+00 -1.26277E+01 +9.64062E+00 -8.13710E+00 +1.27863E+01 +6.81220E+00 +1.13949E+00 +1.71767E+01
 -1.41161E+01 +1.24982E+01 -1.83522E+01 -2.99352E+00 -7.72597E+00 -1.46580E+01 +7.23557E+00 -1.17638E+01
 +1.20340E+01 +2.17247E+00 +2.30730E+00 +1.30048E+01 -1.20879E+01 +9.83351E+00 -1.68409E+01 -4.46090E+00
 -7.13406E+00 -1.61963E+01 +7.81230E+00 -1.42990E+01 +1.38681E+01 -9.91801E-01 +5.74493E+00 +1.05603E+01
