 Created: 16-Jan-2021
 $NMID
 ID='D:\BASISSIMULATI'
 FMTDAT='(8E13.5)'
 VOLUME=   1.00000E+00
 TRAMP=   1.00000E+00
 $END
 +5.32639E+01 +5.08699E+00 +4.84898E+01 +2.16365E+01 +3.85538E+01 +3.54956E+01 +2.47535E+01 +4.50921E+01
 +8.83786E+00 +4.94317E+01 -7.23665E+00 +4.82126E+01 -2.15712E+01 +4.18410E+01 -3.25718E+01 +3.13491E+01
 -3.91447E+01 +1.82301E+01 -4.08129E+01 +4.21906E+00 -3.77432E+01 -8.94830E+00 -3.06835E+01 -1.97618E+01
 -2.08254E+01 -2.71181E+01 -9.61685E+00 -3.04338E+01 +1.44596E+00 -2.96795E+01 +1.10155E+01 -2.53373E+01
 +1.80524E+01 -1.82931E+01 +2.19294E+01 -9.68519E+00 +2.24693E+01 -7.35726E-01 +1.99207E+01 +7.41130E+00
 +1.48806E+01 +1.38228E+01 +8.18258E+00 +1.78662E+01 +7.69117E-01 +1.92488E+01 -6.43112E+00 +1.80103E+01
 -1.26062E+01 +1.44756E+01 -1.71334E+01 +9.18172E+00 -1.96180E+01 +2.79377E+00 -1.99006E+01 -3.97794E+00
 -1.80386E+01 -1.04488E+01 -1.42725E+01 -1.60140E+01 -8.98403E+00 -2.01842E+01 -2.65375E+00 -2.26056E+01
 +4.17712E+00 -2.30695E+01 +1.09408E+01 -2.15141E+01 +1.70739E+01 -1.80245E+01 +2.20478E+01 -1.28300E+01
 +2.54018E+01 -6.29740E+00 +2.67786E+01 +1.08122E+00 +2.59620E+01 +8.71251E+00 +2.29107E+01 +1.59391E+01
 +1.77837E+01 +2.20914E+01 +1.09485E+01 +2.65519E+01 +2.96743E+00 +2.88245E+01 -5.44249E+00 +2.86019E+01
 -1.34747E+01 +2.58186E+01 -2.03184E+01 +2.06800E+01 -2.52540E+01 +1.36597E+01 -2.77466E+01 +5.46090E+00
 -2.75225E+01 -3.05588E+00 -2.46166E+01 -1.09723E+01 -1.93813E+01 -1.74255E+01 -1.24517E+01 -2.17199E+01
 -4.67157E+00 -2.34219E+01 +3.01288E+00 -2.24213E+01 +9.67650E+00 -1.89499E+01 +1.45385E+01 -1.35535E+01
 +1.70676E+01 -7.01882E+00 +1.70538E+01 -2.66443E-01 +1.46345E+01 +5.77600E+00 +1.02729E+01 +1.03017E+01
 +4.68893E+00 +1.27350E+01 -1.24419E+00 +1.28086E+01 -6.62541E+00 +1.05953E+01 -1.06526E+01 +6.49224E+00
 -1.27338E+01 +1.15846E+00 -1.25657E+01 -4.58306E+00 -1.01705E+01 -9.86435E+00 -5.88549E+00 -1.38948E+01
 -3.08314E-01 -1.60692E+01 +5.79157E+00 -1.60467E+01 +1.15830E+01 -1.37901E+01 +1.62871E+01 -9.56220E+00
 +1.92804E+01 -3.88139E+00 +2.01712E+01 +2.55598E+00 +1.88424E+01 +8.97295E+00 +1.54549E+01 +1.46152E+01
 +1.04145E+01 +1.88456E+01 +4.30915E+00 +2.12180E+01 -2.17325E+00 +2.15212E+01 -8.33430E+00 +1.97912E+01
 -1.35489E+01 +1.62903E+01 -1.73334E+01 +1.14612E+01 -1.93912E+01 +5.86195E+00 -1.96315E+01 +9.35203E-02
 -1.81622E+01 -5.27112E+00 -1.52606E+01 -9.74773E+00 -1.13276E+01 -1.29852E+01 -6.83335E+00 -1.47904E+01
 -2.26065E+00 -1.51332E+01 +1.94588E+00 -1.41333E+01 +5.42161E+00 -1.20333E+01 +7.91060E+00 -9.16209E+00
 +9.28061E+00 -5.89420E+00 +9.52465E+00 -2.60863E+00 +8.75083E+00 +3.48294E-01 +7.16275E+00 +2.69376E+00
 +5.03308E+00 +4.23129E+00 +2.67294E+00 +4.86446E+00 +3.99589E-01 +4.60130E+00 -1.49518E+00 +3.54945E+00
 -2.77372E+00 +1.90265E+00 -3.27614E+00 -8.03890E-02 -2.93683E+00 -2.10341E+00 -1.79222E+00 -3.86416E+00
 +2.15141E-02 -5.08747E+00 +2.28108E+00 -5.55680E+00 +4.69870E+00 -5.14084E+00 +6.95292E+00 -3.81202E+00
 +8.72469E+00 -1.65414E+00 +9.73504E+00 +1.14236E+00 +9.77999E+00 +4.29789E+00 +8.75823E+00 +7.47259E+00
 +6.68781E+00 +1.03037E+01 +3.70938E+00 +1.24473E+01 +7.46878E-02 +1.36194E+01 -3.87851E+00 +1.36312E+01
 -7.76272E+00 +1.24144E+01 -1.11837E+01 +1.00321E+01 -1.37853E+01 +6.67482E+00 -1.52902E+01 +2.64137E+00
 -1.55320E+01 -1.69331E+00 -1.44748E+01 -5.91931E+00 -1.22169E+01 -9.63687E+00 -8.97977E+00 -1.25001E+01
 -5.08315E+00 -1.42544E+01 -9.08690E-01 -1.47625E+01 +3.14201E+00 -1.40174E+01 +6.69107E+00 -1.21405E+01
 +9.42429E+00 -9.36514E+00 +1.11231E+01 -6.00890E+00 +1.16852E+01 -2.43681E+00 +1.11322E+01 +9.79232E-01
 +9.60319E+00 +3.90083E+00 +7.33638E+00 +6.05885E+00 +4.63987E+00 +7.28083E+00 +1.85584E+00 +7.50739E+00
 -6.78629E-01 +6.79612E+00 -2.66947E+00 +5.31254E+00 -3.89872E+00 +3.30938E+00 -4.24895E+00 +1.09610E+00
 -3.71655E+00 -9.97986E-01 -2.41210E+00 -2.66323E+00 -5.47647E-01 -3.64743E+00 +1.58821E+00 -3.78767E+00
 +3.66494E+00 -3.03230E+00 +5.35075E+00 -1.45018E+00 +6.35478E+00 +7.74445E-01 +6.46578E+00 +3.36161E+00
 +5.58241E+00 +5.96795E+00 +3.73078E+00 +8.22841E+00 +1.06671E+00 +9.80246E+00 -2.13874E+00 +1.04191E+01
 -5.52908E+00 +9.91490E+00 -8.70445E+00 +8.25954E+00 -1.12711E+01 +5.56519E+00 -1.28916E+01 +2.07766E+00
 -1.33298E+01 -1.85014E+00 -1.24835E+01 -5.79947E+00 -1.04010E+01 -9.33666E+00 -7.27783E+00 -1.20670E+01
 -3.43499E+00 -1.36845E+01 +7.19874E-01 -1.40108E+01 +4.74245E+00 -1.30175E+01 +8.20662E+00 -1.08294E+01
 +1.07567E+01 -7.70820E+00 +1.21502E+01 -4.01805E+00 +1.22849E+01 -1.79315E-01 +1.12085E+01 +3.38433E+00
 +9.10748E+00 +6.29763E+00 +6.28017E+00 +8.27770E+00 +3.09579E+00 +9.16469E+00 -5.31535E-02 +8.93579E+00
 -2.79924E+00 +7.70158E+00 -4.84288E+00 +5.68622E+00 -5.98447E+00 +3.19503E+00 -6.14274E+00 +5.74288E-01
 -5.35801E+00 -1.83115E+00 -3.78148E+00 -3.71740E+00 -1.65278E+00 -4.85385E+00 +7.30457E-01 -5.10543E+00
 +3.04713E+00 -4.44350E+00 +4.98741E+00 -2.94542E+00 +6.28444E+00 -7.84036E-01 +6.74072E+00 +1.79111E+00
 +6.24749E+00 +4.47858E+00 +4.79634E+00 +6.95386E+00 +2.48253E+00 +8.90004E+00 -4.99938E-01 +1.00387E+01
 -3.87180E+00 +1.01590E+01 -7.29006E+00 +9.14296E+00 -1.03773E+01 +6.98511E+00 -1.27570E+01 +3.80304E+00
 -1.40937E+01 -1.62478E-01 -1.41332E+01 -4.56050E+00 -1.27401E+01 -8.95665E+00 -9.92590E+00 -1.28731E+01
 -5.86451E+00 -1.58392E+01 -8.89378E-01 -1.74475E+01 +4.52947E+00 -1.74101E+01 +9.82860E+00 -1.56054E+01
 +1.44116E+01 -1.21100E+01 +1.77203E+01 -7.20735E+00 +1.93091E+01 -1.37039E+00 +1.89102E+01 +4.78326E+00
 +1.64821E+01 +1.05596E+01 +1.22310E+01 +1.52724E+01 +6.59915E+00 +1.83336E+01 +2.21560E-01 +1.93357E+01
 -6.14806E+00 +1.81152E+01 -1.17315E+01 +1.47861E+01 -1.58286E+01 +9.73607E+00 -1.79143E+01 +3.58500E+00
 -1.77146E+01 -2.89115E+00 -1.52507E+01 -8.86075E+00 -1.08427E+01 -1.35480E+01 -5.07208E+00 -1.63393E+01
 +1.29415E+00 -1.68694E+01 +7.40578E+00 -1.50738E+01 +1.24451E+01 -1.11994E+01 +1.57388E+01 -5.77177E+00
 +1.68493E+01 +4.76809E-01 +1.56335E+01 +6.70831E+00 +1.22594E+01 +1.20937E+01 +7.17943E+00 +1.59249E+01
 +1.06417E+00 +1.77083E+01 -5.29195E+00 +1.72260E+01 -1.10798E+01 +1.45574E+01 -1.55828E+01 +1.00594E+01
 -1.82674E+01 +4.30933E+00 -1.88440E+01 -1.97953E+00 -1.72923E+01 -8.05571E+00 -1.38490E+01 -1.32269E+01
 -8.96177E+00 -1.69424E+01 -3.21961E+00 -1.88513E+01 +2.72923E+00 -1.88283E+01 +8.25909E+00 -1.69697E+01
 +1.28370E+01 -1.35604E+01 +1.60729E+01 -9.02252E+00 +1.77453E+01 -3.85290E+00 +1.78037E+01 +1.43784E+00
 +1.63500E+01 +6.37847E+00 +1.36071E+01 +1.05758E+01 +9.88016E+00 +1.37372E+01 +5.51960E+00 +1.56775E+01
 +8.89151E-01 +1.63149E+01 -3.65782E+00 +1.56600E+01 -7.79404E+00 +1.38031E+01 -1.12286E+01 +1.09031E+01
 -1.37149E+01 +7.17939E+00 -1.50604E+01 +2.90593E+00 -1.51385E+01 -1.59506E+00 -1.39053E+01 -5.96399E+00
 -1.14154E+01 -9.82213E+00 -7.83612E+00 -1.27993E+01 -3.45142E+00 -1.45700E+01 +1.34671E+00 -1.48954E+01
 +6.08424E+00 -1.36636E+01 +1.02482E+01 -1.09226E+01 +1.33437E+01 -6.89671E+00 +1.49588E+01 -1.98119E+00
 +1.48270E+01 +3.28893E+00 +1.28778E+01 +8.29393E+00 +9.26507E+00 +1.24038E+01 +4.36583E+00 +1.50619E+01
 -1.25324E+00 +1.58666E+01 -6.89986E+00 +1.46372E+01 -1.18434E+01 +1.14525E+01 -1.54134E+01 +6.65495E+00
 -1.70957E+01 +8.16347E-01 -1.66106E+01 -5.33172E+00 -1.39603E+01 -1.09933E+01 -9.43744E+00 -1.54170E+01
 -3.59234E+00 -1.80013E+01 +2.83876E+00 -1.83811E+01 +9.03310E+00 -1.64823E+01 +1.41947E+01 -1.25340E+01
 +1.76649E+01 -7.03794E+00 +1.90126E+01 -6.98268E-01 +1.80923E+01 +5.67738E+00 +1.50597E+01 +1.12908E+01
 +1.03439E+01 +1.54627E+01 +4.58180E+00 +1.77232E+01 -1.47711E+00 +1.78693E+01 -7.07740E+00 +1.59821E+01
 -1.15618E+01 +1.24028E+01 -1.44563E+01 +7.67224E+00 -1.55241E+01 +2.44469E+00 -1.47825E+01 -2.60973E+00
 -1.24816E+01 -6.89836E+00 -9.05053E+00 -9.98150E+00 -5.02232E+00 -1.16195E+01 -9.49170E-01 -1.17865E+01
 +2.67660E+00 -1.06509E+01 +5.48486E+00 -8.52908E+00 +7.26461E+00 -5.82174E+00 +7.97222E+00 -2.94488E+00
 +7.71262E+00 -2.67266E-01 +6.69965E+00 +1.93603E+00 +5.20466E+00 +3.50813E+00 +3.50375E+00 +4.41128E+00
 +1.83319E+00 +4.70728E+00 +3.60128E-01 +4.52370E+00 -8.28057E-01 +4.01436E+00 -1.71632E+00 +3.32273E+00
 -2.34047E+00 +2.55548E+00 -2.75846E+00 +1.77045E+00 -3.02181E+00 +9.80159E-01 -3.15438E+00 +1.68113E-01
 -3.14310E+00 -6.87348E-01 -2.94265E+00 -1.58845E+00 -2.49240E+00 -2.49944E+00 -1.74131E+00 -3.33922E+00
 -6.74307E-01 -3.98793E+00 +6.66603E-01 -4.30669E+00 +2.17252E+00 -4.16676E+00 +3.67260E+00 -3.48220E+00
 +4.95438E+00 -2.23856E+00 +5.79658E+00 -5.10991E-01 +6.00875E+00 +1.53331E+00 +5.47033E+00 +3.65045E+00
 +4.16125E+00 +5.55151E+00 +2.17751E+00 +6.94602E+00 -2.72452E-01 +7.58978E+00 -2.89125E+00 +7.32886E+00
 -5.33302E+00 +6.13137E+00 -7.25465E+00 +4.10091E+00 -8.36943E+00 +1.46825E+00 -8.49402E+00 -1.43806E+00
 -7.58065E+00 -4.23807E+00 -5.72849E+00 -6.55654E+00 -3.17217E+00 -8.07961E+00 -2.48589E-01 -8.60282E+00
 +2.65252E+00 -8.06253E+00 +5.14658E+00 -6.54550E+00 +6.91111E+00 -4.27512E+00 +7.73277E+00 -1.57670E+00
 +7.53680E+00 +1.17260E+00 +6.39466E+00 +3.60069E+00 +4.50897E+00 +5.39535E+00 +2.17885E+00 +6.34819E+00
 -2.48348E-01 +6.38108E+00 -2.43066E+00 +5.55157E+00 -4.08190E+00 +4.03725E+00 -5.01088E+00 +2.10251E+00
 -5.14386E+00 +5.38663E-02 -4.52761E+00 -1.80848E+00 -3.31369E+00 -3.23491E+00 -1.72772E+00 -4.05965E+00
 -2.95953E-02 -4.21862E+00 +1.52835E+00 -3.75002E+00 +2.73833E+00 -2.77907E+00 +3.46372E+00 -1.49060E+00
 +3.65194E+00 -9.51414E-02 +3.33273E+00 +1.20544E+00 +2.60379E+00 +2.24699E+00 +1.60737E+00 +2.92264E+00
 +5.02873E-01 +3.19076E+00 -5.59539E-01 +3.07122E+00 -1.45979E+00 +2.63241E+00 -2.12043E+00 +1.97220E+00
 -2.50988E+00 +1.19742E+00 -2.63705E+00 +4.05689E-01 -2.53999E+00 -3.27410E-01 -2.27159E+00 -9.54068E-01
 -1.88593E+00 -1.45309E+00 -1.42803E+00 -1.82328E+00 -9.28798E-01 -2.07387E+00 -4.05559E-01 -2.21488E+00
 +1.32845E-01 -2.25005E+00 +6.78391E-01 -2.17396E+00 +1.21614E+00 -1.97405E+00 +1.71890E+00 -1.63673E+00
 +2.14599E+00 -1.15595E+00 +2.44693E+00 -5.41604E-01 +2.56948E+00 +1.74263E-01 +2.47047E+00 +9.35840E-01
