 Created: 16-Jan-2021
 $NMID
 ID='D:\BASISSIMULATI'
 FMTDAT='(8E13.5)'
 VOLUME=   1.00000E+00
 TRAMP=   1.00000E+00
 $END
 +5.64035E+01 +5.15442E+00 +3.99306E+01 +2.80104E+01 +2.64694E+00 +3.71899E+01 -3.19520E+01 +2.87989E+01
 -4.27539E+01 +7.12909E+00 -2.48254E+01 -1.69666E+01 +8.23501E+00 -3.08190E+01 +3.44894E+01 -2.64451E+01
 +3.86235E+01 -5.66375E+00 +2.11048E+01 +1.98232E+01 -4.10159E+00 +3.47214E+01 -2.04037E+01 +2.97734E+01
 -1.96125E+01 +8.42643E+00 -5.74622E+00 -1.47509E+01 +9.72261E+00 -2.37369E+01 +1.65009E+01 -1.24389E+01
 +1.16317E+01 +1.05794E+01 -1.80328E-01 +2.80209E+01 -1.08647E+01 +2.65292E+01 -1.41603E+01 +6.80938E+00
 -8.60104E+00 -1.65783E+01 +2.43872E+00 -2.58888E+01 +1.27154E+01 -1.34726E+01 +1.59926E+01 +1.23132E+01
 +9.09297E+00 +3.30449E+01 -5.79475E+00 +3.35955E+01 -2.10711E+01 +1.30046E+01 -2.71162E+01 -1.50084E+01
 -1.82211E+01 -3.19178E+01 +2.45666E+00 -2.71800E+01 +2.30811E+01 -4.83486E+00 +2.97954E+01 +2.01417E+01
 +1.62664E+01 +3.23236E+01 -1.06300E+01 +2.54755E+01 -3.39948E+01 +5.23999E+00 -3.78491E+01 -1.57520E+01
 -1.85486E+01 -2.60473E+01 +1.17940E+01 -2.14017E+01 +3.30415E+01 -5.82857E+00 +3.08932E+01 +1.16375E+01
 +7.00294E+00 +2.18436E+01 -2.20961E+01 +1.96917E+01 -3.66055E+01 +6.30917E+00 -2.72382E+01 -1.13155E+01
 -1.28257E+00 -2.33933E+01 +2.31157E+01 -2.23954E+01 +2.99145E+01 -7.89073E+00 +1.59014E+01 +1.20357E+01
 -8.10987E+00 +2.47722E+01 -2.56570E+01 +2.10979E+01 -2.59685E+01 +2.07520E+00 -1.03255E+01 -2.04179E+01
 +1.01438E+01 -3.09648E+01 +2.26052E+01 -2.13388E+01 +2.05026E+01 +2.95582E+00 +6.50252E+00 +2.56556E+01
 -1.03626E+01 +3.08074E+01 -2.05017E+01 +1.42545E+01 -1.87904E+01 -1.29447E+01 -6.59244E+00 -3.20133E+01
 +9.39885E+00 -2.96723E+01 +2.05016E+01 -7.53718E+00 +2.02596E+01 +1.91116E+01 +8.00893E+00 +3.21958E+01
 -9.99721E+00 +2.33893E+01 -2.32423E+01 -5.72464E-01 -2.28517E+01 -2.32000E+01 -7.66472E+00 -2.98655E+01
 +1.37851E+01 -1.73176E+01 +2.77385E+01 +5.15447E+00 +2.41066E+01 +2.28401E+01 +3.96917E+00 +2.53965E+01
 -2.00793E+01 +1.26807E+01 -3.18611E+01 -6.44111E+00 -2.28120E+01 -2.04293E+01 +1.53154E+00 -2.19147E+01
 +2.48321E+01 -1.11289E+01 +3.11350E+01 +5.17389E+00 +1.60921E+01 +1.78349E+01 -9.90292E+00 +2.00206E+01
 -2.90168E+01 +1.05343E+01 -2.84729E+01 -5.51011E+00 -9.27127E+00 -1.90540E+01 +1.49467E+01 -2.18288E+01
 +2.77426E+01 -1.13759E+01 +2.11683E+01 +6.64236E+00 +6.15927E-01 +2.10123E+01 -1.96405E+01 +2.17352E+01
 -2.64614E+01 +7.04140E+00 -1.62438E+01 -1.43736E+01 +3.61803E+00 -2.82893E+01 +2.03485E+01 -2.44578E+01
 +2.40678E+01 -4.23813E+00 +1.33357E+01 +1.94348E+01 -4.87119E+00 +3.04034E+01 -1.98465E+01 +2.04898E+01
 -2.32458E+01 -4.40711E+00 -1.33019E+01 -2.79381E+01 +4.56660E+00 -3.43673E+01 +2.06640E+01 -1.93499E+01
 +2.60085E+01 +7.16212E+00 +1.71816E+01 +2.78423E+01 -1.37151E+00 +2.97319E+01 -1.92109E+01 +1.25859E+01
 -2.55673E+01 -1.16704E+01 -1.59586E+01 -2.74546E+01 +4.38279E+00 -2.57548E+01 +2.30676E+01 -9.21165E+00
 +2.81707E+01 +1.07136E+01 +1.62228E+01 +2.17741E+01 -5.00721E+00 +1.84754E+01 -2.13587E+01 +4.53814E+00
 -2.18413E+01 -1.04569E+01 -6.34319E+00 -1.73816E+01 +1.41269E+01 -1.27663E+01 +2.50913E+01 -1.97313E-01
 +1.88357E+01 +1.22944E+01 -9.53294E-02 +1.70245E+01 -1.81281E+01 +1.10251E+01 -2.23149E+01 -2.18921E+00
 -9.49923E+00 -1.44211E+01 +1.14998E+01 -1.74408E+01 +2.60990E+01 -8.14891E+00 +2.40388E+01 +8.81685E+00
 +6.29046E+00 +2.31197E+01 -1.57777E+01 +2.48495E+01 -2.80670E+01 +1.12570E+01 -2.28611E+01 -1.04582E+01
 -3.45048E+00 -2.68312E+01 +1.83169E+01 -2.65699E+01 +2.95095E+01 -8.39933E+00 +2.37404E+01 +1.72361E+01
 +4.51802E+00 +3.43320E+01 -1.71833E+01 +3.16455E+01 -2.93115E+01 +1.03075E+01 -2.53711E+01 -1.65865E+01
 -7.81667E+00 -3.23425E+01 +1.34190E+01 -2.74486E+01 +2.64078E+01 -5.56358E+00 +2.38477E+01 +1.91809E+01
 +7.26245E+00 +3.15387E+01 -1.36942E+01 +2.47866E+01 -2.67265E+01 +4.38897E+00 -2.42151E+01 -1.62746E+01
 -7.98278E+00 -2.48095E+01 +1.16648E+01 -1.73327E+01 +2.23469E+01 -5.17592E-02 +1.75493E+01 +1.54930E+01
 +8.93438E-01 +1.99562E+01 -1.62646E+01 +1.16321E+01 -2.24592E+01 -3.22444E+00 -1.38562E+01 -1.48637E+01
 +3.21366E+00 -1.62102E+01 +1.67144E+01 -6.99440E+00 +1.72819E+01 +6.40719E+00 +4.68843E+00 +1.51039E+01
 -1.20829E+01 +1.32572E+01 -2.11473E+01 +1.78072E+00 -1.59690E+01 -1.20725E+01 +1.52617E-01 -1.91272E+01
 +1.63656E+01 -1.41636E+01 +2.16387E+01 +3.88121E-01 +1.21674E+01 +1.54983E+01 -6.10693E+00 +2.10393E+01
 -2.13937E+01 +1.24656E+01 -2.36771E+01 -5.70237E+00 -1.11054E+01 -2.22021E+01 +8.84043E+00 -2.60477E+01
 +2.39872E+01 -1.38453E+01 +2.49438E+01 +7.50504E+00 +1.08338E+01 +2.47960E+01 -1.01166E+01 +2.68484E+01
 -2.54352E+01 +1.18309E+01 -2.58152E+01 -1.12955E+01 -1.07180E+01 -2.82780E+01 +1.11636E+01 -2.85312E+01
 +2.69413E+01 -1.17993E+01 +2.71774E+01 +1.17215E+01 +1.16121E+01 +2.77966E+01 -1.05475E+01 +2.69565E+01
 -2.60934E+01 +1.01555E+01 -2.58139E+01 -1.21029E+01 -1.01241E+01 -2.64123E+01 +1.12169E+01 -2.46183E+01
 +2.51888E+01 -8.49766E+00 +2.35920E+01 +1.17119E+01 +8.02376E+00 +2.37986E+01 -1.13783E+01 +2.09952E+01
 -2.25353E+01 +5.83768E+00 -1.90620E+01 -1.17468E+01 -4.04713E+00 -2.08002E+01 +1.23118E+01 -1.61485E+01
 +1.94979E+01 -1.45489E+00 +1.33916E+01 +1.33418E+01 -1.36877E+00 +1.85357E+01 -1.47177E+01 +1.09387E+01
 -1.78489E+01 -4.11125E+00 -8.88429E+00 -1.63374E+01 +6.04720E+00 -1.73783E+01 +1.68920E+01 -6.40114E+00
 +1.62314E+01 +9.27010E+00 +4.13521E+00 +1.89781E+01 -1.17604E+01 +1.58399E+01 -2.10341E+01 +1.41913E+00
 -1.71612E+01 -1.51629E+01 -1.89335E+00 -2.31150E+01 +1.55247E+01 -1.70028E+01 +2.39935E+01 -3.29993E-01
 +1.76369E+01 +1.66211E+01 -1.73606E-01 +2.32541E+01 -1.85857E+01 +1.52847E+01 -2.59409E+01 -2.61418E+00
 -1.72285E+01 -1.97047E+01 +2.50331E+00 -2.57312E+01 +2.11414E+01 -1.70906E+01 +2.71317E+01 +1.05533E+00
 +1.68566E+01 +1.79070E+01 -3.05257E+00 +2.34769E+01 -2.00021E+01 +1.45386E+01 -2.35162E+01 -3.43410E+00
 -1.18255E+01 -1.95152E+01 +7.27120E+00 -2.39001E+01 +2.16688E+01 -1.39121E+01 +2.27439E+01 +4.24667E+00
 +1.05881E+01 +1.92314E+01 -6.50479E+00 +2.16362E+01 -1.76474E+01 +1.00406E+01 -1.62416E+01 -7.93051E+00
 -3.79162E+00 -2.04267E+01 +1.14732E+01 -1.91101E+01 +1.99666E+01 -4.74977E+00 +1.66199E+01 +1.31619E+01
 +3.75990E+00 +2.26797E+01 -1.05185E+01 +1.74374E+01 -1.73316E+01 +9.94264E-01 -1.23649E+01 -1.55237E+01
 +1.48041E+00 -2.09251E+01 +1.56978E+01 -1.14881E+01 +2.12079E+01 +6.59386E+00 +1.39741E+01 +2.14466E+01
 -2.17184E+00 +2.34516E+01 -1.74556E+01 +1.14891E+01 -2.20267E+01 -6.57556E+00 -1.23415E+01 -1.92226E+01
 +6.06865E+00 -1.86856E+01 +2.16111E+01 -5.60540E+00 +2.39073E+01 +1.17789E+01 +1.07546E+01 +2.29843E+01
 -9.98238E+00 +2.15976E+01 -2.51679E+01 +8.77358E+00 -2.49567E+01 -7.82224E+00 -9.42557E+00 -1.86390E+01
 +1.13301E+01 -1.76445E+01 +2.38411E+01 -5.58475E+00 +2.01862E+01 +1.05173E+01 +3.11732E+00 +2.12925E+01
 -1.60406E+01 +2.03255E+01 -2.51199E+01 +7.97249E+00 -1.90706E+01 -8.57404E+00 -2.81406E+00 -1.93278E+01
 +1.26078E+01 -1.75755E+01 +1.75771E+01 -4.32497E+00 +9.89821E+00 +1.19314E+01 -4.49764E+00 +2.04398E+01
 -1.60524E+01 +1.52966E+01 -1.78612E+01 -3.09651E-01 -9.61862E+00 -1.59138E+01 +2.86393E+00 -2.07798E+01
 +1.16899E+01 -1.14239E+01 +1.16605E+01 +5.70002E+00 +3.06286E+00 +1.84943E+01 -8.77721E+00 +1.76616E+01
 -1.66264E+01 +3.35306E+00 -1.54208E+01 -1.47849E+01 -5.23846E+00 -2.42842E+01 +8.40066E+00 -1.85351E+01
 +1.73304E+01 -1.33712E+00 +1.54606E+01 +1.58069E+01 +2.88256E+00 +2.15944E+01 -1.33741E+01 +1.24220E+01
 -2.30438E+01 -5.57285E+00 -1.90489E+01 -2.09525E+01 -2.63882E+00 -2.45085E+01 +1.65544E+01 -1.47649E+01
 +2.62587E+01 +1.78964E+00 +1.97067E+01 +1.52571E+01 +6.32944E-01 +1.83248E+01 -1.86987E+01 +1.00546E+01
 -2.55133E+01 -4.26553E+00 -1.52248E+01 -1.64907E+01 +5.31630E+00 -2.00426E+01 +2.24595E+01 -1.31841E+01
 +2.51005E+01 +2.06349E-01 +1.21655E+01 +1.26225E+01 -6.97569E+00 +1.68724E+01 -1.92737E+01 +1.01997E+01
 -1.69737E+01 -3.67396E+00 -2.49865E+00 -1.61997E+01 +1.38518E+01 -1.89881E+01 +2.12982E+01 -9.39858E+00
 +1.56608E+01 +7.04301E+00 +1.44908E+00 +1.96157E+01 -1.18479E+01 +1.93997E+01 -1.61615E+01 +5.73283E+00
 -9.54870E+00 -1.26454E+01 +3.39063E+00 -2.31197E+01 +1.48865E+01 -1.79133E+01 +1.85798E+01 +1.53357E-01
 +1.26865E+01 +1.92205E+01 +5.04861E-01 +2.64499E+01 -1.14797E+01 +1.69614E+01 -1.68229E+01 -2.76226E+00
 -1.23715E+01 -1.94496E+01 -1.74447E-01 -2.22643E+01 +1.31031E+01 -1.00603E+01 +1.95208E+01 +8.34123E+00
 +1.45935E+01 +2.06879E+01 +6.23349E-01 +1.96831E+01 -1.39811E+01 +7.33112E+00 -1.97084E+01 -7.33038E+00
 -1.24008E+01 -1.48684E+01 +3.35073E+00 -1.15128E+01 +1.67825E+01 -7.52341E-01 +1.82635E+01 +9.85963E+00
 +6.33681E+00 +1.38563E+01 -1.07888E+01 +9.46680E+00 -2.07985E+01 -8.53375E-02 -1.61363E+01 -9.00573E+00
 +2.87069E-01 -1.22107E+01 +1.69085E+01 -7.80413E+00 +2.17143E+01 +2.05339E+00 +1.09019E+01 +1.20385E+01
 -8.32840E+00 +1.61228E+01 -2.28560E+01 +1.08656E+01 -2.28334E+01 -1.99773E+00 -8.35619E+00 -1.55591E+01
 +1.09602E+01 -2.12004E+01 +2.28083E+01 -1.40751E+01 +2.03223E+01 +2.87075E+00 +5.96979E+00 +1.96568E+01
 -1.08930E+01 +2.51972E+01 -2.04250E+01 +1.48858E+01 -1.80793E+01 -5.53441E+00 -6.37557E+00 -2.31114E+01
 +7.56792E+00 -2.62147E+01 +1.64337E+01 -1.26458E+01 +1.63008E+01 +8.58972E+00 +7.97868E+00 +2.33783E+01
 -3.86577E+00 +2.22513E+01 -1.30083E+01 +6.81379E+00 -1.45540E+01 -1.17269E+01 -7.47917E+00 -2.07135E+01
 +4.38321E+00 -1.48359E+01 +1.39553E+01 +7.01588E-01 +1.49197E+01 +1.45507E+01 +6.03527E+00 +1.75144E+01
 -7.28987E+00 +8.62940E+00 -1.59603E+01 -4.99052E+00 -1.33336E+01 -1.37777E+01 -3.93631E-01 -1.23114E+01
 +1.41562E+01 -2.33126E+00 +1.96146E+01 +9.28081E+00 +1.10899E+01 +1.54040E+01 -6.37565E+00 +1.28810E+01
 -2.08222E+01 +3.68542E+00 -2.17536E+01 -6.86245E+00 -7.88412E+00 -1.31471E+01 +1.15695E+01 -1.18816E+01
 +2.32191E+01 -3.47293E+00 +1.89492E+01 +8.05505E+00 +1.60978E+00 +1.66234E+01 -1.71198E+01 +1.69673E+01
 -2.49956E+01 +7.82516E+00 -1.75277E+01 -6.44637E+00 -5.25351E-01 -1.75482E+01 +1.44999E+01 -1.80496E+01
