 Created: 16-Jan-2021
 $NMID
 ID='D:\BASISSIMULATI'
 FMTDAT='(8E13.5)'
 VOLUME=   1.00000E+00
 TRAMP=   1.00000E+00
 $END
 +9.65214E+01 +6.74212E+00 +6.98018E+01 +6.26100E+01 +1.28037E+01 +8.42961E+01 -4.18613E+01 +6.09882E+01
 -6.38795E+01 +7.85663E+00 -4.27262E+01 -4.34936E+01 +6.95996E+00 -6.39164E+01 +5.49303E+01 -4.35026E+01
 +7.36313E+01 +3.60263E+00 +5.40835E+01 +4.87148E+01 +1.00387E+01 +6.61895E+01 -3.14876E+01 +4.82533E+01
 -4.69872E+01 +8.40958E+00 -3.01431E+01 -2.80029E+01 +5.58965E+00 -3.97413E+01 +3.64354E+01 -2.21503E+01
 +4.34070E+01 +1.11252E+01 +2.36122E+01 +3.76449E+01 -8.90654E+00 +4.05124E+01 -3.27674E+01 +1.85546E+01
 -3.28947E+01 -1.36782E+01 -9.66616E+00 -3.56173E+01 +2.18546E+01 -3.37111E+01 +4.17307E+01 -9.66046E+00
 +3.76567E+01 +2.10172E+01 +1.24117E+01 +3.88819E+01 -1.81275E+01 +3.26120E+01 -3.49161E+01 +5.80135E+00
 -2.73650E+01 -2.54532E+01 +4.02155E-01 -4.24554E+01 +3.22660E+01 -3.51443E+01 +4.99193E+01 -7.90303E+00
 +4.37169E+01 +2.33544E+01 +1.81045E+01 +4.08226E+01 -1.14046E+01 +3.52603E+01 -2.76380E+01 +1.10776E+01
 -2.18019E+01 -1.67379E+01 +1.75645E+00 -3.17475E+01 +2.86400E+01 -2.56583E+01 +4.32155E+01 -2.75799E+00
 +3.77462E+01 +2.31853E+01 +1.64839E+01 +3.74088E+01 -7.44794E+00 +3.28064E+01 -2.02158E+01 +1.36573E+01
 -1.54365E+01 -7.53216E+00 +2.48206E+00 -1.78809E+01 +2.15710E+01 -1.18025E+01 +2.98704E+01 +6.06300E+00
 +2.26149E+01 +2.41846E+01 +4.74215E+00 +3.14590E+01 -1.25793E+01 +2.39260E+01 -1.90470E+01 +6.84452E+00
 -1.14855E+01 -8.94029E+00 +4.51387E+00 -1.38976E+01 +1.84036E+01 -5.63227E+00 +2.14046E+01 +9.91251E+00
 +1.18993E+01 +2.24549E+01 -3.80062E+00 +2.39368E+01 -1.56503E+01 +1.34974E+01 -1.62779E+01 -2.19161E+00
 -5.54638E+00 -1.33179E+01 +9.54153E+00 -1.31831E+01 +1.94284E+01 -2.35300E+00 +1.81017E+01 +1.18622E+01
 +6.83381E+00 +2.01814E+01 -6.75861E+00 +1.72934E+01 -1.36708E+01 +5.18598E+00 -9.28550E+00 -8.21054E+00
 +3.70692E+00 -1.41527E+01 +1.70729E+01 -8.68965E+00 +2.23264E+01 +4.82390E+00 +1.61570E+01 +1.78870E+01
 +2.54104E+00 +2.22890E+01 -9.79859E+00 +1.53514E+01 -1.29551E+01 +1.63928E+00 -4.88021E+00 -9.94137E+00
 +9.30024E+00 -1.18104E+01 +2.05339E+01 -2.54192E+00 +2.15888E+01 +1.22154E+01 +1.16498E+01 +2.33128E+01
 -3.15697E+00 +2.39033E+01 -1.36503E+01 +1.37872E+01 -1.34263E+01 -4.65173E-01 -2.93145E+00 -9.69836E+00
 +1.08233E+01 -8.01375E+00 +1.87403E+01 +3.45026E+00 +1.54694E+01 +1.72223E+01 +2.87978E+00 +2.42666E+01
 -1.10726E+01 +1.97996E+01 -1.74050E+01 +6.44241E+00 -1.19034E+01 -7.34719E+00 +2.04959E+00 -1.26284E+01
 +1.54804E+01 -5.75256E+00 +1.94730E+01 +9.13217E+00 +1.09273E+01 +2.25198E+01 -5.25059E+00 +2.54897E+01
 -1.90118E+01 +1.54520E+01 -2.13951E+01 -1.96259E+00 -1.02647E+01 -1.61740E+01 +8.08560E+00 -1.81578E+01
 +2.25872E+01 -6.17474E+00 +2.41559E+01 +1.28934E+01 +1.14087E+01 +2.75542E+01 -8.25565E+00 +2.86922E+01
 -2.29925E+01 +1.52590E+01 -2.36944E+01 -4.88933E+00 -9.63868E+00 -1.96248E+01 +1.09142E+01 -1.98927E+01
 +2.56227E+01 -5.29265E+00 +2.55356E+01 +1.55600E+01 +1.05814E+01 +3.01822E+01 -1.03108E+01 +2.97859E+01
 -2.45837E+01 +1.46488E+01 -2.36740E+01 -6.01021E+00 -8.23847E+00 -1.96119E+01 +1.22248E+01 -1.78681E+01
 +2.51483E+01 -1.83792E+00 +2.25511E+01 +1.87093E+01 +5.90239E+00 +3.12455E+01 -1.47787E+01 +2.81168E+01
 -2.70376E+01 +1.11961E+01 -2.35699E+01 -9.28337E+00 -6.64275E+00 -2.09880E+01 +1.33390E+01 -1.69953E+01
 +2.42192E+01 +3.71322E-02 +1.94988E+01 +1.95744E+01 +2.22914E+00 +2.96992E+01 -1.69661E+01 +2.43853E+01
 -2.64755E+01 +7.08681E+00 -2.08070E+01 -1.15234E+01 -3.84185E+00 -2.02162E+01 +1.37291E+01 -1.41149E+01
 +2.11371E+01 +2.42234E+00 +1.42191E+01 +1.86908E+01 -2.10735E+00 +2.44448E+01 -1.70901E+01 +1.63358E+01
 -2.10351E+01 -5.56648E-02 -1.14902E+01 -1.38589E+01 +5.19269E+00 -1.59187E+01 +1.79282E+01 -4.73044E+00
 +1.80496E+01 +1.24859E+01 +5.01456E+00 +2.43199E+01 -1.30102E+01 +2.25094E+01 -2.41719E+01 +7.45041E+00
 -2.04969E+01 -1.16929E+01 -3.24868E+00 -2.25103E+01 +1.74042E+01 -1.71725E+01 +2.84007E+01 +2.31327E+00
 +2.18993E+01 +2.48271E+01 +4.82572E-01 +3.66099E+01 -2.38956E+01 +2.96665E+01 -3.67941E+01 +6.96391E+00
 -2.99622E+01 -1.88804E+01 -6.56316E+00 -3.28230E+01 +2.03254E+01 -2.63074E+01 +3.51924E+01 -2.52594E+00
 +2.91803E+01 +2.52043E+01 +5.37483E+00 +4.10862E+01 -2.28922E+01 +3.60234E+01 -3.97593E+01 +1.29044E+01
 -3.60152E+01 -1.51351E+01 -1.43234E+01 -3.24163E+01 +1.25481E+01 -2.97951E+01 +2.93479E+01 -9.75389E+00
 +2.72190E+01 +1.54147E+01 +8.57240E+00 +3.10984E+01 -1.48106E+01 +2.89552E+01 -2.91154E+01 +1.14798E+01
 -2.67250E+01 -1.00288E+01 -1.03980E+01 -2.26515E+01 +8.96560E+00 -1.96759E+01 +1.93786E+01 -4.31364E+00
 +1.51704E+01 +1.28034E+01 +1.90405E-01 +2.05915E+01 -1.50296E+01 +1.45017E+01 -2.02148E+01 -8.19044E-01
 -1.19479E+01 -1.47541E+01 +4.21587E+00 -1.76893E+01 +1.74007E+01 -7.27905E+00 +1.84772E+01 +9.96427E+00
 +6.05642E+00 +2.27659E+01 -1.24030E+01 +2.23025E+01 -2.51307E+01 +7.99313E+00 -2.34441E+01 -1.18169E+01
 -7.40389E+00 -2.48092E+01 +1.38580E+01 -2.22991E+01 +2.74681E+01 -4.81554E+00 +2.46307E+01 +1.78572E+01
 +6.17621E+00 +3.23328E+01 -1.76150E+01 +2.96413E+01 -3.29318E+01 +1.07759E+01 -3.06208E+01 -1.36460E+01
 -1.17414E+01 -2.95073E+01 +1.28926E+01 -2.75089E+01 +2.89875E+01 -8.72694E+00 +2.71706E+01 +1.59407E+01
 +8.52448E+00 +3.21517E+01 -1.60519E+01 +3.05527E+01 -3.22888E+01 +1.22562E+01 -3.09615E+01 -1.18928E+01
 -1.32661E+01 -2.78069E+01 +1.00304E+01 -2.65100E+01 +2.51140E+01 -9.36165E+00 +2.33759E+01 +1.29416E+01
 +6.43357E+00 +2.69238E+01 -1.50542E+01 +2.44477E+01 -2.79885E+01 +7.48453E+00 -2.47891E+01 -1.33006E+01
 -7.86714E+00 -2.52075E+01 +1.20603E+01 -2.12805E+01 +2.27021E+01 -4.44568E+00 +1.77811E+01 +1.44832E+01
 +8.01610E-01 +2.36260E+01 -1.72842E+01 +1.74223E+01 -2.50008E+01 +2.26763E-03 -1.75243E+01 -1.75095E+01
 +3.61311E-01 -2.40313E+01 +1.73400E+01 -1.54805E+01 +2.27149E+01 +2.69792E+00 +1.31399E+01 +1.89929E+01
 -5.28705E+00 +2.30895E+01 -2.08690E+01 +1.23667E+01 -2.36725E+01 -6.44436E+00 -1.17835E+01 -2.14793E+01
 +7.46634E+00 -2.31865E+01 +2.20739E+01 -1.03321E+01 +2.28722E+01 +9.19786E+00 +9.27520E+00 +2.33017E+01
 -1.03324E+01 +2.32061E+01 -2.38005E+01 +8.93912E+00 -2.27625E+01 -1.06763E+01 -7.82782E+00 -2.34948E+01
 +1.18045E+01 -2.15716E+01 +2.40486E+01 -6.06279E+00 +2.13964E+01 +1.35202E+01 +5.51654E+00 +2.52087E+01
 -1.38327E+01 +2.19498E+01 -2.48597E+01 +5.89429E+00 -2.09900E+01 -1.30123E+01 -4.83618E+00 -2.32120E+01
 +1.35177E+01 -1.86351E+01 +2.27951E+01 -2.34344E+00 +1.74536E+01 +1.54771E+01 +9.96669E-01 +2.38679E+01
 -1.63150E+01 +1.78334E+01 -2.38704E+01 +1.31541E+00 -1.72389E+01 -1.53684E+01 -8.06456E-01 -2.19759E+01
 +1.50559E+01 -1.46604E+01 +2.04831E+01 +1.73320E+00 +1.22245E+01 +1.67671E+01 -4.39673E+00 +2.09436E+01
 -1.88516E+01 +1.16078E+01 -2.19861E+01 -5.42481E+00 -1.17294E+01 -1.95073E+01 +5.60408E+00 -2.18001E+01
 +1.92241E+01 -1.07986E+01 +2.05745E+01 +6.67914E+00 +8.69558E+00 +1.96736E+01 -9.08929E+00 +1.98750E+01
 -2.16244E+01 +6.83796E+00 -2.08022E+01 -1.16186E+01 -6.64629E+00 -2.41247E+01 +1.25593E+01 -2.27325E+01
 +2.52333E+01 -7.87978E+00 +2.35602E+01 +1.17343E+01 +8.33951E+00 +2.43451E+01 -1.13752E+01 +2.22614E+01
 -2.36809E+01 +6.60015E+00 -2.10180E+01 -1.32970E+01 -4.77944E+00 -2.54472E+01 +1.54816E+01 -2.24411E+01
 +2.77817E+01 -5.90673E+00 +2.48996E+01 +1.44843E+01 +8.66555E+00 +2.68549E+01 -1.12312E+01 +2.42402E+01
 -2.31490E+01 +8.66345E+00 -2.04778E+01 -1.02597E+01 -5.45282E+00 -2.12567E+01 +1.24539E+01 -1.81858E+01
 +2.24632E+01 -3.53272E+00 +1.90164E+01 +1.34269E+01 +4.89727E+00 +2.25212E+01 -1.08560E+01 +1.88892E+01
 -1.87846E+01 +5.67161E+00 -1.48437E+01 -8.35365E+00 -2.60821E+00 -1.45297E+01 +9.39434E+00 -9.73973E+00
 +1.33597E+01 +1.91558E+00 +7.18244E+00 +1.21127E+01 -4.42586E+00 +1.39014E+01 -1.32790E+01 +6.22402E+00
 -1.32407E+01 -5.53958E+00 -4.29134E+00 -1.32732E+01 +7.49530E+00 -1.15888E+01 +1.40110E+01 -1.46086E+00
 +1.05307E+01 +1.03419E+01 -1.05346E+00 +1.56579E+01 -1.33022E+01 +1.03145E+01 -1.79434E+01 -2.99581E+00
 -1.12240E+01 -1.62281E+01 +3.52315E+00 -2.09668E+01 +1.77628E+01 -1.37456E+01 +2.29470E+01 +1.64534E+00
 +1.57915E+01 +1.63339E+01 +3.67707E-01 +2.16940E+01 -1.42802E+01 +1.45561E+01 -1.95274E+01 -8.77985E-01
 -1.22809E+01 -1.55515E+01 +3.25627E+00 -2.09312E+01 +1.81671E+01 -1.39853E+01 +2.41158E+01 +1.18934E+00
 +1.81482E+01 +1.59624E+01 +4.18391E+00 +2.23198E+01 -9.55657E+00 +1.74460E+01 -1.55103E+01 +5.06893E+00
 -1.10961E+01 -7.07472E+00 +1.06456E-01 -1.19773E+01 +1.08585E+01 -7.39684E+00 +1.47701E+01 +3.15753E+00
 +1.00298E+01 +1.29140E+01 +1.66949E-01 +1.61278E+01 -8.45826E+00 +1.14962E+01 -1.07533E+01 +2.66886E+00
 -5.99884E+00 -4.32823E+00 +1.91903E+00 -5.04124E+00 +7.20123E+00 +5.99284E-01 +5.98572E+00 +8.34596E+00
 -1.10834E+00 +1.24954E+01 -9.36385E+00 +9.69633E+00 -1.30444E+01 +1.25718E+00 -9.21717E+00 -7.56281E+00
 +1.42833E-01 -1.08938E+01 +9.19218E+00 -6.14482E+00 +1.18576E+01 +4.06386E+00 +5.83523E+00 +1.32732E+01
 -5.62161E+00 +1.51511E+01 -1.54106E+01 +7.63604E+00 -1.68940E+01 -5.40219E+00 -8.20955E+00 -1.62066E+01
 +6.18461E+00 -1.78088E+01 +1.78931E+01 -8.51814E+00 +1.96269E+01 +6.64730E+00 +9.87067E+00 +1.86864E+01
 -5.80684E+00 +2.00259E+01 -1.78261E+01 +9.35554E+00 -1.83684E+01 -7.19587E+00 -6.36039E+00 -1.94870E+01
 +1.15034E+01 -1.94838E+01 +2.45437E+01 -6.36788E+00 +2.45458E+01 +1.26163E+01 +1.09597E+01 +2.63011E+01
 -8.45162E+00 +2.63479E+01 -2.21031E+01 +1.25008E+01 -2.16082E+01 -6.98745E+00 -7.04357E+00 -2.01883E+01
 +1.28726E+01 -1.87451E+01 +2.59397E+01 -3.09910E+00 +2.39013E+01 +1.76015E+01 +7.58075E+00 +3.09676E+01
 -1.35016E+01 +2.89207E+01 -2.68766E+01 +1.26826E+01 -2.47449E+01 -7.92052E+00 -8.76302E+00 -2.04616E+01
 +1.09868E+01 -1.75383E+01 +2.22289E+01 -1.29890E+00 +1.80677E+01 +1.79438E+01 +1.20016E+00 +2.81473E+01
 -1.78458E+01 +2.30084E+01 -2.73251E+01 +5.81324E+00 -2.15936E+01 -1.27141E+01 -4.55693E+00 -2.11844E+01
 +1.28816E+01 -1.46723E+01 +1.97339E+01 +2.26479E+00 +1.18394E+01 +1.85431E+01 -5.56301E+00 +2.35896E+01
