 Created: 16-Jan-2021
 $NMID
 ID='D:\BASISSIMULATI'
 FMTDAT='(8E13.5)'
 VOLUME=   1.00000E+00
 TRAMP=   1.00000E+00
 $END
 +6.12732E+01 +9.61740E+00 +5.13932E+01 -1.28794E+01 +1.79462E+01 -2.15604E+01 -1.93503E+01 -7.43390E+00
 -3.92244E+01 +2.18266E+01 -3.24249E+01 +4.68496E+01 -7.17169E+00 +4.96523E+01 +1.69979E+01 +2.60196E+01
 +2.27053E+01 -1.11907E+01 +6.40924E+00 -4.01034E+01 -1.95178E+01 -4.39185E+01 -3.55920E+01 -2.16906E+01
 -2.88410E+01 +1.13197E+01 -1.97986E+00 +3.38645E+01 +2.80782E+01 +3.26215E+01 +4.13899E+01 +1.05521E+01
 +2.83262E+01 -1.57316E+01 -3.85382E+00 -2.76254E+01 -3.55933E+01 -1.72570E+01 -4.77156E+01 +7.29110E+00
 -3.37518E+01 +2.76847E+01 -3.78471E+00 +2.80106E+01 +2.26036E+01 +5.81288E+00 +2.94313E+01 -2.59537E+01
 +1.46756E+01 -4.73476E+01 -8.93408E+00 -4.45782E+01 -2.30197E+01 -1.90762E+01 -1.62774E+01 +1.35044E+01
 +7.78661E+00 +3.35976E+01 +3.32493E+01 +3.04232E+01 +4.25772E+01 +8.65302E+00 +2.85093E+01 -1.52398E+01
 -9.64182E-01 -2.43153E+01 -2.78098E+01 -1.24990E+01 -3.57937E+01 +1.16318E+01 -2.10291E+01 +3.09799E+01
 +5.73927E+00 +3.16929E+01 +2.64967E+01 +1.25806E+01 +2.79281E+01 -1.40940E+01 +9.99598E+00 -3.08717E+01
 -1.44764E+01 -2.67701E+01 -2.87351E+01 -4.54388E+00 -2.34154E+01 +2.12453E+01 -2.66374E+00 +3.39387E+01
 +1.89144E+01 +2.57148E+01 +2.62633E+01 +2.49335E+00 +1.40332E+01 -2.03130E+01 -9.90246E+00 -2.81946E+01
 -2.98050E+01 -1.70710E+01 -3.25939E+01 +4.34080E+00 -1.64543E+01 +2.07168E+01 +8.14712E+00 +2.05615E+01
 +2.55690E+01 +3.85103E+00 +2.53559E+01 -1.81458E+01 +8.93255E+00 -3.05856E+01 -1.17097E+01 -2.50185E+01
 -2.22711E+01 -4.93026E+00 -1.57055E+01 +1.67363E+01 +3.28304E+00 +2.62760E+01 +2.16705E+01 +1.82395E+01
 +2.70002E+01 -1.20048E+00 +1.56946E+01 -1.86314E+01 -4.71770E+00 -2.24462E+01 -2.08027E+01 -1.04522E+01
 -2.22310E+01 +8.95373E+00 -8.53706E+00 +2.26569E+01 +1.07995E+01 +2.16694E+01 +2.28449E+01 +7.00787E+00
 +1.98197E+01 -1.12212E+01 +4.07879E+00 -2.07524E+01 -1.37362E+01 -1.53633E+01 -2.19680E+01 +1.12414E+00
 -1.56813E+01 +1.75914E+01 +2.70362E-01 +2.31367E+01 +1.47526E+01 +1.42614E+01 +1.79334E+01 -3.01541E+00
 +7.80322E+00 -1.73782E+01 -8.66524E+00 -1.98110E+01 -2.03509E+01 -9.45384E+00 -1.94562E+01 +6.10386E+00
 -6.60009E+00 +1.61286E+01 +9.77843E+00 +1.39738E+01 +1.91646E+01 +1.38884E+00 +1.59251E+01 -1.28726E+01
 +2.84858E+00 -1.90673E+01 -1.09714E+01 -1.29879E+01 -1.63485E+01 +1.34604E+00 -1.00793E+01 +1.45172E+01
 +3.13391E+00 +1.80465E+01 +1.40694E+01 +9.95070E+00 +1.52792E+01 -4.13267E+00 +6.03126E+00 -1.48742E+01
 -7.34948E+00 -1.54964E+01 -1.58469E+01 -6.13875E+00 -1.38079E+01 +6.48761E+00 -2.62432E+00 +1.37845E+01
 +1.03376E+01 +1.10555E+01 +1.67286E+01 +5.23848E-01 +1.27216E+01 -1.03491E+01 +1.37603E+00 -1.39976E+01
 -9.61168E+00 -7.83073E+00 -1.31470E+01 +4.12133E+00 -7.40623E+00 +1.40043E+01 +3.14494E+00 +1.54137E+01
 +1.09530E+01 +7.58539E+00 +1.05474E+01 -4.24570E+00 +2.18133E+00 -1.24544E+01 -8.44647E+00 -1.21017E+01
 -1.41089E+01 -4.07544E+00 -1.09096E+01 +5.72979E+00 -8.28826E-01 +1.05315E+01 +9.68345E+00 +7.23871E+00
 +1.40382E+01 -1.57471E+00 +9.81766E+00 -9.55326E+00 +2.11133E-01 -1.09449E+01 -8.29400E+00 -4.49721E+00
 -1.03242E+01 +5.73099E+00 -5.13927E+00 +1.31214E+01 +3.06033E+00 +1.29058E+01 +8.15409E+00 +5.26648E+00
 +6.33803E+00 -4.89881E+00 -1.29687E+00 -1.13084E+01 -9.54398E+00 -1.04342E+01 -1.26330E+01 -3.67889E+00
 -8.12564E+00 +3.79489E+00 +1.45715E+00 +6.70160E+00 +1.03219E+01 +3.22885E+00 +1.32212E+01 -3.82334E+00
 +8.82837E+00 -9.07093E+00 +4.45047E-01 -8.30836E+00 -6.35155E+00 -1.43269E+00 -7.47154E+00 +7.43422E+00
 -2.93785E+00 +1.26758E+01 +3.34523E+00 +1.09009E+01 +6.44119E+00 +3.15943E+00 +3.85540E+00 -5.79447E+00
 -2.73660E+00 -1.06480E+01 -8.65331E+00 -8.94940E+00 -9.43811E+00 -2.53667E+00 -3.94635E+00 +3.91118E+00
 +4.79761E+00 +6.14278E+00 +1.15368E+01 +3.17848E+00 +1.21966E+01 -2.17284E+00 +6.49368E+00 -5.41359E+00
 -1.97232E+00 -3.58810E+00 -8.15125E+00 +2.58249E+00 -8.83064E+00 +9.11303E+00 -4.58236E+00 +1.14240E+01
 +8.78549E-01 +7.45240E+00 +3.40677E+00 -8.95920E-01 +1.31808E+00 -8.92043E+00 -3.50847E+00 -1.21311E+01
 -7.03235E+00 -9.07812E+00 -5.95870E+00 -2.14866E+00 -1.40098E-01 +4.14247E+00 +7.17546E+00 +6.16967E+00
 +1.14268E+01 +3.48374E+00 +9.75090E+00 -1.12614E+00 +2.90289E+00 -3.76031E+00 -5.19253E+00 -2.21740E+00
 -9.94606E+00 +2.45207E+00 -8.99169E+00 +6.69477E+00 -3.55904E+00 +6.97008E+00 +2.52633E+00 +2.29566E+00
 +5.47939E+00 -4.92498E+00 +4.02655E+00 -1.03703E+01 +7.00481E-02 -1.05897E+01 -2.83874E+00 -5.25611E+00
 -2.11281E+00 +2.61022E+00 +1.98813E+00 +8.57514E+00 +6.49696E+00 +9.58520E+00 +7.79601E+00 +5.78087E+00
 +4.17884E+00 +1.76818E-01 -2.83601E+00 -3.50247E+00 -9.34637E+00 -3.32801E+00 -1.15179E+01 -3.26570E-01
 -8.02481E+00 +2.43920E+00 -8.75607E-01 +2.18090E+00 +5.89821E+00 -1.53554E+00 +8.79621E+00 -6.37975E+00
 +6.95568E+00 -8.80207E+00 +2.45878E+00 -6.48384E+00 -1.28517E+00 -2.73069E-02 -1.92794E+00 +7.26829E+00
 +2.89511E-01 +1.14147E+01 +2.87291E+00 +1.02097E+01 +2.99041E+00 +4.56304E+00 -3.85692E-01 -2.16759E+00
 -5.60147E+00 -6.35086E+00 -9.32369E+00 -6.31352E+00 -8.75447E+00 -3.18126E+00 -3.56841E+00 +1.53815E-01
 +3.73345E+00 +1.16462E+00 +9.30136E+00 -5.61713E-01 +1.02819E+01 -3.13382E+00 +6.50583E+00 -3.81446E+00
 +4.50322E-01 -1.09053E+00 -4.44468E+00 +4.08747E+00 -5.95471E+00 +8.76395E+00 -4.31138E+00 +9.84641E+00
 -1.74385E+00 +6.14332E+00 -7.15420E-01 -7.82936E-01 -2.10763E+00 -7.51306E+00 -4.59918E+00 -1.08280E+01
 -5.64345E+00 -9.58820E+00 -3.35002E+00 -5.24357E+00 +2.03522E+00 -7.05256E-01 +8.07777E+00 +1.61272E+00
 +1.15894E+01 +1.26570E+00 +1.06115E+01 -1.76676E-01 +5.64696E+00 -4.66741E-01 -6.56431E-01 +1.57531E+00
 -5.14342E+00 +5.12420E+00 -6.03069E+00 +7.86055E+00 -3.82357E+00 +7.57138E+00 -7.33320E-01 +3.74226E+00
 +9.43337E-01 -1.94624E+00 +3.60868E-01 -6.56540E+00 -1.43902E+00 -7.71298E+00 -2.43179E+00 -4.95896E+00
 -1.18308E+00 -3.77668E-02 +2.01582E+00 +4.30250E+00 +5.23495E+00 +6.01004E+00 +6.15684E+00 +4.88054E+00
 +3.64441E+00 +2.44160E+00 -1.42940E+00 +7.23092E-01 -6.64477E+00 +7.93901E-01 -9.48414E+00 +2.06265E+00
 -8.81834E+00 +2.78728E+00 -5.47861E+00 +1.40577E+00 -1.58571E+00 -2.24809E+00 +8.72692E-01 -6.68440E+00
 +1.25686E+00 -9.63364E+00 +5.02505E-01 -9.47321E+00 +2.70412E-01 -6.25614E+00 +1.65002E+00 -1.67176E+00
 +4.32314E+00 +2.01606E+00 +6.75130E+00 +3.33945E+00 +7.23882E+00 +2.41470E+00 +5.13161E+00 +6.71990E-01
 +1.33237E+00 -2.34870E-01 -2.21407E+00 +4.28917E-01 -3.71653E+00 +2.05025E+00 -2.62049E+00 +3.20619E+00
 +1.21690E-01 +2.75857E+00 +2.73728E+00 +7.30284E-01 +3.78724E+00 -1.64119E+00 +3.01277E+00 -2.70334E+00
 +1.33933E+00 -1.49140E+00 +9.02384E-02 +1.61068E+00 -9.65478E-03 +5.08529E+00 +6.56698E-01 +7.21363E+00
 +9.13132E-01 +7.09697E+00 -3.11616E-01 +5.10308E+00 -3.13927E+00 +2.48301E+00 -6.53982E+00 +4.65525E-01
 -8.91275E+00 -5.30780E-01 -9.05944E+00 -1.04224E+00 -6.89927E+00 -2.00235E+00 -3.46961E+00 -3.91155E+00
 -2.40664E-01 -6.34083E+00 +1.77242E+00 -8.12757E+00 +2.50842E+00 -8.13093E+00 +2.67370E+00 -6.02467E+00
 +3.05767E+00 -2.58153E+00 +3.87036E+00 +7.45373E-01 +4.58102E+00 +2.66173E+00 +4.36120E+00 +2.73600E+00
 +2.79714E+00 +1.52307E+00 +3.43134E-01 +7.05486E-02 -1.82998E+00 -8.13456E-01 -2.51080E+00 -1.01482E+00
 -1.19918E+00 -1.00009E+00 +1.56983E+00 -1.26562E+00 +4.54076E+00 -1.79242E+00 +6.47006E+00 -1.93628E+00
 +6.78384E+00 -8.57369E-01 +5.74344E+00 +1.80801E+00 +4.05981E+00 +5.52118E+00 +2.28272E+00 +8.99037E+00
 +4.30724E-01 +1.08305E+01 -1.87171E+00 +1.03137E+01 -4.87285E+00 +7.72568E+00 -8.20793E+00 +4.11191E+00
 -1.08567E+01 +6.11725E-01 -1.16368E+01 -2.15314E+00 -9.92933E+00 -4.23303E+00 -6.14571E+00 -5.98997E+00
 -1.59420E+00 -7.54186E+00 +2.19162E+00 -8.46861E+00 +4.23887E+00 -8.03667E+00 +4.53542E+00 -5.80178E+00
 +3.81253E+00 -2.14490E+00 +2.90447E+00 +1.69067E+00 +2.16198E+00 +4.16119E+00 +1.33792E+00 +4.25993E+00
 +3.92276E-03 +2.09240E+00 -1.84428E+00 -1.19545E+00 -3.48909E+00 -4.09609E+00 -3.78546E+00 -5.58195E+00
 -1.89823E+00 -5.56250E+00 +2.01435E+00 -4.68377E+00 +6.67482E+00 -3.65935E+00 +1.02672E+01 -2.64721E+00
 +1.13939E+01 -1.14477E+00 +9.80751E+00 +1.51013E+00 +6.44923E+00 +5.40137E+00 +2.78277E+00 +9.63000E+00
 -1.18455E-01 +1.26045E+01 -2.11464E+00 +1.29044E+01 -3.82485E+00 +1.01712E+01 -5.89597E+00 +5.41964E+00
 -8.27489E+00 +5.24579E-01 -1.00458E+01 -2.81627E+00 -9.99285E+00 -3.98426E+00 -7.51687E+00 -3.62957E+00
 -3.25209E+00 -3.04816E+00 +1.10060E+00 -3.19351E+00 +3.68155E+00 -4.01448E+00 +3.55920E+00 -4.57651E+00
 +1.28162E+00 -3.86906E+00 -1.48736E+00 -1.71004E+00 -3.02250E+00 +9.25279E-01 -2.59206E+00 +2.43139E+00
 -8.19140E-01 +1.63174E+00 +8.75853E-01 -1.34983E+00 +1.35121E+00 -5.03068E+00 +5.83223E-01 -7.41318E+00
 -3.22037E-01 -7.20336E+00 +4.11948E-02 -4.60369E+00 +2.28576E+00 -1.14655E+00 +5.65491E+00 +1.32783E+00
 +8.39799E+00 +1.86802E+00 +8.87917E+00 +9.80180E-01 +6.67936E+00 +1.90288E-01 +2.93041E+00 +9.07104E-01
 -3.74366E-01 +3.37326E+00 -1.65548E+00 +6.43529E+00 -7.61048E-01 +8.30225E+00 +9.67073E-01 +7.77852E+00
 +1.62848E+00 +5.11893E+00 +7.69267E-02 +1.90164E+00 -3.27490E+00 -1.62013E-02 -6.70559E+00 +2.41459E-01
 -8.32386E+00 +1.95904E+00 -7.32485E+00 +3.30455E+00 -4.51007E+00 +2.58964E+00 -1.71780E+00 -5.30537E-01
 -5.55264E-01 -4.73798E+00 -1.30465E+00 -7.84871E+00 -2.76026E+00 -8.20853E+00 -3.11648E+00 -5.76016E+00
 -1.30003E+00 -2.06822E+00 +2.17749E+00 +7.12373E-01 +5.45603E+00 +1.22892E+00 +6.52300E+00 -2.51627E-01
 +4.57701E+00 -2.14080E+00 +6.35932E-01 -2.71989E+00 -3.03903E+00 -1.39142E+00 -4.34039E+00 +8.82251E-01
 -2.61595E+00 +2.26592E+00 +9.80059E-01 +1.39713E+00 +4.30446E+00 -1.54274E+00 +5.64669E+00 -4.79350E+00
 +4.79181E+00 -6.08140E+00 +3.01833E+00 -4.09653E+00 +2.05932E+00 +6.00962E-01 +2.76737E+00 +5.86077E+00
 +4.42721E+00 +9.23675E+00 +5.21249E+00 +9.44915E+00 +3.49068E+00 +7.06061E+00 -9.17083E-01 +3.94523E+00
 -6.40412E+00 +1.94191E+00 -1.04415E+01 +1.62417E+00 -1.10967E+01 +2.02254E+00 -8.21540E+00 +1.46986E+00
