 Created: 16-Jan-2021
 $NMID
 ID='D:\BASISSIMULATI'
 FMTDAT='(8E13.5)'
 VOLUME=   1.00000E+00
 TRAMP=   1.00000E+00
 $END
 +1.18390E+02 +1.06795E+01 +1.04966E+02 +5.36891E+01 +7.54146E+01 +8.73204E+01 +3.51925E+01 +1.05754E+02
 -8.32013E+00 +1.06043E+02 -4.72277E+01 +8.86452E+01 -7.46196E+01 +5.73094E+01 -8.58701E+01 +1.83244E+01
 -7.94895E+01 -2.07085E+01 -5.73643E+01 -5.23437E+01 -2.43456E+01 -7.07151E+01 +1.27295E+01 -7.26375E+01
 +4.63890E+01 -5.81788E+01 +6.99835E+01 -3.05925E+01 +7.89653E+01 +4.36593E+00 +7.17425E+01 +3.96034E+01
 +4.99436E+01 +6.80996E+01 +1.80489E+01 +8.42860E+01 -1.75354E+01 +8.51229E+01 -4.97719E+01 +7.06668E+01
 -7.23973E+01 +4.40182E+01 -8.11614E+01 +1.06677E+01 -7.46538E+01 -2.26269E+01 -5.45598E+01 -4.92071E+01
 -2.52966E+01 -6.38510E+01 +6.89431E+00 -6.38163E+01 +3.52156E+01 -4.93817E+01 +5.36905E+01 -2.37832E+01
 +5.83718E+01 +7.44366E+00 +4.81441E+01 +3.75809E+01 +2.49600E+01 +6.00842E+01 -6.53913E+00 +6.99070E+01
 -3.99394E+01 +6.45292E+01 -6.83301E+01 +4.44858E+01 -8.56843E+01 +1.32902E+01 -8.80720E+01 -2.32365E+01
 -7.44646E+01 -5.80968E+01 -4.69715E+01 -8.44895E+01 -1.04583E+01 -9.71521E+01 +2.83792E+01 -9.34089E+01
 +6.23061E+01 -7.37193E+01 +8.49519E+01 -4.16143E+01 +9.20534E+01 -3.03476E+00 +8.22919E+01 +3.48038E+01
 +5.75622E+01 +6.47977E+01 +2.26186E+01 +8.13237E+01 -1.58333E+01 +8.13244E+01 -5.04235E+01 +6.48978E+01
 -7.45324E+01 +3.52775E+01 -8.35601E+01 -1.79184E+00 -7.58038E+01 -3.91629E+01 -5.27743E+01 -6.96618E+01
 -1.88915E+01 -8.74642E+01 +1.93802E+01 -8.92054E+01 +5.47854E+01 -7.46100E+01 +8.06778E+01 -4.65221E+01
 +9.22926E+01 -1.03321E+01 +8.76463E+01 +2.70846E+01 +6.78909E+01 +5.87077E+01 +3.70571E+01 +7.87296E+01
 +1.24167E+00 +8.36655E+01 -3.26008E+01 +7.30014E+01 -5.80210E+01 +4.92580E+01 -7.03276E+01 +1.74611E+01
 -6.74843E+01 -1.58731E+01 -5.04775E+01 -4.40355E+01 -2.30882E+01 -6.14482E+01 +8.88471E+00 -6.47551E+01
 +3.87934E+01 -5.34654E+01 +6.04685E+01 -3.00273E+01 +6.94441E+01 +6.80812E-01 +6.38380E+01 +3.23371E+01
 +4.47150E+01 +5.84449E+01 +1.58655E+01 +7.36303E+01 -1.69585E+01 +7.47133E+01 -4.71925E+01 +6.13402E+01
 -6.87703E+01 +3.60542E+01 -7.73329E+01 +3.79107E+00 -7.10991E+01 -2.91004E+01 -5.12253E+01 -5.61173E+01
 -2.15831E+01 -7.18936E+01 +1.20003E+01 -7.32672E+01 +4.28892E+01 -5.99130E+01 +6.49487E+01 -3.44163E+01
 +7.37568E+01 -1.77314E+00 +6.74818E+01 +3.15863E+01 +4.72517E+01 +5.90578E+01 +1.69426E+01 +7.51593E+01
 -1.75731E+01 +7.66105E+01 -4.95705E+01 +6.29811E+01 -7.27849E+01 +3.67830E+01 -8.26360E+01 +2.98610E+00
 -7.71239E+01 -3.19460E+01 -5.72221E+01 -6.13125E+01 -2.66898E+01 -7.94787E+01 +8.65806E+00 -8.29706E+01
 +4.20808E+01 -7.11479E+01 +6.72213E+01 -4.63252E+01 +7.93379E+01 -1.33166E+01 +7.62202E+01 +2.15043E+01
 +5.86092E+01 +5.14453E+01 +3.00424E+01 +7.07959E+01 -3.84468E+00 +7.59312E+01 -3.64237E+01 +6.60063E+01
 -6.13668E+01 +4.31070E+01 -7.38766E+01 +1.18278E+01 -7.16125E+01 -2.16366E+01 -5.51329E+01 -5.07079E+01
 -2.77707E+01 -6.97101E+01 +5.03371E+00 -7.49737E+01 +3.68071E+01 -6.55419E+01 +6.13159E+01 -4.33433E+01
 +7.37852E+01 -1.27994E+01 +7.18270E+01 +2.00542E+01 +5.58966E+01 +4.87586E+01 +2.91900E+01 +6.77005E+01
 -2.99538E+00 +7.32094E+01 -3.43096E+01 +6.42693E+01 -5.86012E+01 +4.27072E+01 -7.11240E+01 +1.28228E+01
 -6.94638E+01 -1.94659E+01 -5.40038E+01 -4.77911E+01 -2.78386E+01 -6.65876E+01 +3.84279E+00 -7.21837E+01
 +3.47847E+01 -6.35160E+01 +5.88973E+01 -4.23299E+01 +7.14529E+01 -1.28269E+01 +7.00114E+01 +1.91687E+01
 +5.48926E+01 +4.73595E+01 +2.91051E+01 +6.62150E+01 -2.25298E+00 +7.20564E+01 -3.30022E+01 +6.37747E+01
 -5.71003E+01 +4.30420E+01 -6.98296E+01 +1.39749E+01 -6.87223E+01 -1.76813E+01 -5.40394E+01 -4.56869E+01
 -2.87136E+01 -6.45366E+01 +2.23421E+00 -7.05409E+01 +3.26877E+01 -6.25488E+01 +5.66407E+01 -4.21686E+01
 +6.93797E+01 -1.34467E+01 +6.84097E+01 +1.79336E+01 +5.39420E+01 +4.57731E+01 +2.88490E+01 +6.45785E+01
 -1.90384E+00 +7.06429E+01 -3.22378E+01 +6.27748E+01 -5.61582E+01 +4.25307E+01 -6.89344E+01 +1.39079E+01
 -6.80308E+01 -1.74421E+01 -5.36055E+01 -4.53255E+01 -2.84808E+01 -6.42237E+01 +2.41079E+00 -7.03780E+01
 +3.29929E+01 -6.25290E+01 +5.72373E+01 -4.21659E+01 +7.03452E+01 -1.32367E+01 +6.96888E+01 +1.86228E+01
 +5.53265E+01 +4.71904E+01 +2.99939E+01 +6.68728E+01 -1.42913E+00 +7.37981E+01 -3.28694E+01 +6.65715E+01
 -5.82438E+01 +4.65461E+01 -7.26426E+01 +1.75593E+01 -7.32834E+01 -1.48165E+01 -6.00481E+01 -4.43582E+01
 -3.55010E+01 -6.54012E+01 -4.38412E+00 -7.39372E+01 +2.73088E+01 -6.83861E+01 +5.34993E+01 -4.98931E+01
 +6.92028E+01 -2.20948E+01 +7.14893E+01 +9.59807E+00 +6.00405E+01 +3.90604E+01 +3.71955E+01 +6.06451E+01
 +7.47835E+00 +7.02764E+01 -2.32959E+01 +6.62310E+01 -4.91627E+01 +4.94554E+01 -6.51708E+01 +2.33605E+01
 -6.83397E+01 -6.86375E+00 -5.82252E+01 -3.52771E+01 -3.69850E+01 -5.63571E+01 -8.93382E+00 -6.60782E+01
 +2.03216E+01 -6.26894E+01 +4.49961E+01 -4.70401E+01 +6.02669E+01 -2.23922E+01 +6.32191E+01 +6.24154E+00
 +5.34083E+01 +3.31012E+01 +3.29337E+01 +5.28251E+01 +6.00670E+00 +6.15117E+01 -2.18953E+01 +5.74873E+01
 -4.51238E+01 +4.16306E+01 -5.89841E+01 +1.71901E+01 -6.06690E+01 -1.08678E+01 -4.98165E+01 -3.68507E+01
 -2.85819E+01 -5.54749E+01 -1.21063E+00 -6.29187E+01 +2.68031E+01 -5.75867E+01 +4.98068E+01 -4.04337E+01
 +6.31125E+01 -1.47834E+01 +6.39313E+01 +1.43206E+01 +5.19356E+01 +4.11066E+01 +2.93365E+01 +6.02120E+01
 +4.61196E-01 +6.77442E+01 -2.90865E+01 +6.20551E+01 -5.35202E+01 +4.40777E+01 -6.80034E+01 +1.71573E+01
 -6.95999E+01 -1.35897E+01 -5.78555E+01 -4.22651E+01 -3.48964E+01 -6.33333E+01 -5.02564E+00 -7.26964E+01
 +2.61042E+01 -6.84924E+01 +5.25817E+01 -5.14592E+01 +6.93773E+01 -2.47941E+01 +7.33126E+01 +6.46211E+00
 +6.36703E+01 +3.63984E+01 +4.23263E+01 +5.93724E+01 +1.33809E+01 +7.10941E+01 -1.76396E+01 +6.94448E+01
 -4.48527E+01 +5.48724E+01 -6.31532E+01 +3.02885E+01 -6.91901E+01 +4.90099E-01 -6.19970E+01 -2.87805E+01
 -4.31565E+01 -5.19515E+01 -1.64694E+01 -6.46965E+01 +1.28043E+01 -6.47579E+01 +3.89818E+01 -5.23619E+01
 +5.70665E+01 -3.01456E+01 +6.37133E+01 -2.61480E+00 +5.78619E+01 +2.47584E+01 +4.09178E+01 +4.66192E+01
 +1.64467E+01 +5.87804E+01 -1.05525E+01 +5.90341E+01 -3.46510E+01 +4.75666E+01 -5.10701E+01 +2.68975E+01
 -5.66250E+01 +1.35686E+00 -5.03465E+01 -2.37914E+01 -3.36588E+01 -4.34075E+01 -1.00815E+01 -5.35036E+01
 +1.54846E+01 -5.20378E+01 +3.77444E+01 -3.93186E+01 +5.20717E+01 -1.79405E+01 +5.54386E+01 +7.73682E+00
 +4.70256E+01 +3.24598E+01 +2.83926E+01 +5.11322E+01 +3.17697E+00 +5.98362E+01 -2.36230E+01 +5.66218E+01
 -4.66366E+01 +4.19079E+01 -6.11871E+01 +1.84152E+01 -6.42251E+01 -9.35694E+00 -5.49442E+01 -3.60076E+01
 -3.49581E+01 -5.62931E+01 -8.00067E+00 -6.61601E+01 +2.07899E+01 -6.35495E+01 +4.58669E+01 -4.88132E+01
 +6.23543E+01 -2.46613E+01 +6.69992E+01 +4.35118E+00 +5.88113E+01 +3.26992E+01 +3.92641E+01 +5.49528E+01
 +1.20188E+01 +6.68264E+01 -1.77772E+01 +6.60075E+01 -4.44786E+01 +5.26040E+01 -6.30272E+01 +2.91236E+01
 -6.99220E+01 -1.06858E-02 -6.38866E+01 -2.93129E+01 -4.61055E+01 -5.32894E+01 -1.99851E+01 -6.74919E+01
 +9.51292E+00 -6.93627E+01 +3.68345E+01 -5.87111E+01 +5.69040E+01 -3.77298E+01 +6.60948E+01 -1.05505E+01
 +6.29118E+01 +1.75725E+01 +4.82557E+01 +4.12880E+01 +2.52192E+01 +5.61841E+01 -1.54018E+00 +5.96319E+01
 -2.67261E+01 +5.12731E+01 -4.54451E+01 +3.30604E+01 -5.41589E+01 +8.84558E+00 -5.13624E+01 -1.64014E+01
 -3.78551E+01 -3.75848E+01 -1.65568E+01 -5.04917E+01 +8.09325E+00 -5.26175E+01 +3.10335E+01 -4.36478E+01
 +4.75935E+01 -2.55020E+01 +5.44236E+01 -1.93498E+00 +5.01567E+01 +2.22254E+01 +3.56737E+01 +4.20492E+01
 +1.39192E+01 +5.34931E+01 -1.06922E+01 +5.42097E+01 -3.31622E+01 +4.40171E+01 -4.89106E+01 +2.49378E+01
 -5.46939E+01 +7.97163E-01 -4.92592E+01 -2.35362E+01 -3.36026E+01 -4.31201E+01 -1.07824E+01 -5.39245E+01
 +1.46787E+01 -5.36404E+01 +3.76826E+01 -4.21497E+01 +5.35635E+01 -2.15644E+01 +5.90131E+01 +4.17524E+00
 +5.27439E+01 +3.00636E+01 +3.57570E+01 +5.10067E+01 +1.11624E+01 +6.28194E+01 -1.64146E+01 +6.30505E+01
 -4.17255E+01 +5.14703E+01 -5.99148E+01 +3.01277E+01 -6.74634E+01 +2.96326E+00 -6.28734E+01 -2.49460E+01
 -4.69619E+01 -4.83637E+01 -2.27068E+01 -6.29025E+01 +5.32628E+00 -6.58681E+01 +3.18635E+01 -5.67749E+01
 +5.19370E+01 -3.74341E+01 +6.18383E+01 -1.15972E+01 +5.98239E+01 +1.57736E+01 +4.64394E+01 +3.94658E+01
 +2.43984E+01 +5.50206E+01 -1.95631E+00 +5.95858E+01 -2.75035E+01 +5.24514E+01 -4.73396E+01 +3.51671E+01
 -5.77247E+01 +1.12209E+01 -5.67953E+01 -1.46568E+01 -4.49062E+01 -3.74248E+01 -2.45376E+01 -5.27148E+01
 +2.11776E-01 -5.76766E+01 +2.44437E+01 -5.15180E+01 +4.34285E+01 -3.56382E+01 +5.35324E+01 -1.33298E+01
 +5.29222E+01 +1.08888E+01 +4.19093E+01 +3.21769E+01 +2.28692E+01 +4.63319E+01 -2.46356E-01 +5.06181E+01
 -2.27059E+01 +4.42986E+01 -3.99449E+01 +2.87703E+01 -4.84748E+01 +7.27449E+00 -4.65749E+01 -1.57575E+01
 -3.46314E+01 -3.55924E+01 -1.50570E+01 -4.81410E+01 +8.19173E+00 -5.07754E+01 +3.04033E+01 -4.28546E+01
 +4.70499E+01 -2.58562E+01 +5.46906E+01 -3.08754E+00 +5.16594E+01 +2.09658E+01 +3.84038E+01 +4.15264E+01
 +1.74056E+01 +5.44707E+01 -7.30040E+00 +5.71479E+01 -3.09149E+01 +4.89105E+01 -4.88156E+01 +3.12517E+01
 -5.74666E+01 +7.52244E+00 -5.51163E+01 -1.77176E+01 -4.21478E+01 -3.95869E+01 -2.10121E+01 -5.38345E+01
 +4.24334E+00 -5.76707E+01 +2.87580E+01 -5.03138E+01 +4.78015E+01 -3.31459E+01 +5.76919E+01 -9.44766E+00
 +5.65098E+01 +1.62369E+01 +4.44703E+01 +3.89807E+01 +2.38786E+01 +5.44271E+01 -1.31888E+00 +5.96319E+01
 -2.63017E+01 +5.36287E+01 -4.63101E+01 +3.76093E+01 -5.75644E+01 +1.46843E+01 -5.79915E+01 -1.07270E+01
 -4.76160E+01 -3.37591E+01 -2.85427E+01 -5.00445E+01 -4.53466E+00 -5.65565E+01 +1.97286E+01 -5.21865E+01
 +3.95671E+01 -3.79444E+01 +5.12105E+01 -1.67455E+01 +5.25252E+01 +7.17364E+00 +4.34169E+01 +2.90926E+01
 +2.58324E+01 +4.47341E+01 +3.36111E+00 +5.10981E+01 -1.94821E+01 +4.70401E+01 -3.81510E+01 +3.34821E+01
 -4.89636E+01 +1.32159E+01 -4.98219E+01 -9.65942E+00 -4.06162E+01 -3.05550E+01 -2.32362E+01 -4.53015E+01
