 Created: 16-Jan-2021
 $NMID
 ID='D:\BASISSIMULATI'
 FMTDAT='(8E13.5)'
 VOLUME=   1.00000E+00
 TRAMP=   1.00000E+00
 $END
 +6.28526E+01 +7.12368E+00 +5.53068E+01 +1.38332E+01 +3.44142E+01 +2.03975E+01 +7.40320E+00 +2.75128E+01
 -1.67827E+01 +3.34970E+01 -3.12934E+01 +3.50768E+01 -3.38582E+01 +2.95960E+01 -2.68596E+01 +1.72130E+01
 -1.52935E+01 +1.59233E+00 -4.01819E+00 -1.14987E+01 +4.11714E+00 -1.69825E+01 +8.44725E+00 -1.30700E+01
 +9.33202E+00 -2.16845E+00 +6.84228E+00 +1.03989E+01 +4.12828E-01 +1.90816E+01 -1.02565E+01 +2.06387E+01
 -2.37971E+01 +1.51574E+01 -3.65046E+01 +5.19128E+00 -4.32540E+01 -6.18353E+00 -3.97898E+01 -1.70144E+01
 -2.51755E+01 -2.67917E+01 -2.88735E+00 -3.54245E+01 +2.02909E+01 -4.18435E+01 +3.71596E+01 -4.34941E+01
 +4.32918E+01 -3.73724E+01 +3.88072E+01 -2.21378E+01 +2.78104E+01 +4.82275E-02 +1.59069E+01 +2.33462E+01
 +7.28624E+00 +4.02140E+01 +3.02617E+00 +4.47242E+01 +1.44577E+00 +3.55003E+01 +5.02813E-02 +1.66285E+01
 -2.33814E+00 -4.04836E+00 -4.69482E+00 -1.84192E+01 -4.69880E+00 -2.15803E+01 -7.63553E-01 -1.35662E+01
 +6.23749E+00 +1.36775E+00 +1.28052E+01 +1.72536E+01 +1.44654E+01 +2.91667E+01 +8.31172E+00 +3.47706E+01
 -5.09605E+00 +3.41162E+01 -2.16655E+01 +2.82978E+01 -3.56316E+01 +1.81896E+01 -4.22865E+01 +4.22570E+00
 -4.00299E+01 -1.27245E+01 -3.06488E+01 -3.02463E+01 -1.78424E+01 -4.41758E+01 -5.05178E+00 -4.98707E+01
 +6.01558E+00 -4.44780E+01 +1.53487E+01 -2.88923E+01 +2.33409E+01 -8.07676E+00 +2.93623E+01 +1.07287E+01
 +3.13956E+01 +2.11465E+01 +2.71705E+01 +2.05279E+01 +1.61328E+01 +1.10018E+01 +8.78782E-01 -1.84905E+00
 -1.31311E+01 -1.19090E+01 -1.97594E+01 -1.54088E+01 -1.52497E+01 -1.22292E+01 -4.63706E-01 -5.09264E+00
 +1.90529E+01 +2.62898E+00 +3.53632E+01 +9.00626E+00 +4.16601E+01 +1.42555E+01 +3.52048E+01 +1.97536E+01
 +1.82233E+01 +2.61952E+01 -3.54013E+00 +3.22757E+01 -2.36422E+01 +3.49082E+01 -3.75331E+01 +3.09434E+01
 -4.36577E+01 +1.93318E+01 -4.28345E+01 +2.31411E+00 -3.67331E+01 -1.52135E+01 -2.66756E+01 -2.78939E+01
 -1.35501E+01 -3.24296E+01 +1.32628E+00 -2.89877E+01 +1.53345E+01 -2.07294E+01 +2.46827E+01 -1.18421E+01
 +2.58504E+01 -5.32779E+00 +1.76559E+01 -1.86856E+00 +2.63867E+00 -3.23817E-01 -1.33384E+01 +6.70485E-01
 -2.33752E+01 +1.23749E+00 -2.26688E+01 +2.83358E-02 -1.08444E+01 -4.56082E+00 +7.81133E+00 -1.25585E+01
 +2.63809E+01 -2.13251E+01 +3.85217E+01 -2.61696E+01 +4.11371E+01 -2.25827E+01 +3.51710E+01 -8.90946E+00
 +2.43100E+01 +1.21268E+01 +1.25697E+01 +3.40800E+01 +2.28314E+00 +4.94353E+01 -6.39248E+00 +5.29295E+01
 -1.43929E+01 +4.38100E+01 -2.20509E+01 +2.59034E+01 -2.80920E+01 +5.58452E+00 -3.00921E+01 -1.11428E+01
 -2.61267E+01 -2.08816E+01 -1.64880E+01 -2.33853E+01 -4.23301E+00 -2.04919E+01 +5.95947E+00 -1.44484E+01
 +1.00614E+01 -6.81592E+00 +6.78722E+00 +1.45813E+00 -1.74612E+00 +9.15844E+00 -1.11895E+01 +1.40986E+01
 -1.72617E+01 +1.34642E+01 -1.78139E+01 +5.28124E+00 -1.34869E+01 -9.83116E+00 -6.70220E+00 -2.78752E+01
 +2.21708E-01 -4.24801E+01 +6.52102E+00 -4.74810E+01 +1.30452E+01 -3.98308E+01 +2.09355E+01 -2.12644E+01
 +2.99038E+01 +2.27519E+00 +3.74134E+01 +2.32301E+01 +3.95203E+01 +3.57075E+01 +3.30435E+01 +3.77541E+01
 +1.78091E+01 +3.15413E+01 -2.46851E+00 +2.15777E+01 -2.13768E+01 +1.21380E+01 -3.25745E+01 +5.41094E+00
 -3.27035E+01 +1.27581E+00 -2.28828E+01 -1.46998E+00 -8.01818E+00 -3.49985E+00 +5.62783E+00 -4.16755E+00
 +1.32352E+01 -2.08065E+00 +1.31394E+01 +3.42004E+00 +6.75125E+00 +1.10041E+01 -2.93191E+00 +1.73438E+01
 -1.30871E+01 +1.85678E+01 -2.19970E+01 +1.23970E+01 -2.87816E+01 -3.36752E-01 -3.24712E+01 -1.57821E+01
 -3.14261E+01 -2.88121E+01 -2.38161E+01 -3.54565E+01 -9.03049E+00 -3.46369E+01 +1.09201E+01 -2.82499E+01
 +3.11552E+01 -1.96573E+01 +4.53793E+01 -1.16030E+01 +4.85403E+01 -4.87763E+00 +3.93438E+01 +1.48517E+00
 +2.11882E+01 +8.72954E+00 +8.72422E-01 +1.67148E+01 -1.43583E+01 +2.33007E+01 -1.99332E+01 +2.53237E+01
 -1.56588E+01 +2.06386E+01 -5.22868E+00 +9.93853E+00 +6.01628E+00 -2.89452E+00 +1.37239E+01 -1.23134E+01
 +1.61344E+01 -1.37727E+01 +1.39763E+01 -6.08219E+00 +9.06215E+00 +7.87812E+00 +2.72452E+00 +2.24840E+01
 -4.82279E+00 +3.19906E+01 -1.38678E+01 +3.30198E+01 -2.39321E+01 +2.56450E+01 -3.29367E+01 +1.26956E+01
 -3.76068E+01 -2.05917E+00 -3.50548E+01 -1.56367E+01 -2.46220E+01 -2.65143E+01 -8.77110E+00 -3.41132E+01
 +7.67334E+00 -3.78006E+01 +1.96462E+01 -3.64020E+01 +2.41790E+01 -2.87757E+01 +2.16345E+01 -1.51360E+01
 +1.51592E+01 +1.87159E+00 +8.72848E+00 +1.73472E+01 +4.98417E+00 +2.58556E+01 +4.13868E+00 +2.39664E+01
 +4.51013E+00 +1.22380E+01 +4.20803E+00 -4.57737E+00 +2.77243E+00 -1.94098E+01 +1.63366E+00 -2.59732E+01
 +3.05843E+00 -2.15205E+01 +8.26990E+00 -7.85898E+00 +1.60163E+01 +9.81150E+00 +2.26331E+01 +2.54930E+01
 +2.37288E+01 +3.49636E+01 +1.65957E+01 +3.70341E+01 +1.94390E+00 +3.30723E+01 -1.60899E+01 +2.54177E+01
 -3.17217E+01 +1.58661E+01 -4.01200E+01 +5.17301E+00 -3.94185E+01 -6.29866E+00 -3.11274E+01 -1.74990E+01
 -1.88987E+01 -2.61930E+01 -6.53168E+00 -2.96261E+01 +3.56626E+00 -2.60734E+01 +1.06865E+01 -1.62799E+01
 +1.50057E+01 -3.73822E+00 +1.64968E+01 +6.59794E+00 +1.45211E+01 +1.05921E+01 +8.47711E+00 +6.95288E+00
 -9.67417E-01 -2.15767E+00 -1.10781E+01 -1.23052E+01 -1.75400E+01 -1.90833E+01 -1.62793E+01 -2.02172E+01
 -5.73707E+00 -1.63075E+01 +1.17375E+01 -9.90062E+00 +3.03495E+01 -3.59216E+00 +4.31492E+01 +1.57879E+00
 +4.50738E+01 +6.43403E+00 +3.51847E+01 +1.25329E+01 +1.69571E+01 +2.04421E+01 -3.46756E+00 +2.86293E+01
 -2.00705E+01 +3.38187E+01 -2.93055E+01 +3.27033E+01 -3.09022E+01 +2.40116E+01 -2.69851E+01 +9.64293E+00
 -2.03224E+01 -5.88995E+00 -1.28882E+01 -1.74733E+01 -5.52700E+00 -2.17556E+01 +1.34590E+00 -1.85609E+01
 +6.80144E+00 -1.06325E+01 +9.13014E+00 -1.97715E+00 +6.62728E+00 +4.14193E+00 -1.02451E+00 +6.41207E+00
 -1.17718E+01 +5.33439E+00 -2.14693E+01 +2.09740E+00 -2.55316E+01 -2.58303E+00 -2.11668E+01 -8.77713E+00
 -8.93739E+00 -1.66109E+01 +7.30418E+00 -2.51112E+01 +2.21561E+01 -3.16349E+01 +3.11603E+01 -3.25691E+01
 +3.26904E+01 -2.51411E+01 +2.82428E+01 -9.35398E+00 +2.10930E+01 +1.11921E+01 +1.42246E+01 +3.02997E+01
 +8.81376E+00 +4.16802E+01 +4.12377E+00 +4.17418E+01 -1.26848E+00 +3.12048E+01 -7.84548E+00 +1.46928E+01
 -1.42837E+01 -1.45986E+00 -1.79874E+01 -1.20000E+01 -1.67213E+01 -1.47167E+01 -1.02919E+01 -1.07034E+01
 -1.15119E+00 -3.06475E+00 +6.56065E+00 +4.96101E+00 +9.05219E+00 +1.13167E+01 +4.83866E+00 +1.52711E+01
 -4.50417E+00 +1.66419E+01 -1.51978E+01 +1.49452E+01 -2.31859E+01 +9.28018E+00 -2.59887E+01 -8.63942E-01
 -2.34685E+01 -1.44618E+01 -1.72243E+01 -2.84179E+01 -9.19791E+00 -3.82976E+01 -5.13382E-01 -4.01714E+01
 +8.68134E+00 -3.26340E+01 +1.83638E+01 -1.78096E+01 +2.75231E+01 -6.45981E-01 +3.37608E+01 +1.32390E+01
 +3.41259E+01 +2.00513E+01 +2.68433E+01 +1.93264E+01 +1.28941E+01 +1.36875E+01 -3.65673E+00 +7.09359E+00
 -1.70334E+01 +2.66172E+00 -2.22654E+01 +1.31577E+00 -1.75619E+01 +1.93687E+00 -5.25125E+00 +2.73153E+00
 +9.25035E+00 +2.80098E+00 +1.99099E+01 +2.83586E+00 +2.26905E+01 +4.49165E+00 +1.69981E+01 +8.90284E+00
 +5.37100E+00 +1.53845E+01 -8.17846E+00 +2.12694E+01 -2.00847E+01 +2.31054E+01 -2.83503E+01 +1.85514E+01
 -3.24602E+01 +7.83700E+00 -3.25082E+01 -6.12012E+00 -2.84127E+01 -1.90397E+01 -1.99100E+01 -2.72863E+01
 -7.33781E+00 -2.94099E+01 +7.46024E+00 -2.63948E+01 +2.09824E+01 -2.06079E+01 +2.91087E+01 -1.42277E+01
 +2.89624E+01 -8.18851E+00 +2.05766E+01 -2.26159E+00 +7.30750E+00 +3.92209E+00 -5.42333E+00 +9.75778E+00
 -1.25208E+01 +1.33882E+01 -1.15147E+01 +1.26132E+01 -3.54942E+00 +6.49327E+00 +7.43224E+00 -3.40914E+00
 +1.67964E+01 -1.31016E+01 +2.14129E+01 -1.77472E+01 +2.07586E+01 -1.40285E+01 +1.64653E+01 -2.00948E+00
 +1.07929E+01 +1.45837E+01 +5.10395E+00 +2.98916E+01 -6.89087E-01 +3.84892E+01 -7.44525E+00 +3.76626E+01
 -1.54675E+01 +2.82708E+01 -2.35397E+01 +1.38961E+01 -2.90902E+01 -1.07080E+00 -2.94796E+01 -1.32703E+01
 -2.36405E+01 -2.12064E+01 -1.30107E+01 -2.48817E+01 -1.10689E+00 -2.48089E+01 +8.08932E+00 -2.12789E+01
 +1.20226E+01 -1.44421E+01 +1.06500E+01 -5.05729E+00 +6.13430E+00 +4.81480E+00 +1.40646E+00 +1.19476E+01
 -1.47115E+00 +1.31497E+01 -2.14546E+00 +6.99251E+00 -1.58431E+00 -4.96756E+00 -8.50434E-01 -1.83522E+01
 +2.55899E-02 -2.76501E+01 +2.22333E+00 -2.86670E+01 +7.17551E+00 -2.04726E+01 +1.50986E+01 -5.79747E+00
 +2.40531E+01 +1.03237E+01 +3.03167E+01 +2.29100E+01 +3.00539E+01 +2.91197E+01 +2.14225E+01 +2.90132E+01
 +5.90196E+00 +2.47630E+01 -1.19974E+01 +1.89734E+01 -2.65875E+01 +1.32157E+01 -3.34763E+01 +7.62598E+00
 -3.13778E+01 +1.64447E+00 -2.23650E+01 -4.78365E+00 -1.05629E+01 -1.05003E+01 -1.17434E-01 -1.34981E+01
 +6.42487E+00 -1.21694E+01 +8.57062E+00 -6.60876E+00 +7.20083E+00 +9.56962E-01 +3.46669E+00 +7.01532E+00
 -1.88596E+00 +8.48627E+00 -8.35119E+00 +4.32872E+00 -1.49436E+01 -3.91599E+00 -1.96787E+01 -1.29672E+01
 -1.99115E+01 -1.95256E+01 -1.35840E+01 -2.18467E+01 -7.22048E-01 -2.02697E+01 +1.58108E+01 -1.64815E+01
 +3.09792E+01 -1.20997E+01 +3.95430E+01 -7.56322E+00 +3.83955E+01 -2.07941E+00 +2.80425E+01 +5.35589E+00
 +1.23982E+01 +1.45961E+01 -3.01981E+00 +2.36435E+01 -1.35454E+01 +2.92252E+01 -1.71917E+01 +2.84436E+01
 -1.49840E+01 +2.05689E+01 -9.80744E+00 +7.86782E+00 -4.59500E+00 -5.12660E+00 -9.58149E-01 -1.36040E+01
 +1.04188E+00 -1.46849E+01 +2.07296E+00 -8.67198E+00 +2.41720E+00 +1.28263E+00 +1.44072E+00 +1.08279E+01
 -1.94673E+00 +1.64151E+01 -8.17536E+00 +1.65815E+01 -1.60794E+01 +1.19745E+01 -2.29107E+01 +4.36938E+00
 -2.54679E+01 -4.50982E+00 -2.17577E+01 -1.35717E+01 -1.22028E+01 -2.20851E+01 +3.72085E-01 -2.89690E+01
 +1.20324E+01 -3.24061E+01 +1.95887E+01 -3.03164E+01 +2.19629E+01 -2.15770E+01 +2.03170E+01 -7.25036E+00
 +1.69584E+01 +9.09149E+00 +1.37745E+01 +2.24133E+01 +1.12017E+01 +2.82879E+01 +8.34824E+00 +2.49670E+01
 +4.11488E+00 +1.43175E+01 -1.50603E+00 +1.05331E+00 -6.90168E+00 -9.38843E+00 -9.52962E+00 -1.32343E+01
 -7.47156E+00 -9.81395E+00 -8.90357E-01 -1.40247E+00 +7.57711E+00 +8.28275E+00 +1.38511E+01 +1.59739E+01
