 Created: 16-Jan-2021
 $NMID
 ID='D:\BASISSIMULATI'
 FMTDAT='(8E13.5)'
 VOLUME=   1.00000E+00
 TRAMP=   1.00000E+00
 $END
 +3.21943E+01 +3.04058E+00 +2.91699E+01 +1.31187E+01 +2.27921E+01 +2.12839E+01 +1.41213E+01 +2.64193E+01
 +4.56456E+00 +2.79528E+01 -4.38802E+00 +2.59451E+01 -1.14366E+01 +2.10571E+01 -1.57021E+01 +1.44048E+01
 -1.68702E+01 +7.33246E+00 -1.52243E+01 +1.14851E+00 -1.15614E+01 -3.12351E+00 -7.01159E+00 -4.93073E+00
 -2.79770E+00 -4.27928E+00 +1.67172E-02 -1.70962E+00 +7.40916E-01 +1.83402E+00 -8.09214E-01 +5.21181E+00
 -4.28162E+00 +7.33202E+00 -8.86749E+00 +7.38125E+00 -1.34720E+01 +4.99565E+00 -1.69412E+01 +3.40211E-01
 -1.82997E+01 -5.91842E+00 -1.69522E+01 -1.27395E+01 -1.28093E+01 -1.89094E+01 -6.31364E+00 -2.32768E+01
 +1.63708E+00 -2.49754E+01 +9.85566E+00 -2.35913E+01 +1.70849E+01 -1.92422E+01 +2.22290E+01 -1.25556E+01
 +2.45522E+01 -4.55081E+00 +2.38065E+01 +3.55165E+00 +2.02659E+01 +1.05541E+01 +1.46615E+01 +1.54972E+01
 +8.03361E+00 +1.78251E+01 +1.52886E+00 +1.74696E+01 -3.81537E+00 +1.48402E+01 -7.25890E+00 +1.07236E+01
 -8.48289E+00 +6.11432E+00 -7.62829E+00 +2.01232E+00 -5.24361E+00 -7.73535E-01 -2.15459E+00 -1.77718E+00
 +7.16190E-01 -9.54003E-01 +2.54315E+00 +1.32673E+00 +2.76658E+00 +4.37213E+00 +1.20342E+00 +7.31869E+00
 -1.92012E+00 +9.31601E+00 -6.01900E+00 +9.70459E+00 -1.02712E+01 +8.15229E+00 -1.37854E+01 +4.72346E+00
 -1.57802E+01 -1.31635E-01 -1.57400E+01 -5.66348E+00 -1.35176E+01 -1.09679E+01 -9.36261E+00 -1.51591E+01
 -3.87457E+00 -1.75368E+01 +2.11140E+00 -1.77156E+01 +7.68146E+00 -1.56923E+01 +1.20114E+01 -1.18388E+01
 +1.45143E+01 -6.82497E+00 +1.49392E+01 -1.48766E+00 +1.34036E+01 +3.32808E+00 +1.03552E+01 +6.92328E+00
 +6.47331E+00 +8.86612E+00 +2.52975E+00 +9.05735E+00 -7.61485E-01 +7.72935E+00 -2.87681E+00 +5.38181E+00
 -3.57279E+00 +2.66846E+00 -2.91709E+00 +2.59153E-01 -1.25702E+00 -1.29507E+00 +8.65923E-01 -1.66737E+00
 +2.83653E+00 -8.11501E-01 +4.09631E+00 +1.04029E+00 +4.25770E+00 +3.43511E+00 +3.18001E+00 +5.79974E+00
 +9.93273E-01 +7.56203E+00 -1.93300E+00 +8.26845E+00 -5.06804E+00 +7.67484E+00 -7.82826E+00 +5.79296E+00
 -9.69324E+00 +2.88530E+00 -1.03064E+01 -5.89410E-01 -9.54114E+00 -4.06749E+00 -7.51977E+00 -6.98945E+00
 -4.58479E+00 -8.90493E+00 -1.22801E+00 -9.55318E+00 +2.00584E+00 -8.90423E+00 +4.62186E+00 -7.15453E+00
 +6.26376E+00 -4.67940E+00 +6.77191E+00 -1.95384E+00 +6.20093E+00 +5.41760E-01 +4.79534E+00 +2.41186E+00
 +2.92989E+00 +3.41450E+00 +1.02838E+00 +3.49621E+00 -5.22168E-01 +2.78808E+00 -1.44477E+00 +1.56583E+00
 -1.61926E+00 +1.83760E-01 -1.09488E+00 -1.00270E+00 -6.80354E-02 -1.70983E+00 +1.16834E+00 -1.77948E+00
 +2.29198E+00 -1.20396E+00 +3.02043E+00 -1.18860E-01 +3.16815E+00 +1.23312E+00 +2.68041E+00 +2.55845E+00
 +1.63845E+00 +3.57621E+00 +2.36472E-01 +4.07562E+00 -1.26338E+00 +3.95616E+00 -2.58753E+00 +3.24269E+00
 -3.50657E+00 +2.07437E+00 -3.87887E+00 +6.70771E-01 -3.67367E+00 -7.16446E-01 -2.97008E+00 -1.85525E+00
 -1.93403E+00 -2.57771E+00 -7.78834E-01 -2.80841E+00 +2.80975E-01 -2.57171E+00 +1.07253E+00 -1.97811E+00
 +1.49557E+00 -1.19382E+00 +1.53563E+00 -4.01081E-01 +1.25781E+00 +2.41323E-01 +7.84251E-01 +6.29061E-01
 +2.61162E-01 +7.28713E-01 -1.76546E-01 +5.76862E-01 -4.34628E-01 +2.63558E-01 -4.77021E-01 -9.49197E-02
 -3.28158E-01 -3.87238E-01 -6.04317E-02 -5.34281E-01 +2.28932E-01 -5.06350E-01 +4.45640E-01 -3.26989E-01
 +5.23762E-01 -6.28628E-02 +4.42348E-01 +1.97012E-01 +2.29694E-01 +3.66916E-01 -4.54604E-02 +3.88711E-01
 -2.93612E-01 +2.48363E-01 -4.29508E-01 -1.95029E-02 -3.96249E-01 -3.39796E-01 -1.82497E-01 -6.16214E-01
 +1.72074E-01 -7.56759E-01 +5.84491E-01 -6.98853E-01 +9.47623E-01 -4.28062E-01 +1.15672E+00 +1.46081E-02
 +1.13667E+00 +5.39351E-01 +8.63186E-01 +1.02663E+00 +3.72908E-01 +1.35480E+00 -2.41061E-01 +1.43013E+00
 -8.47673E-01 +1.21158E+00 -1.30651E+00 +7.24646E-01 -1.50059E+00 +6.02630E-02 -1.36570E+00 -6.42002E-01
 -9.09043E-01 -1.22305E+00 -2.12679E-01 -1.53962E+00 +5.80068E-01 -1.49845E+00 +1.29320E+00 -1.08094E+00
 +1.75552E+00 -3.52350E-01 +1.83941E+00 +5.47024E-01 +1.49231E+00 +1.42826E+00 +7.53134E-01 +2.09243E+00
 -2.50345E-01 +2.37352E+00 -1.32363E+00 +2.17682E+00 -2.24361E+00 +1.50381E+00 -2.80469E+00 +4.57507E-01
 -2.86365E+00 -7.73462E-01 -2.37359E+00 -1.95008E+00 -1.39897E+00 -2.83065E+00 -1.07854E-01 -3.22112E+00
 +1.25783E+00 -3.01799E+00 +2.42909E+00 -2.23415E+00 +3.16420E+00 -1.00134E+00 +3.29950E+00 +4.51671E-01
 +2.78643E+00 +1.84204E+00 +1.70584E+00 +2.88869E+00 +2.56394E-01 +3.36960E+00 -1.28152E+00 +3.16921E+00
 -2.60007E+00 +2.30566E+00 -3.42550E+00 +9.31401E-01 -3.57457E+00 -6.93359E-01 -2.99441E+00 -2.24993E+00
 -1.77696E+00 -3.42393E+00 -1.44375E-01 -3.96862E+00 +1.59220E+00 -3.75638E+00 +3.09298E+00 -2.80743E+00
 +4.05720E+00 -1.28915E+00 +4.28422E+00 +5.14197E-01 +3.71606E+00 +2.25593E+00 +2.45189E+00 +3.59543E+00
 +7.31024E-01 +4.26658E+00 -1.11245E+00 +4.13250E+00 -2.71518E+00 +3.21558E+00 -3.75730E+00 +1.69559E+00
 -4.02748E+00 -1.23818E-01 -3.46753E+00 -1.87410E+00 -2.18690E+00 -3.19519E+00 -4.43498E-01 -3.80839E+00
 +1.40555E+00 -3.57409E+00 +2.97403E+00 -2.52277E+00 +3.92405E+00 -8.52258E-01 +4.03493E+00 +1.10874E+00
 +3.24999E+00 +2.96368E+00 +1.69142E+00 +4.32620E+00 -3.60394E-01 +4.89730E+00 -2.51924E+00 +4.52639E+00
 -4.36725E+00 +3.24400E+00 -5.53653E+00 +1.25910E+00 -5.78201E+00 -1.07899E+00 -5.03094E+00 -3.34653E+00
 -3.39920E+00 -5.12681E+00 -1.17063E+00 -6.09109E+00 +1.25673E+00 -6.06264E+00 +3.44698E+00 -5.05169E+00
 +5.01073E+00 -3.25384E+00 +5.68049E+00 -1.01193E+00 +5.36229E+00 +1.25085E+00 +4.15337E+00 +3.11383E+00
 +2.32210E+00 +4.24144E+00 +2.54033E-01 +4.44874E+00 -1.62511E+00 +3.73727E+00 -2.93460E+00 +2.29392E+00
 -3.41494E+00 +4.52731E-01 -2.97988E+00 -1.37259E+00 -1.73421E+00 -2.77222E+00 +4.67857E-02 -3.42341E+00
 +1.97208E+00 -3.15651E+00 +3.61293E+00 -1.99080E+00 +4.58907E+00 -1.32926E-01 +4.64595E+00 +2.06207E+00
 +3.70740E+00 +4.15949E+00 +1.89363E+00 +5.72992E+00 -4.99376E-01 +6.43392E+00 -3.05526E+00 +6.08957E+00
 -5.31636E+00 +4.70963E+00 -6.87128E+00 +2.50104E+00 -7.43380E+00 -1.73354E-01 -6.89756E+00 -2.86324E+00
 -5.35599E+00 -5.11606E+00 -3.08375E+00 -6.56243E+00 -4.83225E-01 -6.98511E+00 +1.99314E+00 -6.35802E+00
 +3.92941E+00 -4.84812E+00 +5.02477E+00 -2.77977E+00 +5.14876E+00 -5.69101E-01 +4.36257E+00 +1.35871E+00
 +2.90257E+00 +2.65274E+00 +1.12956E+00 +3.10388E+00 -5.45853E-01 +2.68350E+00 -1.74678E+00 +1.54575E+00
 -2.20607E+00 -6.39678E-03 -1.81957E+00 -1.58470E+00 -6.66485E-01 -2.79563E+00 +1.00712E+00 -3.32108E+00
 +2.83814E+00 -2.98365E+00 +4.41951E+00 -1.78374E+00 +5.38203E+00 +9.87352E-02 +5.46874E+00 +2.33830E+00
 +4.58716E+00 +4.52655E+00 +2.82934E+00 +6.25112E+00 +4.55890E-01 +7.17546E+00 -2.15266E+00 +7.10376E+00
 -4.56756E+00 +6.01852E+00 -6.39235E+00 +4.08373E+00 -7.33669E+00 +1.61314E+00 -7.26900E+00 -9.89560E-01
 -6.23833E+00 -3.30704E+00 -4.46130E+00 -4.98592E+00 -2.27748E+00 -5.80078E+00 -8.20805E-02 -5.69225E+00
 +1.75036E+00 -4.77251E+00 +2.93643E+00 -3.29747E+00 +3.33481E+00 -1.61189E+00 +2.96819E+00 -7.87011E-02
 +2.01243E+00 +9.93466E-01 +7.55784E-01 +1.41005E+00 -4.63133E-01 +1.12631E+00 -1.32607E+00 +2.52361E-01
 -1.60037E+00 -9.72864E-01 -1.18576E+00 -2.23307E+00 -1.33997E-01 -3.20077E+00 +1.36229E+00 -3.60490E+00
 +3.00893E+00 -3.28644E+00 +4.46925E+00 -2.23117E+00 +5.43127E+00 -5.73552E-01 +5.66948E+00 +1.42882E+00
 +5.08919E+00 +3.44464E+00 +3.74514E+00 +5.13219E+00 +1.83107E+00 +6.20412E+00 -3.57374E-01 +6.48088E+00
 -2.47853E+00 +5.92284E+00 -4.20834E+00 +4.63522E+00 -5.29940E+00 +2.84544E+00 -5.62386E+00 +8.57874E-01
 -5.19264E+00 -1.00459E+00 -4.14765E+00 -2.46075E+00 -2.72940E+00 -3.32130E+00 -1.22693E+00 -3.51952E+00
 +7.95122E-02 -3.11737E+00 +9.71954E-01 -2.28641E+00 +1.33374E+00 -1.26804E+00 +1.16711E+00 -3.21858E-01
 +5.86642E-01 +3.27650E-01 -2.09504E-01 +5.35412E-01 -9.84026E-01 +2.62406E-01 -1.51120E+00 -4.19782E-01
 -1.62384E+00 -1.34687E+00 -1.24709E+00 -2.29815E+00 -4.12642E-01 -3.04300E+00 +7.48634E-01 -3.38850E+00
 +2.03385E+00 -3.21849E+00 +3.20910E+00 -2.51646E+00 +4.05561E+00 -1.36833E+00 +4.41215E+00 +5.47813E-02
 +4.20526E+00 +1.53025E+00 +3.46166E+00 +2.82662E+00 +2.30128E+00 +3.74683E+00 +9.12528E-01 +4.16373E+00
 -4.84607E-01 +4.04086E+00 -1.67998E+00 +3.43535E+00 -2.51120E+00 +2.48303E+00 -2.89075E+00 +1.36908E+00
 -2.81741E+00 +2.90893E-01 -2.37068E+00 -5.79414E-01 -1.68999E+00 -1.12565E+00 -9.43449E-01 -1.30549E+00
 -2.93027E-01 -1.15282E+00 +1.36993E-01 -7.65195E-01 +2.82189E-01 -2.79183E-01 +1.46628E-01 +1.60522E-01
 -2.02725E-01 +4.31646E-01 -6.54049E-01 +4.58723E-01 -1.07706E+00 +2.26433E-01 -1.35159E+00 -2.20225E-01
 -1.39271E+00 -7.88019E-01 -1.16742E+00 -1.35705E+00 -6.99755E-01 -1.80685E+00 -6.39885E-02 -2.04122E+00
 +6.32024E-01 -2.00716E+00 +1.26976E+00 -1.70415E+00 +1.74391E+00 -1.18222E+00 +1.98239E+00 -5.30104E-01
 +1.95884E+00 +1.43758E-01 +1.69513E+00 +7.33277E-01 +1.25414E+00 +1.15477E+00 +7.24952E-01 +1.36137E+00
 +2.03679E-01 +1.34924E+00 -2.25697E-01 +1.15443E+00 -5.06382E-01 +8.42168E-01 -6.17282E-01 +4.91114E-01
 -5.73340E-01 +1.76053E-01 -4.18292E-01 -4.68522E-02 -2.12224E-01 -1.49529E-01 -1.66927E-02 -1.34679E-01
 +1.19053E-01 -3.12864E-02 +1.67579E-01 +1.15176E-01 +1.27077E-01 +2.55251E-01 +1.88369E-02 +3.47934E-01
 -1.20659E-01 +3.69831E-01 -2.50462E-01 +3.19254E-01 -3.36233E-01 +2.14792E-01 -3.58974E-01 +8.87130E-02
 -3.19131E-01 -2.27292E-02 -2.35570E-01 -8.94153E-02 -1.39802E-01 -9.56935E-02 -6.68234E-02 -4.46157E-02
 -4.52989E-02 +4.29343E-02 -8.94152E-02 +1.33654E-01 -1.94331E-01 +1.90688E-01 -3.36714E-01 +1.83638E-01
 -4.80032E-01 +9.69861E-02 -5.83306E-01 -6.48941E-02 -6.11488E-01 -2.77611E-01 -5.44635E-01 -5.01800E-01
 -3.83638E-01 -6.91924E-01 -1.51223E-01 -8.07002E-01 +1.12484E-01 -8.20769E-01 +3.58794E-01 -7.28502E-01
 +5.41576E-01 -5.49025E-01 +6.28378E-01 -3.21189E-01 +6.08686E-01 -9.52424E-02 +4.97191E-01 +7.87785E-02
 +3.31329E-01 +1.63128E-01 +1.63191E-01 +1.42223E-01 +4.74542E-02 +2.76024E-02 +2.81653E-02 -1.43235E-01
