 Created: 16-Jan-2021
 $NMID
 ID='D:\BASISSIMULATI'
 FMTDAT='(8E13.5)'
 VOLUME=   1.00000E+00
 TRAMP=   1.00000E+00
 $END
 +5.67400E+01 +5.01869E+00 +5.00871E+01 +2.69768E+01 +3.53246E+01 +4.45030E+01 +1.48680E+01 +5.47648E+01
 -7.94959E+00 +5.61156E+01 -2.94201E+01 +4.83586E+01 -4.60635E+01 +3.27751E+01 -5.51915E+01 +1.19132E+01
 -5.53422E+01 -1.08292E+01 -4.65135E+01 -3.17575E+01 -3.01604E+01 -4.74808E+01 -8.95508E+00 -5.54612E+01
 +1.36500E+01 -5.44233E+01 +3.39837E+01 -4.45581E+01 +4.87526E+01 -2.74884E+01 +5.55747E+01 -6.00173E+00
 +5.33630E+01 +1.64048E+01 +4.24990E+01 +3.60935E+01 +2.47671E+01 +4.98768E+01 +3.06132E+00 +5.55333E+01
 -1.90866E+01 +5.21656E+01 -3.80823E+01 +4.03429E+01 -5.08516E+01 +2.20044E+01 -5.53386E+01 +1.41840E-01
 -5.08358E+01 -2.16888E+01 -3.80966E+01 -3.99458E+01 -1.92084E+01 -5.16760E+01 +2.74883E+00 -5.49926E+01
 +2.42050E+01 -4.93787E+01 +4.16801E+01 -3.57674E+01 +5.23491E+01 -1.63873E+01 +5.44979E+01 +5.60297E+00
 +4.77994E+01 +2.66290E+01 +3.33625E+01 +4.32818E+01 +1.35490E+01 +5.28706E+01 -8.41306E+00 +5.38574E+01
 -2.89550E+01 +4.61036E+01 -4.47476E+01 +3.08893E+01 -5.32405E+01 +1.07016E+01 -5.30741E+01 -1.11717E+01
 -4.42972E+01 -3.11776E+01 -2.83554E+01 -4.60749E+01 -7.85305E+00 -5.34594E+01 +1.38719E+01 -5.21519E+01
 +3.32917E+01 -4.23863E+01 +4.72614E+01 -2.57683E+01 +5.35281E+01 -5.01128E+00 +5.10945E+01 +1.65067E+01
 +4.03772E+01 +3.52926E+01 +2.31358E+01 +4.83052E+01 +2.18406E+00 +5.34480E+01 -1.90694E+01 +4.99063E+01
 -3.71757E+01 +3.82764E+01 -4.92050E+01 +2.04656E+01 -5.32208E+01 -6.20925E-01 -4.85918E+01 -2.15538E+01
 -3.60907E+01 -3.89371E+01 -1.77654E+01 -4.99595E+01 +3.39613E+00 -5.28485E+01 +2.39536E+01 -4.71560E+01
 +4.05731E+01 -3.38270E+01 +5.05682E+01 -1.50431E+01 +5.23338E+01 +6.13418E+00 +4.56041E+01 +2.62631E+01
 +3.14923E+01 +4.20805E+01 +1.23064E+01 +5.10308E+01 -8.82786E+00 +5.16793E+01 -2.84768E+01 +4.39414E+01
 -4.34563E+01 +2.90937E+01 -5.13476E+01 +9.56305E+00 -5.08883E+01 -1.14702E+01 -4.21738E+01 -3.05896E+01
 -2.66387E+01 -4.46981E+01 -6.82063E+00 -5.15191E+01 +1.40543E+01 -4.99644E+01 +3.25966E+01 -4.03071E+01
 +4.58038E+01 -2.41345E+01 +5.15464E+01 -4.08677E+00 +4.89115E+01 +1.65737E+01 +3.83476E+01 +3.44933E+01
 +2.15885E+01 +4.67716E+01 +1.36894E+00 +5.14306E+01 -1.90220E+01 +4.77337E+01 -3.62755E+01 +3.63015E+01
 -4.76003E+01 +1.90083E+01 -5.11737E+01 -1.32549E+00 -4.64356E+01 -2.13932E+01 -3.41754E+01 -3.79396E+01
 -1.64012E+01 -4.82889E+01 +3.98930E+00 -5.07778E+01 +2.36814E+01 -4.50219E+01 +3.94819E+01 -3.19760E+01
 +4.88371E+01 -1.37749E+01 +5.02452E+01 +6.61542E+00 +4.34978E+01 +2.58812E+01 +2.97101E+01 +4.08996E+01
 +1.11367E+01 +4.92446E+01 -9.19697E+00 +4.95789E+01 -2.79874E+01 +4.18686E+01 -4.21899E+01 +2.73846E+01
 -4.95117E+01 +8.49403E+00 -4.87821E+01 -1.17272E+01 -4.01397E+01 -2.99951E+01 -2.50066E+01 -4.33505E+01
 -5.85431E+00 -4.96391E+01 +1.41997E+01 -4.78582E+01 +3.18996E+01 -3.83171E+01 +4.43796E+01 -2.25832E+01
 +4.96279E+01 -3.22479E+00 +4.68111E+01 +1.66082E+01 +3.64066E+01 +3.36969E+01 +2.01215E+01 +4.52755E+01
 +6.12655E-01 +4.94794E+01 -1.89466E+01 +4.56450E+01 -3.53828E+01 +3.44145E+01 -4.60371E+01 +1.76288E+01
 -4.91954E+01 -1.97505E+00 -4.43641E+01 -2.12092E+01 -3.23471E+01 -3.69540E+01 -1.51122E+01 -4.66637E+01
 +4.53141E+00 -4.87782E+01 +2.33905E+01 -4.29733E+01 +3.84072E+01 -3.02108E+01 +4.71549E+01 -1.25789E+01
 +4.82301E+01 +7.04965E+00 +4.14775E+01 +2.54852E+01 +2.80123E+01 +3.97396E+01 +1.00362E+01 +4.75107E+01
 -9.52320E+00 +4.75540E+01 -2.74884E+01 +3.98818E+01 -4.09486E+01 +2.57583E+01 -4.77314E+01 +7.49109E+00
 -4.67530E+01 -1.19456E+01 -3.81917E+01 -2.93955E+01 -2.34555E+01 -4.20323E+01 -4.95074E+00 -4.78178E+01
 +1.43108E+01 -4.58307E+01 +3.12021E+01 -3.64128E+01 +4.29887E+01 -2.11108E+01 +4.77710E+01 -2.42209E+00
 +4.47908E+01 +1.66127E+01 +3.45510E+01 +3.29044E+01 +1.87312E+01 +4.38166E+01 -8.79585E-02 +4.75925E+01
 -1.88456E+01 +4.36373E+01 -3.44985E+01 +3.26121E+01 -4.45150E+01 +1.63235E+01 -4.72840E+01 -2.57266E+00
 -4.23745E+01 -2.10040E+01 -3.06024E+01 -3.59812E+01 -1.38947E+01 -4.50831E+01 +5.02539E+00 -4.68477E+01
 +2.30826E+01 -4.10071E+01 +3.73495E+01 -2.85280E+01 +4.55209E+01 -1.14517E+01 +4.62862E+01 +7.43967E+00
 +3.95399E+01 +2.50766E+01 +2.63955E+01 +3.86008E+01 +9.00153E+00 +4.58282E+01 -9.80922E+00 +4.56021E+01
 -2.69813E+01 +3.79780E+01 -3.97326E+01 +2.42112E+01 -4.60056E+01 +6.55092E+00 -4.47987E+01 -1.21279E+01
 -3.63265E+01 -2.87922E+01 -2.19818E+01 -4.07432E+01 -4.10670E+00 -4.60540E+01 +1.43898E+01 -4.38794E+01
 +3.05053E+01 -3.45911E+01 +4.16310E+01 -1.97139E+01 +4.59744E+01 -1.67555E+00 +4.28478E+01 +1.65893E+01
 +3.27772E+01 +3.21168E+01 +1.74140E+01 +4.23946E+01 -7.35913E-01 +4.57683E+01 -1.87209E+01 +4.17079E+01
 -3.36234E+01 +3.08908E+01 -4.30333E+01 +1.50890E+01 -4.54376E+01 -3.12122E+00 -4.04640E+01 -2.07793E+01
 -2.89377E+01 -3.50218E+01 -1.27455E+01 -4.35464E+01 +5.47403E+00 -4.49845E+01 +2.27597E+01 -3.91205E+01
 +3.63093E+01 -2.69241E+01 +4.39339E+01 -1.03901E+01 +4.44114E+01 +7.78815E+00 +3.76822E+01 +2.46572E+01
 +2.48562E+01 +3.74834E+01 +8.02956E+00 +4.41960E+01 -1.00576E+01 +4.37212E+01 -2.64675E+01 +3.61540E+01
 -3.85421E+01 +2.27401E+01 -4.43331E+01 +5.67039E+00 -4.29168E+01 -1.22765E+01 -3.45410E+01 -2.81865E+01
 -2.05822E+01 -3.94834E+01 -3.31912E+00 -4.43461E+01 +1.44392E+01 -4.20017E+01 +2.98102E+01 -3.28486E+01
 +4.03061E+01 -1.83890E+01 +4.42363E+01 -9.82192E-01 +4.09795E+01 +1.65403E+01 +3.10822E+01 +3.13352E+01
 +1.61668E+01 +4.10090E+01 -1.33408E+00 +4.40051E+01 -1.85746E+01 +3.98541E+01 -3.27582E+01 +2.92474E+01
 -4.15914E+01 +1.39221E+01 -4.36545E+01 -3.62350E+00 -3.86297E+01 -2.05372E+01 -2.73500E+01 -3.40763E+01
 -1.16613E+01 -4.20529E+01 +5.87998E+00 -4.31865E+01 +2.24233E+01 -3.73106E+01 +3.52870E+01 -2.53959E+01
 +4.23933E+01 -9.39088E+00 +4.26037E+01 +8.09762E+00 +3.59014E+01 +2.42284E+01 +2.33911E+01 +3.63878E+01
 +7.11715E+00 +4.26130E+01 -1.02707E+01 +4.19088E+01 -2.59485E+01 +3.44069E+01 -3.73770E+01 +2.13416E+01
 -4.27125E+01 +4.84647E+00 -4.11049E+01 -1.23935E+01 -3.28322E+01 -2.75795E+01 -1.92535E+01 -3.82527E+01
 -2.58509E+00 -4.26929E+01 +1.44609E+01 -4.01952E+01 +2.91179E+01 -3.11824E+01 +3.90139E+01 -1.71330E+01
 +4.25553E+01 -3.39178E-01 +3.91834E+01 +1.64675E+01 +2.94628E+01 +3.05603E+01 +1.49863E+01 +3.96595E+01
 -1.88521E+00 +4.23013E+01 -1.84085E+01 +3.80733E+01 -3.19037E+01 +2.76788E+01 -4.01888E+01 +1.28196E+01
 -4.19327E+01 -4.08213E+00 -3.68689E+01 -2.02792E+01 -2.58361E+01 -3.31454E+01 -1.06391E+01 -4.06016E+01
 +6.24578E+00 -4.14518E+01 +2.20750E+01 -3.55745E+01 +3.42829E+01 -2.39402E+01 +4.08980E+01 -8.45100E+00
 +4.08610E+01 +8.37050E+00 +3.41946E+01 +2.37917E+01 +2.19971E+01 +3.53141E+01 +6.26136E+00 +4.10781E+01
 -1.04508E+01 +4.01630E+01 -2.54254E+01 +3.27339E+01 -3.62373E+01 +2.00126E+01 -4.11428E+01 +4.07629E+00
 -3.93608E+01 -1.24814E+01 -3.11972E+01 -2.69724E+01 -1.79925E+01 -3.70510E+01 -1.90180E+00 -4.10930E+01
 +1.44571E+01 -3.84577E+01 +2.84293E+01 -2.95895E+01 +3.77540E+01 -1.59428E+01 +4.09299E+01 +2.56202E-01
 +3.74572E+01 +1.63730E+01 +2.79160E+01 +2.97929E+01 +1.38695E+01 +3.83454E+01 -2.39191E+00 +4.06552E+01
 -1.82245E+01 +3.63630E+01 -3.10605E+01 +2.61820E+01 -3.88249E+01 +1.17786E+01 -4.02707E+01 -4.49964E+00
 -3.51792E+01 -2.00070E+01 -2.43928E+01 -3.22294E+01 -9.67596E+00 -3.91920E+01 +6.57383E+00 -3.97786E+01
 +2.17163E+01 -3.39098E+01 +3.32973E+01 -2.25541E+01 +3.94471E+01 -7.56758E+00 +3.91813E+01 +8.60907E+00
 +3.25592E+01 +2.33484E+01 +2.06713E+01 +3.42625E+01 +5.45935E+00 +3.95904E+01 -1.06001E+01 +3.84815E+01
 -2.48995E+01 +3.11321E+01 -3.51232E+01 +1.87501E+01 -3.96227E+01 +3.35710E+00 -3.76823E+01 -1.25419E+01
 -2.96331E+01 -2.63662E+01 -1.67963E+01 -3.58780E+01 -1.26658E+00 -3.95450E+01 +1.44296E+01 -3.67868E+01
 +2.77453E+01 -2.80670E+01 +3.65260E+01 -1.48155E+01 +3.93586E+01 +8.06531E-01 +3.57984E+01 +1.62585E+01
 +2.64390E+01 +2.90338E+01 +1.28135E+01 +3.70665E+01 -2.85667E+00 +3.90652E+01 -1.80240E+01 +3.47208E+01
 -3.02290E+01 +2.47540E+01 -3.74989E+01 +1.07961E+01 -3.86666E+01 -4.87840E+00 -3.35579E+01 -1.97221E+01
 -2.30174E+01 -3.13287E+01 -8.76897E+00 -3.78232E+01 +6.86641E+00 -3.81649E+01 +2.13485E+01 -3.23137E+01
 +3.23306E+01 -2.12345E+01 +3.80396E+01 -6.73786E+00 +3.75627E+01 +8.81552E+00 +3.09926E+01 +2.28996E+01
 +1.94106E+01 +3.32330E+01 +4.70843E+00 +3.81486E+01 -1.07207E+01 +3.68625E+01 -2.43718E+01 +2.95989E+01
 -3.40344E+01 +1.75512E+01 -3.81509E+01 +2.68625E+00 -3.60673E+01 -1.25772E+01 -2.81372E+01 -2.57618E+01
 -1.56619E+01 -3.47336E+01 -6.76876E-01 -3.80476E+01 +1.43803E+01 -3.51802E+01 +2.70666E+01 -2.66122E+01
 +3.53297E+01 -1.37481E+01 +3.78400E+01 +1.31428E+00 +3.42046E+01 +1.61256E+01 +2.50289E+01 +2.82835E+01
 +1.18154E+01 +3.58220E+01 -3.28187E+00 +3.75297E+01 -1.78088E+01 +3.31441E+01 -2.94099E+01 +2.33921E+01
 -3.62103E+01 +9.86936E+00 -3.71187E+01 -5.22071E+00 -3.20025E+01 -1.94259E+01 -2.17070E+01 -3.04436E+01
 -7.91546E+00 -3.64945E+01 +7.12570E+00 -3.66091E+01 +2.09730E+01 -3.07838E+01 +3.13828E+01 -1.99786E+01
 +3.66748E+01 -5.95919E+00 +3.60032E+01 +8.99191E+00 +2.94920E+01 +2.24466E+01 +1.82123E+01 +3.22257E+01
 +4.00599E+00 +3.67518E+01 -1.08146E+01 +3.53038E+01 -2.38433E+01 +2.81316E+01 -3.29710E+01 +1.64132E+01
 -3.67263E+01 +2.06125E+00 -3.45136E+01 -1.25891E+01 -2.67068E+01 -2.51601E+01 -1.45866E+01 -3.36175E+01
 -1.30252E-01 -3.65994E+01 +1.43110E+01 -3.36358E+01 +2.63941E+01 -2.52225E+01 +3.41646E+01 -1.27380E+01
 +3.63726E+01 +1.78179E+00 +3.26738E+01 +1.59760E+01 +2.36831E+01 +2.75427E+01 +1.08726E+01 +3.46116E+01
 -3.66978E+00 +3.60473E+01 -1.75803E+01 +3.16309E+01 -2.86035E+01 +2.20936E+01 -3.49584E+01 +8.99577E+00
 -3.56255E+01 -5.52872E+00 -3.05109E+01 -1.91198E+01 -2.04589E+01 -2.95746E+01 -7.11282E+00 -3.52049E+01
 +7.35377E+00 -3.51093E+01 +2.05909E+01 -2.93176E+01 +3.04541E+01 -1.87839E+01 +3.53515E+01 -5.22902E+00
 +3.45011E+01 +9.14020E+00 +2.80552E+01 +2.19904E+01 +1.70736E+01 +3.12405E+01 +3.34958E+00 +3.53989E+01
