 Created: 16-Jan-2021
 $NMID
 ID='D:\BASISSIMULATI'
 FMTDAT='(8E13.5)'
 VOLUME=   1.00000E+00
 TRAMP=   1.00000E+00
 $END
 +3.72423E+01 +3.27817E+00 +3.27892E+01 +1.77330E+01 +2.29762E+01 +2.91768E+01 +9.47122E+00 +3.57336E+01
 -5.45356E+00 +3.63609E+01 -1.93107E+01 +3.10183E+01 -2.98196E+01 +2.06640E+01 -3.52889E+01 +7.08086E+00
 -3.48935E+01 -7.43510E+00 -2.88002E+01 -2.04698E+01 -1.81235E+01 -2.98994E+01 -4.71961E+00 -3.42429E+01
 +9.14012E+00 -3.28978E+01 +2.11606E+01 -2.62231E+01 +2.94095E+01 -1.54560E+01 +3.26331E+01 -2.48192E+00
 +3.04487E+01 +1.04993E+01 +2.33843E+01 +2.13527E+01 +1.27627E+01 +2.83643E+01 +4.53313E-01 +3.05162E+01
 -1.14597E+01 +2.76341E+01 -2.10357E+01 +2.03863E+01 -2.67982E+01 +1.01408E+01 -2.79650E+01 -1.29310E+00
 -2.45511E+01 -1.19862E+01 -1.73321E+01 -2.02195E+01 -7.67917E+00 -2.47642E+01 +2.69936E+00 -2.50653E+01
 +1.20628E+01 -2.13021E+01 +1.89331E+01 -1.43207E+01 +2.23306E+01 -5.45524E+00 +2.19116E+01 +3.72461E+00
 +1.79899E+01 +1.16928E+01 +1.14438E+01 +1.72230E+01 +3.53191E+00 +1.95781E+01 -4.34615E+00 +1.86034E+01
 -1.08977E+01 +1.47136E+01 -1.51506E+01 +8.78173E+00 -1.65960E+01 +1.95581E+00 -1.52407E+01 -4.55962E+00
 -1.15653E+01 -9.71584E+00 -6.40118E+00 -1.27889E+01 -7.56084E-01 -1.34780E+01 +4.37831E+00 -1.19204E+01
 +8.19974E+00 -8.62629E+00 +1.02196E+01 -4.35303E+00 +1.03189E+01 +5.58248E-02 +8.73183E+00 +3.83171E+00
 +5.96453E+00 +6.41354E+00 +2.67127E+00 +7.52845E+00 -4.85639E-01 +7.20984E+00 -2.96333E+00 +5.75453E+00
 -4.42953E+00 +3.63273E+00 -4.80243E+00 +1.37263E+00 -4.23547E+00 -5.54895E-01 -3.05495E+00 -1.82797E+00
 -1.66717E+00 -2.32462E+00 -4.57103E-01 -2.12537E+00 +2.98941E-01 -1.47057E+00 +4.88660E-01 -6.84819E-01
 +1.76735E-01 -8.73357E-02 -4.25134E-01 +9.08625E-02 -1.02239E+00 -2.35611E-01 -1.32001E+00 -9.86739E-01
 -1.10362E+00 -1.93862E+00 -3.00456E-01 -2.78068E+00 +9.93830E-01 -3.19505E+00 +2.52894E+00 -2.93995E+00
 +3.95164E+00 -1.91778E+00 +4.88446E+00 -2.12108E-01 +5.01427E+00 +1.91565E+00 +4.17124E+00 +4.07051E+00
 +2.38062E+00 +5.80092E+00 -1.25315E-01 +6.69297E+00 -2.93908E+00 +6.46240E+00 -5.54894E+00 +5.02485E+00
 -7.43576E+00 +2.52873E+00 -8.17698E+00 -6.57530E-01 -7.53692E+00 -4.00339E+00 -5.52472E+00 -6.90924E+00
 -2.40714E+00 -8.81768E+00 +1.32792E+00 -9.32178E+00 +5.05191E+00 -8.24927E+00 +8.10599E+00 -5.70559E+00
 +9.92133E+00 -2.06641E+00 +1.01267E+01 +2.08051E+00 +8.62316E+00 +6.03451E+00 +5.61032E+00 +9.10481E+00
 +1.55967E+00 +1.07347E+01 -2.86266E+00 +1.06042E+01 -6.90955E+00 +8.69240E+00 -9.88317E+00 +5.28717E+00
 -1.12585E+01 +9.39823E-01 -1.07776E+01 -3.62739E+00 -8.49838E+00 -7.64518E+00 -4.78693E+00 -1.04304E+01
 -2.56933E-01 -1.15051E+01 +4.33520E+00 -1.06798E+01 +8.22006E+00 -8.08738E+00 +1.07473E+01 -4.16026E+00
 +1.14969E+01 +4.43924E-01 +1.03501E+01 +4.95527E+00 +7.50790E+00 +8.62343E+00 +3.45521E+00 +1.08450E+01
 -1.12438E+00 +1.12644E+01 -5.46617E+00 +9.83198E+00 -8.85456E+00 +6.80807E+00 -1.07431E+01 +2.71522E+00
 -1.08436E+01 -1.75391E+00 -9.17077E+00 -5.85582E+00 -6.03342E+00 -8.92176E+00 -1.97749E+00 -1.04683E+01
 +2.31048E+00 -1.02740E+01 +6.12110E+00 -8.41089E+00 +8.84086E+00 -5.22494E+00 +1.00518E+01 -1.27194E+00
 +9.59593E+00 +2.78051E+00 +7.59397E+00 +6.26680E+00 +4.41766E+00 +8.63352E+00 +6.20668E-01 +9.52763E+00
 -3.15848E+00 +8.84864E+00 -6.30436E+00 +6.75711E+00 -8.32527E+00 +3.63971E+00 -8.92992E+00 +3.79488E-02
 -8.06835E+00 -3.44600E+00 -5.93162E+00 -6.25021E+00 -2.91183E+00 -7.94359E+00 +4.69317E-01 -8.29149E+00
 +3.65057E+00 -7.28674E+00 +6.12407E+00 -5.14217E+00 +7.51597E+00 -2.24751E+00 +7.64198E+00 +9.00750E-01
 +6.52985E+00 +3.78416E+00 +4.40649E+00 +5.94715E+00 +1.65336E+00 +7.06823E+00 -1.26133E+00 +7.00656E+00
 -3.86156E+00 +5.81743E+00 -5.74050E+00 +3.73552E+00 -6.62311E+00 +1.13002E+00 -6.40507E+00 -1.56002E+00
 -5.16274E+00 -3.89881E+00 -3.13387E+00 -5.52344E+00 -6.73261E-01 -6.19907E+00 +1.80829E+00 -5.85147E+00
 +3.91163E+00 -4.57280E+00 +5.31236E+00 -2.60071E+00 +5.80966E+00 -2.75284E-01 +5.35382E+00 +2.01864E+00
 +4.04887E+00 +3.91414E+00 +2.13086E+00 +5.11971E+00 -7.38699E-02 +5.46305E+00 -2.20320E+00 +4.91451E+00
 -3.91767E+00 +3.58745E+00 -4.95349E+00 +1.71609E+00 -5.16219E+00 -3.84937E-01 -4.53097E+00 -2.37250E+00
 -3.18129E+00 -3.93003E+00 -1.34641E+00 -4.81696E+00 +6.68149E-01 -4.90510E+00 +2.53454E+00 -4.19654E+00
 +3.95505E+00 -2.82072E+00 +4.70884E+00 -1.01143E+00 +4.68567E+00 +9.32136E-01 +3.90168E+00 +2.69410E+00
 +2.49489E+00 +3.99250E+00 +7.01526E-01 +4.62383E+00 -1.18308E+00 +4.49463E+00 -2.85246E+00 +3.63513E+00
 -4.03834E+00 +2.19308E+00 -4.55339E+00 +4.08839E-01 -4.32070E+00 -1.42420E+00 -3.38527E+00 -3.00744E+00
 -1.90577E+00 -4.08538E+00 -1.28019E-01 -4.48678E+00 +1.65555E+00 -4.15184E+00 +3.15374E+00 -3.14127E+00
 +4.12412E+00 -1.62559E+00 +4.41226E+00 +1.43365E-01 +3.97651E+00 +1.87414E+00 +2.89415E+00 +3.28370E+00
 +1.34790E+00 +4.14382E+00 -4.04743E-01 +4.31832E+00 -2.07448E+00 +3.78480E+00 -3.38814E+00 +2.63757E+00
 -4.13371E+00 +1.07114E+00 -4.19485E+00 -6.52791E-01 -3.56936E+00 -2.24926E+00 -2.36837E+00 -3.45754E+00
 -7.96762E-01 -4.08414E+00 +8.81989E-01 -4.03421E+00 +2.39034E+00 -3.32608E+00 +3.48307E+00 -2.08670E+00
 +3.98768E+00 -5.28897E-01 +3.83197E+00 +1.08542E+00 +3.05445E+00 +2.48980E+00 +1.79586E+00 +3.45780E+00
 +2.73689E-01 +3.84002E+00 -1.25574E+00 +3.58747E+00 -2.54102E+00 +2.75753E+00 -3.37754E+00 +1.50182E+00
 -3.64056E+00 +3.84444E-02 -3.30392E+00 -1.38624E+00 -2.44163E+00 -2.53969E+00 -1.21244E+00 -3.24167E+00
 +1.69383E-01 -3.39274E+00 +1.47184E+00 -2.98823E+00 +2.48461E+00 -2.11564E+00 +3.05348E+00 -9.36554E-01
 +3.10396E+00 +3.43234E-01 +2.65047E+00 +1.51002E+00 +1.79014E+00 +2.37825E+00 +6.82847E-01 +2.82031E+00
 -4.78437E-01 +2.78514E+00 -1.50152E+00 +2.30300E+00 -2.22703E+00 +1.47635E+00 -2.55329E+00 +4.58838E-01
 -2.45006E+00 -5.73056E-01 -1.95953E+00 -1.45077E+00 -1.18498E+00 -2.04121E+00 -2.69875E-01 -2.26671E+00
 +6.28506E-01 -2.11435E+00 +1.36600E+00 -1.63387E+00 +1.83449E+00 -9.25162E-01 +1.97721E+00 -1.18331E-01
 +1.79435E+00 +6.49900E-01 +1.33877E+00 +1.25905E+00 +7.03420E-01 +1.62329E+00 +3.03716E-03 +1.70267E+00
 -6.46076E-01 +1.50588E+00 -1.14485E+00 +1.08486E+00 -1.42581E+00 +5.22946E-01 -1.46102E+00 -8.09874E-02
 -1.26307E+00 -6.29313E-01 -8.79615E-01 -1.04065E+00 -3.83061E-01 -1.26090E+00 +1.42503E-01 -1.26899E+00
 +6.14757E-01 -1.07722E+00 +9.64986E-01 -7.26676E-01 +1.14680E+00 -2.79011E-01 +1.14093E+00 +1.93701E-01
 +9.55939E-01 +6.19581E-01 +6.25386E-01 +9.36556E-01 +2.02064E-01 +1.10000E+00 -2.49577E-01 +1.08776E+00
 -6.61966E-01 +9.02430E-01 -9.73010E-01 +5.70651E-01 -1.13400E+00 +1.39921E-01 -1.11615E+00 -3.27057E-01
 -9.15150E-01 -7.59947E-01 -5.53110E-01 -1.08975E+00 -7.73964E-02 -1.25839E+00 +4.43952E-01 -1.22786E+00
 +9.30209E-01 -9.87736E-01 +1.29882E+00 -5.59609E-01 +1.47801E+00 +2.66794E-03 +1.41951E+00 +6.17786E-01
 +1.10925E+00 +1.18691E+00 +5.73947E-01 +1.60796E+00 -1.18316E-01 +1.79248E+00 -8.64592E-01 +1.68256E+00
 -1.54059E+00 +1.26472E+00 -2.01987E+00 +5.77836E-01 -2.19591E+00 -2.87284E-01 -2.00363E+00 -1.19773E+00
 -1.43596E+00 -1.99728E+00 -5.52037E-01 -2.53174E+00 +5.25771E-01 -2.67702E+00 +1.62683E+00 -2.36510E+00
 +2.55776E+00 -1.60255E+00 +3.13506E+00 -4.77594E-01 +3.21949E+00 +8.47246E-01 +2.74599E+00 +2.15684E+00
 +1.74310E+00 +3.21713E+00 +3.37094E-01 +3.81576E+00 -1.26136E+00 +3.80263E+00 -2.78738E+00 +3.12305E+00
 -3.96471E+00 +1.83644E+00 -4.55464E+00 +1.15893E-01 -4.40236E+00 -1.77305E+00 -3.47200E+00 -3.51233E+00
 -1.86301E+00 -4.78415E+00 +1.96780E-01 -5.32810E+00 +2.38183E+00 -4.99229E+00 +4.31968E+00 -3.76886E+00
 +5.65398E+00 -1.80606E+00 +6.10915E+00 +6.06890E-01 +5.54511E+00 +3.08140E+00 +3.99134E+00 +5.19181E+00
 +1.65285E+00 +6.54838E+00 -1.11491E+00 +6.86866E+00 -3.85960E+00 +6.03396E+00 -6.10597E+00 +4.12016E+00
 -7.43826E+00 +1.39558E+00 -7.57668E+00 -1.71543E+00 -6.43385E+00 -4.69859E+00 -4.14021E+00 -7.03517E+00
 -1.03208E+00 -8.29253E+00 +2.39706E+00 -8.20399E+00 +5.57549E+00 -6.72308E+00 +7.94927E+00 -4.04156E+00
 +9.07955E+00 -5.66249E-01 +8.72353E+00 +3.14273E+00 +6.88442E+00 +6.46319E+00 +3.82019E+00 +8.81635E+00
 +8.10425E-03 +9.76867E+00 -3.93024E+00 +9.11184E+00 -7.33157E+00 +6.90613E+00 -9.60413E+00 +3.47839E+00
 -1.03317E+01 -6.26456E-01 -9.35027E+00 -4.73314E+00 -6.78272E+00 -8.14879E+00 -3.02486E+00 -1.02815E+01
 +1.31626E+00 -1.07444E+01 +5.52195E+00 -9.42605E+00 +8.88279E+00 -6.51535E+00 +1.08202E+01 -2.47444E+00
 +1.09876E+01 +2.03575E+00 +9.33295E+00 +6.26542E+00 +6.11190E+00 +9.50278E+00 +1.84749E+00 +1.11958E+01
 -2.75611E+00 +1.10482E+01 -6.93203E+00 +9.07172E+00 -9.98074E+00 +5.58669E+00 -1.13895E+01 +1.16903E+00
 -1.09201E+01 -3.44664E+00 -8.65012E+00 -7.49145E+00 -4.95988E+00 -1.02928E+01 -4.67585E-01 -1.13884E+01
 +4.07613E+00 -1.06042E+01 +7.91604E+00 -8.08261E+00 +1.04203E+01 -4.25654E+00 +1.11868E+01 +2.26153E-01
 +1.01087E+01 +4.61437E+00 +7.38972E+00 +8.18209E+00 +3.50553E+00 +1.03510E+01 -8.80715E-01 +1.07860E+01
 -5.03355E+00 +9.44856E+00 -8.27104E+00 +6.59714E+00 -1.00791E+01 +2.73817E+00 -1.01947E+01 -1.46533E+00
 -8.64498E+00 -5.30959E+00 -5.73456E+00 -8.17030E+00 -1.98684E+00 -9.60619E+00 +1.95134E+00 -9.42837E+00
 +5.42322E+00 -7.72446E+00 +7.87391E+00 -4.83434E+00 +8.94096E+00 -1.28349E+00 +8.50861E+00 +2.31346E+00
 +6.71760E+00 +5.36088E+00 +3.93016E+00 +7.38280E+00 +6.58292E-01 +8.09877E+00 -2.53096E+00 +7.46246E+00
 -5.11536E+00 +5.65787E+00 -6.70482E+00 +3.05552E+00 -7.10116E+00 +1.38304E-01 -6.32111E+00 -2.58849E+00
 -4.58019E+00 -4.68613E+00 -2.24237E+00 -5.85445E+00 +2.53644E-01 -5.97494E+00 +2.47679E+00 -5.11866E+00
 +4.07932E+00 -3.51949E+00 +4.85216E+00 -1.51980E+00 +4.75113E+00 +4.99864E-01 +3.89080E+00 +2.19300E+00
 +2.50936E+00 +3.30751E+00 +9.12948E-01 +3.72364E+00 -5.88479E-01 +3.46365E+00 -1.74075E+00 +2.67333E+00
 -2.38917E+00 +1.58071E+00 -2.49869E+00 +4.41996E-01 -2.14807E+00 -5.13810E-01 -1.50083E+00 -1.12992E+00
 -7.60671E-01 -1.34784E+00 -1.21539E-01 -1.21008E+00 +2.76475E-01 -8.40145E-01 +3.76147E-01 -4.05372E-01
