 Created: 16-Jan-2021
 $NMID
 ID='D:\BASISSIMULATI'
 FMTDAT='(8E13.5)'
 VOLUME=   1.00000E+00
 TRAMP=   1.00000E+00
 $END
 +4.06406E+01 +2.14559E+00 +2.63448E+01 +2.76555E+01 -1.16873E+00 +3.05559E+01 -1.67716E+01 +1.09721E+01
 -7.83366E+00 -9.78917E+00 +1.38915E+01 -1.03172E+01 +2.42159E+01 +1.00426E+01 +1.04092E+01 +3.07954E+01
 -1.63195E+01 +3.05202E+01 -3.17571E+01 +7.83423E+00 -2.21793E+01 -1.72698E+01 +2.52816E+00 -2.28054E+01
 +1.87179E+01 -5.86985E+00 +1.19707E+01 +1.50203E+01 -9.22326E+00 +1.83437E+01 -2.22229E+01 +5.96370E-01
 -1.26262E+01 -2.05113E+01 +1.16249E+01 -2.35536E+01 +2.80208E+01 -4.33981E+00 +2.13358E+01 +2.00597E+01
 -1.80273E+00 +2.79084E+01 -1.96415E+01 +1.36780E+01 -1.65086E+01 -7.06265E+00 +2.24681E+00 -1.32300E+01
 +1.59539E+01 +1.13530E+00 +9.11341E+00 +2.12599E+01 -1.34156E+01 +2.62804E+01 -3.11975E+01 +9.64850E+00
 -2.80646E+01 -1.45696E+01 -7.59079E+00 -2.54040E+01 +1.07125E+01 -1.51396E+01 +1.04890E+01 +3.67477E+00
 -5.80671E+00 +1.09189E+01 -1.97808E+01 -1.33390E+00 -1.53978E+01 -2.12495E+01 +5.29127E+00 -2.89984E+01
 +2.41978E+01 -1.61426E+01 +2.47651E+01 +6.25875E+00 +7.80818E+00 +1.84903E+01 -9.65883E+00 +1.11710E+01
 -1.11659E+01 -6.10084E+00 +3.37577E+00 -1.46014E+01 +1.80378E+01 -4.94043E+00 +1.67728E+01 +1.39073E+01
 -8.43367E-01 +2.35713E+01 -1.92700E+01 +1.42446E+01 -2.21227E+01 -5.90827E+00 -7.85792E+00 -1.88361E+01
 +9.13453E+00 -1.40371E+01 +1.27852E+01 +1.67353E+00 +8.54764E-01 +1.13219E+01 -1.33077E+01 +4.57150E+00
 -1.41560E+01 -1.22952E+01 +7.89163E-01 -2.27224E+01 +1.86113E+01 -1.60825E+01 +2.35968E+01 +2.12874E+00
 +1.22884E+01 +1.58255E+01 -3.57875E+00 +1.39124E+01 -8.80373E+00 +6.63885E-01 +5.52853E-01 -8.97462E+00
 +1.37224E+01 -4.25214E+00 +1.61119E+01 +1.09627E+01 +3.65544E+00 +2.21665E+01 -1.33172E+01 +1.84306E+01
 -2.01901E+01 +2.87864E+00 -1.20700E+01 -1.05826E+01 +1.89389E+00 -1.07882E+01 +7.77672E+00 +1.91739E-01
 +4.35108E-01 +9.60640E+00 -1.18294E+01 +6.79116E+00 -1.57452E+01 -6.45261E+00 -6.14416E+00 -1.78183E+01
 +9.10763E+00 -1.65726E+01 +1.68580E+01 -3.83821E+00 +1.12908E+01 +8.77139E+00 -8.52869E-01 +1.05138E+01
 -7.24326E+00 +1.65697E+00 -2.03079E+00 -7.30719E+00 +8.75694E+00 -6.25703E+00 +1.34680E+01 +4.67569E+00
 +6.33206E+00 +1.54341E+01 -7.02835E+00 +1.59407E+01 -1.51996E+01 +5.74894E+00 -1.19516E+01 -5.82439E+00
 -1.87686E+00 -8.88808E+00 +4.51846E+00 -2.34606E+00 +1.16810E+00 +5.54032E+00 -7.89940E+00 +5.59741E+00
 -1.28569E+01 -3.26700E+00 -7.82093E+00 -1.31895E+01 +3.52678E+00 -1.51363E+01 +1.16834E+01 -7.55201E+00
 +1.04866E+01 +2.44935E+00 +2.71173E+00 +6.18840E+00 -3.09207E+00 +1.67395E+00 -1.10777E+00 -4.93372E+00
 +6.28609E+00 -5.73756E+00 +1.11894E+01 +1.11345E+00 +8.05704E+00 +9.79909E+00 -1.00675E+00 +1.26409E+01
 -8.48751E+00 +7.45111E+00 -8.73875E+00 -6.73787E-01 -3.11158E+00 -4.54745E+00 +1.83412E+00 -1.76067E+00
 +9.49089E-01 +3.41057E+00 -4.64220E+00 +4.59157E+00 -8.97664E+00 -3.62910E-01 -7.25418E+00 -7.44535E+00
 -4.13218E-01 -1.05628E+01 +5.99952E+00 -7.36932E+00 +7.24472E+00 -1.21215E+00 +3.68002E+00 +2.40522E+00
 -6.16089E-02 +1.11616E+00 +1.43390E-01 -2.39943E+00 +3.99623E+00 -3.44751E+00 +7.38687E+00 -3.75024E-02
 +6.60275E+00 +5.33094E+00 +1.85737E+00 +8.28472E+00 -3.15338E+00 +6.76716E+00 -4.91582E+00 +2.71037E+00
 -3.24372E+00 -1.59481E-01 -9.96639E-01 +5.24434E-02 -9.87976E-01 +1.91136E+00 -3.30047E+00 +2.46608E+00
 -5.50291E+00 +2.92402E-01 -5.23416E+00 -3.25601E+00 -2.43145E+00 -5.56456E+00 +8.57470E-01 -5.27063E+00
 +2.58274E+00 -3.27770E+00 +2.46646E+00 -1.53576E+00 +1.83084E+00 -1.08698E+00 +1.97850E+00 -1.34665E+00
 +2.93571E+00 -1.07567E+00 +3.70015E+00 +2.24199E-01 +3.44300E+00 +1.94458E+00 +2.26494E+00 +3.17582E+00
 +8.43310E-01 +3.59795E+00 -3.85545E-01 +3.50584E+00 -1.48550E+00 +3.16708E+00 -2.54504E+00 +2.45421E+00
 -3.24361E+00 +1.21314E+00 -3.13620E+00 -2.01544E-01 -2.33525E+00 -1.06706E+00 -1.63562E+00 -1.09717E+00
 -1.71291E+00 -9.44280E-01 -2.21305E+00 -1.60768E+00 -1.90228E+00 -3.20757E+00 +2.17284E-02 -4.50845E+00
 +2.77119E+00 -3.97110E+00 +4.38101E+00 -1.44463E+00 +3.55995E+00 +1.32338E+00 +1.17082E+00 +2.17090E+00
 -3.68778E-01 +7.07725E-01 +5.57458E-01 -1.07505E+00 +2.94766E+00 -6.63303E-01 +3.93361E+00 +2.31810E+00
 +1.62929E+00 +5.38600E+00 -2.69647E+00 +5.43025E+00 -5.50265E+00 +1.88657E+00 -4.33221E+00 -2.37621E+00
 -4.01702E-01 -3.62243E+00 +2.33808E+00 -9.47285E-01 +1.02376E+00 +2.61102E+00 -3.10598E+00 +2.91457E+00
 -5.67231E+00 -1.07401E+00 -3.42551E+00 -5.94230E+00 +2.29913E+00 -6.93799E+00 +6.53770E+00 -2.69546E+00
 +5.41533E+00 +3.12421E+00 +9.09297E-02 +5.16462E+00 -4.12377E+00 +1.62809E+00 -2.88308E+00 -3.74588E+00
 +2.75754E+00 -5.17613E+00 +7.11346E+00 -5.95239E-01 +5.36704E+00 +6.02158E+00 -1.49594E+00 +8.29751E+00
 -7.31784E+00 +3.72225E+00 -6.63075E+00 -3.62204E+00 -1.27886E-01 -6.79850E+00 +5.76392E+00 -2.78627E+00
 +5.06109E+00 +4.35807E+00 -1.77526E+00 +7.27926E+00 -8.03037E+00 +2.56627E+00 -7.19766E+00 -5.64076E+00
 +4.85853E-01 -9.44486E+00 +7.96258E+00 -4.90618E+00 +8.07910E+00 +3.86840E+00 +6.75281E-01 +8.48583E+00
 -7.01498E+00 +4.43266E+00 -7.29978E+00 -4.32356E+00 +3.38778E-01 -9.00733E+00 +8.48940E+00 -4.61782E+00
 +8.92269E+00 +4.95126E+00 +7.61129E-01 +1.04673E+01 -8.38238E+00 +6.34503E+00 -9.66131E+00 -3.68897E+00
 -1.71039E+00 -9.98750E+00 +7.78595E+00 -6.34679E+00 +9.44447E+00 +3.76444E+00 +1.42677E+00 +1.03805E+01
 -8.53439E+00 +6.74103E+00 -1.05387E+01 -3.91348E+00 -2.27582E+00 -1.12695E+01 +8.46655E+00 -7.95708E+00
 +1.12256E+01 +3.07423E+00 +3.13042E+00 +1.11935E+01 -8.07212E+00 +8.38901E+00 -1.14090E+01 -2.76409E+00
 -3.43685E+00 -1.14038E+01 +8.19036E+00 -8.92177E+00 +1.20356E+01 +2.48115E+00 +4.09790E+00 +1.17257E+01
 -8.06138E+00 +9.60122E+00 -1.25215E+01 -2.09027E+00 -4.67036E+00 -1.20602E+01 +8.08511E+00 -1.04543E+01
 +1.33622E+01 +1.40997E+00 +5.89395E+00 +1.21208E+01 -7.15525E+00 +1.12184E+01 -1.30250E+01 -4.86791E-01
 -5.83835E+00 -1.15124E+01 +7.47208E+00 -1.08364E+01 +1.37580E+01 +1.21467E+00 +6.50125E+00 +1.30605E+01
 -7.63245E+00 +1.30515E+01 -1.51022E+01 +9.25081E-01 -8.67522E+00 -1.17428E+01 +5.37676E+00 -1.27242E+01
 +1.32504E+01 -1.14268E+00 +7.08644E+00 +1.15057E+01 -7.19686E+00 +1.24954E+01 -1.55128E+01 +4.00581E-01
 -9.34799E+00 -1.32993E+01 +5.75895E+00 -1.52882E+01 +1.54231E+01 -3.46173E+00 +1.03886E+01 +1.08453E+01
 -4.33820E+00 +1.37989E+01 -1.42412E+01 +2.60358E+00 -9.44987E+00 -1.16326E+01 +5.49135E+00 -1.46629E+01
 +1.59010E+01 -3.09554E+00 +1.12671E+01 +1.20969E+01 -4.34702E+00 +1.61406E+01 -1.60711E+01 +4.90083E+00
 -1.26503E+01 -1.09334E+01 +2.50916E+00 -1.61534E+01 +1.45520E+01 -5.87778E+00 +1.16508E+01 +9.57971E+00
 -3.34006E+00 +1.47097E+01 -1.55269E+01 +4.02077E+00 -1.24798E+01 -1.24151E+01 +3.51021E+00 -1.86358E+01
 +1.74747E+01 -8.35689E+00 +1.62602E+01 +8.77687E+00 +1.38405E+00 +1.64807E+01 -1.23652E+01 +7.70253E+00
 -1.13439E+01 -8.42193E+00 +3.53457E+00 -1.54340E+01 +1.75559E+01 -5.68434E+00 +1.65193E+01 +1.20246E+01
 +6.96331E-01 +2.08633E+01 -1.52569E+01 +1.23544E+01 -1.64730E+01 -5.27430E+00 -2.36698E+00 -1.50150E+01
 +1.27440E+01 -7.64865E+00 +1.36058E+01 +9.20693E+00 -9.99202E-01 +1.84900E+01 -1.69364E+01 +1.04051E+01
 -1.84561E+01 -7.85863E+00 -3.63456E+00 -1.89790E+01 +1.35941E+01 -1.23380E+01 +1.69057E+01 +5.57037E+00
 +3.47518E+00 +1.73925E+01 -1.32455E+01 +1.18144E+01 -1.66567E+01 -5.36952E+00 -3.28480E+00 -1.68864E+01
 +1.37173E+01 -1.08963E+01 +1.73486E+01 +7.30938E+00 +3.40380E+00 +2.03125E+01 -1.52864E+01 +1.54798E+01
 -2.12417E+01 -2.69552E+00 -9.31996E+00 -1.69168E+01 +8.28187E+00 -1.39237E+01 +1.39549E+01 +2.56302E+00
 +1.93842E+00 +1.54705E+01 -1.59541E+01 +1.10965E+01 -2.18002E+01 -7.37981E+00 -9.08846E+00 -2.28384E+01
 +1.08157E+01 -2.08133E+01 +1.96324E+01 -3.57951E+00 +9.91428E+00 +1.20450E+01 -7.73883E+00 +1.10899E+01
 -1.50768E+01 -4.95790E+00 -4.09591E+00 -1.96115E+01 +1.50439E+01 -1.75318E+01 +2.38596E+01 +3.80904E-01
 +1.35821E+01 +1.77143E+01 -6.21361E+00 +1.84388E+01 -1.68488E+01 +2.48795E+00 -8.67721E+00 -1.41913E+01
 +9.57230E+00 -1.52003E+01 +1.93842E+01 +3.08309E-01 +1.06120E+01 +1.68183E+01 -8.52585E+00 +1.76474E+01
 -1.93975E+01 +1.33189E+00 -1.11277E+01 -1.68150E+01 +8.74281E+00 -1.95275E+01 +2.15314E+01 -4.35520E+00
 +1.55491E+01 +1.39885E+01 -2.58834E+00 +1.79990E+01 -1.45132E+01 +4.45504E+00 -8.12898E+00 -1.24723E+01
 +1.04942E+01 -1.51187E+01 +2.29778E+01 +3.30859E-01 +1.65462E+01 +1.99930E+01 -3.48404E+00 +2.57064E+01
 -1.88278E+01 +1.26413E+01 -1.59777E+01 -6.07356E+00 +7.36396E-01 -1.22139E+01 +1.35039E+01 -2.51997E-01
 +8.54042E+00 +1.72836E+01 -1.03556E+01 +2.21057E+01 -2.54320E+01 +8.10944E+00 -2.22573E+01 -1.25591E+01
 -3.78446E+00 -2.12312E+01 +1.25106E+01 -1.07994E+01 +1.16121E+01 +7.47305E+00 -4.50136E+00 +1.50362E+01
 -1.89326E+01 +4.19034E+00 -1.64914E+01 -1.44260E+01 +1.37981E+00 -2.22810E+01 +1.79423E+01 -1.11099E+01
 +1.74410E+01 +8.93961E+00 +4.33304E-01 +1.91106E+01 -1.67700E+01 +1.02114E+01 -1.79767E+01 -8.56060E+00
 -2.79739E+00 -1.87107E+01 +1.31344E+01 -1.05406E+01 +1.35663E+01 +7.42015E+00 -2.41181E+00 +1.68144E+01
 -1.94196E+01 +7.44927E+00 -2.07445E+01 -1.26871E+01 -4.59144E+00 -2.51318E+01 +1.42060E+01 -1.88272E+01
 +1.86328E+01 -7.35771E-01 +5.97411E+00 +1.11092E+01 -9.72125E+00 +5.27552E+00 -1.15300E+01 -1.19353E+01
 +3.70813E+00 -2.27159E+01 +2.22345E+01 -1.52077E+01 +2.67322E+01 +4.86929E+00 +1.31338E+01 +1.97228E+01
 -5.49624E+00 +1.67101E+01 -1.17268E+01 +4.71485E-01 -6.71913E-01 -1.17998E+01 +1.54279E+01 -7.25409E+00
 +1.93427E+01 +1.00700E+01 +5.79777E+00 +2.32501E+01 -1.33099E+01 +1.90521E+01 -2.04551E+01 +8.70482E-01
 -9.47743E+00 -1.45474E+01 +8.53469E+00 -1.33309E+01 +1.61273E+01 +2.18176E+00 +6.44711E+00 +1.59491E+01
 -1.02490E+01 +1.40232E+01 -1.68001E+01 -1.82347E+00 -6.01694E+00 -1.58948E+01 +1.22476E+01 -1.39477E+01
 +2.06647E+01 +2.89592E+00 +1.12333E+01 +1.92336E+01 -7.05823E+00 +2.03196E+01 -1.70961E+01 +6.24854E+00
 -1.02925E+01 -8.38572E+00 +5.21710E+00 -8.90469E+00 +1.27324E+01 +5.09793E+00 +3.43558E+00 +1.94261E+01
