 Created: 16-Jan-2021
 $NMID
 ID='D:\BASISSIMULATI'
 FMTDAT='(8E13.5)'
 VOLUME=   1.00000E+00
 TRAMP=   1.00000E+00
 $END
 +6.04366E+01 +9.52888E+00 +5.08562E+01 -1.31246E+01 +1.88938E+01 -2.11610E+01 -1.56116E+01 -5.93263E+00
 -3.24016E+01 +2.37417E+01 -2.44547E+01 +4.79568E+01 -1.88320E+00 +4.99177E+01 +1.62716E+01 +2.76176E+01
 +1.59659E+01 -5.17547E+00 -2.32956E+00 -2.88310E+01 -2.49345E+01 -3.11560E+01 -3.54213E+01 -1.46637E+01
 -2.62242E+01 +6.68864E+00 -3.22979E+00 +1.80721E+01 +1.91744E+01 +1.36800E+01 +2.82331E+01 -7.11504E-01
 +2.06899E+01 -1.33150E+01 +3.42922E+00 -1.51263E+01 -1.24432E+01 -5.52007E+00 -1.90884E+01 +8.58260E+00
 -1.58278E+01 +1.82778E+01 -7.71266E+00 +1.84055E+01 -9.78702E-01 +9.73336E+00 +8.86798E-01 -2.86500E+00
 -1.79967E+00 -1.39369E+01 -6.35668E+00 -2.00104E+01 -9.76375E+00 -2.01669E+01 -9.83305E+00 -1.54060E+01
 -5.52936E+00 -7.98140E+00 +2.77865E+00 -9.72791E-01 +1.28835E+01 +2.52316E+00 +2.08629E+01 +9.37801E-01
 +2.26123E+01 -4.29778E+00 +1.64445E+01 -8.87182E+00 +4.97476E+00 -8.01413E+00 -5.62429E+00 -6.72157E-03
 -9.20205E+00 +1.18196E+01 -3.87838E+00 +2.05806E+01 +6.21397E+00 +2.03141E+01 +1.33884E+01 +1.04223E+01
 +1.16858E+01 -3.31979E+00 +1.27431E+00 -1.23038E+01 -1.13646E+01 -1.09051E+01 -1.78205E+01 -4.43491E-01
 -1.36692E+01 +1.16581E+01 -1.65795E+00 +1.70094E+01 +1.01566E+01 +1.20349E+01 +1.39708E+01 +2.97082E-01
 +7.50755E+00 -1.01953E+01 -4.67690E+00 -1.26324E+01 -1.45780E+01 -5.94253E+00 -1.62277E+01 +4.83209E+00
 -9.40888E+00 +1.22856E+01 +7.39057E-01 +1.16534E+01 +7.55248E+00 +3.62364E+00 +7.21678E+00 -6.64299E+00
 +7.96184E-01 -1.31823E+01 -7.02935E+00 -1.28939E+01 -1.12236E+01 -6.95232E+00 -9.35337E+00 +4.88014E-01
 -2.59655E+00 +5.03622E+00 +5.36087E+00 +4.45513E+00 +1.05231E+01 -4.61164E-01 +1.05961E+01 -6.62007E+00
 +5.97028E+00 -1.03411E+01 -5.71472E-01 -9.21527E+00 -5.23959E+00 -3.37627E+00 -5.19972E+00 +4.38573E+00
 -2.61349E-01 +9.91103E+00 +6.70231E+00 +9.96023E+00 +1.11705E+01 +4.34477E+00 +9.72931E+00 -3.54808E+00
 +2.54996E+00 -8.55853E+00 -6.24057E+00 -7.07097E+00 -1.09564E+01 +2.94540E-01 -8.20263E+00 +8.69888E+00
 +4.73448E-01 +1.21798E+01 +9.26021E+00 +7.89652E+00 +1.19530E+01 -1.53767E+00 +6.42381E+00 -9.57906E+00
 -3.61767E+00 -1.03165E+01 -1.10890E+01 -2.86162E+00 -1.06303E+01 +7.75346E+00 -2.62722E+00 +1.40401E+01
 +6.92002E+00 +1.14714E+01 +1.07351E+01 +1.85398E+00 +5.66687E+00 -7.93791E+00 -4.89318E+00 -1.10116E+01
 -1.34485E+01 -5.54818E+00 -1.39123E+01 +3.88911E+00 -6.07398E+00 +9.82384E+00 +4.32815E+00 +7.49189E+00
 +9.94655E+00 -1.61994E+00 +7.26788E+00 -1.09565E+01 -9.34001E-01 -1.38353E+01 -7.89790E+00 -8.36920E+00
 -8.07040E+00 +1.30736E+00 -1.21458E+00 +8.30374E+00 +7.60029E+00 +8.13059E+00 +1.19548E+01 +1.83179E+00
 +8.85762E+00 -5.13914E+00 +7.54546E-01 -7.23712E+00 -6.56749E+00 -2.94671E+00 -8.38046E+00 +4.34117E+00
 -4.31847E+00 +9.13446E+00 +1.76691E+00 +7.99518E+00 +5.01604E+00 +1.88082E+00 +3.21211E+00 -4.89784E+00
 -1.84924E+00 -8.03731E+00 -6.05596E+00 -6.24559E+00 -6.18661E+00 -1.74642E+00 -2.12677E+00 +1.79029E+00
 +3.39399E+00 +2.06932E+00 +7.03516E+00 -4.01942E-01 +7.17014E+00 -3.11250E+00 +4.63309E+00 -3.65668E+00
 +1.63259E+00 -1.42054E+00 -4.37804E-02 +2.28596E+00 -1.06025E-01 +5.44026E+00 +4.84541E-01 +6.71355E+00
 +5.71699E-01 +6.03922E+00 -3.23904E-01 +4.19001E+00 -1.90301E+00 +2.00161E+00 -3.56040E+00 -4.35143E-02
 -4.82310E+00 -1.70671E+00 -5.38822E+00 -2.74603E+00 -4.93862E+00 -2.95415E+00 -3.16668E+00 -2.46054E+00
 -1.50356E-01 -1.87082E+00 +3.27814E+00 -1.90231E+00 +5.69581E+00 -2.69993E+00 +5.89976E+00 -3.46034E+00
 +3.83154E+00 -2.86524E+00 +8.13235E-01 -1.55646E-01 -1.26431E+00 +3.97174E+00 -1.30848E+00 +7.47903E+00
 +9.54492E-02 +8.21911E+00 +1.06293E+00 +5.46818E+00 -1.29173E-01 +5.91494E-01 -3.56707E+00 -3.75603E+00
 -7.37605E+00 -5.39925E+00 -8.89291E+00 -4.11419E+00 -6.54495E+00 -1.70673E+00 -1.07249E+00 -6.17839E-01
 +4.82493E+00 -2.06940E+00 +8.20308E+00 -5.10937E+00 +7.75273E+00 -7.25582E+00 +4.54377E+00 -6.27643E+00
 +1.15802E+00 -1.83353E+00 -1.34871E-01 +4.15651E+00 +1.12062E+00 +8.68135E+00 +3.37905E+00 +9.50341E+00
 +4.27669E+00 +6.50094E+00 +2.32848E+00 +1.64777E+00 -1.99867E+00 -2.28217E+00 -6.50687E+00 -3.40971E+00
 -8.60244E+00 -1.78778E+00 -6.89084E+00 +8.02969E-01 -2.05983E+00 +2.10617E+00 +3.46557E+00 +8.88017E-01
 +6.88848E+00 -2.23239E+00 +6.63303E+00 -5.12637E+00 +3.23565E+00 -5.48716E+00 -1.00779E+00 -2.36604E+00
 -3.46596E+00 +3.04039E+00 -2.83234E+00 +7.91389E+00 +1.92247E-02 +9.43285E+00 +2.58962E+00 +6.54093E+00
 +2.44755E+00 +7.25661E-01 -1.00632E+00 -4.79035E+00 -5.92029E+00 -7.02996E+00 -9.04980E+00 -5.16322E+00
 -7.89332E+00 -1.03587E+00 -2.49257E+00 +2.10426E+00 +4.38943E+00 +1.87297E+00 +8.93790E+00 -1.54663E+00
 +8.73565E+00 -5.48747E+00 +4.32617E+00 -6.66382E+00 -1.20385E+00 -3.53719E+00 -4.34436E+00 +2.49005E+00
 -3.50838E+00 +7.91837E+00 +2.07135E-02 +9.45748E+00 +3.15579E+00 +6.19046E+00 +3.27093E+00 +1.15060E-01
 +3.93720E-02 -5.24874E+00 -4.40642E+00 -7.15173E+00 -7.00690E+00 -5.22495E+00 -5.84786E+00 -1.40831E+00
 -1.34817E+00 +1.57606E+00 +4.12908E+00 +2.03747E+00 +7.81541E+00 +2.15792E-01 +8.11970E+00 -2.15858E+00
 +5.30757E+00 -3.14043E+00 +1.06731E+00 -1.76046E+00 -2.55265E+00 +1.52569E+00 -4.14401E+00 +5.19337E+00
 -3.44782E+00 +7.44233E+00 -1.31745E+00 +7.00670E+00 +7.30976E-01 +3.72507E+00 +1.23600E+00 -1.26941E+00
 -4.09415E-01 -5.87208E+00 -3.42267E+00 -7.89552E+00 -5.80165E+00 -6.26444E+00 -5.38283E+00 -1.86270E+00
 -1.35111E+00 +2.68881E+00 +4.79094E+00 +4.49966E+00 +9.70756E+00 +2.37107E+00 +1.01910E+01 -2.11279E+00
 +5.44691E+00 -5.37848E+00 -1.97279E+00 -4.28835E+00 -7.54207E+00 +1.39261E+00 -7.75900E+00 +8.38418E+00
 -2.72664E+00 +1.18696E+01 +3.67866E+00 +8.88638E+00 +6.42498E+00 +7.09013E-01 +3.00316E+00 -7.68550E+00
 -4.52814E+00 -1.09292E+01 -1.07936E+01 -7.08176E+00 -1.09165E+01 +8.61792E-01 -4.17241E+00 +7.01847E+00
 +5.26756E+00 +6.84497E+00 +1.11789E+01 +4.75490E-01 +9.71263E+00 -7.33323E+00 +2.16798E+00 -1.06707E+01
 -5.95921E+00 -6.82189E+00 -8.96916E+00 +1.72022E+00 -5.04647E+00 +9.06626E+00 +2.55609E+00 +1.02040E+01
 +8.04949E+00 +4.56133E+00 +7.40408E+00 -3.73141E+00 +1.20774E+00 -8.96847E+00 -5.94626E+00 -7.97718E+00
 -8.93805E+00 -2.17946E+00 -5.78748E+00 +3.77123E+00 +1.15823E+00 +5.56908E+00 +7.19887E+00 +2.30184E+00
 +8.74552E+00 -3.19441E+00 +5.65607E+00 -6.69047E+00 +8.85556E-01 -5.67362E+00 -1.99614E+00 -9.04066E-01
 -1.38090E+00 +4.50576E+00 +1.56025E+00 +7.50584E+00 +4.14307E+00 +7.08784E+00 +4.28136E+00 +4.50747E+00
 +1.79376E+00 +1.92458E+00 -1.85857E+00 +7.55328E-01 -4.86687E+00 +9.75277E-01 -6.22600E+00 +1.62395E+00
 -5.97277E+00 +1.78785E+00 -4.66570E+00 +1.16648E+00 -2.82557E+00 -6.03290E-02 -8.41561E-01 -1.63649E+00
 +8.02241E-01 -3.34618E+00 +1.49912E+00 -4.76944E+00 +9.35725E-01 -5.13436E+00 -4.13761E-01 -3.70373E+00
 -1.35350E+00 -5.45564E-01 -8.03856E-01 +3.03214E+00 +1.16250E+00 +5.01464E+00 +3.04546E+00 +4.02650E+00
 +2.87781E+00 +5.04760E-01 -1.51088E-01 -3.36055E+00 -4.69786E+00 -5.09472E+00 -7.86662E+00 -3.80791E+00
 -7.16763E+00 -9.82393E-01 -2.42712E+00 +5.76497E-01 +3.87262E+00 -1.05537E+00 +8.21921E+00 -5.24103E+00
 +8.52898E+00 -9.00718E+00 +5.59434E+00 -9.12188E+00 +2.39622E+00 -4.51182E+00 +1.78287E+00 +2.81469E+00
 +4.27802E+00 +9.06749E+00 +7.68176E+00 +1.12455E+01 +8.74538E+00 +9.08091E+00 +5.62528E+00 +4.97305E+00
 -7.25802E-01 +2.07025E+00 -7.20550E+00 +2.00908E+00 -1.06701E+01 +3.96173E+00 -9.91101E+00 +5.54379E+00
 -6.15255E+00 +4.72671E+00 -1.92814E+00 +1.27418E+00 +6.51839E-01 -3.23573E+00 +9.85193E-01 -6.58957E+00
 -1.30603E-01 -7.30697E+00 -1.39268E+00 -5.28617E+00 -1.85050E+00 -1.55423E+00 -1.22992E+00 +2.39866E+00
 +1.74216E-01 +5.16697E+00 +1.67289E+00 +5.73887E+00 +2.30282E+00 +3.77362E+00 +1.11620E+00 -7.61875E-02
 -2.18437E+00 -4.11772E+00 -6.57658E+00 -6.27101E+00 -9.72926E+00 -5.35277E+00 -9.14735E+00 -2.17354E+00
 -3.98275E+00 +6.04023E-01 +3.80503E+00 +1.64063E-01 +1.01455E+01 -4.18619E+00 +1.13635E+01 -9.93089E+00
 +6.89986E+00 -1.26399E+01 +1.20737E-01 -9.08916E+00 -3.75413E+00 -2.74456E-02 -1.40768E+00 +9.68632E+00
 +5.85047E+00 +1.40906E+01 +1.26409E+01 +1.03556E+01 +1.32708E+01 +1.12524E+00 +6.08973E+00 -7.01275E+00
 -4.86423E+00 -8.09543E+00 -1.24083E+01 -1.15716E+00 -1.13104E+01 +8.89595E+00 -2.23919E+00 +1.47358E+01
 +8.45642E+00 +1.19702E+01 +1.31418E+01 +2.45672E+00 +8.33271E+00 -6.95699E+00 -2.81490E+00 -9.41384E+00
 -1.28114E+01 -3.09257E+00 -1.52381E+01 +7.41979E+00 -9.26314E+00 +1.44375E+01 +9.25659E-03 +1.27005E+01
 +5.49726E+00 +3.04765E+00 +3.36720E+00 -8.37276E+00 -4.34019E+00 -1.46142E+01 -1.14791E+01 -1.27389E+01
 -1.24449E+01 -5.45679E+00 -6.15422E+00 +1.34801E+00 +3.47058E+00 +3.08807E+00 +1.05878E+01 -4.60732E-01
 +1.15632E+01 -5.57034E+00 +7.08971E+00 -7.77397E+00 +1.03432E+00 -5.21789E+00 -2.71669E+00 +3.12594E-01
 -2.84655E+00 +5.13347E+00 -8.50914E-01 +6.49495E+00 +8.11319E-01 +4.25702E+00 +8.53858E-01 +3.83729E-01
 -1.31699E-01 -2.92501E+00 -6.72629E-01 -4.73077E+00 +6.64255E-02 -5.38320E+00 +1.67069E+00 -5.43175E+00
 +3.16726E+00 -4.71405E+00 +4.15125E+00 -2.56046E+00 +5.12921E+00 +1.15804E+00 +6.70835E+00 +5.30867E+00
 +8.46587E+00 +8.00800E+00 +8.74962E+00 +8.08630E+00 +5.86018E+00 +6.21693E+00 -2.62297E-01 +4.55894E+00
 -7.36706E+00 +5.00158E+00 -1.20653E+01 +7.39384E+00 -1.21495E+01 +9.32900E+00 -8.28533E+00 +7.87616E+00
 -3.64021E+00 +2.02529E+00 -1.58047E+00 -6.10531E+00 -3.13642E+00 -1.24001E+01 -6.20724E+00 -1.35143E+01
 -7.18534E+00 -9.24484E+00 -3.80602E+00 -2.69777E+00 +2.94956E+00 +1.91402E+00 +9.37166E+00 +2.21695E+00
 +1.15963E+01 -8.07724E-01 +8.32290E+00 -3.80625E+00 +1.68434E+00 -3.71304E+00 -4.30538E+00 -5.84375E-02
 -6.50743E+00 +4.75227E+00 -4.59695E+00 +7.28199E+00 -8.90577E-01 +5.56292E+00 +1.61289E+00 +4.17463E-01
 +1.40959E+00 -5.24070E+00 -6.70218E-01 -8.44733E+00 -2.38091E+00 -8.01965E+00 -1.85617E+00 -4.96947E+00
 +1.09885E+00 -1.44441E+00 +5.03363E+00 +8.33526E-01 +7.95847E+00 +1.49630E+00 +8.59488E+00 +1.35502E+00
