 Created: 16-Jan-2021
 $NMID
 ID='D:\BASISSIMULATI'
 FMTDAT='(8E13.5)'
 VOLUME=   1.00000E+00
 TRAMP=   1.00000E+00
 $END
 +5.41930E+01 +7.67022E+00 +4.71292E+01 -5.13968E+00 +2.30319E+01 -1.14201E+01 -7.30060E+00 -5.62252E+00
 -3.06341E+01 +1.02711E+01 -3.78298E+01 +2.77502E+01 -2.80560E+01 +3.65131E+01 -8.58047E+00 +3.02894E+01
 +9.55063E+00 +1.05130E+01 +1.74654E+01 -1.41776E+01 +1.28195E+01 -3.23261E+01 +3.39397E-01 -3.55383E+01
 -1.14784E+01 -2.27003E+01 -1.54591E+01 -3.54953E-01 -9.72111E+00 +2.08240E+01 +1.59832E+00 +3.14519E+01
 +1.10716E+01 +2.78433E+01 +1.24416E+01 +1.32162E+01 +4.22560E+00 -4.66245E+00 -9.50953E+00 -1.78380E+01
 -2.14891E+01 -2.20597E+01 -2.52362E+01 -1.82163E+01 -1.84558E+01 -1.08622E+01 -4.00651E+00 -5.01838E+00
 +1.18799E+01 -3.25427E+00 +2.29406E+01 -4.66535E+00 +2.58512E+01 -6.08899E+00 +2.12942E+01 -4.55426E+00
 +1.28185E+01 +6.65656E-01 +4.45189E+00 +7.62838E+00 -1.39537E+00 +1.30463E+01 -4.58886E+00 +1.43889E+01
 -6.37626E+00 +1.13822E+01 -7.81589E+00 +6.00111E+00 -8.73387E+00 +1.06904E+00 -7.92953E+00 -1.53805E+00
 -4.40856E+00 -1.88309E+00 +1.33090E+00 -1.54613E+00 +6.99977E+00 -2.15233E+00 +9.58353E+00 -3.92699E+00
 +7.19024E+00 -5.34063E+00 +4.86409E-01 -4.16910E+00 -7.31681E+00 +6.92167E-01 -1.21005E+01 +7.90729E+00
 -1.12243E+01 +1.38997E+01 -5.22581E+00 +1.46730E+01 +2.28951E+00 +8.28032E+00 +6.64991E+00 -3.56660E+00
 +4.92314E+00 -1.58779E+01 -2.13133E+00 -2.27647E+01 -1.02161E+01 -2.06048E+01 -1.38153E+01 -1.02089E+01
 -9.44270E+00 +3.34436E+00 +2.05209E+00 +1.32660E+01 +1.55416E+01 +1.46845E+01 +2.41624E+01 +7.34562E+00
 +2.30244E+01 -4.17214E+00 +1.20342E+01 -1.29280E+01 -3.79810E+00 -1.34648E+01 -1.68415E+01 -4.90933E+00
 -2.08254E+01 +8.42343E+00 -1.41653E+01 +1.93061E+01 -8.01536E-01 +2.15381E+01 +1.19302E+01 +1.33885E+01
 +1.72466E+01 -1.36066E+00 +1.25328E+01 -1.53602E+01 +6.64903E-01 -2.15758E+01 -1.16559E+01 -1.69972E+01
 -1.76104E+01 -4.17266E+00 -1.39656E+01 +1.02251E+01 -2.76557E+00 +1.89760E+01 +9.86438E+00 +1.80686E+01
 +1.70863E+01 +8.62813E+00 +1.50192E+01 -3.94420E+00 +4.73150E+00 -1.30422E+01 -8.45412E+00 -1.43965E+01
 -1.78700E+01 -8.17044E+00 -1.89906E+01 +1.43570E+00 -1.16284E+01 +8.71796E+00 +2.41858E-01 +9.65377E+00
 +1.07897E+01 +3.98353E+00 +1.54072E+01 -4.86578E+00 +1.28883E+01 -1.18387E+01 +5.64544E+00 -1.30563E+01
 -1.96904E+00 -7.81556E+00 -6.15949E+00 +1.22831E+00 -5.58848E+00 +9.65155E+00 -1.72802E+00 +1.36381E+01
 +2.35584E+00 +1.18210E+01 +3.94204E+00 +5.67915E+00 +2.16483E+00 -1.55427E+00 -1.69726E+00 -6.71869E+00
 -5.17923E+00 -8.23040E+00 -6.15792E+00 -6.52038E+00 -4.02661E+00 -3.34604E+00 +1.06071E-01 -5.48044E-01
 +4.19056E+00 +9.52795E-01 +6.42900E+00 +1.38734E+00 +6.16048E+00 +1.60703E+00 +3.98506E+00 +2.26118E+00
 +1.17766E+00 +3.27027E+00 -1.14516E+00 +3.91727E+00 -2.56189E+00 +3.43561E+00 -3.30845E+00 +1.64621E+00
 -3.79875E+00 -8.12696E-01 -4.11752E+00 -2.82506E+00 -3.87861E+00 -3.47842E+00 -2.55360E+00 -2.63159E+00
 -2.36112E-02 -9.90724E-01 +3.06803E+00 +3.58769E-01 +5.46754E+00 +6.59986E-01 +5.93821E+00 -3.07455E-02
 +4.00425E+00 -9.02125E-01 +3.41257E-01 -9.58778E-01 -3.46799E+00 +2.59808E-01 -5.71663E+00 +2.28182E+00
 -5.46694E+00 +3.90380E+00 -3.04188E+00 +3.89369E+00 +1.73143E-01 +1.77992E+00 +2.50883E+00 -1.75992E+00
 +2.92610E+00 -5.16951E+00 +1.54689E+00 -6.81333E+00 -4.88370E-01 -5.85829E+00 -1.73316E+00 -2.73517E+00
 -1.29040E+00 +1.08345E+00 +6.83610E-01 +3.86245E+00 +3.10103E+00 +4.50183E+00 +4.59359E+00 +3.05909E+00
 +4.29752E+00 +6.28907E-01 +2.31878E+00 -1.31930E+00 -3.68204E-01 -1.75116E+00 -2.49793E+00 -5.74056E-01
 -3.21115E+00 +1.40958E+00 -2.47168E+00 +3.02658E+00 -9.91331E-01 +3.40143E+00 +2.51234E-01 +2.38771E+00
 +5.87244E-01 +5.53878E-01 -7.12201E-03 -1.21209E+00 -9.83644E-01 -2.20815E+00 -1.61687E+00 -2.23597E+00
 -1.45666E+00 -1.58330E+00 -5.68883E-01 -7.41451E-01 +5.51396E-01 -7.58244E-02 +1.30408E+00 +3.38328E-01
 +1.32663E+00 +6.40255E-01 +6.54475E-01 +9.62841E-01 -3.64302E-01 +1.24931E+00 -1.30541E+00 +1.24735E+00
 -1.88484E+00 +6.85030E-01 -2.02816E+00 -4.98269E-01 -1.78697E+00 -2.03168E+00 -1.20598E+00 -3.39413E+00
 -2.66055E-01 -4.05376E+00 +1.04581E+00 -3.72071E+00 +2.59958E+00 -2.46594E+00 +4.04327E+00 -6.51043E-01
 +4.87667E+00 +1.26455E+00 +4.66636E+00 +2.90625E+00 +3.28400E+00 +4.05307E+00 +1.01863E+00 +4.58736E+00
 -1.51630E+00 +4.41278E+00 -3.63449E+00 +3.44508E+00 -4.84259E+00 +1.70965E+00 -4.97446E+00 -5.26206E-01
 -4.14317E+00 -2.71607E+00 -2.58538E+00 -4.18010E+00 -5.38611E-01 -4.39769E+00 +1.75100E+00 -3.28952E+00
 +3.91638E+00 -1.30254E+00 +5.39050E+00 +7.87977E-01 +5.50840E+00 +2.26939E+00 +3.82027E+00 +2.84717E+00
 +4.69334E-01 +2.73693E+00 -3.62315E+00 +2.42144E+00 -6.97163E+00 +2.22431E+00 -8.13161E+00 +1.99669E+00
 -6.43012E+00 +1.16917E+00 -2.41575E+00 -8.05768E-01 +2.28280E+00 -3.87540E+00 +5.69498E+00 -7.07569E+00
 +6.49431E+00 -8.78798E+00 +4.69469E+00 -7.53913E+00 +1.63447E+00 -2.95317E+00 -7.91793E-01 +3.71484E+00
 -1.25021E+00 +9.87882E+00 +2.11772E-01 +1.27350E+01 +2.15801E+00 +1.06804E+01 +2.63494E+00 +4.27931E+00
 +4.55750E-01 -3.81524E+00 -3.86308E+00 -1.00453E+01 -8.13292E+00 -1.16871E+01 -9.58472E+00 -8.23871E+00
 -6.48204E+00 -1.68820E+00 +6.50568E-01 +4.52975E+00 +8.95354E+00 +7.35981E+00 +1.44825E+01 +5.75113E+00
 +1.42054E+01 +1.17805E+00 +7.69710E+00 -3.25208E+00 -2.42578E+00 -4.62246E+00 -1.16496E+01 -1.93845E+00
 -1.57564E+01 +3.23043E+00 -1.29380E+01 +7.59953E+00 -4.71095E+00 +8.06614E+00 +4.87064E+00 +3.59516E+00
 +1.12975E+01 -3.99564E+00 +1.18786E+01 -1.08499E+01 +7.00135E+00 -1.30948E+01 -2.64217E-01 -8.98551E+00
 -5.95786E+00 +1.31298E-02 -7.39994E+00 +9.83425E+00 -4.54492E+00 +1.58161E+01 +1.95324E-01 +1.50544E+01
 +3.50014E+00 +7.85573E+00 +3.13944E+00 -2.46199E+00 -7.25294E-01 -1.12841E+01 -5.66277E+00 -1.49900E+01
 -8.41668E+00 -1.26107E+01 -6.82447E+00 -6.03683E+00 -1.11007E+00 +1.22427E+00 +6.17260E+00 +5.97126E+00
 +1.14930E+01 +6.83443E+00 +1.22184E+01 +4.63513E+00 +7.97015E+00 +1.52095E+00 +7.48167E-01 -4.92861E-01
 -6.17790E+00 -6.70197E-01 -9.94102E+00 +2.45823E-01 -9.38469E+00 +7.93236E-01 -5.35806E+00 -5.76760E-02
 +2.93253E-02 -2.13028E+00 +4.64131E+00 -4.12678E+00 +7.28258E+00 -4.48501E+00 +7.90794E+00 -2.42993E+00
 +7.11390E+00 +1.46503E+00 +5.40301E+00 +5.56149E+00 +2.79952E+00 +8.09271E+00 -9.16955E-01 +8.14946E+00
 -5.57982E+00 +6.09427E+00 -1.01529E+01 +3.16793E+00 -1.28798E+01 +5.85808E-01 -1.21236E+01 -1.24356E+00
 -7.44233E+00 -2.83256E+00 -1.94079E-01 -4.97625E+00 +6.83281E+00 -7.81354E+00 +1.07014E+01 -1.02947E+01
 +9.86497E+00 -1.05447E+01 +5.07045E+00 -7.03216E+00 -9.69658E-01 +1.32933E-01 -5.03571E+00 +8.65262E+00
 -5.20203E+00 +1.47756E+01 -1.93226E+00 +1.51002E+01 +2.21932E+00 +8.53085E+00 +4.18854E+00 -2.74791E+00
 +2.36852E+00 -1.39765E+01 -2.22315E+00 -1.99972E+01 -6.35559E+00 -1.78357E+01 -6.44803E+00 -8.30432E+00
 -8.68737E-01 +4.30102E+00 +8.69012E+00 +1.43303E+01 +1.76803E+01 +1.76435E+01 +2.09138E+01 +1.36762E+01
 +1.54075E+01 +5.57731E+00 +2.29200E+00 -1.66409E+00 -1.33563E+01 -4.06613E+00 -2.48064E+01 -8.85947E-01
 -2.69661E+01 +5.02547E+00 -1.89616E+01 +8.95751E+00 -4.61841E+00 +7.19193E+00 +9.44056E+00 -6.50477E-01
 +1.70970E+01 -1.11337E+01 +1.57068E+01 -1.87317E+01 +7.19668E+00 -1.88461E+01 -3.23390E+00 -1.04618E+01
 -1.00331E+01 +3.05020E+00 -1.02223E+01 +1.54734E+01 -4.75658E+00 +2.08466E+01 +2.34129E+00 +1.64876E+01
 +6.49463E+00 +4.34545E+00 +5.26546E+00 -1.00108E+01 -2.88121E-01 -2.01943E+01 -6.31106E+00 -2.20959E+01
 -8.45545E+00 -1.56750E+01 -4.45237E+00 -4.60658E+00 +4.50054E+00 +5.88451E+00 +1.42917E+01 +1.17404E+01
 +2.00503E+01 +1.18776E+01 +1.86940E+01 +8.22800E+00 +1.04900E+01 +4.18043E+00 -1.16105E+00 +2.44577E+00
 -1.15134E+01 +3.59268E+00 -1.68073E+01 +6.00974E+00 -1.58980E+01 +7.17299E+00 -1.04161E+01 +5.35748E+00
 -3.54834E+00 +7.43828E-01 +1.74654E+00 -4.69583E+00 +4.06358E+00 -8.38615E+00 +3.78888E+00 -8.64235E+00
 +2.31827E+00 -5.57341E+00 +9.08052E-01 -9.09912E-01 -6.90074E-02 +3.05799E+00 -1.05329E+00 +4.73603E+00
 -2.59042E+00 +3.92377E+00 -4.58249E+00 +1.61076E+00 -6.08906E+00 -8.85105E-01 -5.85826E+00 -2.80067E+00
 -3.23811E+00 -4.23911E+00 +1.17702E+00 -5.74834E+00 +5.66773E+00 -7.53113E+00 +8.28730E+00 -8.91980E+00
 +8.01495E+00 -8.57753E+00 +5.42807E+00 -5.38213E+00 +2.41413E+00 +5.62100E-01 +1.03000E+00 +7.50914E+00
 +2.17562E+00 +1.26681E+01 +4.91791E+00 +1.36056E+01 +6.95031E+00 +9.69097E+00 +5.99135E+00 +2.69598E+00
 +1.31843E+00 -3.92142E+00 -5.51620E+00 -6.76961E+00 -1.13114E+01 -4.38816E+00 -1.29289E+01 +1.84141E+00
 -9.15444E+00 +8.32668E+00 -1.61164E+00 +1.11706E+01 +5.88950E+00 +8.33930E+00 +9.30844E+00 +8.76637E-01
 +6.60113E+00 -7.55738E+00 -1.03189E+00 -1.26273E+01 -9.63322E+00 -1.17002E+01 -1.45218E+01 -5.34173E+00
 -1.28049E+01 +2.92608E+00 -4.99840E+00 +8.50957E+00 +5.15992E+00 +8.25141E+00 +1.26427E+01 +2.18150E+00
 +1.37877E+01 -6.46703E+00 +8.24379E+00 -1.30002E+01 -8.46430E-01 -1.38139E+01 -8.52725E+00 -8.35367E+00
 -1.06605E+01 +5.91807E-01 -6.08856E+00 +8.41752E+00 +2.81919E+00 +1.12049E+01 +1.14926E+01 +7.82778E+00
 +1.56044E+01 +5.20201E-01 +1.32948E+01 -6.37924E+00 +6.00337E+00 -8.79837E+00 -2.47507E+00 -5.11808E+00
 -8.11966E+00 +2.99316E+00 -8.79720E+00 +1.15049E+01 -5.22459E+00 +1.61626E+01 -3.28392E-01 +1.46637E+01
 +2.55380E+00 +7.73212E+00 +1.57736E+00 -1.40991E+00 -2.65207E+00 -8.79472E+00 -7.54088E+00 -1.16911E+01
 -1.00554E+01 -9.77193E+00 -8.44383E+00 -4.94191E+00 -3.17780E+00 -5.85796E-02 +3.35383E+00 +2.65293E+00
 +8.15853E+00 +2.61023E+00 +9.18929E+00 +8.39417E-01 +6.29128E+00 -9.42411E-01 +1.10342E+00 -1.48881E+00
 -3.92457E+00 -7.24368E-01 -6.78275E+00 +3.75692E-01 -6.73341E+00 +5.64106E-01 -4.35886E+00 -7.83171E-01
 -9.44350E-01 -3.22009E+00 +2.33040E+00 -5.48012E+00 +4.88749E+00 -6.22826E+00 +6.70902E+00 -4.82927E+00
 +7.91341E+00 -1.67102E+00 +8.34351E+00 +2.11417E+00 +7.51178E+00 +5.30784E+00 +4.96250E+00 +7.20790E+00
 +7.90289E-01 +7.81512E+00 -4.08542E+00 +7.54408E+00 -8.15298E+00 +6.72122E+00 -9.98280E+00 +5.26421E+00
