 Created: 16-Jan-2021
 $NMID
 ID='D:\BASISSIMULATI'
 FMTDAT='(8E13.5)'
 VOLUME=   1.00000E+00
 TRAMP=   1.00000E+00
 $END
 +6.49887E+01 +1.46704E+00 +3.35734E+01 +5.34462E+01 -2.51914E+01 +5.09396E+01 -4.85038E+01 +6.05329E-01
 -1.51517E+01 -3.92633E+01 +3.24618E+01 -2.52378E+01 +3.82110E+01 +2.33605E+01 -4.02150E+00 +4.86928E+01
 -4.51995E+01 +2.14128E+01 -3.88455E+01 -2.67275E+01 +5.70620E+00 -4.09582E+01 +3.53099E+01 -7.15094E+00
 +1.52892E+01 +3.24316E+01 -3.03076E+01 +2.87020E+01 -4.65364E+01 -1.70671E+01 -1.09786E+01 -5.41903E+01
 +4.01212E+01 -4.02065E+01 +5.25844E+01 +1.09261E+01 +1.50524E+01 +4.47298E+01 -2.91694E+01 +2.74169E+01
 -3.16714E+01 -1.73222E+01 +7.15943E+00 -3.67597E+01 +4.05588E+01 -9.13441E+00 +2.97467E+01 +3.31751E+01
 -1.26368E+01 +4.22670E+01 -3.87533E+01 +9.53556E+00 -2.12171E+01 -2.59493E+01 +1.62648E+01 -2.36854E+01
 +2.75616E+01 +1.15798E+01 -2.03340E+00 +3.61214E+01 -3.89023E+01 +1.82694E+01 -3.98993E+01 -2.49111E+01
 -1.75554E+00 -4.69757E+01 +3.52751E+01 -2.46834E+01 +3.29400E+01 +1.62932E+01 -2.61116E+00 +3.10275E+01
 -2.91433E+01 +5.74207E+00 -1.66512E+01 -2.81444E+01 +1.97169E+01 -3.09290E+01 +3.84999E+01 +6.27666E-01
 +1.94961E+01 +3.12171E+01 -1.45005E+01 +2.82998E+01 -2.53229E+01 -1.38887E+00 -3.36225E+00 -2.12299E+01
 +2.25683E+01 -7.75104E+00 +1.95479E+01 +2.26978E+01 -1.13037E+01 +3.35173E+01 -3.63777E+01 +1.01966E+01
 -2.81156E+01 -2.32557E+01 +4.00568E+00 -3.18017E+01 +2.48364E+01 -8.66844E+00 +1.33275E+01 +1.80630E+01
 -1.47387E+01 +1.79432E+01 -2.58793E+01 -7.96053E+00 -6.94151E+00 -2.96640E+01 +2.11851E+01 -2.29399E+01
 +2.84133E+01 +4.04081E+00 +9.33889E+00 +2.14962E+01 -1.21793E+01 +1.24168E+01 -1.14885E+01 -9.13232E+00
 +8.89202E+00 -1.56250E+01 +2.33189E+01 +1.85474E+00 +1.31796E+01 +2.39187E+01 -1.19437E+01 +2.56463E+01
 -2.56662E+01 +4.91960E+00 -1.47425E+01 -1.57878E+01 +6.72872E+00 -1.51857E+01 +1.40933E+01 +3.39785E+00
 -1.05156E-01 +1.69344E+01 -1.87585E+01 +9.19643E+00 -2.03808E+01 -1.16194E+01 -3.04487E+00 -2.32049E+01
 +1.46303E+01 -1.44280E+01 +1.51943E+01 +3.25407E+00 +1.36450E+00 +1.00411E+01 -8.57791E+00 +2.95745E-01
 -2.38688E+00 -1.22160E+01 +1.26699E+01 -1.11108E+01 +1.90066E+01 +3.86150E+00 +9.00529E+00 +1.71572E+01
 -6.86311E+00 +1.54136E+01 -1.24354E+01 +2.07191E+00 -3.85086E+00 -7.37072E+00 +7.06500E+00 -3.07836E+00
 +6.83454E+00 +8.75250E+00 -4.76852E+00 +1.37629E+01 -1.53123E+01 +5.66943E+00 -1.40210E+01 -7.45263E+00
 -3.18619E+00 -1.29067E+01 +5.46377E+00 -7.26101E+00 +4.19990E+00 +1.01080E+00 -2.90201E+00 +1.96839E+00
 -5.71292E+00 -4.81846E+00 +1.74195E-01 -1.07172E+01 +9.01074E+00 -8.33216E+00 +1.19215E+01 +4.57094E-01
 +6.70225E+00 +7.21006E+00 -4.40295E-01 +6.43412E+00 -2.27166E+00 +1.02409E+00 +1.77231E+00 -1.73987E+00
 +5.75511E+00 +1.62193E+00 +4.21094E+00 +7.50080E+00 -2.16045E+00 +9.66543E+00 -7.80770E+00 +5.90416E+00
 -8.38687E+00 -2.35440E-01 -4.77639E+00 -3.67610E+00 -1.35446E+00 -2.88321E+00 -1.17329E+00 -6.43995E-01
 -3.26973E+00 -5.37619E-01 -4.31654E+00 -3.27259E+00 -2.24706E+00 -6.39240E+00 +1.88681E+00 -7.00019E+00
 +5.18627E+00 -4.47756E+00 +5.63528E+00 -8.07748E-01 +3.72789E+00 +1.37909E+00 +1.80244E+00 +1.10513E+00
 +1.85367E+00 -2.19466E-01 +3.69087E+00 -1.61915E-01 +5.02274E+00 +2.38735E+00 +3.55643E+00 +5.92079E+00
 -6.23460E-01 +7.44940E+00 -4.73680E+00 +5.32876E+00 -5.74513E+00 +1.13075E+00 -3.41714E+00 -1.60590E+00
 -7.82074E-01 -8.93375E-01 -1.07579E+00 +1.47728E+00 -4.12824E+00 +1.68322E+00 -6.23677E+00 -1.88290E+00
 -4.10272E+00 -6.44718E+00 +1.25176E+00 -7.52986E+00 +5.14884E+00 -3.89639E+00 +4.21572E+00 +7.43868E-01
 +2.83061E-01 +1.59273E+00 -1.41969E+00 -1.81628E+00 +1.85173E+00 -4.82223E+00 +6.93782E+00 -2.76049E+00
 +7.99624E+00 +3.53021E+00 +3.07746E+00 +8.20769E+00 -3.36728E+00 +6.74377E+00 -5.18818E+00 +1.08238E+00
 -1.38535E+00 -2.37858E+00 +2.70393E+00 +3.12416E-02 +1.46804E+00 +5.00352E+00 -4.42630E+00 +5.95267E+00
 -8.57569E+00 +6.45270E-01 -6.08401E+00 -5.97631E+00 +6.91536E-01 -7.21761E+00 +4.61629E+00 -2.26449E+00
 +1.84877E+00 +2.76723E+00 -3.69464E+00 +1.76308E+00 -4.74187E+00 -4.30187E+00 +9.50883E-01 -8.31227E+00
 +7.82925E+00 -5.07380E+00 +8.67898E+00 +2.66638E+00 +2.75576E+00 +7.18204E+00 -3.37875E+00 +4.41034E+00
 -3.30077E+00 -1.57067E+00 +2.05283E+00 -3.33564E+00 +5.63156E+00 +1.34126E+00 +2.50420E+00 +6.99439E+00
 -4.42003E+00 +6.84592E+00 -7.74472E+00 +6.61310E-01 -4.09869E+00 -4.97245E+00 +2.02533E+00 -4.22269E+00
 +3.49604E+00 +1.32759E+00 -1.23913E+00 +4.58820E+00 -6.40814E+00 +1.18000E+00 -5.58218E+00 -5.51946E+00
 +9.64191E-01 -8.23833E+00 +6.60054E+00 -4.04900E+00 +5.85349E+00 +2.45601E+00 +4.04983E-01 +4.51800E+00
 -3.14823E+00 +7.84722E-01 -9.39367E-01 -3.52516E+00 +3.98201E+00 -2.91329E+00 +5.51023E+00 +2.11085E+00
 +1.63470E+00 +5.89232E+00 -3.42144E+00 +4.33277E+00 -4.29174E+00 -4.90947E-01 -6.35657E-01 -2.98241E+00
 +2.72481E+00 -5.85998E-01 +1.57966E+00 +3.43566E+00 -2.86463E+00 +4.00278E+00 -5.58249E+00 +9.68495E-02
 -3.56881E+00 -4.26676E+00 +9.42202E-01 -4.78021E+00 +3.32837E+00 -1.56847E+00 +1.82840E+00 +1.40674E+00
 -9.09703E-01 +1.12719E+00 -1.35751E+00 -1.29775E+00 +8.11088E-01 -2.46828E+00 +2.78981E+00 -8.99989E-01
 +2.30384E+00 +1.50480E+00 +1.97654E-01 +2.10962E+00 -9.63232E-01 +7.30512E-01 -1.60066E-01 -4.81726E-01
 +1.06989E+00 +5.38251E-02 +8.51806E-01 +1.48938E+00 -6.58153E-01 +1.89952E+00 -1.71454E+00 +8.14638E-01
 -1.37988E+00 -3.88390E-01 -5.89243E-01 -5.27755E-01 -5.86251E-01 -1.67801E-01 -1.04733E+00 -5.75578E-01
 -5.89464E-01 -1.62885E+00 +9.97284E-01 -1.74414E+00 +2.00398E+00 -1.45902E-01 +9.13338E-01 +1.60714E+00
 -1.25587E+00 +1.26706E+00 -1.75426E+00 -1.05693E+00 +4.64313E-01 -2.51707E+00 +2.96443E+00 -8.51425E-01
 +2.43738E+00 +2.45992E+00 -1.06313E+00 +3.48361E+00 -3.62154E+00 +5.76370E-01 -1.93228E+00 -3.11810E+00
 +2.34629E+00 -3.00519E+00 +4.00171E+00 +1.27189E+00 +4.26633E-01 +4.76889E+00 -4.69120E+00 +2.77689E+00
 -5.14043E+00 -3.19946E+00 +3.95053E-01 -6.48467E+00 +6.09998E+00 -2.82833E+00 +5.33077E+00 +4.12889E+00
 -1.40842E+00 +6.48350E+00 -6.43626E+00 +1.24504E+00 -3.59345E+00 -5.63846E+00 +4.16036E+00 -5.77689E+00
 +7.60183E+00 +1.64864E+00 +1.95924E+00 +8.24485E+00 -6.88458E+00 +5.83003E+00 -8.60379E+00 -3.60609E+00
 -5.40361E-01 -9.42957E+00 +8.44975E+00 -4.44983E+00 +7.69473E+00 +6.17314E+00 -2.67599E+00 +1.01411E+01
 -1.10895E+01 +2.13343E+00 -7.45496E+00 -9.40533E+00 +4.83896E+00 -1.13597E+01 +1.21538E+01 -1.09608E+00
 +6.10265E+00 +9.93714E+00 -6.37093E+00 +9.04892E+00 -1.05558E+01 -2.77565E+00 -1.09770E+00 -1.14614E+01
 +1.11650E+01 -6.01729E+00 +1.13068E+01 +8.13202E+00 -2.04539E+00 +1.46649E+01 -1.42204E+01 +5.18241E+00
 -1.09452E+01 -1.03046E+01 +4.74138E+00 -1.41074E+01 +1.50805E+01 -1.25383E+00 +7.63930E+00 +1.40037E+01
 -9.90250E+00 +1.38975E+01 -1.78014E+01 -2.33299E+00 -6.68185E+00 -1.69080E+01 +1.12925E+01 -1.34863E+01
 +1.59420E+01 +3.90346E+00 +2.30553E+00 +1.51128E+01 -1.32726E+01 +7.05611E+00 -1.18584E+01 -1.07492E+01
 +5.74252E+00 -1.67714E+01 +1.91934E+01 -2.59985E+00 +1.19350E+01 +1.64628E+01 -8.99103E+00 +1.83903E+01
 -2.00848E+01 +9.51123E-02 -8.18979E+00 -1.80453E+01 +1.36812E+01 -1.49466E+01 +2.04116E+01 +6.69662E+00
 +3.41703E+00 +2.26639E+01 -1.89441E+01 +1.44567E+01 -2.17846E+01 -9.32128E+00 -2.07963E+00 -2.23470E+01
 +1.76344E+01 -1.05475E+01 +1.50167E+01 +1.16378E+01 -6.20376E+00 +1.78096E+01 -2.03196E+01 +3.22034E-01
 -9.51032E+00 -2.03823E+01 +1.48700E+01 -1.91943E+01 +2.47279E+01 +4.10327E+00 +7.74357E+00 +2.36129E+01
 -1.75236E+01 +1.67068E+01 -2.21303E+01 -9.39702E+00 -3.48674E-02 -2.49460E+01 +2.41532E+01 -1.13431E+01
 +2.26291E+01 +1.71148E+01 -3.82710E+00 +2.88550E+01 -2.62864E+01 +1.07600E+01 -2.03543E+01 -1.67713E+01
 +6.06891E+00 -2.30209E+01 +2.19482E+01 -2.10285E+00 +8.95704E+00 +2.03597E+01 -1.72123E+01 +1.70033E+01
 -2.49420E+01 -9.22436E+00 -3.63870E+00 -2.79923E+01 +2.32405E+01 -1.66416E+01 +2.47475E+01 +1.29308E+01
 -1.54238E+00 +2.71019E+01 -2.57970E+01 +9.03826E+00 -1.95688E+01 -2.12605E+01 +1.13245E+01 -2.90268E+01
 +3.26635E+01 -4.27981E+00 +2.03617E+01 +2.63531E+01 -1.21117E+01 +2.94981E+01 -2.89455E+01 +2.77850E+00
 -1.26806E+01 -2.27231E+01 +1.61548E+01 -1.82159E+01 +2.30382E+01 +9.81450E+00 -4.88271E-01 +2.73644E+01
 -2.69209E+01 +1.25636E+01 -2.46888E+01 -1.85559E+01 +4.84644E+00 -3.02247E+01 +2.82558E+01 -8.43167E+00
 +1.83222E+01 +2.21649E+01 -1.41125E+01 +2.59612E+01 -3.17518E+01 -2.59826E+00 -1.32157E+01 -3.19031E+01
 +2.21572E+01 -2.86384E+01 +3.57539E+01 +4.35855E+00 +1.32301E+01 +3.11425E+01 -1.94651E+01 +2.33079E+01
 -2.58750E+01 -8.10667E+00 -5.16823E-01 -2.58432E+01 +2.54218E+01 -9.45261E+00 +2.05269E+01 +2.13598E+01
 -1.03445E+01 +2.98571E+01 -3.16426E+01 +5.11271E+00 -1.84027E+01 -2.49744E+01 +1.44378E+01 -2.57297E+01
 +2.87727E+01 +3.97603E+00 +7.19763E+00 +2.97620E+01 -2.63976E+01 +2.08361E+01 -3.35196E+01 -1.44605E+01
 -4.84258E+00 -3.75406E+01 +2.89329E+01 -2.30382E+01 +3.16479E+01 +1.26240E+01 +2.30732E+00 +3.00842E+01
 -2.44624E+01 +1.16642E+01 -1.83280E+01 -1.91885E+01 +1.23351E+01 -2.55393E+01 +3.07868E+01 +3.81159E-01
 +1.47388E+01 +2.85427E+01 -1.78329E+01 +2.61726E+01 -2.95626E+01 -4.11577E+00 -7.08084E+00 -2.71693E+01
 +2.32026E+01 -1.58906E+01 +2.52649E+01 +1.71689E+01 -4.96030E+00 +3.37131E+01 -3.43730E+01 +1.33706E+01
 -3.00087E+01 -2.28040E+01 +3.66069E+00 -3.59024E+01 +2.98998E+01 -1.29266E+01 +2.12733E+01 +1.90533E+01
 -9.85757E+00 +2.41349E+01 -2.63485E+01 -1.77221E+00 -9.07419E+00 -2.71826E+01 +2.16373E+01 -2.18573E+01
 +3.00849E+01 +8.44593E+00 +6.59648E+00 +2.90650E+01 -2.14846E+01 +1.67628E+01 -2.16239E+01 -1.33848E+01
 +6.15203E+00 -2.54447E+01 +2.90806E+01 -4.20447E+00 +1.92408E+01 +2.69897E+01 -1.42563E+01 +3.26162E+01
 -3.53019E+01 +5.36762E+00 -2.15040E+01 -2.55409E+01 +1.08479E+01 -2.74051E+01 +2.57014E+01 -5.87191E-01
 +8.04800E+00 +2.27960E+01 -1.98916E+01 +1.59198E+01 -2.49368E+01 -1.25953E+01 -9.94821E-01 -2.94743E+01
 +2.46201E+01 -1.54012E+01 +2.31773E+01 +1.31237E+01 -2.42530E+00 +2.33727E+01 -2.14387E+01 +4.34803E+00
