 Created: 19-Jan-2021
 $NMID
 ID='D:\BASISSIMULATI'
 FMTDAT='(8E13.5)'
 VOLUME=   1.00000E+00
 TRAMP=   1.00000E+00
 $END
 +3.47071E+01 +7.74427E+00 +2.83124E+01 +2.00190E+01 +1.72624E+01 +2.79346E+01 +4.20327E+00 +2.98722E+01
 -7.79370E+00 +2.56882E+01 -1.59981E+01 +1.67229E+01 -1.86873E+01 +5.43642E+00 -1.55465E+01 -5.22645E+00
 -7.70709E+00 -1.25775E+01 +2.57594E+00 -1.48414E+01 +1.25176E+01 -1.15643E+01 +1.95079E+01 -3.68082E+00
 +2.17481E+01 +6.76681E+00 +1.86606E+01 +1.71729E+01 +1.09805E+01 +2.50292E+01 +5.17722E-01 +2.85312E+01
 -1.03329E+01 +2.69829E+01 -1.92006E+01 +2.09074E+01 -2.43077E+01 +1.18529E+01 -2.48604E+01 +1.95903E+00
 -2.11740E+01 -6.59328E+00 -1.45202E+01 -1.21061E+01 -6.75196E+00 -1.37336E+01 +1.84608E-01 -1.16165E+01
 +4.72250E+00 -6.76639E+00 +6.01504E+00 -7.48985E-01 +4.07286E+00 +4.73989E+00 -3.18911E-01 +8.29043E+00
 -5.86233E+00 +9.08623E+00 -1.11054E+01 +7.03779E+00 -1.48001E+01 +2.72741E+00 -1.61712E+01 -2.80063E+00
 -1.50413E+01 -8.33538E+00 -1.17978E+01 -1.27975E+01 -7.23091E+00 -1.54668E+01 -2.29917E+00 -1.60937E+01
 +2.10937E+00 -1.48830E+01 +5.36118E+00 -1.23742E+01 +7.17039E+00 -9.26429E+00 +7.59380E+00 -6.22673E+00
 +6.94761E+00 -3.77225E+00 +5.68218E+00 -2.17731E+00 +4.25576E+00 -1.48370E+00 +3.03944E+00 -1.55204E+00
 +2.26987E+00 -2.14115E+00 +2.04833E+00 -2.98436E+00 +2.37100E+00 -3.84221E+00 +3.16929E+00 -4.52449E+00
 +4.34154E+00 -4.88765E+00 +5.76657E+00 -4.82177E+00 +7.30042E+00 -4.24259E+00 +8.76714E+00 -3.09839E+00
 +9.95750E+00 -1.39200E+00 +1.06467E+01 +7.91506E-01 +1.06340E+01 +3.26643E+00 +9.79513E+00 +5.75182E+00
 +8.13400E+00 +7.90834E+00 +5.81132E+00 +9.40356E+00 +3.13747E+00 +9.99107E+00 +5.22845E-01 +9.58207E+00
 -1.60643E+00 +8.28631E+00 -2.90815E+00 +6.40641E+00 -3.21287E+00 +4.38143E+00 -2.57624E+00 +2.69005E+00
 -1.27769E+00 +1.73636E+00 +2.38164E-01 +1.74765E+00 +1.46491E+00 +2.71193E+00 +1.95752E+00 +4.37350E+00
 +1.44394E+00 +6.28979E+00 -1.04147E-01 +7.93633E+00 -2.46028E+00 +8.83390E+00 -5.19537E+00 +8.66544E+00
 -7.77992E+00 +7.35309E+00 -9.71042E+00 +5.07611E+00 -1.06277E+01 +2.22564E+00 -1.03977E+01 -6.90991E-01
 -9.13586E+00 -3.17149E+00 -7.17046E+00 -4.83436E+00 -4.95617E+00 -5.50083E+00 -2.96189E+00 -5.22415E+00
 -1.56132E+00 -4.26182E+00 -9.53183E-01 -3.00072E+00 -1.12867E+00 -1.85659E+00 -1.89087E+00 -1.17422E+00
 -2.91740E+00 -1.15256E+00 -3.84740E+00 -1.81123E+00 -4.36949E+00 -3.00261E+00 -4.28909E+00 -4.46233E+00
 -3.56105E+00 -5.88169E+00 -2.28340E+00 -6.98215E+00 -6.58512E-01 -7.57320E+00 +1.06447E+00 -7.58204E+00
 +2.64940E+00 -7.05159E+00 +3.91996E+00 -6.11232E+00 +4.78428E+00 -4.93931E+00 +5.23534E+00 -3.70778E+00
 +5.33187E+00 -2.55879E+00 +5.16903E+00 -1.58144E+00 +4.84921E+00 -8.12503E-01 +4.46090E+00 -2.48527E-01
 +4.06957E+00 +1.36791E-01 +3.71923E+00 +3.77605E-01 +3.44020E+00 +5.08104E-01 +3.25666E+00 +5.62860E-01
 +3.18909E+00 +5.82411E-01 +3.24950E+00 +6.18838E-01 +3.43110E+00 +7.36022E-01 +3.69740E+00 +1.00140E+00
 +3.97660E+00 +1.46966E+00 +4.16635E+00 +2.16253E+00 +4.15046E+00 +3.05134E+00 +3.82546E+00 +4.04948E+00
 +3.13040E+00 +5.01959E+00 +2.07172E+00 +5.79661E+00 +7.34714E-01 +6.22272E+00 -7.23708E-01 +6.18621E+00
 -2.10166E+00 +5.65430E+00 -3.19358E+00 +4.69013E+00 -3.83696E+00 +3.44801E+00 -3.95307E+00 +2.14587E+00
 -3.57072E+00 +1.02001E+00 -2.82599E+00 +2.72221E-01 -1.93634E+00 +2.17339E-02 -1.15390E+00 +2.74093E-01
 -7.08327E-01 +9.15387E-01 -7.52323E-01 +1.73436E+00 -1.32311E+00 +2.46826E+00 -2.32945E+00 +2.86247E+00
 -3.56824E+00 +2.73015E+00 -4.76742E+00 +1.99810E+00 -5.64617E+00 +7.27670E-01 -5.97854E+00 -8.94645E-01
 -5.64617E+00 -2.59541E+00 -4.66760E+00 -4.07295E+00 -3.19729E+00 -5.06351E+00 -1.49403E+00 -5.39995E+00
 +1.34397E-01 -5.04950E+00 +1.39801E+00 -4.12208E+00 +2.08810E+00 -2.84676E+00 +2.12296E+00 -1.52175E+00
 +1.56571E+00 -4.48703E-01 +6.09956E-01 +1.33940E-01 -4.63515E-01 +1.03765E-01 -1.34953E+00 -5.18469E-01
 -1.78689E+00 -1.57344E+00 -1.61710E+00 -2.79873E+00 -8.20359E-01 -3.88724E+00 +4.79102E-01 -4.55580E+00
 +2.03978E+00 -4.60851E+00 +3.55569E+00 -3.98101E+00 +4.72361E+00 -2.75562E+00 +5.30982E+00 -1.14400E+00
 +5.20160E+00 +5.58711E-01 +4.43197E+00 +2.03834E+00 +3.17226E+00 +3.03025E+00 +1.69409E+00 +3.37688E+00
 +3.09289E-01 +3.06149E+00 -6.98896E-01 +2.21060E+00 -1.13802E+00 +1.06465E+00 -9.48157E-01 -7.65029E-02
 -2.13920E-01 -9.21159E-01 +8.55903E-01 -1.25107E+00 +1.97638E+00 -9.70018E-01 +2.85130E+00 -1.24771E-01
 +3.24027E+00 +1.10623E+00 +3.01287E+00 +2.45372E+00 +2.17781E+00 +3.61869E+00 +8.80552E-01 +4.33981E+00
 -6.29789E-01 +4.45206E+00 -2.05671E+00 +3.92314E+00 -3.12283E+00 +2.85986E+00 -3.63152E+00 +1.48310E+00
 -3.50973E+00 +7.73011E-02 -2.82252E+00 -1.07377E+00 -1.75624E+00 -1.75030E+00 -5.74608E-01 -1.84439E+00
 +4.42094E-01 -1.38198E+00 +1.06046E+00 -5.14158E-01 +1.14571E+00 +5.19781E-01 +6.90068E-01 +1.44847E+00
 -1.88188E-01 +2.03083E+00 -1.27425E+00 +2.11024E+00 -2.30755E+00 +1.64836E+00 -3.04169E+00 +7.31499E-01
 -3.29981E+00 -4.51388E-01 -3.01288E+00 -1.65329E+00 -2.23278E+00 -2.62556E+00 -1.11793E+00 -3.17321E+00
 +1.04394E-01 -3.19650E+00 +1.18988E+00 -2.71025E+00 +1.93098E+00 -1.83700E+00 +2.20081E+00 -7.76933E-01
 +1.97773E+00 +2.38217E-01 +1.34618E+00 +9.96232E-01 +4.74451E-01 +1.34927E+00 -4.24483E-01 +1.24304E+00
 -1.14014E+00 +7.24860E-01 -1.50917E+00 -7.01768E-02 -1.44818E+00 -9.50814E-01 -9.68725E-01 -1.71169E+00
 -1.72008E-01 -2.17662E+00 +7.74455E-01 -2.23432E+00 +1.67277E+00 -1.85976E+00 +2.33555E+00 -1.11758E+00
 +2.62355E+00 -1.47674E-01 +2.47303E+00 +8.63696E-01 +1.90785E+00 +1.72127E+00 +1.03456E+00 +2.25945E+00
 +2.14766E-02 +2.37508E+00 -9.34133E-01 +2.04816E+00 -1.64473E+00 +1.34678E+00 -1.96996E+00 +4.14979E-01
 -1.84570E+00 -5.54516E-01 -1.29899E+00 -1.35794E+00 -4.45212E-01 -1.82174E+00 +5.32642E-01 -1.83939E+00
 +1.41954E+00 -1.39618E+00 +2.01239E+00 -5.76184E-01 +2.16389E+00 +4.51175E-01 +1.81689E+00 +1.46348E+00
 +1.02134E+00 +2.23094E+00 -7.11121E-02 +2.56629E+00 -1.23512E+00 +2.36824E+00 -2.21764E+00 +1.64847E+00
 -2.79277E+00 +5.34921E-01 -2.81349E+00 -7.50776E-01 -2.24850E+00 -1.93821E+00 -1.19476E+00 -2.76647E+00
 +1.38492E-01 -3.04320E+00 +1.47193E+00 -2.69071E+00 +2.51617E+00 -1.76811E+00 +3.03658E+00 -4.63176E-01
 +2.90802E+00 +9.45466E-01 +2.14666E+00 +2.14809E+00 +9.10698E-01 +2.87270E+00 -5.31157E-01 +2.94735E+00
 -1.85709E+00 +2.34155E+00 -2.76304E+00 +1.17678E+00 -3.03126E+00 -2.96955E-01 -2.58097E+00 -1.75391E+00
 -1.48946E+00 -2.86330E+00 +2.15030E-02 -3.36247E+00 +1.63150E+00 -3.11625E+00 +2.98955E+00 -2.14919E+00
 +3.79000E+00 -6.43561E-01 +3.83966E+00 +1.09697E+00 +3.10168E+00 +2.71027E+00 +1.70667E+00 +3.85219E+00
 -7.16622E-02 +4.27028E+00 -1.87158E+00 +3.85943E+00 -3.31787E+00 +2.68746E+00 -4.10075E+00 +9.84968E-01
 -4.04294E+00 -8.99033E-01 -3.14078E+00 -2.56737E+00 -1.57034E+00 -3.65701E+00 +3.43684E-01 -3.91691E+00
 +2.19131E+00 -3.26531E+00 +3.56096E+00 -1.81386E+00 +4.12711E+00 +1.47880E-01 +3.72403E+00 +2.20618E+00
 +2.38923E+00 +3.90607E+00 +3.65859E-01 +4.84753E+00 -1.93897E+00 +4.77541E+00 -4.03402E+00 +3.64320E+00
 -5.44699E+00 +1.63525E+00 -5.82994E+00 -8.60621E-01 -5.04390E+00 -3.32728E+00 -3.20211E+00 -5.22630E+00
 -6.59359E-01 -6.11769E+00 +2.05435E+00 -5.76508E+00 +4.34431E+00 -4.20099E+00 +5.68348E+00 -1.73445E+00
 +5.73738E+00 +1.10498E+00 +4.45172E+00 +3.67778E+00 +2.07956E+00 +5.37740E+00 -8.62148E-01 +5.77340E+00
 -3.70075E+00 +4.72100E+00 -5.75865E+00 +2.40871E+00 -6.51292E+00 -6.70929E-01 -5.72567E+00 -3.82443E+00
 -3.51233E+00 -6.31323E+00 -3.28235E-01 -7.52715E+00 +3.12697E+00 -7.13403E+00 +6.06718E+00 -5.16823E+00
 +7.80405E+00 -2.03407E+00 +7.91358E+00 +1.57978E+00 +6.34383E+00 +4.85694E+00 +3.43567E+00 +7.04478E+00
 -1.50709E-01 +7.63496E+00 -3.58785E+00 +6.48856E+00 -6.07598E+00 +3.87416E+00 -7.03390E+00 +4.08105E-01
 -6.23912E+00 -3.08976E+00 -3.88257E+00 -5.79045E+00 -5.23798E-01 -7.05309E+00 +3.04247E+00 -6.57711E+00
 +5.97597E+00 -4.47208E+00 +7.59028E+00 -1.22876E+00 +7.51337E+00 +2.40098E+00 +5.77075E+00 +5.58493E+00
 +2.77240E+00 +7.60743E+00 -7.91458E-01 +8.03426E+00 -4.11848E+00 +6.80655E+00 -6.48368E+00 +4.24319E+00
 -7.40429E+00 +9.54181E-01 -6.74124E+00 -2.31090E+00 -4.71606E+00 -4.84042E+00 -1.84307E+00 -6.12058E+00
 +1.20235E+00 -5.94105E+00 +3.74453E+00 -4.42445E+00 +5.25779E+00 -1.97817E+00 +5.47200E+00 +8.14805E-01
 +4.41260E+00 +3.33568E+00 +2.37185E+00 +5.06561E+00 -1.75463E-01 +5.68700E+00 -2.68701E+00 +5.13132E+00
 -4.66954E+00 +3.56918E+00 -5.77151E+00 +1.35242E+00 -5.83555E+00 -1.07274E+00 -4.90616E+00 -3.25874E+00
 -3.19898E+00 -4.83631E+00 -1.04489E+00 -5.56809E+00 +1.17555E+00 -5.37206E+00 +3.09449E+00 -4.31820E+00
 +4.40775E+00 -2.60546E+00 +4.91166E+00 -5.27057E-01 +4.52642E+00 +1.57061E+00 +3.30712E+00 +3.33251E+00
 +1.44249E+00 +4.44240E+00 -7.61250E-01 +4.67131E+00 -2.91484E+00 +3.92306E+00 -4.60062E+00 +2.26822E+00
 -5.44428E+00 -4.40997E-02 -5.19401E+00 -2.60701E+00 -3.79084E+00 -4.91427E+00 -1.41064E+00 -6.45251E+00
 +1.53964E+00 -6.81266E+00 +4.48054E+00 -5.79672E+00 +6.76962E+00 -3.49160E+00 +7.84283E+00 -2.85277E-01
 +7.35688E+00 +3.18831E+00 +5.29571E+00 +6.17228E+00 +2.00907E+00 +7.95517E+00 -1.83570E+00 +8.04696E+00
 -5.38600E+00 +6.31834E+00 -7.79548E+00 +3.06318E+00 -8.43116E+00 -1.03914E+00 -7.04426E+00 -5.06127E+00
 -3.85795E+00 -8.03806E+00 +4.57042E-01 -9.20114E+00 +4.92058E+00 -8.17964E+00 +8.46713E+00 -5.11332E+00
 +1.02035E+01 -6.44232E-01 +9.63690E+00 +4.21777E+00 +6.81268E+00 +8.32765E+00 +2.32450E+00 +1.06813E+01
 -2.81251E+00 +1.06669E+01 -7.39756E+00 +8.22716E+00 -1.03331E+01 +3.88848E+00 -1.08958E+01 -1.35391E+00
 -8.92045E+00 -6.26949E+00 -4.84977E+00 -9.68845E+00 +3.65281E-01 -1.07872E+01 +5.49145E+00 -9.29164E+00
 +9.31016E+00 -5.54770E+00 +1.09123E+01 -4.39448E-01 +9.91788E+00 +4.82385E+00 +6.56569E+00 +8.99971E+00
 +1.65279E+00 +1.11110E+01 -3.66146E+00 +1.06773E+01 -8.13638E+00 +7.82410E+00 -1.07463E+01 +3.24344E+00
 -1.09200E+01 -1.97996E+00 -8.66592E+00 -6.63329E+00 -4.55675E+00 -9.66408E+00 +4.20325E-01 -1.04225E+01
