 Created: 19-Jan-2021
 $NMID
 ID='D:\BASISSIMULATI'
 FMTDAT='(8E13.5)'
 VOLUME=   1.00000E+00
 TRAMP=   1.00000E+00
 $END
 +3.73647E+01 +5.71721E+00 +2.92853E+01 +2.38525E+01 +1.31396E+01 +3.53791E+01 -6.60553E+00 +3.71276E+01
 -2.44974E+01 +2.86311E+01 -3.56032E+01 +1.22494E+01 -3.68696E+01 -7.48576E+00 -2.79630E+01 -2.51249E+01
 -1.13561E+01 -3.58051E+01 +8.35742E+00 -3.65911E+01 +2.57345E+01 -2.72815E+01 +3.59849E+01 -1.04603E+01
 +3.62922E+01 +9.22005E+00 +2.65870E+01 +2.63260E+01 +9.56258E+00 +3.61426E+01 -1.00732E+01 +3.59732E+01
 -2.68992E+01 +2.58801E+01 -3.62782E+01 +8.66338E+00 -3.56344E+01 -1.09163E+01 -2.51612E+01 -2.74538E+01
 -7.76328E+00 -3.63916E+01 +1.17490E+01 -3.52762E+01 +2.79895E+01 -2.44308E+01 +3.64830E+01 -6.86281E+00
 +3.48987E+01 +1.25709E+01 +2.36894E+01 +2.85061E+01 +5.96252E+00 +3.65524E+01 -1.33814E+01 +3.45024E+01
 -2.90035E+01 +2.29375E+01 -3.65999E+01 +5.06294E+00 -3.40876E+01 -1.41802E+01 -2.21755E+01 -2.94813E+01
 -4.16459E+00 -3.66254E+01 +1.49669E+01 -3.36545E+01 +2.99395E+01 -2.14040E+01 +3.66292E+01 -3.26800E+00
 +3.32035E+01 +1.57411E+01 +2.06234E+01 +3.03778E+01 +2.37369E+00 +3.66113E+01 -1.65022E+01 +3.27351E+01
 -3.07961E+01 +1.98343E+01 -3.65718E+01 +1.48218E+00 -3.22494E+01 -1.72501E+01 -1.90372E+01 -3.11941E+01
 -5.93982E-01 -3.65108E+01 +1.79842E+01 -3.17470E+01 +3.15719E+01 -1.82326E+01 +3.64286E+01 +2.90389E-01
 +3.12281E+01 +1.87042E+01 +1.74210E+01 +3.19292E+01 -1.17043E+00 +3.63251E+01 -1.94098E+01 +3.06932E+01
 -3.22659E+01 +1.66028E+01 -3.62007E+01 -2.04564E+00 -3.01427E+01 -2.01005E+01 -1.57787E+01 -3.25819E+01
 +2.91553E+00 -3.60554E+01 +2.07761E+01 -2.95769E+01 +3.28772E+01 -1.49492E+01 +3.58895E+01 +3.77960E+00
 +2.89963E+01 +2.14363E+01 +1.41147E+01 +3.31517E+01 -4.63738E+00 +3.57032E+01 -2.20807E+01 +2.84012E+01
 -3.34052E+01 +1.32757E+01 -3.54965E+01 -5.48837E+00 -2.77922E+01 -2.27090E+01 -1.24329E+01 -3.36378E+01
 +6.33212E+00 -3.52699E+01 +2.33209E+01 -2.71695E+01 +3.38494E+01 -1.15867E+01 +3.50234E+01 +7.16816E+00
 +2.65338E+01 +2.39161E+01 +1.07375E+01 +3.40400E+01 -7.99603E+00 +3.47574E+01 -2.44943E+01 +2.58853E+01
 -3.42095E+01 +9.88607E+00 -3.44721E+01 -8.81527E+00 -2.52245E+01 -2.50554E+01 -9.03275E+00 -3.43580E+01
 +9.62544E+00 -3.41677E+01 +2.55990E+01 -2.45519E+01 +3.44855E+01 -8.17810E+00 +3.38446E+01 +1.04261E+01
 +2.38680E+01 +2.61249E+01 +7.32263E+00 +3.45920E+01 -1.12169E+01 +3.35029E+01 -2.66329E+01 +2.31732E+01
 -3.46775E+01 +6.46685E+00 -3.31430E+01 -1.19972E+01 -2.24679E+01 -2.71227E+01 -5.61126E+00 -3.47421E+01
 +1.27669E+01 -3.27653E+01 +2.75942E+01 -2.17526E+01 +3.47858E+01 -4.75638E+00 +3.23698E+01 +1.35253E+01
 +2.10278E+01 +2.80471E+01 +3.90270E+00 +3.48088E+01 -1.42722E+01 +3.19572E+01 -2.84813E+01 +2.02940E+01
 -3.48110E+01 +3.05073E+00 -3.15275E+01 -1.50071E+01 -1.95517E+01 -2.88966E+01 -2.20096E+00 -3.47926E+01
 +1.57297E+01 -3.10812E+01 +2.92929E+01 -1.88012E+01 +3.47538E+01 -1.35388E+00 +3.06186E+01 +1.64396E+01
 +1.80432E+01 +2.96700E+01 +5.09979E-01 +3.46945E+01 -1.71364E+01 +3.01401E+01 -3.00277E+01 +1.72781E+01
 -3.46151E+01 -3.30253E-01 -2.96460E+01 -1.78198E+01 -1.65063E+01 -3.03660E+01 +1.16634E+00 -3.45155E+01
 +1.84895E+01 -2.91367E+01 +3.06848E+01 -1.57284E+01 +3.43959E+01 +1.99781E+00 +2.86125E+01 +1.91450E+01
 +1.49448E+01 +3.09838E+01 -2.82418E+00 +3.42566E+01 -1.97862E+01 +2.80739E+01 -3.12632E+01 +1.41561E+01
 -3.40976E+01 -3.64500E+00 -2.75211E+01 -2.04126E+01 -1.33627E+01 -3.15227E+01 +4.45981E+00 -3.39193E+01
 +2.10241E+01 -2.69547E+01 +3.17624E+01 -1.25652E+01 +3.37217E+01 +5.26814E+00 +2.63751E+01 +2.16202E+01
 +1.17639E+01 +3.19822E+01 -6.06956E+00 +3.35050E+01 -2.22007E+01 +2.57825E+01 -3.21820E+01 +1.09595E+01
 -3.32696E+01 -6.86362E+00 -2.51775E+01 -2.27653E+01 -1.01524E+01 -3.23618E+01 +7.64988E+00 -3.30156E+01
 +2.33138E+01 -2.45604E+01 +3.25216E+01 -9.34303E+00 +3.27433E+01 +8.42793E+00 +2.39317E+01 +2.38460E+01
 +8.53196E+00 +3.26615E+01 -9.19732E+00 +3.24528E+01 -2.43615E+01 +2.32918E+01 -3.27813E+01 +7.71965E+00
 -3.21446E+01 -9.95766E+00 -2.26411E+01 -2.48602E+01 -6.90660E+00 -3.28812E+01 +1.07085E+01 -3.18187E+01
 +2.53419E+01 -2.19801E+01 +3.29612E+01 -6.09328E+00 +3.14756E+01 +1.14495E+01 +2.13092E+01 +2.58063E+01
 +5.28018E+00 +3.30213E+01 -1.21803E+01 +3.11155E+01 -2.62532E+01 +2.06288E+01 -3.30616E+01 +4.46778E+00
 -3.07386E+01 -1.29004E+01 -1.99394E+01 -2.66825E+01 -3.65656E+00 -3.30821E+01 +1.36095E+01 -3.03453E+01
 +2.70940E+01 -1.92415E+01 +3.30830E+01 -2.84699E+00 +2.99360E+01 +1.43072E+01 +1.85355E+01 +2.74876E+01
 +2.03954E+00 +3.30643E+01 -1.49932E+01 +2.95108E+01 -2.78630E+01 +1.78218E+01 -3.30261E+01 +1.23467E+00
 -2.90702E+01 -1.56670E+01 -1.71009E+01 -2.82202E+01 -4.32866E-01 -3.29685E+01 +1.63285E+01 -2.86144E+01
 +2.85590E+01 -1.63733E+01 +3.28917E+01 +3.65429E-01 +2.81439E+01 +1.69771E+01 +1.56395E+01 +2.88793E+01
 -1.15975E+00 +3.27959E+01 -1.76127E+01 +2.76589E+01 -2.91810E+01 +1.48998E+01 -3.26810E+01 -1.94966E+00
 -2.71599E+01 -1.82348E+01 -1.41548E+01 -2.94640E+01 +2.73470E+00 -3.25474E+01 +1.88433E+01 -2.66471E+01
 +2.97283E+01 -1.34049E+01 +3.23951E+01 +3.51443E+00 +2.61210E+01 +1.94377E+01 +1.26507E+01 +2.99738E+01
 -4.28841E+00 +3.22244E+01 -2.00179E+01 +2.55818E+01 -3.02003E+01 +1.18924E+01 -3.20355E+01 -5.05622E+00
 -2.50301E+01 -2.05834E+01 -1.11308E+01 -3.04079E+01 +5.81743E+00 -3.18284E+01 +2.11342E+01 -2.44662E+01
 +3.05966E+01 -1.03661E+01 +3.16035E+01 +6.57162E+00 +2.38904E+01 +2.16698E+01 +9.59883E+00 +3.07663E+01
 -7.31837E+00 +3.13610E+01 -2.21901E+01 +2.33033E+01 -3.09169E+01 +8.82953E+00 -3.11010E+01 -8.05728E+00
 -2.27050E+01 -2.26948E+01 -8.05861E+00 -3.10486E+01 +8.78795E+00 -3.08239E+01 +2.31838E+01 -2.20962E+01
 +3.11613E+01 -7.28656E+00 +3.05299E+01 +9.50999E+00 +2.14772E+01 +2.36567E+01 +6.51382E+00 +3.12550E+01
 -1.02230E+01 +3.02191E+01 -2.41134E+01 +2.08483E+01 -3.13298E+01 +5.74087E+00 -2.98920E+01 -1.09266E+01
 -2.02101E+01 -2.45536E+01 -4.96815E+00 -3.13857E+01 +1.16205E+01 -2.95487E+01 +2.49773E+01 -1.95630E+01
 +3.14227E+01 -4.19612E+00 +2.91895E+01 +1.23042E+01 +1.89073E+01 +2.53842E+01 +3.42524E+00 +3.14410E+01
 -1.29774E+01 +2.88147E+01 -2.57742E+01 +1.82435E+01 -3.14407E+01 +2.65596E+00 -2.84247E+01 -1.36398E+01
 -1.75720E+01 -2.61471E+01 -1.88873E+00 -3.14217E+01 +1.42909E+01 -2.80197E+01 +2.65028E+01 -1.68933E+01
 +3.13842E+01 -1.12398E+00 +2.76000E+01 +1.49306E+01 +1.62077E+01 +2.68411E+01 +3.62164E-01 +3.13283E+01
 -1.55584E+01 +2.71659E+01 -2.71620E+01 +1.55158E+01 -3.12541E+01 -3.96284E-01 -2.67178E+01 -1.61741E+01
 -1.48180E+01 -2.74653E+01 +1.15093E+00 -3.11618E+01 +1.67773E+01 -2.62561E+01 +2.77509E+01 -1.41147E+01
 +3.10516E+01 +1.90135E+00 +2.57809E+01 +1.73678E+01 +1.34064E+01 +2.80187E+01 -2.64712E+00 +3.09234E+01
 -1.79452E+01 +2.52927E+01 -2.82687E+01 +1.26934E+01 -3.07776E+01 -3.38781E+00 -2.47919E+01 -1.85092E+01
 -1.19763E+01 -2.85008E+01 +4.12302E+00 -3.06142E+01 +1.90597E+01 -2.42788E+01 +2.87149E+01 -1.12555E+01
 +3.04335E+01 +4.85233E+00 +2.37537E+01 +1.95963E+01 +1.05314E+01 +2.89111E+01 -5.57535E+00 +3.02356E+01
 -2.01188E+01 +2.32170E+01 -2.90892E+01 +9.80451E+00 -3.00208E+01 -6.29166E+00 -2.26691E+01 -2.06269E+01
 -9.07521E+00 -2.92493E+01 +7.00089E+00 -2.97892E+01 +2.11204E+01 -2.21103E+01 +2.93913E+01 -8.34397E+00
 +2.95411E+01 +7.70264E+00 +2.15412E+01 +2.15991E+01 +7.61124E+00 +2.95153E+01 -8.39653E+00 +2.92767E+01
 -2.20628E+01 +2.09619E+01 -2.96212E+01 +6.87744E+00 -2.89962E+01 -9.08219E+00 -2.03730E+01 -2.25113E+01
 -6.14302E+00 -2.97091E+01 +9.75926E+00 -2.86998E+01 +2.29443E+01 -1.97748E+01 +2.97790E+01 -5.40843E+00
 +2.83879E+01 +1.04274E+01 +1.91676E+01 +2.33617E+01 +4.67408E+00 +2.98310E+01 -1.10862E+01 +2.80607E+01
 -2.37633E+01 +1.85521E+01 -2.98651E+01 +3.94043E+00 -2.77184E+01 -1.17353E+01 -1.79284E+01 -2.41490E+01
 -3.20789E+00 -2.98813E+01 +1.23745E+01 -2.73612E+01 +2.45186E+01 -1.72970E+01 +2.98798E+01 -2.47689E+00
 +2.69896E+01 +1.30033E+01 +1.66584E+01 +2.48720E+01 +1.74787E+00 +2.98606E+01 -1.36215E+01 +2.66038E+01
 -2.52089E+01 +1.60129E+01 -2.98238E+01 +1.02124E+00 -2.62040E+01 -1.42287E+01 -1.53610E+01 -2.55294E+01
 -2.97427E-01 -2.97696E+01 +1.48246E+01 -2.57907E+01 +2.58332E+01 -1.47031E+01 +2.96980E+01 +4.23162E-01
 +2.53640E+01 +1.54090E+01 +1.40396E+01 +2.61204E+01 -1.14011E+00 +2.96092E+01 -1.59815E+01 +2.49243E+01
 -2.63907E+01 +1.33709E+01 -2.95033E+01 -1.85302E+00 -2.44719E+01 -1.65418E+01 -1.26974E+01 -2.66442E+01
 +2.56148E+00 -2.93804E+01 +1.70897E+01 -2.40071E+01 +2.68807E+01 -1.20195E+01 +2.92407E+01 +3.26509E+00
 +2.35304E+01 +1.76250E+01 +1.13378E+01 +2.71001E+01 -3.96346E+00 +2.90844E+01 -1.81473E+01 +2.30420E+01
 -2.73026E+01 +1.06525E+01 -2.89115E+01 -4.65621E+00 -2.25422E+01 -1.86564E+01 -9.96416E+00 -2.74879E+01
 +5.34294E+00 -2.87224E+01 +1.91521E+01 -2.20315E+01 +2.76561E+01 -9.27316E+00 +2.85172E+01 +6.02328E+00
 +2.15101E+01 +1.96341E+01 +8.57992E+00 +2.78071E+01 -6.69687E+00 +2.82961E+01 -2.01022E+01 +2.09784E+01
 -2.79409E+01 +7.88486E+00 -2.80593E+01 -7.36332E+00 -2.04368E+01 -2.05563E+01 -7.18841E+00 -2.80577E+01
 +8.02228E+00 -2.78070E+01 +2.09960E+01 -1.98857E+01 +2.81572E+01 -6.49098E+00 +2.75395E+01 +8.67340E+00
 +1.93254E+01 +2.14213E+01 +5.79298E+00 +2.82396E+01 -9.31633E+00 +2.72569E+01 -2.18318E+01 +1.87563E+01
 -2.83050E+01 +5.09484E+00 -2.69595E+01 -9.95072E+00 -1.81788E+01 -2.22276E+01 -4.39697E+00 -2.83532E+01
 +1.05762E+01 -2.66475E+01 +2.26083E+01 -1.75933E+01 +2.83845E+01 -3.69978E+00 +2.63213E+01 +1.11926E+01
 +1.70001E+01 +2.29738E+01 +3.00367E+00 +2.83989E+01 -1.17994E+01 +2.59810E+01 -2.33241E+01 +1.63996E+01
 -2.83963E+01 +2.30906E+00 -2.56269E+01 -1.23963E+01 -1.57922E+01 -2.36589E+01 -1.61636E+00 -2.83770E+01
 +1.29832E+01 -2.52594E+01 +2.39781E+01 -1.51784E+01 +2.83410E+01 -9.25947E-01 +2.48786E+01 +1.35596E+01
 +1.45584E+01 +2.42817E+01 +2.38236E-01 +2.82884E+01 -1.41252E+01 +2.44849E+01 -2.45694E+01 +1.39328E+01
 -2.82193E+01 -4.46382E-01 -2.40786E+01 -1.46799E+01 -1.33019E+01 -2.48413E+01 +1.12752E+00 -2.81338E+01
