 Created: 19-Jan-2021
 $NMID
 ID='D:\BASISSIMULATI'
 FMTDAT='(8E13.5)'
 VOLUME=   1.00000E+00
 TRAMP=   1.00000E+00
 $END
 +3.64944E+01 +5.21282E+00 +2.82247E+01 +2.27833E+01 +1.17626E+01 +3.26219E+01 -6.96852E+00 +3.15137E+01
 -2.13105E+01 +2.02450E+01 -2.63098E+01 +3.27633E+00 -2.05124E+01 -1.29279E+01 -6.45986E+00 -2.22898E+01
 +1.02837E+01 -2.13466E+01 +2.32060E+01 -1.05009E+01 +2.72514E+01 +6.15897E+00 +2.06726E+01 +2.23888E+01
 +5.65338E+00 +3.20990E+01 -1.25160E+01 +3.15904E+01 -2.73959E+01 +2.08963E+01 -3.37607E+01 +3.74699E+00
 -2.94994E+01 -1.38211E+01 -1.63584E+01 -2.56878E+01 +7.33499E-01 -2.78839E+01 +1.54994E+01 -2.00165E+01
 +2.26251E+01 -5.37243E+00 +1.96941E+01 +1.03288E+01 +8.04229E+00 +2.10602E+01 -7.77176E+00 +2.27061E+01
 -2.16738E+01 +1.45572E+01 -2.83207E+01 -4.56088E-01 -2.50592E+01 -1.68685E+01 -1.28804E+01 -2.87043E+01
 +3.96919E+00 -3.16702E+01 +1.95665E+01 -2.47130E+01 +2.84893E+01 -1.03759E+01 +2.77895E+01 +6.16481E+00
 +1.80417E+01 +1.90169E+01 +3.09032E+00 +2.37312E+01 -1.13953E+01 +1.89090E+01 -2.00197E+01 +6.67519E+00
 -1.96356E+01 -8.14466E+00 -1.04730E+01 -1.98274E+01 +3.98221E+00 -2.38651E+01 +1.83009E+01 -1.86093E+01
 +2.71230E+01 -5.85089E+00 +2.71226E+01 +9.86742E+00 +1.82083E+01 +2.29385E+01 +3.52655E+00 +2.87508E+01
 -1.17198E+01 +2.53613E+01 -2.21920E+01 +1.41745E+01 -2.43634E+01 -6.11257E-01 -1.77818E+01 -1.35721E+01
 -5.19166E+00 -2.00561E+01 +8.51464E+00 -1.78733E+01 +1.81183E+01 -8.06370E+00 +1.99923E+01 +5.52743E+00
 +1.34127E+01 +1.76957E+01 +7.90684E-01 +2.38039E+01 -1.32464E+01 +2.14774E+01 -2.35745E+01 +1.14507E+01
 -2.64528E+01 -2.73458E+00 -2.08758E+01 -1.60543E+01 -8.90733E+00 -2.38522E+01 +5.11090E+00 -2.35327E+01
 +1.61730E+01 -1.54774E+01 +2.04432E+01 -2.86226E+00 +1.66374E+01 +9.54475E+00 +6.45131E+00 +1.71502E+01
 -6.10556E+00 +1.72130E+01 -1.62141E+01 +9.82027E+00 -2.00235E+01 -2.18518E+00 -1.60503E+01 -1.42848E+01
 -5.69137E+00 -2.19619E+01 +7.32411E+00 -2.23559E+01 +1.83272E+01 -1.52865E+01 +2.34261E+01 -3.28540E+00
 +2.09142E+01 +9.36472E+00 +1.18592E+01 +1.82155E+01 -3.29308E-01 +2.02753E+01 -1.11808E+01 +1.50738E+01
 -1.68115E+01 +4.79000E+00 -1.53312E+01 -6.59029E+00 -7.49848E+00 -1.47624E+01 +3.60223E+00 -1.66829E+01
 +1.37287E+01 -1.16630E+01 +1.90528E+01 -1.58331E+00 +1.75552E+01 +9.83429E+00 +9.73689E+00 +1.84151E+01
 -1.60182E+00 +2.10632E+01 -1.24180E+01 +1.68737E+01 -1.89186E+01 +7.42701E+00 -1.89362E+01 -3.82888E+00
 -1.26879E+01 -1.28663E+01 -2.65061E+00 -1.65541E+01 +7.38534E+00 -1.37793E+01 +1.37237E+01 -5.81232E+00
 +1.41090E+01 +4.20502E+00 +8.52172E+00 +1.24440E+01 -8.57751E-01 +1.58020E+01 -1.04877E+01 +1.30230E+01
 -1.67843E+01 +5.12336E+00 -1.74310E+01 -5.02053E+00 -1.22006E+01 -1.37544E+01 -2.99954E+00 -1.79913E+01
 +6.86624E+00 -1.63236E+01 +1.39208E+01 -9.50058E+00 +1.57839E+01 -1.10676E-01 +1.20116E+01 +8.39933E+00
 +4.21270E+00 +1.29966E+01 -4.58379E+00 +1.21556E+01 -1.10656E+01 +6.37887E+00 -1.28512E+01 -2.03405E+00
 -9.33735E+00 -9.86605E+00 -1.87968E+00 -1.41771E+01 +6.74467E+00 -1.33709E+01 +1.33801E+01 -7.74731E+00
 +1.56494E+01 +6.47780E-01 +1.28009E+01 +8.80498E+00 +5.94362E+00 +1.38661E+01 -2.39929E+00 +1.41569E+01
 -9.24070E+00 +9.76425E+00 -1.22243E+01 +2.45864E+00 -1.04618E+01 -4.99361E+00 -4.81518E+00 -9.86169E+00
 +2.46564E+00 -1.04416E+01 +8.59942E+00 -6.64751E+00 +1.13006E+01 +1.66946E-03 +9.59771E+00 +6.97843E+00
 +4.15217E+00 +1.16935E+01 -3.02598E+00 +1.24390E+01 -9.34391E+00 +8.98477E+00 -1.25821E+01 +2.62175E+00
 -1.16873E+01 -4.34864E+00 -7.11923E+00 -9.47635E+00 -6.38169E-01 -1.10527E+01 +5.37276E+00 -8.70410E+00
 +8.78944E+00 -3.48332E+00 +8.50657E+00 +2.55961E+00 +4.80315E+00 +7.15382E+00 -8.06025E-01 +8.63835E+00
 -6.16200E+00 +6.54383E+00 -9.26681E+00 +1.72246E+00 -9.00261E+00 -4.00564E+00 -5.50697E+00 -8.54453E+00
 -8.03019E-02 -1.02901E+01 +5.32439E+00 -8.69234E+00 +8.82921E+00 -4.41568E+00 +9.30475E+00 +9.45670E-01
 +6.74726E+00 +5.47747E+00 +2.23433E+00 +7.64691E+00 -2.50815E+00 +6.83796E+00 -5.75518E+00 +3.53362E+00
 -6.40419E+00 -9.06447E-01 -4.34501E+00 -4.77511E+00 -4.55286E-01 -6.64937E+00 +3.76036E+00 -5.89113E+00
 +6.74122E+00 -2.84211E+00 +7.43520E+00 +1.34359E+00 +5.65380E+00 +5.15194E+00 +2.09893E+00 +7.26926E+00
 -1.93198E+00 +7.04287E+00 -5.03997E+00 +4.68069E+00 -6.22932E+00 +1.13128E+00 -5.24023E+00 -2.29563E+00
 -2.59890E+00 -4.41701E+00 +6.17219E-01 -4.59098E+00 +3.19798E+00 -2.91261E+00 +4.24117E+00 -1.33520E-01
 +3.45513E+00 +2.64873E+00 +1.22327E+00 +4.40528E+00 -1.57748E+00 +4.53863E+00 -3.92236E+00 +3.06629E+00
 -5.01318E+00 +5.71920E-01 -4.54463E+00 -2.04219E+00 -2.77503E+00 -3.89748E+00 -3.90903E-01 -4.44632E+00
 +1.76957E+00 -3.63645E+00 +3.02322E+00 -1.88557E+00 +3.06614E+00 +1.08442E-01 +2.04246E+00 +1.63864E+00
 +4.47807E-01 +2.23657E+00 -1.08153E+00 +1.80978E+00 -2.00607E+00 +6.31488E-01 -2.05924E+00 -7.97608E-01
 -1.30585E+00 -1.95094E+00 -7.65389E-02 -2.46089E+00 +1.18224E+00 -2.22259E+00 +2.07683E+00 -1.39042E+00
 +2.38998E+00 -2.84442E-01 +2.12171E+00 +7.44842E-01 +1.44692E+00 +1.43703E+00 +6.20923E-01 +1.68591E+00
 -1.21045E-01 +1.53492E+00 -6.30767E-01 +1.12146E+00 -8.62848E-01 +6.04801E-01 -8.47523E-01 +1.11949E-01
 -6.46333E-01 -2.80654E-01 -3.18812E-01 -5.33309E-01 +8.40627E-02 -6.17787E-01 +5.03332E-01 -5.04465E-01
 +8.51880E-01 -1.74960E-01 +1.01372E+00 +3.45286E-01 +8.75219E-01 +9.56262E-01 +3.81141E-01 +1.48081E+00
 -4.10366E-01 +1.70589E+00 -1.30672E+00 +1.46159E+00 -2.01717E+00 +7.08716E-01 -2.24581E+00 -4.06135E-01
 -1.81227E+00 -1.56317E+00 -7.51330E-01 -2.35987E+00 +6.57181E-01 -2.45589E+00 +1.95486E+00 -1.71998E+00
 +2.65619E+00 -3.16647E-01 +2.43528E+00 +1.31353E+00 +1.27576E+00 +2.58771E+00 -4.82611E-01 +2.98976E+00
 -2.23302E+00 +2.27928E+00 -3.30689E+00 +6.16591E-01 -3.22654E+00 -1.45616E+00 -1.90994E+00 -3.18556E+00
 +2.58673E-01 -3.87741E+00 +2.53295E+00 -3.17009E+00 +4.05894E+00 -1.20391E+00 +4.19358E+00 +1.38924E+00
 +2.76854E+00 +3.68690E+00 +1.92302E-01 +4.80532E+00 -2.66157E+00 +4.23921E+00 -4.75294E+00 +2.08143E+00
 -5.25842E+00 -9.70803E-01 -3.89805E+00 -3.84018E+00 -1.07585E+00 -5.45341E+00 +2.23138E+00 -5.14793E+00
 +4.81021E+00 -2.94701E+00 +5.65650E+00 +4.09792E-01 +4.36730E+00 +3.70674E+00 +1.32620E+00 +5.68625E+00
 -2.39975E+00 +5.52253E+00 -5.42770E+00 +3.15659E+00 -6.56521E+00 -6.41996E-01 -5.26970E+00 -4.52385E+00
 -1.88472E+00 -7.03971E+00 +2.44725E+00 -7.18093E+00 +6.17734E+00 -4.77854E+00 +7.91360E+00 -6.03789E-01
 +6.94962E+00 +3.88120E+00 +3.55735E+00 +7.04319E+00 -1.07608E+00 +7.68338E+00 -5.25834E+00 +5.50369E+00
 -7.40782E+00 +1.25267E+00 -6.65157E+00 -3.51657E+00 -3.17934E+00 -6.99985E+00 +1.78854E+00 -7.81026E+00
 +6.42154E+00 -5.51411E+00 +8.94338E+00 -8.28238E-01 +8.29944E+00 +4.60736E+00 +4.57667E+00 +8.81074E+00
 -9.90057E-01 +1.01869E+01 -6.44112E+00 +8.13578E+00 -9.79995E+00 +3.30720E+00 -9.80931E+00 -2.60336E+00
 -6.42085E+00 -7.45645E+00 -8.47318E-01 -9.45401E+00 +4.85520E+00 -7.82002E+00 +8.53232E+00 -3.11851E+00
 +8.73419E+00 +2.92055E+00 +5.27729E+00 +8.01598E+00 -6.51484E-01 +1.01733E+01 -6.90005E+00 +8.43843E+00
 -1.11278E+01 +3.28297E+00 -1.16733E+01 -3.53210E+00 -8.19128E+00 -9.57761E+00 -1.81527E+00 -1.26423E+01
 +5.22698E+00 -1.15596E+01 +1.04149E+01 -6.66585E+00 +1.18647E+01 +2.91125E-01 +9.04309E+00 +6.77077E+00
 +2.99418E+00 +1.03681E+01 -4.01601E+00 +9.71204E+00 -9.31860E+00 +4.99874E+00 -1.08287E+01 -2.04795E+00
 -7.83659E+00 -8.78579E+00 -1.30314E+00 -1.26191E+01 +6.45981E+00 -1.19671E+01 +1.26194E+01 -6.87539E+00
 +1.48630E+01 +9.65073E-01 +1.22671E+01 +8.81027E+00 +5.66792E+00 +1.38588E+01 -2.61507E+00 +1.42882E+01
 -9.61143E+00 +9.94778E+00 -1.27896E+01 +2.44256E+00 -1.10034E+01 -5.43298E+00 -4.94040E+00 -1.07137E+01
 +3.10303E+00 -1.13639E+01 +1.00494E+01 -7.05165E+00 +1.31726E+01 +6.97318E-01 +1.11196E+01 +9.03312E+00
 +4.44063E+00 +1.48173E+01 -4.57942E+00 +1.57835E+01 -1.27360E+01 +1.13952E+01 -1.70756E+01 +3.07476E+00
 -1.59921E+01 -6.28884E+00 -9.84203E+00 -1.33853E+01 -8.40982E-01 -1.57003E+01 +7.73048E+00 -1.24557E+01
 +1.27276E+01 -4.92061E+00 +1.23092E+01 +4.03312E+00 +6.63894E+00 +1.09764E+01 -2.14828E+00 +1.31901E+01
 -1.07114E+01 +9.68786E+00 -1.57278E+01 +1.60927E+00 -1.51292E+01 -8.16895E+00 -8.88967E+00 -1.60728E+01
 +9.31412E-01 -1.91443E+01 +1.09192E+01 -1.61454E+01 +1.75452E+01 -8.03956E+00 +1.84679E+01 +2.33427E+00
 +1.34105E+01 +1.12873E+01 +4.28569E+00 +1.56332E+01 -5.48908E+00 +1.38710E+01 -1.22419E+01 +6.75747E+00
 -1.34054E+01 -2.94980E+00 -8.48285E+00 -1.14949E+01 +7.42326E-01 -1.55078E+01 +1.08400E+01 -1.32622E+01
 +1.79849E+01 -5.33990E+00 +1.93703E+01 +5.55242E+00 +1.42616E+01 +1.55556E+01 +4.29585E+00 +2.10686E+01
 -7.09302E+00 +2.00806E+01 -1.59197E+01 +1.29292E+01 -1.91104E+01 +2.19929E+00 -1.56434E+01 -8.21051E+00
 -6.94273E+00 -1.45163E+01 +3.62997E+00 -1.44490E+01 +1.20051E+01 -8.10653E+00 +1.49089E+01 +2.06118E+00
 +1.10879E+01 +1.21396E+01 +1.79617E+00 +1.81879E+01 -9.64000E+00 +1.77021E+01 -1.90302E+01 +1.05615E+01
 -2.28597E+01 -8.97167E-01 -1.95958E+01 -1.27139E+01 -1.02736E+01 -2.07472E+01 +1.86049E+00 -2.21972E+01
 +1.25258E+01 -1.66464E+01 +1.79759E+01 -6.22957E+00 +1.63828E+01 +5.13798E+00 +8.52286E+00 +1.31960E+01
 -2.49497E+00 +1.49139E+01 -1.23660E+01 +9.62275E+00 -1.71786E+01 -7.17938E-01 -1.48701E+01 -1.22236E+01
 -6.01168E+00 -2.05070E+01 +6.37467E+00 -2.22991E+01 +1.79075E+01 -1.66703E+01 +2.44487E+01 -5.39812E+00
 +2.36296E+01 +7.66221E+00 +1.57365E+01 +1.79788E+01 +3.62297E+00 +2.20043E+01 -8.32648E+00 +1.84855E+01
 -1.58035E+01 +8.93430E+00 -1.61657E+01 -2.91878E+00 -9.42043E+00 -1.24947E+01 +1.76461E+00 -1.60578E+01
 +1.30345E+01 -1.21072E+01 +1.99512E+01 -1.95068E+00 +1.96394E+01 +1.07559E+01 +1.18670E+01 +2.13411E+01
 -8.43626E-01 +2.58356E+01 -1.41206E+01 +2.24424E+01 -2.33366E+01 +1.22168E+01 -2.53075E+01 -1.30260E+00
 -1.94689E+01 -1.33797E+01 -8.09421E+00 -1.98161E+01 +4.53399E+00 -1.84964E+01 +1.36968E+01 -1.01731E+01
 +1.59808E+01 +1.80393E+00 +1.05464E+01 +1.27188E+01 -5.48929E-01 +1.82313E+01 -1.30965E+01 +1.59903E+01
