 Created: 19-Jan-2021
 $NMID
 ID='D:\BASISSIMULATI'
 FMTDAT='(8E13.5)'
 VOLUME=   1.00000E+00
 TRAMP=   1.00000E+00
 $END
 +4.46894E+01 +6.42099E+00 +4.34359E+01 +1.19567E+01 +4.13373E+01 +1.72186E+01 +3.84523E+01 +2.20705E+01
 +3.48621E+01 +2.63884E+01 +3.06676E+01 +3.00642E+01 +2.59862E+01 +3.30089E+01 +2.09485E+01 +3.51551E+01
 +1.56943E+01 +3.64587E+01 +1.03680E+01 +3.69006E+01 +5.11479E+00 +3.64864E+01 +7.59414E-02 +3.52464E+01
 -4.61521E+00 +3.32343E+01 -8.83720E+00 +3.05255E+01 -1.24839E+01 +2.72146E+01 -1.54677E+01 +2.34124E+01
 -1.77215E+01 +1.92421E+01 -1.92010E+01 +1.48357E+01 -1.98854E+01 +1.03302E+01 -1.97778E+01 +5.86256E+00
 -1.89046E+01 +1.56653E+00 -1.73147E+01 -2.43198E+00 -1.50774E+01 -6.01836E+00 -1.22800E+01 -9.09263E+00
 -9.02521E+00 -1.15723E+01 -5.42712E+00 -1.33945E+01 -1.60803E+00 -1.45176E+01 +2.30564E+00 -1.49223E+01
 +6.18727E+00 -1.46114E+01 +9.91398E+00 -1.36098E+01 +1.33703E+01 -1.19631E+01 +1.64518E+01 -9.73558E+00
 +1.90677E+01 -7.00821E+00 +2.11440E+01 -3.87558E+00 +2.26251E+01 -4.42741E-01 +2.34751E+01 +3.17835E+00
 +2.36788E+01 +6.87246E+00 +2.32417E+01 +1.05248E+01 +2.21892E+01 +1.40247E+01 +2.05656E+01 +1.72689E+01
 +1.84322E+01 +2.01650E+01 +1.58648E+01 +2.26337E+01 +1.29513E+01 +2.46115E+01 +9.78829E+00 +2.60524E+01
 +6.47798E+00 +2.69287E+01 +3.12454E+00 +2.72317E+01 -1.69199E-01 +2.69717E+01 -3.30515E+00 +2.61768E+01
 -6.19308E+00 +2.48924E+01 -8.75341E+00 +2.31784E+01 -1.09196E+01 +2.11078E+01 -1.26403E+01 +1.87631E+01
 -1.38804E+01 +1.62341E+01 -1.46221E+01 +1.36146E+01 -1.48653E+01 +1.09987E+01 -1.46270E+01 +8.47814E+00
 -1.39404E+01 +6.13909E+00 -1.28539E+01 +4.05922E+00 -1.14287E+01 +2.30527E+00 -9.73657E+00 +9.30987E-01
 -7.85760E+00 -2.45493E-02 -5.87692E+00 -5.38018E-01 -3.88188E+00 -6.02435E-01 -1.95898E+00 -2.27164E-01
 -1.90931E-01 +5.62617E-01 +1.34616E+00 +1.72698E+00 +2.58536E+00 +3.21277E+00 +3.47106E+00 +4.95562E+00
 +3.96084E+00 +6.88223E+00 +4.02675E+00 +8.91298E+00 +3.65621E+00 +1.09647E+01 +2.85225E+00 +1.29537E+01
 +1.63338E+00 +1.47983E+01 +3.27864E-02 +1.64220E+01 -1.90282E+00 +1.77556E+01 -4.11489E+00 +1.87402E+01
 -6.53506E+00 +1.93282E+01 -9.08751E+00 +1.94858E+01 -1.16915E+01 +1.91934E+01 -1.42642E+01 +1.84466E+01
 -1.67232E+01 +1.72561E+01 -1.89897E+01 +1.56474E+01 -2.09905E+01 +1.36599E+01 -2.26610E+01 +1.13455E+01
 -2.39469E+01 +8.76685E+00 -2.48061E+01 +5.99543E+00 -2.52099E+01 +3.10905E+00 -2.51441E+01 +1.89372E-01
 -2.46094E+01 -2.68076E+00 -2.36211E+01 -5.42000E+00 -2.22087E+01 -7.95107E+00 -2.04151E+01 -1.02033E+01
 -1.82948E+01 -1.21146E+01 -1.59124E+01 -1.36340E+01 -1.33404E+01 -1.47223E+01 -1.06568E+01 -1.53541E+01
 -7.94306E+00 -1.55181E+01 -5.28076E+00 -1.52175E+01 -2.74969E+00 -1.44696E+01 -4.25075E-01 -1.33056E+01
 +1.62467E+00 -1.17692E+01 +3.34002E+00 -9.91521E+00 +4.67215E+00 -7.80779E+00 +5.58434E+00 -5.51845E+00
 +6.05303E+00 -3.12370E+00 +6.06840E+00 -7.02693E-01 +5.63459E+00 +1.66527E+00 +4.76944E+00 +3.90315E+00
 +3.50376E+00 +5.93855E+00 +1.88032E+00 +7.70585E+00 -4.76450E-02 +9.14817E+00 -2.21815E+00 +1.02190E+01
 -4.56246E+00 +1.08835E+01 -7.00726E+00 +1.11194E+01 -9.47696E+00 +1.09176E+01 -1.18960E+01 +1.02821E+01
 -1.41912E+01 +9.22991E+00 -1.62938E+01 +7.79028E+00 -1.81418E+01 +6.00353E+00 -1.96812E+01 +3.91977E+00
 -2.08681E+01 +1.59719E+00 -2.16696E+01 -8.99814E-01 -2.20644E+01 -3.50272E+00 -2.20435E+01 -6.14101E+00
 -2.16102E+01 -8.74432E+00 -2.07800E+01 -1.12446E+01 -1.95792E+01 -1.35781E+01 -1.80446E+01 -1.56873E+01
 -1.62220E+01 -1.75222E+01 -1.41642E+01 -1.90422E+01 -1.19299E+01 -2.02167E+01 -9.58119E+00 -2.10259E+01
 -7.18200E+00 -2.14614E+01 -4.79589E+00 -2.15256E+01 -2.48418E+00 -2.12322E+01 -3.04128E-01 -2.06045E+01
 +1.69270E+00 -1.96754E+01 +3.46190E+00 -1.84855E+01 +4.96736E+00 -1.70818E+01 +6.18221E+00 -1.55163E+01
 +7.08931E+00 -1.38438E+01 +7.68159E+00 -1.21205E+01 +7.96193E+00 -1.04022E+01 +7.94276E+00 -8.74217E+00
 +7.64544E+00 -7.19008E+00 +7.09929E+00 -5.79015E+00 +6.34040E+00 -4.58009E+00 +5.41030E+00 -3.59009E+00
 +4.35447E+00 -2.84205E+00 +3.22075E+00 -2.34917E+00 +2.05775E+00 -2.11577E+00 +9.13244E-01 -2.13747E+00
 -1.67349E-01 -2.40158E+00 -1.14234E+00 -2.88777E+00 -1.97504E+00 -3.56897E+00 -2.63475E+00 -4.41249E+00
 -3.09764E+00 -5.38123E+00 -3.34725E+00 -6.43508E+00 -3.37483E+00 -7.53228E+00 -3.17939E+00 -8.63088E+00
 -2.76749E+00 -9.69013E+00 -2.15275E+00 -1.06718E+01 -1.35524E+00 -1.15412E+01 -4.00540E-01 -1.22687E+01
 +6.81208E-01 -1.28298E+01 +1.85650E+00 -1.32065E+01 +3.08965E+00 -1.33874E+01 +4.34409E+00 -1.33676E+01
 +5.58358E+00 -1.31493E+01 +6.77342E+00 -1.27410E+01 +7.88155E+00 -1.21569E+01 +8.87958E+00 -1.14169E+01
 +9.74356E+00 -1.05451E+01 +1.04547E+01 -9.56926E+00 +1.09998E+01 -8.51948E+00 +1.13715E+01 -7.42731E+00
 +1.15683E+01 -6.32456E+00 +1.15947E+01 -5.24222E+00 +1.14604E+01 -4.20948E+00 +1.11801E+01 -3.25279E+00
 +1.07727E+01 -2.39503E+00 +1.02608E+01 -1.65491E+00 +9.66929E+00 -1.04644E+00 +9.02502E+00 -5.78653E-01
 +8.35538E+00 -2.55424E-01 +7.68757E+00 -7.55563E-02 +7.04764E+00 -3.29810E-02 +6.45963E+00 -1.17137E-01
 +5.94485E+00 -3.13488E-01 +5.52123E+00 -6.04155E-01 +5.20286E+00 -9.68641E-01 +4.99966E+00 -1.38462E+00
 +4.91715E+00 -1.82877E+00 +4.95646E+00 -2.27758E+00 +5.11447E+00 -2.70816E+00 +5.38405E+00 -3.09899E+00
 +5.75445E+00 -3.43059E+00 +6.21184E+00 -3.68611E+00 +6.73986E+00 -3.85175E+00 +7.32031E+00 -3.91714E+00
 +7.93379E+00 -3.87551E+00 +8.56043E+00 -3.72379E+00 +9.18058E+00 -3.46251E+00 +9.77542E+00 -3.09567E+00
 +1.03276E+01 -2.63036E+00 +1.08216E+01 -2.07646E+00 +1.12444E+01 -1.44611E+00 +1.15855E+01 -7.53224E-01
 +1.18373E+01 -1.29035E-02 +1.19951E+01 +7.59114E-01 +1.20573E+01 +1.54702E+00 +1.20247E+01 +2.33545E+00
 +1.19010E+01 +3.10998E+00 +1.16921E+01 +3.85755E+00 +1.14055E+01 +4.56675E+00 +1.10505E+01 +5.22812E+00
 +1.06374E+01 +5.83429E+00 +1.01768E+01 +6.38004E+00 +9.67993E+00 +6.86230E+00 +9.15737E+00 +7.28001E+00
 +8.61926E+00 +7.63395E+00 +8.07485E+00 +7.92651E+00 +7.53217E+00 +8.16139E+00 +6.99799E+00 +8.34328E+00
 +6.47764E+00 +8.47752E+00 +5.97504E+00 +8.56977E+00 +5.49277E+00 +8.62569E+00 +5.03214E+00 +8.65067E+00
 +4.59343E+00 +8.64955E+00 +4.17607E+00 +8.62649E+00 +3.77890E+00 +8.58480E+00 +3.40046E+00 +8.52689E+00
 +3.03921E+00 +8.45432E+00 +2.69382E+00 +8.36781E+00 +2.36338E+00 +8.26741E+00 +2.04753E+00 +8.15265E+00
 +1.74667E+00 +8.02280E+00 +1.46197E+00 +7.87707E+00 +1.19537E+00 +7.71489E+00 +9.49557E-01 +7.53613E+00
 +7.27802E-01 +7.34138E+00 +5.33804E-01 +7.13210E+00 +3.71442E-01 +6.91080E+00 +2.44517E-01 +6.68112E+00
 +1.56450E-01 +6.44788E+00 +1.09980E-01 +6.21702E+00 +1.06862E-01 +5.99553E+00 +1.47587E-01 +5.79121E+00
 +2.31146E-01 +5.61246E+00 +3.54830E-01 +5.46797E+00 +5.14114E-01 +5.36636E+00 +7.02598E-01 +5.31578E+00
 +9.12044E-01 +5.32354E+00 +1.13249E+00 +5.39568E+00 +1.35246E+00 +5.53656E+00 +1.55925E+00 +5.74857E+00
 +1.73928E+00 +6.03179E+00 +1.87857E+00 +6.38374E+00 +1.96316E+00 +6.79931E+00 +1.97969E+00 +7.27063E+00
 +1.91590E+00 +7.78720E+00 +1.76118E+00 +8.33599E+00 +1.50708E+00 +8.90174E+00 +1.14774E+00 +9.46734E+00
 +6.80344E-01 +1.00143E+01 +1.05356E-01 +1.05231E+01 -5.73218E-01 +1.09743E+01 -1.34777E+00 +1.13487E+01
 -2.20711E+00 +1.16280E+01 -3.13664E+00 +1.17961E+01 -4.11865E+00 +1.18389E+01 -5.13273E+00 +1.17456E+01
 -6.15630E+00 +1.15088E+01 -7.16526E+00 +1.11252E+01 -8.13470E+00 +1.05955E+01 -9.03970E+00 +9.92527E+00
 -9.85612E+00 +9.12416E+00 -1.05614E+01 +8.20638E+00 -1.11355E+01 +7.19019E+00 -1.15614E+01 +6.09748E+00
 -1.18261E+01 +4.95322E+00 -1.19209E+01 +3.78477E+00 -1.18419E+01 +2.62108E+00 -1.15905E+01 +1.49179E+00
 -1.11734E+01 +4.26306E-01 -1.06023E+01 -5.47154E-01 -9.89416E+00 -1.40254E+00 -9.07052E+00 -2.11684E+00
 -8.15692E+00 -2.67098E+00 -7.18228E+00 -3.05049E+00 -6.17800E+00 -3.24613E+00 -5.17705E+00 -3.25433E+00
 -4.21288E+00 -3.07748E+00 -3.31836E+00 -2.72393E+00 -2.52472E+00 -2.20795E+00 -1.86043E+00 -1.54935E+00
 -1.35026E+00 -7.72947E-01 -1.01434E+00 +9.20772E-02 -8.67416E-01 +1.01309E+00 -9.18248E-01 +1.95498E+00
 -1.16918E+00 +2.88128E+00 -1.61593E+00 +3.75533E+00 -2.24761E+00 +4.54147E+00 -3.04694E+00 +5.20628E+00
 -3.99070E+00 +5.71969E+00 -5.05036E+00 +6.05604E+00 -6.19295E+00 +6.19505E+00 -7.38207E+00 +6.12257E+00
 -8.57900E+00 +5.83115E+00 -9.74397E+00 +5.32043E+00 -1.08375E+01 +4.59729E+00 -1.18215E+01 +3.67571E+00
 -1.26610E+01 +2.57645E+00 -1.33249E+01 +1.32648E+00 -1.37873E+01 -4.18046E-02 -1.40283E+01 -1.49161E+00
 -1.40351E+01 -2.98287E+00 -1.38022E+01 -4.47352E+00 -1.33316E+01 -5.92087E+00 -1.26334E+01 -7.28307E+00
 -1.17248E+01 -8.52042E+00 -1.06305E+01 -9.59683E+00 -9.38112E+00 -1.04810E+01 -8.01291E+00 -1.11476E+01
 -6.56631E+00 -1.15781E+01 -5.08470E+00 -1.17615E+01 -3.61299E+00 -1.16951E+01 -2.19613E+00 -1.13841E+01
 -8.77623E-01 -1.08422E+01 +3.02015E-01 -1.00906E+01 +1.30662E+00 -9.15798E+00 +2.10566E+00 -8.07914E+00
 +2.67538E+00 -6.89421E+00 +2.99964E+00 -5.64725E+00 +3.07059E+00 -4.38478E+00 +2.88908E+00 -3.15428E+00
 +2.46466E+00 -2.00256E+00 +1.81547E+00 -9.74160E-01 +9.67658E-01 -1.09821E-01 -4.53487E-02 +5.54987E-01
 -1.18391E+00 +9.91332E-01 -2.40341E+00 +1.17790E+00 -3.65575E+00 +1.10185E+00 -4.89088E+00 +7.59356E-01
 -6.05855E+00 +1.55880E-01 -7.10994E+00 -6.93857E-01 -7.99941E+00 -1.76625E+00 -8.68607E+00 -3.02946E+00
 -9.13525E+00 -4.44438E+00 -9.31980E+00 -5.96581E+00 -9.22111E+00 -7.54396E+00 -8.82989E+00 -9.12596E+00
 -8.14665E+00 -1.06577E+01 -7.18184E+00 -1.20855E+01 -5.95566E+00 -1.33581E+01 -4.49756E+00 -1.44284E+01
 -2.84542E+00 -1.52548E+01 -1.04439E+00 -1.58031E+01 +8.54455E-01 -1.60475E+01 +2.79573E+00 -1.59720E+01
 +4.72149E+00 -1.55704E+01 +6.57317E+00 -1.48472E+01 +8.29342E+00 -1.38178E+01 +9.82810E+00 -1.25074E+01
 +1.11281E+01 -1.09511E+01 +1.21509E+01 -9.19268E+00 +1.28624E+01 -7.28309E+00 +1.32379E+01 -5.27914E+00
 +1.32630E+01 -3.24164E+00 +1.29345E+01 -1.23351E+00 +1.22605E+01 +6.82250E-01 +1.12605E+01 +2.44460E+00
 +9.96453E+00 +3.99646E+00 +8.41289E+00 +5.28665E+00 +6.65459E+00 +6.27160E+00 +4.74606E+00 +6.91687E+00
