 Created: 19-Jan-2021
 $NMID
 ID='D:\BASISSIMULATI'
 FMTDAT='(8E13.5)'
 VOLUME=   1.00000E+00
 TRAMP=   1.00000E+00
 $END
 +2.40367E+01 +4.99543E+00 +2.11973E+01 +1.15450E+01 +1.64428E+01 +1.67038E+01 +1.04040E+01 +1.99157E+01
 +3.86113E+00 +2.08948E+01 -2.36683E+00 +1.96582E+01 -7.53547E+00 +1.65155E+01 -1.10753E+01 +1.20175E+01
 -1.26651E+01 +6.87244E+00 -1.22684E+01 +1.84213E+00 -1.01290E+01 -2.36656E+00 -6.72695E+00 -5.19956E+00
 -2.70186E+00 -6.32897E+00 +1.24337E+00 -5.69222E+00 +4.44576E+00 -3.49232E+00 +6.37644E+00 -1.60264E-01
 +6.71303E+00 +3.71398E+00 +5.38041E+00 +7.47120E+00 +2.55500E+00 +1.04799E+01 -1.36691E+00 +1.22266E+01
 -5.83128E+00 +1.23864E+01 -1.02090E+01 +1.08649E+01 -1.38867E+01 +7.80652E+00 -1.63526E+01 +3.56768E+00
 -1.72655E+01 -1.33778E+00 -1.64970E+01 -6.31436E+00 -1.41431E+01 -1.07692E+01 -1.05035E+01 -1.41929E+01
 -6.03337E+00 -1.62263E+01 -1.27580E+00 -1.67023E+01 +3.21588E+00 -1.56611E+01 +6.95326E+00 -1.33341E+01
 +9.57574E+00 -1.01034E+01 +1.08926E+01 -6.44128E+00 +1.08992E+01 -2.84040E+00 +9.76650E+00 +2.54950E-01
 +7.80608E+00 +2.50764E+00 +5.41782E+00 +3.72796E+00 +3.02749E+00 +3.89088E+00 +1.02438E+00 +3.12904E+00
 -2.92481E-01 +1.70356E+00 -7.52190E-01 -4.17760E-02 -3.29379E-01 -1.73572E+00 +8.60243E-01 -3.03566E+00
 +2.58440E+00 -3.67656E+00 +4.53423E+00 -3.50617E+00 +6.37314E+00 -2.50204E+00 +7.78718E+00 -7.69226E-01
 +8.52948E+00 +1.48037E+00 +8.45290E+00 +3.96264E+00 +7.52683E+00 +6.36452E+00 +5.83662E+00 +8.38902E+00
 +3.56672E+00 +9.79562E+00 +9.70918E-01 +1.04306E+01 -1.66555E+00 +1.02435E+01 -4.06594E+00 +9.28869E+00
 -5.99856E+00 +7.71150E+00 -7.30470E+00 +5.72371E+00 -7.91492E+00 +3.57067E+00 -7.85185E+00 +1.49625E+00
 -7.22015E+00 -2.89708E-01 -6.18590E+00 -1.63696E+00 -4.94883E+00 -2.47044E+00 -3.71196E+00 -2.79430E+00
 -2.65283E+00 -2.68453E+00 -1.90045E+00 -2.27218E+00 -1.52057E+00 -1.71990E+00 -1.51094E+00 -1.19566E+00
 -1.80653E+00 -8.47453E-01 -2.29323E+00 -7.82410E-01 -2.82781E+00 -1.05295E+00 -3.26078E+00 -1.65144E+00
 -3.45901E+00 -2.51363E+00 -3.32496E+00 -3.52985E+00 -2.81008E+00 -4.56199E+00 -1.92089E+00 -5.46378E+00
 -7.17430E-01 -6.10137E+00 +6.95622E-01 -6.37153E+00 +2.18334E+00 -6.21516E+00 +3.59858E+00 -5.62463E+00
 +4.80096E+00 -4.64413E+00 +5.67461E+00 -3.36346E+00 +6.14212E+00 -1.90604E+00 +6.17345E+00 -4.13158E-01
 +5.78855E+00 +9.73782E-01 +5.05381E+00 +2.13050E+00 +4.07267E+00 +2.96458E+00 +2.97199E+00 +3.42601E+00
 +1.88566E+00 +3.51212E+00 +9.37660E-01 +3.26665E+00 +2.26586E-01 +2.77295E+00 -1.86412E-01 +2.14235E+00
 -2.84884E-01 +1.49896E+00 -9.85781E-02 +9.62989E-01 +3.01020E-01 +6.34528E-01 +8.10585E-01 +5.79882E-01
 +1.30913E+00 +8.22177E-01 +1.67468E+00 +1.33755E+00 +1.80147E+00 +2.05750E+00 +1.61529E+00 +2.87726E+00
 +1.08510E+00 +3.66922E+00 +2.29183E-01 +4.29997E+00 -8.85164E-01 +4.64854E+00 -2.14851E+00 +4.62379E+00
 -3.42217E+00 +4.17842E+00 -4.55551E+00 +3.31758E+00 -5.40565E+00 +2.10089E+00 -5.85687E+00 +6.37065E-01
 -5.83722E+00 -9.28130E-01 -5.32988E+00 -2.42952E+00 -4.37761E+00 -3.70341E+00 -3.07929E+00 -4.60903E+00
 -1.57890E+00 -5.04775E+00 -4.79265E-02 -4.97723E+00 +1.33644E+00 -4.41847E+00 +2.41451E+00 -3.45445E+00
 +3.06572E+00 -2.22043E+00 +3.22533E+00 -8.86768E-01 +2.89410E+00 +3.63365E-01 +2.13912E+00 +1.35865E+00
 +1.08554E+00 +1.96314E+00 -9.98209E-02 +2.09541E+00 -1.23101E+00 +1.74055E+00 -2.12854E+00 +9.53113E-01
 -2.64458E+00 -1.49545E-01 -2.68408E+00 -1.40278E+00 -2.21894E+00 -2.61707E+00 -1.29302E+00 -3.60426E+00
 -1.70762E-02 -4.20398E+00 +1.44566E+00 -4.30657E+00 +2.90148E+00 -3.86917E+00 +4.15269E+00 -2.92266E+00
 +5.02495E+00 -1.56843E+00 +5.39163E+00 +3.47746E-02 +5.19166E+00 +1.69203E+00 +4.43840E+00 +3.19861E+00
 +3.21830E+00 +4.36771E+00 +1.67935E+00 +5.05590E+00 +1.11108E-02 +5.18243E+00 -1.58086E+00 +4.73995E+00
 -2.90275E+00 +3.79508E+00 -3.79838E+00 +2.47884E+00 -4.16963E+00 +9.68347E-01 -3.98875E+00 -5.37539E-01
 -3.30085E+00 -1.84516E+00 -2.21640E+00 -2.79186E+00 -8.95036E-01 -3.26698E+00 +4.76991E-01 -3.22539E+00
 +1.71241E+00 -2.69169E+00 +2.64794E+00 -1.75493E+00 +3.16528E+00 -5.54689E-01 +3.20535E+00 +7.39179E-01
 +2.77398E+00 +1.95018E+00 +1.93874E+00 +2.91879E+00 +8.17472E-01 +3.52279E+00 -4.39292E-01 +3.69175E+00
 -1.66949E+00 +3.41382E+00 -2.72111E+00 +2.73451E+00 -3.47134E+00 +1.74784E+00 -3.84064E+00 +5.81651E-01
 -3.80041E+00 -6.20583E-01 -3.37336E+00 -1.71882E+00 -2.62739E+00 -2.59369E+00 -1.66397E+00 -3.15978E+00
 -6.03348E-01 -3.37353E+00 +4.31501E-01 -3.23523E+00 +1.32965E+00 -2.78529E+00 +2.00412E+00 -2.09604E+00
 +2.39970E+00 -1.26047E+00 +2.49600E+00 -3.79788E-01 +2.30620E+00 +4.48433E-01 +1.87217E+00 +1.14026E+00
 +1.25707E+00 +1.63253E+00 +5.36820E-01 +1.88675E+00 -2.08346E-01 +1.89003E+00 -9.01431E-01 +1.65343E+00
 -1.47467E+00 +1.20861E+00 -1.87383E+00 +6.03544E-01 -2.06102E+00 -1.02206E-01 -2.01618E+00 -8.42015E-01
 -1.73782E+00 -1.54659E+00 -1.24308E+00 -2.14823E+00 -5.67270E-01 -2.58507E+00 +2.37364E-01 -2.80563E+00
 +1.10385E+00 -2.77346E+00 +1.95420E+00 -2.47176E+00 +2.70480E+00 -1.90731E+00 +3.27351E+00 -1.11308E+00
 +3.58820E+00 -1.48577E-01 +3.59586E+00 +9.02848E-01 +3.27110E+00 +1.93998E+00 +2.62282E+00 +2.85310E+00
 +1.69751E+00 +3.53607E+00 +5.78112E-01 +3.89973E+00 -6.22166E-01 +3.88506E+00 -1.77099E+00 +3.47401E+00
 -2.73210E+00 +2.69603E+00 -3.38285E+00 +1.62886E+00 -3.63179E+00 +3.92588E-01 -3.43367E+00 -8.62821E-01
 -2.79945E+00 -1.97546E+00 -1.79917E+00 -2.79277E+00 -5.56701E-01 -3.19331E+00 +7.63670E-01 -3.10595E+00
 +1.97748E+00 -2.52326E+00 +2.90473E+00 -1.50678E+00 +3.39567E+00 -1.82729E-01 +3.35389E+00 +1.27194E+00
 +2.75322E+00 +2.65169E+00 +1.64550E+00 +3.75001E+00 +1.57556E-01 +4.38885E+00 -1.52290E+00 +4.44550E+00
 -3.17087E+00 +3.87293E+00 -4.55426E+00 +2.71020E+00 -5.46655E+00 +1.08097E+00 -5.75725E+00 -8.20341E-01
 -5.35553E+00 -2.75313E+00 -4.28340E+00 -4.46287E+00 -2.65592E+00 -5.71659E+00 -6.68093E-01 -6.33648E+00
 +1.43028E+00 -6.22669E+00 +3.36830E+00 -5.38910E+00 +4.89172E+00 -3.92552E+00 +5.79927E+00 -2.02548E+00
 +5.97219E+00 +5.88362E-02 +5.39251E+00 +2.04735E+00 +4.14714E+00 +3.67144E+00 +2.41685E+00 +4.71245E+00
 +4.51535E-01 +5.03348E+00 -1.46496E+00 +4.59994E+00 -3.05538E+00 +3.48538E+00 -4.08911E+00 +1.86178E+00
 -4.41587E+00 -2.46381E-02 -3.98810E+00 -1.88858E+00 -2.86842E+00 -3.44691E+00 -1.22126E+00 -4.45983E+00
 +7.10591E-01 -4.76596E+00 +2.64084E+00 -4.30631E+00 +4.28118E+00 -3.13321E+00 +5.38313E+00 -1.40326E+00
 +5.77419E+00 +6.45149E-01 +5.38304E+00 +2.72610E+00 +4.24985E+00 +4.54745E+00 +2.52055E+00 +5.85294E+00
 +4.25529E-01 +6.45899E+00 -1.75369E+00 +6.28081E+00 -3.72517E+00 +5.34401E+00 -5.22842E+00 +3.78006E+00
 -6.07141E+00 +1.80647E+00 -6.15727E+00 -3.05390E-01 -5.49681E+00 -2.26992E+00 -4.20532E+00 -3.82846E+00
 -2.48407E+00 -4.78605E+00 -5.89693E-01 -5.03821E+00 +1.20406E+00 -4.58415E+00 +2.64639E+00 -3.52462E+00
 +3.54538E+00 -2.04484E+00 +3.79454E+00 -3.85477E-01 +3.38635E+00 +1.19396E+00 +2.41086E+00 +2.45368E+00
 +1.04002E+00 +3.20840E+00 -4.99732E-01 +3.35331E+00 -1.96224E+00 +2.87759E+00 -3.11848E+00 +1.86364E+00
 -3.79001E+00 +4.72669E-01 -3.87399E+00 -1.08102E+00 -3.35655E+00 -2.56293E+00 -2.31256E+00 -3.75331E+00
 -8.92396E-01 -4.47898E+00 +7.02026E-01 -4.63743E+00 +2.24807E+00 -4.20974E+00 +3.53528E+00 -3.26088E+00
 +4.39548E+00 -1.92777E+00 +4.72557E+00 -3.97072E-01 +4.50009E+00 +1.12335E+00 +3.77198E+00 +2.43511E+00
 +2.66179E+00 +3.37735E+00 +1.33755E+00 +3.84822E+00 -1.14376E-02 +3.81683E+00 -1.20284E+00 +3.32430E+00
 -2.08710E+00 +2.47430E+00 -2.56733E+00 +1.41490E+00 -2.61050E+00 +3.14781E-01 -2.24872E+00 -6.62267E-01
 -1.57096E+00 -1.38090E+00 -7.06843E-01 -1.75230E+00 +1.94529E-01 -1.74446E+00 +9.87509E-01 -1.38357E+00
 +1.55094E+00 -7.46908E-01 +1.80444E+00 +5.14686E-02 +1.71770E+00 +8.79368E-01 +1.31200E+00 +1.60669E+00
 +6.54156E-01 +2.12404E+00 -1.55758E-01 +2.35716E+00 -1.00055E+00 +2.27533E+00 -1.76342E+00 +1.89305E+00
 -2.34414E+00 +1.26512E+00 -2.67170E+00 +4.76525E-01 -2.71185E+00 -3.71153E-01 -2.46907E+00 -1.17443E+00
 -1.98297E+00 -1.84165E+00 -1.32040E+00 -2.30382E+00 -5.64638E-01 -2.52140E+00 +1.96427E-01 -2.48660E+00
 +8.81426E-01 -2.22127E+00 +1.42455E+00 -1.77134E+00 +1.78157E+00 -1.19894E+00 +1.93244E+00 -5.73626E-01
 +1.88083E+00 +3.61203E-02 +1.65093E+00 +5.70004E-01 +1.28261E+00 +9.81111E-01 +8.25760E-01 +1.23892E+00
 +3.34520E-01 +1.33033E+00 -1.37871E-01 +1.25898E+00 -5.43419E-01 +1.04345E+00 -8.42767E-01 +7.14724E-01
 -1.00774E+00 +3.13177E-01 -1.02322E+00 -1.14616E-01 -8.88322E-01 -5.19401E-01 -6.17028E-01 -8.53043E-01
 -2.37918E-01 -1.07267E+00 +2.07159E-01 -1.14506E+00 +6.65816E-01 -1.05093E+00 +1.07943E+00 -7.88669E-01
 +1.38898E+00 -3.76813E-01 +1.54202E+00 +1.45459E-01 +1.50016E+00 +7.20363E-01 +1.24598E+00 +1.27640E+00
 +7.88191E-01 +1.73599E+00 +1.64018E-01 +2.02517E+00 -5.62213E-01 +2.08433E+00 -1.30461E+00 +1.87836E+00
 -1.96521E+00 +1.40465E+00 -2.44648E+00 +6.97301E-01 -2.66535E+00 -1.73596E-01 -2.56670E+00 -1.10813E+00
 -2.13419E+00 -1.98792E+00 -1.39644E+00 -2.69140E+00 -4.26990E-01 -3.11115E+00 +6.62388E-01 -3.17074E+00
 +1.73483E+00 -2.83838E+00 +2.64636E+00 -2.13503E+00 +3.26645E+00 -1.13524E+00 +3.49804E+00 +4.01292E-02
 +3.29404E+00 +1.23867E+00 +2.66732E+00 +2.29695E+00 +1.69226E+00 +3.06417E+00 +4.97099E-01 +3.42524E+00
 -7.52427E-01 +3.31991E+00 -1.87613E+00 +2.75458E+00 -2.70585E+00 +1.80451E+00 -3.11153E+00 +6.05684E-01
 -3.02275E+00 -6.63157E-01 -2.44220E+00 -1.80590E+00 -1.44846E+00 -2.63838E+00 -1.87287E-01 -3.01724E+00
 +1.14795E+00 -2.86382E+00 +2.34403E+00 -2.17907E+00 +3.19996E+00 -1.04688E+00 +3.55853E+00 +3.75352E-01
 +3.33239E+00 +1.87781E+00 +2.52046E+00 +3.22844E+00 +1.21163E+00 +4.20765E+00 -4.25310E-01 +4.64247E+00
 -2.16432E+00 +4.43481E+00 -3.75449E+00 +3.57916E+00 -4.95733E+00 +2.16673E+00 -5.58331E+00 +3.74780E-01
 -5.52214E+00 -1.55751E+00 -4.76170E+00 -3.36344E+00 -3.39248E+00 -4.78841E+00 -1.59642E+00 -5.62865E+00
 +3.78671E-01 -5.76319E+00 +2.25529E+00 -5.17388E+00 +3.76793E+00 -3.95000E+00 +4.70372E+00 -2.27639E+00
