 Created: 19-Jan-2021
 $NMID
 ID='D:\BASISSIMULATI'
 FMTDAT='(8E13.5)'
 VOLUME=   1.00000E+00
 TRAMP=   1.00000E+00
 $END
 +6.24778E+01 +9.88852E+00 +4.83633E+01 +3.88016E+01 +2.10767E+01 +5.47923E+01 -9.47883E+00 +5.29315E+01
 -3.25766E+01 +3.50463E+01 -4.08277E+01 +8.77566E+00 -3.28810E+01 -1.56593E+01 -1.35991E+01 -2.95906E+01
 +8.28115E+00 -2.92191E+01 +2.39460E+01 -1.67715E+01 +2.81210E+01 +8.99741E-01 +2.09915E+01 +1.55796E+01
 +7.67566E+00 +2.13519E+01 -4.42785E+00 +1.70640E+01 -9.18669E+00 +6.55730E+00 -4.58275E+00 -3.37494E+00
 +6.39827E+00 -6.34425E+00 +1.72138E+01 +4.89889E-01 +2.08870E+01 +1.49135E+01 +1.34009E+01 +3.04829E+01
 -4.16951E+00 +3.93420E+01 -2.57738E+01 +3.58071E+01 -4.27593E+01 +1.91386E+01 -4.75175E+01 -5.75124E+00
 -3.68479E+01 -3.00244E+01 -1.35780E+01 -4.44028E+01 +1.42982E+01 -4.29709E+01 +3.66530E+01 -2.56989E+01
 +4.52006E+01 +1.39199E+00 +3.67778E+01 +2.85128E+01 +1.45800E+01 +4.59146E+01 -1.31494E+01 +4.76576E+01
 -3.64190E+01 +3.38094E+01 -4.74037E+01 +1.02010E+01 -4.33692E+01 -1.41043E+01 -2.74401E+01 -3.05329E+01
 -6.96811E+00 -3.43492E+01 +9.73630E+00 -2.62616E+01 +1.68831E+01 -1.16875E+01 +1.34205E+01 +1.91562E+00
 +3.09888E+00 +8.43949E+00 -7.56162E+00 +5.74397E+00 -1.24409E+01 -3.60842E+00 -8.69263E+00 -1.37724E+01
 +1.95343E+00 -1.85132E+01 +1.40234E+01 -1.42543E+01 +2.08816E+01 -1.89996E+00 +1.79021E+01 +1.33935E+01
 +4.80467E+00 +2.44229E+01 -1.39095E+01 +2.51634E+01 -3.06607E+01 +1.36020E+01 -3.79366E+01 -7.08336E+00
 -3.15460E+01 -2.95577E+01 -1.25787E+01 -4.51862E+01 +1.27951E+01 -4.75387E+01 +3.56417E+01 -3.50736E+01
 +4.77603E+01 -1.18690E+01 +4.49188E+01 +1.39199E+01 +2.84984E+01 +3.32459E+01 +4.87955E+00 +3.96878E+01
 -1.71539E+01 +3.18634E+01 -2.99033E+01 +1.37733E+01 -2.96927E+01 -7.01676E+00 -1.80711E+01 -2.25478E+01
 -8.45172E-01 -2.76487E+01 +1.45764E+01 -2.18097E+01 +2.23527E+01 -9.02147E+00 +2.05393E+01 +4.26864E+00
 +1.16186E+01 +1.21349E+01 +1.07592E+00 +1.17687E+01 -5.29154E+00 +4.57300E+00 -4.10857E+00 -4.68108E+00
 +4.01699E+00 -1.02160E+01 +1.47881E+01 -8.04877E+00 +2.22229E+01 +2.03319E+00 +2.14699E+01 +1.62112E+01
 +1.11758E+01 +2.82238E+01 -5.66129E+00 +3.21207E+01 -2.27602E+01 +2.49824E+01 -3.31201E+01 +8.40744E+00
 -3.19958E+01 -1.19081E+01 -1.90128E+01 -2.83598E+01 +1.49695E+00 -3.44933E+01 +2.21057E+01 -2.76558E+01
 +3.51967E+01 -1.01287E+01 +3.59681E+01 +1.17361E+01 +2.42987E+01 +3.00179E+01 +4.71807E+00 +3.83326E+01
 -1.54795E+01 +3.42643E+01 -2.91732E+01 +2.01462E+01 -3.21795E+01 +1.91370E+00 -2.47176E+01 -1.34411E+01
 -1.10192E+01 -2.07181E+01 +2.68177E+00 -1.84705E+01 +1.08755E+01 -9.29947E+00 +1.10380E+01 +1.57348E+00
 +4.48703E+00 +8.77296E+00 -4.48159E+00 +9.17325E+00 -1.07374E+01 +3.19348E+00 -1.07563E+01 -5.55088E+00
 -4.26785E+00 -1.20462E+01 +5.61492E+00 -1.23011E+01 +1.38291E+01 -5.29639E+00 +1.57141E+01 +6.40943E+00
 +9.23478E+00 +1.77028E+01 -3.91937E+00 +2.31278E+01 -1.88636E+01 +1.93306E+01 -2.94756E+01 +6.66608E+00
 -3.09591E+01 -1.07470E+01 -2.19236E+01 -2.65753E+01 -5.08743E+00 -3.47914E+01 +1.37062E+01 -3.21176E+01
 +2.77644E+01 -1.93744E+01 +3.21711E+01 -1.17334E+00 +2.56871E+01 +1.59102E+01 +1.11532E+01 +2.59230E+01
 -5.73913E+00 +2.58124E+01 -1.87737E+01 +1.64772E+01 -2.36502E+01 +2.20059E+00 -1.95417E+01 -1.12468E+01
 -9.16303E+00 -1.90019E+01 +2.61021E+00 -1.89923E+01 +1.09318E+01 -1.25449E+01 +1.30221E+01 -3.52660E+00
 +9.19258E+00 +3.55012E+00 +2.46139E+00 +5.59184E+00 -3.01532E+00 +2.25300E+00 -3.96341E+00 -4.03321E+00
 +4.50401E-01 -9.29991E+00 +8.21180E+00 -9.98559E+00 +1.53765E+01 -4.68621E+00 +1.78969E+01 +5.06940E+00
 +1.35427E+01 +1.53762E+01 +3.05717E+00 +2.16097E+01 -9.97609E+00 +2.04676E+01 -2.05224E+01 +1.15075E+01
 -2.41640E+01 -2.49560E+00 -1.89740E+01 -1.65466E+01 -6.39839E+00 -2.53808E+01 +9.23056E+00 -2.55620E+01
 +2.23572E+01 -1.68603E+01 +2.83568E+01 -2.34470E+00 +2.52997E+01 +1.28351E+01 +1.46183E+01 +2.34656E+01
 +4.31322E-01 +2.62512E+01 -1.21602E+01 +2.09655E+01 -1.90810E+01 +1.03369E+01 -1.87671E+01 -1.22928E+00
 -1.25510E+01 -9.51377E+00 -3.84719E+00 -1.21372E+01 +3.45494E+00 -9.33026E+00 +6.66989E+00 -3.54973E+00
 +5.34797E+00 +1.82895E+00 +1.25051E+00 +4.12562E+00 -2.66677E+00 +2.55246E+00 -3.76679E+00 -1.52062E+00
 -1.04193E+00 -5.32009E+00 +4.36882E+00 -6.07605E+00 +9.68346E+00 -2.43216E+00 +1.17709E+01 +4.78666E+00
 +8.65330E+00 +1.28042E+01 +5.42119E-01 +1.80342E+01 -1.00656E+01 +1.76429E+01 -1.92957E+01 +1.08567E+01
 -2.34415E+01 -5.60657E-01 -2.04979E+01 -1.28805E+01 -1.10423E+01 -2.18111E+01 +1.91258E+00 -2.41574E+01
 +1.40360E+01 -1.90596E+01 +2.13118E+01 -8.31488E+00 +2.15266E+01 +4.33829E+00 +1.50238E+01 +1.46627E+01
 +4.44969E+00 +1.94998E+01 -6.36803E+00 +1.78534E+01 -1.39219E+01 +1.10749E+01 -1.62884E+01 +2.13104E+00
 -1.36656E+01 -5.69339E+00 -8.01995E+00 -1.00919E+01 -2.05789E+00 -1.05019E+01 +1.99457E+00 -8.06454E+00
 +3.27116E+00 -4.86216E+00 +2.44888E+00 -2.82173E+00 +1.20537E+00 -2.79534E+00 +1.24166E+00 -4.22378E+00
 +3.34334E+00 -5.51049E+00 +6.91917E+00 -4.90834E+00 +1.02290E+01 -1.49313E+00 +1.11957E+01 +4.23565E+00
 +8.43175E+00 +1.04157E+01 +2.01179E+00 +1.45352E+01 -6.36848E+00 +1.44994E+01 -1.39400E+01 +9.58867E+00
 -1.79034E+01 +8.90615E-01 -1.65395E+01 -8.99370E+00 -9.93035E+00 -1.68647E+01 +9.01413E-03 -2.00969E+01
 +1.02016E+01 -1.76020E+01 +1.75126E+01 -1.02074E+01 +1.98498E+01 -3.14074E-01 +1.68373E+01 +9.00809E+00
 +9.82672E+00 +1.51172E+01 +1.28183E+00 +1.66597E+01 -6.18282E+00 +1.38849E+01 -1.07127E+01 +8.34177E+00
 -1.17282E+01 +2.13737E+00 -9.88726E+00 -2.90616E+00 -6.57896E+00 -5.84718E+00 -3.21602E+00 -6.76306E+00
 -6.51124E-01 -6.43528E+00 +1.04378E+00 -5.77996E+00 +2.38055E+00 -5.31653E+00 +3.97986E+00 -4.92395E+00
 +6.07686E+00 -3.98239E+00 +8.26150E+00 -1.80999E+00 +9.58619E+00 +1.83380E+00 +8.99544E+00 +6.43585E+00
 +5.87827E+00 +1.07753E+01 +4.83338E-01 +1.33298E+01 -6.00664E+00 +1.28785E+01 -1.17976E+01 +9.04657E+00
 -1.50884E+01 +2.55379E+00 -1.47211E+01 -4.94720E+00 -1.06182E+01 -1.13901E+01 -3.83860E+00 -1.49750E+01
 +3.76709E+00 -1.47521E+01 +1.01622E+01 -1.08987E+01 +1.37613E+01 -4.60427E+00 +1.38712E+01 +2.36700E+00
 +1.07998E+01 +8.25548E+00 +5.63442E+00 +1.18095E+01 -1.89477E-01 +1.25519E+01 -5.34542E+00 +1.07571E+01
 -8.93772E+00 +7.20427E+00 -1.06065E+01 +2.84244E+00 -1.04363E+01 -1.48873E+00 -8.76291E+00 -5.19569E+00
 -5.99376E+00 -7.92143E+00 -2.51897E+00 -9.45470E+00 +1.27617E+00 -9.64836E+00 +4.94919E+00 -8.41165E+00
 +7.96649E+00 -5.78304E+00 +9.75475E+00 -2.03340E+00 +9.84162E+00 +2.27772E+00 +8.03338E+00 +6.35297E+00
 +4.54617E+00 +9.32467E+00 +1.93858E-02 +1.04896E+01 -4.61339E+00 +9.52393E+00 -8.35945E+00 +6.59497E+00
 -1.04269E+01 +2.32415E+00 -1.04193E+01 -2.38205E+00 -8.40568E+00 -6.56942E+00 -4.85743E+00 -9.45741E+00
 -4.95905E-01 -1.05794E+01 +3.88322E+00 -9.81976E+00 +7.55082E+00 -7.37058E+00 +9.92720E+00 -3.65484E+00
 +1.06210E+01 +7.43002E-01 +9.45751E+00 +5.12736E+00 +6.52109E+00 +8.74347E+00 +2.20428E+00 +1.08650E+01
 -2.77500E+00 +1.09353E+01 -7.43972E+00 +8.74206E+00 -1.07323E+01 +4.56189E+00 -1.17841E+01 -8.02894E-01
 -1.01980E+01 -6.15294E+00 -6.23631E+00 -1.01826E+01 -8.18760E-01 -1.18565E+01 +4.70149E+00 -1.07448E+01
 +8.92913E+00 -7.18336E+00 +1.08553E+01 -2.18506E+00 +1.01661E+01 +2.88390E+00 +7.31039E+00 +6.74826E+00
 +3.29950E+00 +8.62299E+00 -6.83008E-01 +8.41476E+00 -3.70192E+00 +6.65300E+00 -5.35121E+00 +4.19086E+00
 -5.78638E+00 +1.81463E+00 -5.51063E+00 -6.22254E-02 -5.02892E+00 -1.48582E+00 -4.54415E+00 -2.79859E+00
 -3.85001E+00 -4.31609E+00 -2.48033E+00 -6.01489E+00 -4.78404E-02 -7.40488E+00 +3.39680E+00 -7.67629E+00
 +7.18013E+00 -6.07950E+00 +1.01226E+01 -2.37292E+00 +1.09491E+01 +2.87942E+00 +8.84172E+00 +8.33301E+00
 +3.89557E+00 +1.22514E+01 -2.74391E+00 +1.31349E+01 -9.16584E+00 +1.03444E+01 -1.33274E+01 +4.44986E+00
 -1.38043E+01 -2.86813E+00 -1.03570E+01 -9.36233E+00 -4.07034E+00 -1.30145E+01 +3.01333E+00 -1.27742E+01
 +8.63707E+00 -8.94114E+00 +1.11595E+01 -3.02871E+00 +1.01378E+01 +2.84287E+00 +6.42660E+00 +6.77726E+00
 +1.75650E+00 +7.81501E+00 -2.02628E+00 +6.23437E+00 -3.73093E+00 +3.32082E+00 -3.27286E+00 +7.15215E-01
 -1.61239E+00 -3.65732E-01 -2.15822E-01 +3.14194E-01 -2.87380E-01 +1.93040E+00 -2.12752E+00 +3.03378E+00
 -4.92239E+00 +2.30859E+00 -7.07958E+00 -6.96614E-01 -6.97712E+00 -5.21423E+00 -3.79592E+00 -9.47003E+00
 +1.94968E+00 -1.14029E+01 +8.45226E+00 -9.59621E+00 +1.32488E+01 -4.01204E+00 +1.42147E+01 +3.81754E+00
 +1.05014E+01 +1.12663E+01 +3.00507E+00 +1.55960E+01 -5.86361E+00 +1.50535E+01 -1.30485E+01 +9.62521E+00
 -1.60203E+01 +1.11493E+00 -1.37754E+01 -7.51143E+00 -7.24094E+00 -1.32638E+01 +1.09154E+00 -1.42883E+01
 +8.16350E+00 -1.05701E+01 +1.15680E+01 -3.88668E+00 +1.04824E+01 +2.97038E+00 +5.92686E+00 +7.37447E+00
 +2.44695E-01 +7.94288E+00 -3.96559E+00 +5.05640E+00 -4.99979E+00 +6.01266E-01 -2.77674E+00 -2.94758E+00
 +1.17398E+00 -3.69361E+00 +4.46061E+00 -1.21511E+00 +4.98237E+00 +3.21561E+00 +1.97001E+00 +7.20047E+00
 -3.56363E+00 +8.33121E+00 -9.18720E+00 +5.36047E+00 -1.20946E+01 -1.10281E+00 -1.03854E+01 -8.70960E+00
 -4.01816E+00 -1.42849E+01 +5.00620E+00 -1.51715E+01 +1.33480E+01 -1.04314E+01 +1.76554E+01 -1.37302E+00
 +1.59677E+01 +8.85424E+00 +8.59639E+00 +1.64618E+01 -1.90889E+00 +1.85379E+01 -1.17229E+01 +1.42471E+01
 -1.72547E+01 +5.20131E+00 -1.65828E+01 -5.16720E+00 -1.02164E+01 -1.29839E+01 -8.58194E-01 -1.54901E+01
 +7.73388E+00 -1.21308E+01 +1.23075E+01 -4.71635E+00 +1.14402E+01 +3.40613E+00 +6.06600E+00 +8.81317E+00
 -1.01322E+00 +9.46858E+00 -6.41438E+00 +5.55980E+00 -7.69312E+00 -6.52429E-01 -4.43108E+00 -5.90162E+00
 +1.58975E+00 -7.42943E+00 +7.20755E+00 -4.27558E+00 +9.34022E+00 +2.23441E+00 +6.44042E+00 +9.03518E+00
 -7.06369E-01 +1.26786E+01 -9.21559E+00 +1.09154E+01 -1.52963E+01 +3.80260E+00 -1.59048E+01 -6.17224E+00
 -1.01450E+01 -1.50389E+01 +2.07985E-01 -1.89868E+01 +1.13199E+01 -1.60118E+01 +1.88184E+01 -6.85407E+00
 +1.95973E+01 +5.19573E+00 +1.31440E+01 +1.55712E+01 +1.81340E+00 +2.02703E+01 -1.00853E+01 +1.74954E+01
