 Created: 19-Jan-2021
 $NMID
 ID='D:\BASISSIMULATI'
 FMTDAT='(8E13.5)'
 VOLUME=   1.00000E+00
 TRAMP=   1.00000E+00
 $END
 +1.41834E+02 +2.17120E+01 +1.31184E+02 +5.72609E+01 +1.11472E+02 +8.86021E+01 +8.42030E+01 +1.13440E+02
 +5.14493E+01 +1.29985E+02 +1.56920E+01 +1.37088E+02 -2.03748E+01 +1.34330E+02 -5.40540E+01 +1.22050E+02
 -8.28547E+01 +1.01312E+02 -1.04685E+02 +7.38224E+01 -1.18010E+02 +4.17889E+01 -1.21973E+02 +7.74729E+00
 -1.16450E+02 -2.56402E+01 -1.02059E+02 -5.57935E+01 -8.01063E+01 -8.04171E+01 -5.24725E+01 -9.76774E+01
 -2.14652E+01 -1.06344E+02 +1.03691E+01 -1.05881E+02 +4.04478E+01 -9.64837E+01 +6.63579E+01 -7.90584E+01
 +8.60451E+01 -5.51426E+01 +9.79755E+01 -2.67790E+01 +1.01253E+02 +3.65181E+00 +9.56865E+01 +3.36235E+01
 +8.17997E+01 +6.06674E+01 +6.07848E+01 +8.25692E+01 +3.44018E+01 +9.75451E+01 +4.83445E+00 +1.04382E+02
 -2.54877E+01 +1.02531E+02 -5.40860E+01 +9.21487E+01 -7.86319E+01 +7.40795E+01 -9.71332E+01 +4.97850E+01
 -1.08093E+02 +2.12234E+01 -1.10625E+02 -9.31058E+00 -1.04528E+02 -3.93715E+01 -9.02925E+01 -6.65604E+01
 -6.90606E+01 -8.87177E+01 -4.25326E+01 -1.04096E+02 -1.28266E+01 -1.11497E+02 +1.76934E+01 -1.10369E+02
 +4.66083E+01 -1.00846E+02 +7.16395E+01 -8.37330E+01 +9.08311E+01 -6.04427E+01 +1.02706E+02 -3.28749E+01
 +1.06385E+02 -3.26368E+00 +1.01650E+02 +2.60048E+01 +8.89671E+01 +5.25852E+01 +6.94386E+01 +7.43624E+01
 +4.47164E+01 +8.96214E+01 +1.68644E+01 +9.71851E+01 -1.18089E+01 +9.65075E+01 -3.89390E+01 +8.77162E+01
 -6.22970E+01 +7.16003E+01 -7.99699E+01 +4.95446E+01 -9.05158E+01 +2.34163E+01 -9.30798E+01 -4.58765E+00
 -8.74633E+01 -3.21196E+01 -7.41392E+01 -5.68722E+01 -5.42136E+01 -7.67655E+01 -2.93354E+01 -9.01167E+01
 -1.56340E+00 -9.57767E+01 +2.68014E+01 -9.32241E+01 +5.34019E+01 -8.26083E+01 +7.60156E+01 -6.47385E+01
 +9.27358E+01 -4.10195E+01 +1.02126E+02 -1.33392E+01 +1.03338E+02 +1.60823E+01 +9.61796E+01 +4.48718E+01
 +8.11366E+01 +7.06932E+01 +5.93310E+01 +9.14359E+01 +3.24355E+01 +1.05385E+02 +2.54011E+00 +1.11361E+02
 -2.80141E+01 +1.08815E+02 -5.68213E+01 +9.78739E+01 -8.16030E+01 +7.93336E+01 -1.00391E+02 +5.45965E+01
 -1.11682E+02 +2.55614E+01 -1.14564E+02 -5.52664E+00 -1.08783E+02 -3.62543E+01 -9.47698E+01 -6.42309E+01
 -7.36035E+01 -8.72787E+01 -4.69282E+01 -1.03605E+02 -1.68224E+01 -1.11947E+02 +1.43652E+01 -1.11666E+02
 +4.42019E+01 -1.02807E+02 +7.03632E+01 -8.60873E+01 +9.08172E+01 -6.28425E+01 +1.03985E+02 -3.49210E+01
 +1.08865E+02 -4.53571E+00 +1.05114E+02 +2.59107E+01 +9.30673E+01 +5.40169E+01 +7.37192E+01 +7.75730E+01
 +4.86371E+01 +9.47353E+01 +1.98385E+01 +1.04172E+02 -1.03704E+01 +1.05167E+02 -3.95783E+01 +9.76784E+01
 -6.54604E+01 +8.23356E+01 -8.59628E+01 +6.03921E+01 -9.94655E+01 +3.36224E+01 -1.04910E+02 +4.18034E+00
 -1.01882E+02 -2.55731E+01 -9.06423E+01 -5.32580E+01 -7.21075E+01 -7.66654E+01 -4.77715E+01 -9.39319E+01
 -1.95880E+01 -1.03688E+02 +1.01872E+01 -1.05166E+02 +3.91761E+01 -9.82594E+01 +6.50684E+01 -8.35299E+01
 +8.58052E+01 -6.21617E+01 +9.97427E+01 -3.58656E+01 +1.05782E+02 -6.74126E+00 +1.03457E+02 +2.28906E+01
 +9.29655E+01 +5.06741E+01 +7.51591E+01 +7.44054E+01 +5.14677E+01 +9.22087E+01 +2.37871E+01 +1.02685E+02
 -5.67399E+00 +1.05021E+02 -3.45705E+01 +9.90547E+01 -6.06087E+01 +8.52865E+01 -8.17285E+01 +6.48359E+01
 -9.62679E+01 +3.93523E+01 -1.03094E+02 +1.08817E+01 -1.01693E+02 -1.82979E+01 -9.22080E+01 -4.58584E+01
 -7.54281E+01 -6.96083E+01 -5.27223E+01 -8.76671E+01 -2.59289E+01 -9.86147E+01 +2.79232E+00 -1.01604E+02
 +3.11337E+01 -9.64276E+01 +5.68247E+01 -8.35320E+01 +7.78138E+01 -6.39815E+01 +9.24319E+01 -3.93706E+01
 +9.95252E+01 -1.16958E+01 +9.85471E+01 +1.68053E+01 +8.96002E+01 +4.38338E+01 +7.34274E+01 +6.72141E+01
 +5.13510E+01 +8.50679E+01 +2.51658E+01 +9.59644E+01 -3.00517E+00 +9.90347E+01 -3.08818E+01 +9.40403E+01
 -5.62097E+01 +8.13922E+01 -7.69410E+01 +6.21169E+01 -9.13986E+01 +3.77739E+01 -9.84104E+01 +1.03300E+01
 -9.74027E+01 -1.79982E+01 -8.84465E+01 -4.49223E+01 -7.22516E+01 -6.82652E+01 -5.01094E+01 -8.61356E+01
 -2.37898E+01 -9.70796E+01 +4.60025E+00 -1.00196E+02 +3.27852E+01 -9.52113E+01 +5.85027E+01 -8.24970E+01
 +7.96843E+01 -6.30446E+01 +9.46202E+01 -3.83845E+01 +1.02096E+02 -1.04644E+01 +1.01489E+02 +1.85054E+01
 +9.28197E+01 +4.62282E+01 +7.67469E+01 +7.05034E+01 +5.45183E+01 +8.94016E+01 +2.78701E+01 +1.01417E+02
 -1.11094E+00 +1.05589E+02 -3.01529E+01 +1.01575E+02 -5.69793E+01 +8.96781E+01 -7.94890E+01 +7.08252E+01
 -9.59229E+01 +4.64892E+01 -1.05002E+02 +1.85737E+01 -1.06030E+02 -1.07389E+01 -9.89425E+01 -3.91606E+01
 -8.43171E+01 -6.44789E+01 -6.33215E+01 -8.47318E+01 -3.76213E+01 -9.83623E+01 -9.24679E+00 -1.04341E+02
 +1.95691E+01 -1.02244E+02 +4.65682E+01 -9.22887E+01 +6.96462E+01 -7.53094E+01 +8.70189E+01 -5.26923E+01
 +9.73622E+01 -2.62624E+01 +9.99158E+01 +1.86293E+00 +9.45413E+01 +2.94434E+01 +8.17304E+01 +5.42943E+01
 +6.25635E+01 +7.44595E+01 +3.86210E+01 +8.83672E+01 +1.18556E+01 +9.49526E+01 -1.55650E+01 +9.37411E+01
 -4.14321E+01 +8.48837E+01 -6.36720E+01 +6.91422E+01 -8.05113E+01 +4.78260E+01 -9.06178E+01 +2.26855E+01
 -9.32044E+01 -4.22977E+00 -8.80911E+01 -3.07363E+01 -7.57161E+01 -5.46917E+01 -5.70994E+01 -7.41658E+01
 -3.37586E+01 -8.75951E+01 -7.58545E+00 -9.39061E+01 +1.93063E+01 -9.26000E+01 +4.47516E+01 -8.37909E+01
 +6.67076E+01 -6.81943E+01 +8.34168E+01 -4.70682E+01 +9.35474E+01 -2.21103E+01 +9.62986E+01 +4.67926E+00
 +9.14630E+01 +3.11595E+01 +7.94419E+01 +5.52204E+01 +6.12106E+01 +7.49524E+01 +3.82390E+01 +8.87991E+01
 +1.23716E+01 +9.56806E+01 -1.43215E+01 +9.50794E+01 -3.97117E+01 +8.70799E+01 -6.17831E+01 +7.23597E+01
 -7.87944E+01 +5.21337E+01 -8.94181E+01 +2.80546E+01 -9.28463E+01 +2.07843E+00 -8.88545E+01 -2.36938E+01
 -7.78178E+01 -4.71857E+01 -6.06795E+01 -6.65134E+01 -3.88736E+01 -8.01369E+01 -1.42076E+01 -8.69839E+01
 +1.12839E+01 -8.65358E+01 +3.55046E+01 -7.88685E+01 +5.64659E+01 -6.46457E+01 +7.24480E+01 -4.50647E+01
 +8.21393E+01 -2.17589E+01 +8.47421E+01 +3.33465E+00 +8.00378E+01 +2.81322E+01 +6.84045E+01 +5.05717E+01
 +5.07873E+01 +6.87807E+01 +2.86219E+01 +8.12272E+01 +3.71979E+00 +8.68451E+01 -2.18780E+01 +8.51208E+01
 -4.60652E+01 +7.61359E+01 -6.68403E+01 +6.05625E+01 -8.24679E+01 +3.96104E+01 -9.16200E+01 +1.49310E+01
 -9.34833E+01 -1.15139E+01 -8.78270E+01 -3.76088E+01 -7.50226E+01 -6.12538E+01 -5.60163E+01 -8.05328E+01
 -3.22556E+01 -9.38676E+01 -5.57473E+00 -1.00145E+02 +2.19502E+01 -9.88060E+01 +4.81656E+01 -8.98946E+01
 +7.10122E+01 -7.40533E+01 +8.86882E+01 -5.24748E+01 +9.97931E+01 -2.68087E+01 +1.03440E+02 +9.68446E-01
 +9.93261E+01 +2.87093E+01 +8.77581E+01 +5.42651E+01 +6.96287E+01 +7.56557E+01 +4.63462E+01 +9.12264E+01
 +1.97241E+01 +9.97787E+01 -8.16219E+00 +1.00665E+02 -3.51393E+01 +9.38416E+01 -5.91072E+01 +7.98679E+01
 -7.82053E+01 +5.98668E+01 -9.09590E+01 +3.54329E+01 -9.63957E+01 +8.50706E+00 -9.41217E+01 -1.87773E+01
 -8.43518E+01 -4.42627E+01 -6.78923E+01 -6.59383E+01 -4.60762E+01 -8.20985E+01 -2.06574E+01 -9.14770E+01
 +6.32909E+00 -9.33466E+01 +3.27278E+01 -8.75753E+01 +5.64337E+01 -7.46363E+01 +7.55584E+01 -5.55691E+01
 +8.85788E+01 -3.18965E+01 +9.44570E+01 -5.50360E+00 +9.27212E+01 +2.15124E+01 +8.35019E+01 +4.70077E+01
 +6.75201E+01 +6.89616E+01 +4.60291E+01 +8.56356E+01 +2.07146E+01 +9.57101E+01 -6.44007E+00 +9.83872E+01
 -3.33105E+01 +9.34521E+01 -5.77996E+01 +8.12888E+01 -7.80028E+01 +6.28473E+01 -9.23572E+01 +3.95669E+01
 -9.97641E+01 +1.32612E+01 -9.96729E+01 -1.40266E+01 -9.21229E+01 -4.01860E+01 -7.77370E+01 -6.32054E+01
 -5.76698E+01 -8.13307E+01 -3.35137E+01 -9.32022E+01 -7.17084E+00 -9.79599E+01 +1.92993E+01 -9.53085E+01
 +4.38434E+01 -8.55373E+01 +6.45772E+01 -6.94937E+01 +7.99337E+01 -4.85121E+01 +8.87852E+01 -2.43053E+01
 +9.05302E+01 +1.17504E+00 +8.51374E+01 +2.58946E+01 +7.31446E+01 +4.79000E+01 +5.56112E+01 +6.54733E+01
 +3.40304E+01 +7.72688E+01 +1.02063E+01 +8.24175E+01 -1.38930E+01 +8.05940E+01 -3.62944E+01 +7.20391E+01
 -5.51792E+01 +5.75370E+01 -6.90280E+01 +3.83485E+01 -7.67424E+01 +1.61065E+01 -7.77314E+01 -7.31740E+00
 -7.19563E+01 -2.99662E+01 -5.99317E+01 -4.99562E+01 -4.26814E+01 -6.56290E+01 -2.16535E+01 -7.56857E+01
 +1.39870E+00 -7.92910E+01 +2.45597E+01 -7.61394E+01 +4.59077E+01 -6.64789E+01 +6.36710E+01 -5.10897E+01
 +7.63710E+01 -3.12198E+01 +8.29424E+01 -8.48324E+00 +8.28186E+01 +1.52715E+01 +7.59776E+01 +3.81115E+01
 +6.29434E+01 +5.81758E+01 +4.47434E+01 +7.38267E+01 +2.28248E+01 +8.37819E+01 -1.06202E+00 +8.72185E+01
 -2.50054E+01 +8.38394E+01 -4.70868E+01 +7.38975E+01 -6.55355E+01 +5.81755E+01 -7.88720E+01 +3.79229E+01
 -8.60274E+01 +1.47553E+01 -8.64298E+01 -9.47585E+00 -8.00507E+01 -3.28322E+01 -6.74075E+01 -5.34447E+01
 -4.95226E+01 -6.96648E+01 -2.78408E+01 -8.01966E+01 -4.11341E+00 -8.42023E+01 +1.97423E+01 -8.13696E+01
 +4.17976E+01 -7.19376E+01 +6.02677E+01 -5.66779E+01 +7.36552E+01 -3.68334E+01 +8.08715E+01 -1.40185E+01
 +8.13245E+01 +9.90981E+00 +7.49673E+01 +3.30014E+01 +6.23031E+01 +5.33695E+01 +4.43453E+01 +6.93421E+01
 +2.25374E+01 +7.95974E+01 -1.36167E+00 +8.32701E+01 -2.54184E+01 +8.00220E+01 -4.76791E+01 +7.00708E+01
 -6.63259E+01 +5.41733E+01 -7.98233E+01 +3.35672E+01 -8.70409E+01 +9.87264E+00 -8.73453E+01 -1.50357E+01
 -8.06516E+01 -3.91773E+01 -6.74315E+01 -6.06238E+01 -4.86777E+01 -7.76518E+01 -2.58257E+01 -8.88810E+01
 -6.41463E-01 -9.33838E+01 +2.49184E+01 -9.07605E+01 +4.88609E+01 -8.11713E+01 +6.93142E+01 -6.53251E+01
 +8.46758E+01 -4.44237E+01 +9.37391E+01 -2.00680E+01 +9.57894E+01 +5.86844E+00 +9.06596E+01 +3.13866E+01
 +7.87441E+01 +5.45198E+01 +6.09675E+01 +7.34879E+01 +3.87112E+01 +8.68381E+01 +1.37044E+01 +9.35584E+01
 -1.21122E+01 +9.31568E+01 -3.67396E+01 +8.56991E+01 -5.82782E+01 +7.18026E+01 -7.50765E+01 +5.25866E+01
 -8.58609E+01 +2.95824E+01 -8.98351E+01 +4.61204E+00 -8.67408E+01 -2.03566E+01 -7.68771E+01 -4.33651E+01
 -6.10741E+01 -6.26193E+01 -4.06262E+01 -7.66303E+01 -1.71876E+01 -8.43308E+01 +7.35971E+00 -8.51581E+01
 +3.10559E+01 -7.90966E+01 +5.20189E+01 -6.66766E+01 +6.85928E+01 -4.89303E+01 +7.94790E+01 -2.73079E+01
