 Created: 19-Jan-2021
 $NMID
 ID='D:\BASISSIMULATI'
 FMTDAT='(8E13.5)'
 VOLUME=   1.00000E+00
 TRAMP=   1.00000E+00
 $END
 +4.97332E+01 +7.61511E+00 +4.59008E+01 +1.40584E+01 +3.69745E+01 +1.92613E+01 +2.39361E+01 +2.29351E+01
 +8.24320E+00 +2.48868E+01 -8.34017E+00 +2.50142E+01 -2.39500E+01 +2.33026E+01 -3.68402E+01 +1.98274E+01
 -4.55859E+01 +1.47606E+01 -4.92470E+01 +8.37903E+00 -4.74728E+01 +1.07035E+00 -4.05353E+01 -6.67012E+00
 -2.92879E+01 -1.42552E+01 -1.50568E+01 -2.10381E+01 +5.22508E-01 -2.63622E+01 +1.57006E+01 -2.96243E+01
 +2.88185E+01 -3.03462E+01 +3.84959E+01 -2.82456E+01 +4.37798E+01 -2.32952E+01 +4.42392E+01 -1.57601E+01
 +3.99945E+01 -6.20472E+00 +3.16810E+01 +4.53728E+00 +2.03549E+01 +1.54292E+01 +7.35431E+00 +2.53311E+01
 -5.86586E+00 +3.31224E+01 -1.79025E+01 +3.78343E+01 -2.75578E+01 +3.87753E+01 -3.39591E+01 +3.56338E+01
 -3.66336E+01 +2.85404E+01 -3.55319E+01 +1.80824E+01 -3.10015E+01 +5.26134E+00 -2.37177E+01 -8.60100E+00
 -1.45831E+01 -2.20025E+01 -4.61242E+00 -3.34292E+01 +5.18528E+00 -4.15336E+01 +1.39093E+01 -4.53005E+01
 +2.08468E+01 -4.41799E+01 +2.55215E+01 -3.81674E+01 +2.77103E+01 -2.78217E+01 +2.74306E+01 -1.42146E+01
 +2.49046E+01 +1.18252E+00 +2.05087E+01 +1.66637E+01 +1.47184E+01 +3.04844E+01 +8.05542E+00 +4.10668E+01
 +1.04334E+00 +4.71870E+01 -5.82400E+00 +4.81232E+01 -1.21022E+01 +4.37447E+01 -1.74063E+01 +3.45301E+01
 -2.14141E+01 +2.15138E+01 -2.38693E+01 +6.16490E+00 -2.45863E+01 -9.78513E+00 -2.34611E+01 -2.45459E+01
 -2.04865E+01 -3.64771E+01 -1.57708E+01 -4.42780E+01 -9.55457E+00 -4.71344E+01 -2.21989E+00 -4.48059E+01
 +5.71338E+00 -3.76437E+01 +1.36092E+01 -2.65384E+01 +2.07571E+01 -1.28046E+01 +2.64325E+01 +1.98106E+00
 +2.99721E+01 +1.61683E+01 +3.08545E+01 +2.82247E+01 +2.87781E+01 +3.69069E+01 +2.37224E+01 +4.13915E+01
 +1.59834E+01 +4.13514E+01 +6.17426E+00 +3.69722E+01 -4.81344E+00 +2.89064E+01 -1.58869E+01 +1.81771E+01
 -2.58618E+01 +6.04374E+00 -3.35933E+01 -6.15229E+00 -3.81134E+01 -1.71411E+01 -3.87572E+01 -2.58596E+01
 -3.52611E+01 -3.15536E+01 -2.78185E+01 -3.38372E+01 -1.70832E+01 -3.27046E+01 -4.11611E+00 -2.84990E+01
 +9.71960E+00 -2.18451E+01 +2.29063E+01 -1.35562E+01 +3.39446E+01 -4.53148E+00 +4.15312E+01 +4.34493E+00
 +4.47196E+01 +1.22901E+01 +4.30432E+01 +1.86862E+01 +3.65838E+01 +2.31169E+01 +2.59761E+01 +2.53775E+01
 +1.23453E+01 +2.54607E+01 -2.81591E+00 +2.35264E+01 -1.78169E+01 +1.98612E+01 -3.09650E+01 +1.48366E+01
 -4.07647E+01 +8.87088E+00 -4.60947E+01 +2.39958E+00 -4.63420E+01 -4.14494E+00 -4.14753E+01 -1.03459E+01
 -3.20493E+01 -1.58098E+01 -1.91393E+01 -2.01732E+01 -4.21284E+00 -2.31137E+01 +1.10434E+01 -2.43657E+01
 +2.49223E+01 -2.37440E+01 +3.58947E+01 -2.11710E+01 +4.27847E+01 -1.67059E+01 +4.48993E+01 -1.05671E+01
 +4.20996E+01 -3.14355E+00 +3.48039E+01 +5.01174E+00 +2.39262E+01 +1.32104E+01 +1.07567E+01 +2.06800E+01
 -3.19718E+00 +2.66352E+01 -1.63905E+01 +3.03633E+01 -2.74185E+01 +3.13133E+01 -3.51706E+01 +2.91779E+01
 -3.89436E+01 +2.39553E+01 -3.85025E+01 +1.59810E+01 -3.40833E+01 +5.92109E+00 -2.63421E+01 -5.27637E+00
 -1.62576E+01 -1.64684E+01 -5.00304E+00 -2.64364E+01 +6.19577E+00 -3.40236E+01 +1.61986E+01 -3.82757E+01
 +2.40688E+01 -3.85656E+01 +2.91583E+01 -3.46862E+01 +3.11531E+01 -2.68976E+01 +3.00767E+01 -1.59189E+01
 +2.62556E+01 -2.86491E+00 +2.02551E+01 +1.08693E+01 +1.27957E+01 +2.37625E+01 +4.66333E+00 +3.43420E+01
 -3.37535E+00 +4.13598E+01 -1.06435E+01 +4.39457E+01 -1.66037E+01 +4.17203E+01 -2.08848E+01 +3.48506E+01
 -2.32870E+01 +2.40414E+01 -2.37688E+01 +1.04619E+01 -2.24230E+01 -4.38565E+00 -1.94468E+01 -1.88381E+01
 -1.51139E+01 -3.12654E+01 -9.74999E+00 -4.02622E+01 -3.71613E+00 -4.48132E+01 +2.60207E+00 -4.44127E+01
 +8.80182E+00 -3.91230E+01 +1.44706E+01 -2.95653E+01 +1.91980E+01 -1.68432E+01 +2.25945E+01 -2.41061E+00
 +2.43194E+01 +1.21019E+01 +2.41154E+01 +2.50784E+01 +2.18477E+01 +3.51048E+01 +1.75399E+01 +4.11283E+01
 +1.14017E+01 +4.25715E+01 +3.83979E+00 +3.93865E+01 -4.55327E+00 +3.20464E+01 -1.30351E+01 +2.14751E+01
 -2.07749E+01 +8.92664E+00 -2.69348E+01 -4.16956E+00 -3.07642E+01 -1.63784E+01 -3.16955E+01 -2.64219E+01
 -2.94282E+01 -3.33164E+01 -2.39900E+01 -3.64691E+01 -1.57625E+01 -3.57234E+01 -5.46657E+00 -3.13525E+01
 +5.89598E+00 -2.40027E+01 +1.71394E+01 -1.45985E+01 +2.70213E+01 -4.22166E+00 +3.43854E+01 +6.01799E+00
 +3.83029E+01 +1.51049E+01 +3.81946E+01 +2.22188E+01 +3.39164E+01 +2.68049E+01 +2.57966E+01 +2.86070E+01
 +1.46176E+01 +2.76640E+01 +1.54072E+00 +2.42747E+01 -1.20173E+01 +1.89383E+01 -2.45431E+01 +1.22806E+01
 -3.46025E+01 +4.97844E+00 -4.10121E+01 -2.31028E+00 -4.29844E+01 -9.00228E+00 -4.02287E+01 -1.46265E+01
 -3.29943E+01 -1.88428E+01 -2.20494E+01 -2.14443E+01 -8.59644E+00 -2.23474E+01 +5.86405E+00 -2.15746E+01
 +1.97081E+01 -1.92366E+01 +3.13777E+01 -1.55164E+01 +3.95637E+01 -1.06588E+01 +4.33585E+01 -4.96404E+00
 +4.23606E+01 +1.21515E+00 +3.67186E+01 +7.47770E+00 +2.71093E+01 +1.33834E+01 +1.46530E+01 +1.84705E+01
 +7.77575E-01 +2.22839E+01 -1.29522E+01 +2.44137E+01 -2.50181E+01 +2.45412E+01 -3.41227E+01 +2.24864E+01
 -3.93337E+01 +1.82511E+01 -4.01813E+01 +1.20485E+01 -3.66979E+01 +4.31170E+00 -2.93987E+01 -4.32226E+00
 -1.92048E+01 -1.30574E+01 -7.32339E+00 -2.10095E+01 +4.90148E+00 -2.72972E+01 +1.61470E+01 -3.11439E+01
 +2.52594E+01 -3.19778E+01 +3.13748E+01 -2.95171E+01 +3.39994E+01 -2.38273E+01 +3.30423E+01 -1.53412E+01
 +2.88001E+01 -4.83460E+00 +2.18979E+01 +6.64136E+00 +1.31974E+01 +1.78665E+01 +3.68520E+00 +2.75857E+01
 -5.64321E+00 +3.46548E+01 -1.38903E+01 +3.81816E+01 -2.03419E+01 +3.76431E+01 -2.45229E+01 +3.29628E+01
 -2.62209E+01 +2.45377E+01 -2.54779E+01 +1.32087E+01 -2.25553E+01 +1.75778E-01 -1.78811E+01 -1.31331E+01
 -1.19871E+01 -2.52239E+01 -5.44618E+00 -3.47117E+01 +1.18275E+00 -4.04857E+01 +7.39716E+00 -4.18453E+01
 +1.27783E+01 -3.85886E+01 +1.70040E+01 -3.10429E+01 +1.98501E+01 -2.00310E+01 +2.11844E+01 -6.77877E+00
 +2.09585E+01 +7.22707E+00 +1.92002E+01 +2.04121E+01 +1.60108E+01 +3.12987E+01 +1.15657E+01 +3.86781E+01
 +6.11795E+00 +4.17501E+01 +5.09273E-04 +4.02127E+01 -6.37658E+00 +3.42925E+01 -1.25384E+01 +2.47109E+01
 -1.79697E+01 +1.25927E+01 -2.21527E+01 -6.71283E-01 -2.46156E+01 -1.35906E+01 -2.49888E+01 -2.47494E+01
 -2.30603E+01 -3.29671E+01 -1.88223E+01 -3.74272E+01 -1.25020E+01 -3.77588E+01 -4.56659E+00 -3.40634E+01
 +4.29985E+00 -2.68851E+01 +1.32495E+01 -1.71308E+01 +2.13513E+01 -5.95124E+00 +2.76901E+01 +5.40045E+00
 +3.14748E+01 +1.57145E+01 +3.21415E+01 +2.39572E+01 +2.94370E+01 +2.93760E+01 +2.34722E+01 +3.15646E+01
 +1.47338E+01 +3.04844E+01 +4.05099E+00 +2.64428E+01 -7.48145E+00 +2.00330E+01 -1.86180E+01 +1.20476E+01
 -2.81018E+01 +3.37593E+00 -3.48120E+01 -5.09761E+00 -3.79029E+01 -1.25858E+01 -3.69143E+01 -1.84689E+01
 -3.18402E+01 -2.23385E+01 -2.31447E+01 -2.40127E+01 -1.17218E+01 -2.35250E+01 +1.19907E+00 -2.10919E+01
 +1.41891E+01 -1.70669E+01 +2.57850E+01 -1.18895E+01 +3.46599E+01 -6.03550E+00 +3.97825E+01 +2.44970E-02
 +4.05416E+01 +5.85586E+00 +3.68226E+01 +1.10788E+01 +2.90246E+01 +1.53772E+01 +1.80165E+01 +1.85008E+01
 +5.03600E+00 +2.02648E+01 -8.45453E+00 +2.05499E+01 -2.09400E+01 +1.93068E+01 -3.10296E+01 +1.65646E+01
 -3.76176E+01 +1.24416E+01 -4.00093E+01 +7.15634E+00 -3.79966E+01 +1.03403E+00 -3.18742E+01 -5.49710E+00
 -2.23969E+01 -1.19223E+01 -1.06825E+01 -1.76723E+01 +1.92534E+00 -2.21708E+01 +1.40177E+01 -2.48927E+01
 +2.42840E+01 -2.54286E+01 +3.16591E+01 -2.35463E+01 +3.54361E+01 -1.92406E+01 +3.53335E+01 -1.27615E+01
 +3.15099E+01 -4.61560E+00 +2.45264E+01 +4.46454E+00 +1.52644E+01 +1.35829E+01 +4.81018E+00 +2.17687E+01
 -5.67776E+00 +2.80834E+01 -1.51018E+01 +3.17330E+01 -2.25429E+01 +3.21720E+01 -2.73500E+01 +2.91851E+01
 -2.91925E+01 +2.29337E+01 -2.80713E+01 +1.39596E+01 -2.42926E+01 +3.14276E+00 -1.84090E+01 -8.38565E+00
 -1.11385E+01 -1.93643E+01 -3.27332E+00 -2.85453E+01 +4.40870E+00 -3.48417E+01 +1.12217E+01 -3.74624E+01
 +1.66286E+01 -3.60154E+01 +2.02747E+01 -3.05662E+01 +2.19961E+01 -2.16432E+01 +2.18079E+01 -1.01861E+01
 +1.98752E+01 +2.55484E+00 +1.64758E+01 +1.51613E+01 +1.19604E+01 +2.62102E+01 +6.71556E+00 +3.44417E+01
 +1.13459E+00 +3.89085E+01 -4.40294E+00 +3.90899E+01 -9.54360E+00 +3.49550E+01 -1.39667E+01 +2.69680E+01
 -1.73890E+01 +1.60340E+01 -1.95700E+01 +3.39216E+00 -2.03221E+01 -9.53027E+00 -1.95257E+01 -2.12859E+01
 -1.71474E+01 -3.05756E+01 -1.32605E+01 -3.63977E+01 -8.06171E+00 -3.81598E+01 -1.87888E+00 -3.57401E+01
 +4.83387E+00 -2.94917E+01 +1.15185E+01 -2.01913E+01 +1.75530E+01 -8.93883E+00 +2.23081E+01 +2.97827E+00
 +2.52142E+01 +1.42382E+01 +2.58335E+01 +2.36372E+01 +2.39255E+01 +3.02219E+01 +1.94973E+01 +3.33881E+01
 +1.28299E+01 +3.29336E+01 +4.47313E+00 +2.90619E+01 -4.79282E+00 +2.23396E+01 -1.40283E+01 +1.36125E+01
 -2.22313E+01 +3.89608E+00 -2.84499E+01 -5.74803E+00 -3.18982E+01 -1.43319E+01 -3.20593E+01 -2.10442E+01
 -2.87626E+01 -2.53256E+01 -2.22241E+01 -2.69084E+01 -1.30405E+01 -2.58210E+01 -2.13760E+00 -2.23577E+01
 +9.32439E+00 -1.70227E+01 +2.00783E+01 -1.04561E+01 +2.88954E+01 -3.35465E+00 +3.47324E+01 +3.60466E+00
 +3.68598E+01 +9.82751E+00 +3.49571E+01 +1.48476E+01 +2.91610E+01 +1.83511E+01 +2.00593E+01 +2.01808E+01
 +8.63050E+00 +2.03248E+01 -3.86487E+00 +1.88924E+01 -1.60287E+01 +1.60859E+01 -2.64879E+01 +1.21718E+01
 -3.40559E+01 +7.45627E+00 -3.78733E+01 +2.26687E+00 -3.75088E+01 -3.05954E+00 -3.30108E+01 -8.18426E+00
 -2.49008E+01 -1.27729E+01 -1.41098E+01 -1.65034E+01 -1.86798E+00 -1.90791E+01 +1.04422E+01 -2.02478E+01
 +2.14479E+01 -1.98266E+01 +2.99454E+01 -1.77306E+01 +3.50365E+01 -1.39999E+01 +3.62262E+01 -8.82060E+00
 +3.34706E+01 -2.53273E+00 +2.71711E+01 +4.37779E+00 +1.81151E+01 +1.13078E+01 +7.37419E+00 +1.75854E+01
 -3.82788E+00 +2.25346E+01 -1.42606E+01 +2.55513E+01 -2.28264E+01 +2.61800E+01 -2.86799E+01 +2.41827E+01
 -3.13109E+01 +1.95882E+01 -3.05855E+01 +1.27144E+01 -2.67409E+01 +4.15642E+00 -2.03377E+01 -5.25980E+00
 -1.21779E+01 -1.45570E+01 -3.20109E+00 -2.27104E+01 +5.62869E+00 -2.87655E+01 +1.34292E+01 -3.19543E+01
