 Created: 19-Jan-2021
 $NMID
 ID='D:\BASISSIMULATI'
 FMTDAT='(8E13.5)'
 VOLUME=   1.00000E+00
 TRAMP=   1.00000E+00
 $END
 +5.08166E+01 +9.06578E+00 +4.58862E+01 +2.26832E+01 +3.69766E+01 +3.38605E+01 +2.52468E+01 +4.14145E+01
 +1.21866E+01 +4.46958E+01 -6.22844E-01 +4.36631E+01 -1.17505E+01 +3.88529E+01 -2.01190E+01 +3.12583E+01
 -2.51354E+01 +2.21405E+01 -2.67320E+01 +1.28135E+01 -2.53173E+01 +4.43951E+00 -2.16535E+01 -2.12760E+00
 -1.66909E+01 -6.43023E+00 -1.13915E+01 -8.41667E+00 -6.57692E+00 -8.38098E+00 -2.82294E+00 -6.85305E+00
 -4.15571E-01 -4.46587E+00 +6.33735E-01 -1.82866E+00 +5.25288E-01 +5.70967E-01 -4.18602E-01 +2.42115E+00
 -1.84749E+00 +3.59307E+00 -3.46027E+00 +4.10809E+00 -5.05217E+00 +4.07942E+00 -6.52615E+00 +3.64632E+00
 -7.87215E+00 +2.91801E+00 -9.12480E+00 +1.93989E+00 -1.03138E+01 +6.87721E-01 -1.14212E+01 -9.11893E-01
 -1.23573E+01 -2.94266E+00 -1.29602E+01 -5.45300E+00 -1.30185E+01 -8.41607E+00 -1.23120E+01 -1.17056E+01
 -1.06599E+01 -1.50934E+01 -7.96616E+00 -1.82694E+01 -4.25178E+00 -2.08804E+01 +3.31435E-01 -2.25788E+01
 +5.50865E+00 -2.30734E+01 +1.09090E+01 -2.21728E+01 +1.61066E+01 -1.98148E+01 +2.06687E+01 -1.60775E+01
 +2.42032E+01 -1.11736E+01 +2.63999E+01 -5.42783E+00 +2.70598E+01 +7.55602E-01 +2.61126E+01 +6.93236E+00
 +2.36197E+01 +1.26585E+01 +1.97666E+01 +1.75284E+01 +1.48447E+01 +2.12077E+01 +9.22566E+00 +2.34591E+01
 +3.33129E+00 +2.41600E+01 -2.40095E+00 +2.33122E+01 -7.55333E+00 +2.10409E+01 -1.17626E+01 +1.75854E+01
 -1.47513E+01 +1.32790E+01 -1.63530E+01 +8.52034E+00 -1.65275E+01 +3.73764E+00 -1.53655E+01 -6.51688E-01
 -1.30791E+01 -4.28110E+00 -9.98002E+00 -6.87072E+00 -6.44669E+00 -8.25429E+00 -2.88445E+00 -8.39379E+00
 +3.17051E-01 -7.37988E+00 +2.82356E+00 -5.41834E+00 +4.38861E+00 -2.80446E+00 +4.87495E+00 +1.10954E-01
 +4.26343E+00 +2.95942E+00 +2.64937E+00 +5.39202E+00 +2.27982E-01 +7.11200E+00 -2.72820E+00 +7.90016E+00
 -5.89694E+00 +7.63156E+00 -8.93592E+00 +6.28342E+00 -1.15121E+01 +3.93502E+00 -1.33293E+01 +7.60290E-01
 -1.41527E+01 -2.98568E+00 -1.38297E+01 -6.98583E+00 -1.23058E+01 -1.08854E+01 -9.63466E+00 -1.43211E+01
 -5.97975E+00 -1.69530E+01 -1.60622E+00 -1.84988E+01 +3.13813E+00 -1.87655E+01 +7.85297E+00 -1.76753E+01
 +1.21248E+01 -1.52809E+01 +1.55715E+01 -1.17672E+01 +1.78871E+01 -7.43634E+00 +1.88796E+01 -2.67609E+00
 +1.84956E+01 +2.08388E+00 +1.68271E+01 +6.42375E+00 +1.40990E+01 +9.98488E+00 +1.06366E+01 +1.25127E+01
 +6.81980E+00 +1.38840E+01 +3.03018E+00 +1.41142E+01 -3.99273E-01 +1.33432E+01 -3.22400E+00 +1.18030E+01
 -5.31000E+00 +9.77291E+00 -6.63548E+00 +7.53234E+00 -7.27287E+00 +5.31843E+00 -7.35615E+00 +3.29798E+00
 -7.04144E+00 +1.55735E+00 -6.46978E+00 +1.11122E-01 -5.74040E+00 -1.07393E+00 -4.89999E+00 -2.04681E+00
 -3.94959E+00 -2.84082E+00 -2.86645E+00 -3.45105E+00 -1.63435E+00 -3.82713E+00 -2.73740E-01 -3.88350E+00
 +1.13703E+00 -3.52514E+00 +2.45644E+00 -2.68274E+00 +3.49358E+00 -1.34823E+00 +4.03976E+00 +3.98744E-01
 +3.91191E+00 +2.38143E+00 +2.99880E+00 +4.33836E+00 +1.29937E+00 +5.95716E+00 -1.05632E+00 +6.92476E+00
 -3.80994E+00 +6.98481E+00 -6.60325E+00 +5.99107E+00 -9.02832E+00 +3.94542E+00 -1.06914E+01 +1.01205E+00
 -1.12788E+01 -2.49635E+00 -1.06127E+01 -6.15935E+00 -8.68605E+00 -9.50971E+00 -5.66961E+00 -1.21042E+01
 -1.89008E+00 -1.35915E+01 +2.21779E+00 -1.37657E+01 +6.17587E+00 -1.25956E+01 +9.53295E+00 -1.02262E+01
 +1.19283E+01 -6.95138E+00 +1.31384E+01 -3.16601E+00 +1.30994E+01 +6.95578E-01 +1.19038E+01 +4.22216E+00
 +9.77333E+00 +7.07919E+00 +7.01590E+00 +9.04529E+00 +3.97396E+00 +1.00273E+01 +9.75373E-01 +1.00545E+01
 -1.70604E+00 +9.25489E+00 -3.87500E+00 +7.82177E+00 -5.42261E+00 +5.97686E+00 -6.31970E+00 +3.93778E+00
 -6.59988E+00 +1.89459E+00 -6.33825E+00 -2.46280E-03 -5.63118E+00 -1.64467E+00 -4.58127E+00 -2.95917E+00
 -3.28934E+00 -3.89995E+00 -1.85289E+00 -4.43972E+00 -3.68681E-01 -4.56556E+00 +1.06385E+00 -4.27959E+00
 +2.34173E+00 -3.60365E+00 +3.36212E+00 -2.58565E+00 +4.03108E+00 -1.30435E+00 +4.27598E+00 +1.30385E-01
 +4.05878E+00 +1.58368E+00 +3.38672E+00 +2.90825E+00 +2.31717E+00 +3.96180E+00 +9.54856E-01 +4.62621E+00
 -5.59190E-01 +4.82461E+00 -2.06505E+00 +4.53301E+00 -3.40492E+00 +3.78374E+00 -4.44376E+00 +2.66027E+00
 -5.08579E+00 +1.28420E+00 -5.28409E+00 -2.02804E-01 -5.04199E+00 -1.65855E+00 -4.40674E+00 -2.95779E+00
 -3.45742E+00 -4.00455E+00 -2.29026E+00 -4.73786E+00 -1.00457E+00 -5.13084E+00 +3.08020E-01 -5.18470E+00
 +1.56942E+00 -4.92005E+00 +2.71587E+00 -4.36851E+00 +3.69505E+00 -3.56670E+00 +4.46148E+00 -2.55415E+00
 +4.97277E+00 -1.37496E+00 +5.18879E+00 -8.21012E-02 +5.07473E+00 +1.25792E+00 +4.60793E+00 +2.56239E+00
 +3.78702E+00 +3.73374E+00 +2.64103E+00 +4.66607E+00 +1.23563E+00 +5.25656E+00 -3.25710E-01 +5.42035E+00
 -1.90724E+00 +5.10613E+00 -3.35336E+00 +4.30953E+00 -4.50657E+00 +3.08118E+00 -5.22859E+00 +1.52716E+00
 -5.42117E+00 -1.98992E-01 -5.04308E+00 -1.91250E+00 -4.12022E+00 -3.41961E+00 -2.74654E+00 -4.54295E+00
 -1.07522E+00 -5.14609E+00 +6.99144E-01 -5.15362E+00 +2.36508E+00 -4.56334E+00 +3.72201E+00 -3.44859E+00
 +4.60738E+00 -1.94998E+00 +4.91905E+00 -2.57443E-01 +4.62959E+00 +1.41499E+00 +3.79030E+00 +2.85819E+00
 +2.52402E+00 +3.89653E+00 +1.00783E+00 +4.41190E+00 -5.52188E-01 +4.35956E+00 -1.95032E+00 +3.77344E+00
 -3.01052E+00 +2.75990E+00 -3.61117E+00 +1.48089E+00 -3.70156E+00 +1.28839E-01 -3.30753E+00 -1.10270E+00
 -2.52527E+00 -2.04844E+00 -1.50426E+00 -2.59584E+00 -4.22097E-01 -2.70111E+00 +5.45015E-01 -2.39384E+00
 +1.25100E+00 -1.76968E+00 +1.60337E+00 -9.72163E-01 +1.57738E+00 -1.66715E-01 +1.21852E+00 +4.88847E-01
 +6.32754E-01 +8.72222E-01 -3.36561E-02 +9.18192E-01 -6.21472E-01 +6.30053E-01 -9.88133E-01 +7.88666E-02
 -1.03458E+00 -6.09429E-01 -7.24505E-01 -1.27686E+00 -9.26275E-02 -1.76228E+00 +7.59626E-01 -1.93128E+00
 +1.68032E+00 -1.70190E+00 +2.49240E+00 -1.06164E+00 +3.02404E+00 -7.28229E-02 +3.13873E+00 +1.13465E+00
 +2.76012E+00 +2.38212E+00 +1.88757E+00 +3.46932E+00 +5.99776E-01 +4.20557E+00 -9.53944E-01 +4.44010E+00
 -2.57329E+00 +4.08660E+00 -4.03451E+00 +3.13872E+00 -5.12160E+00 +1.67405E+00 -5.65677E+00 -1.53540E-01
 -5.52603E+00 -2.13202E+00 -4.69666E+00 -4.01718E+00 -3.22448E+00 -5.56303E+00 -1.25028E+00 -6.55294E+00
 +1.01406E+00 -6.82788E+00 +3.30836E+00 -6.30877E+00 +5.35340E+00 -5.01025E+00 +6.88391E+00 -3.04430E+00
 +7.68187E+00 -6.12753E-01 +7.60676E+00 +2.01146E+00 +6.61889E+00 +4.51310E+00 +4.79249E+00 +6.57145E+00
 +2.31548E+00 +7.90148E+00 -5.25757E-01 +8.29477E+00 -3.37668E+00 +7.65443E+00 -5.85790E+00 +6.01827E+00
 -7.61693E+00 +3.56504E+00 -8.38152E+00 +6.00430E-01 -8.00653E+00 -2.47780E+00 -6.50576E+00 -5.23253E+00
 -4.06176E+00 -7.25135E+00 -1.00929E+00 -8.21262E+00 +2.20755E+00 -7.94233E+00 +5.09981E+00 -6.45109E+00
 +7.21049E+00 -3.94290E+00 +8.19123E+00 -7.91718E-01 +7.86523E+00 +2.51262E+00 +6.26409E+00 +5.44148E+00
 +3.63024E+00 +7.51535E+00 +3.82560E-01 +8.38698E+00 -2.95058E+00 +7.90468E+00 -5.81994E+00 +6.14299E+00
 -7.75040E+00 +3.39392E+00 -8.42491E+00 +1.19053E-01 -7.74163E+00 -3.12978E+00 -5.83297E+00 -5.80719E+00
 -3.04246E+00 -7.47062E+00 +1.36767E-01 -7.85848E+00 +3.15063E+00 -6.93523E+00 +5.48323E+00 -4.89525E+00
 +6.74800E+00 -2.12477E+00 +6.75379E+00 +8.70378E-01 +5.53416E+00 +3.55706E+00 +3.33517E+00 +5.46955E+00
 +5.65475E-01 +6.28884E+00 -2.28079E+00 +5.89245E+00 -4.71244E+00 +4.36695E+00 -6.32421E+00 +1.98280E+00
 -6.85919E+00 -8.61091E-01 -6.24089E+00 -3.71079E+00 -4.57178E+00 -6.13353E+00 -2.10200E+00 -7.78249E+00
 +8.22275E-01 -8.43967E+00 +3.81876E+00 -8.03229E+00 +6.52472E+00 -6.62380E+00 +8.63918E+00 -4.38639E+00
 +9.94671E+00 -1.56412E+00 +1.03235E+01 +1.56345E+00 +9.73080E+00 +4.70999E+00 +8.20223E+00 +7.60040E+00
 +5.83338E+00 +9.97941E+00 +2.77701E+00 +1.16159E+01 -7.55236E-01 +1.23099E+01 -4.48863E+00 +1.19065E+01
 -8.08588E+00 +1.03214E+01 -1.11603E+01 +7.57211E+00 -1.33075E+01 +3.81005E+00 -1.41564E+01 -6.59221E-01
 -1.34353E+01 -5.37804E+00 -1.10405E+01 -9.76968E+00 -7.09268E+00 -1.32048E+01 -1.96474E+00 -1.50952E+01
 +3.73320E+00 -1.50015E+01 +9.21664E+00 -1.27339E+01 +1.36343E+01 -8.42436E+00 +1.62055E+01 -2.54955E+00
 +1.63648E+01 +4.10695E+00 +1.38851E+01 +1.05547E+01 +8.95308E+00 +1.57467E+01 +2.17592E+00 +1.87553E+01
 -5.48797E+00 +1.89439E+01 -1.28686E+01 +1.60988E+01 -1.87729E+01 +1.04945E+01 -2.21890E+01 +2.87413E+00
 -2.24703E+01 -5.65554E+00 -1.94606E+01 -1.38003E+01 -1.35370E+01 -2.02948E+01 -5.55720E+00 -2.41205E+01
 +3.28019E+00 -2.46839E+01 +1.16391E+01 -2.19210E+01 +1.82756E+01 -1.63077E+01 +2.22504E+01 -8.77224E+00
 +2.30851E+01 -5.27164E-01 +2.08328E+01 +7.14735E+00 +1.60507E+01 +1.31280E+01 +9.68145E+00 +1.66376E+01
 +2.86885E+00 +1.73639E+01 -3.25580E+00 +1.54887E+01 -7.77438E+00 +1.16228E+01 -1.01316E+01 +6.66641E+00
 -1.02073E+01 +1.62241E+00 -8.30145E+00 -2.59554E+00 -5.03982E+00 -5.32413E+00 -1.22529E+00 -6.24963E+00
 +2.33258E+00 -5.43044E+00 +4.97271E+00 -3.24413E+00 +6.29211E+00 -2.76311E-01 +6.19105E+00 +2.82012E+00
 +4.85073E+00 +5.46293E+00 +2.65484E+00 +7.24597E+00 +7.86752E-02 +7.99254E+00 -2.42562E+00 +7.75038E+00
 -4.52046E+00 +6.73647E+00 -6.03160E+00 +5.25097E+00 -6.94744E+00 +3.58570E+00 -7.37496E+00 +1.95181E+00
 -7.46947E+00 +4.44417E-01 -7.36135E+00 -9.49421E-01 -7.10239E+00 -2.30533E+00 -6.64823E+00 -3.69559E+00
 -5.88196E+00 -5.12487E+00 -4.67194E+00 -6.49010E+00 -2.94611E+00 -7.57970E+00 -7.58945E-01 -8.11684E+00
 +1.67194E+00 -7.83791E+00 +3.97615E+00 -6.58638E+00 +5.69200E+00 -4.39573E+00 +6.36948E+00 -1.53508E+00
 +5.69243E+00 +1.50137E+00 +3.58972E+00 +4.06739E+00 +3.04550E-01 +5.49057E+00 -3.60188E+00 +5.22695E+00
 -7.32254E+00 +3.01023E+00 -9.94539E+00 -1.04096E+00 -1.06383E+01 -6.38820E+00 -8.84088E+00 -1.21273E+01
 -4.42141E+00 -1.71293E+01 +2.24068E+00 -2.02456E+01 +1.02704E+01 -2.05396E+01 +1.84175E+01 -1.74976E+01
 +2.52634E+01 -1.11720E+01 +2.94805E+01 -2.22341E+00 +3.00910E+01 +8.15538E+00 +2.66758E+01 +1.84243E+01
 +1.94870E+01 +2.69591E+01 +9.43700E+00 +3.23440E+01 -2.03777E+00 +3.36368E+01 -1.32169E+01 +3.05544E+01
