 Created: 19-Jan-2021
 $NMID
 ID='D:\BASISSIMULATI'
 FMTDAT='(8E13.5)'
 VOLUME=   1.00000E+00
 TRAMP=   1.00000E+00
 $END
 +2.94720E+01 +4.51086E+00 +2.76665E+01 +1.09824E+01 +2.43624E+01 +1.68063E+01 +1.97825E+01 +2.16256E+01
 +1.42350E+01 +2.51576E+01 +8.08897E+00 +2.72139E+01 +1.74610E+00 +2.77126E+01 -4.39003E+00 +2.66822E+01
 -9.94402E+00 +2.42563E+01 -1.45958E+01 +2.06605E+01 -1.81030E+01 +1.61930E+01 -2.03161E+01 +1.11988E+01
 -2.11864E+01 +6.04207E+00 -2.07656E+01 +1.07754E+00 -1.91971E+01 -3.37668E+00 -1.67008E+01 -7.06218E+00
 -1.35515E+01 -9.79773E+00 -1.00549E+01 -1.14900E+01 -6.52014E+00 -1.21364E+01 -3.23505E+00 -1.18207E+01
 -4.42486E-01 -1.07014E+01 +1.67771E+00 -8.99417E+00 +3.02114E+00 -6.95035E+00 +3.56426E+00 -4.83290E+00
 +3.36271E+00 -2.89238E+00 +2.54273E+00 -1.34467E+00 +1.28671E+00 -3.52463E-01 -1.85785E-01 -1.19809E-02
 -1.63983E+00 -3.45895E-01 -2.84777E+00 -1.30298E+00 -3.61076E+00 -2.76436E+00 -3.77731E+00 -4.55567E+00
 -3.25739E+00 -6.46400E+00 -2.03080E+00 -8.25807E+00 -1.49322E-01 -9.70983E+00 +2.26754E+00 -1.06156E+01
 +5.04275E+00 -1.08150E+01 +7.95694E+00 -1.02061E+01 +1.07672E+01 -8.75505E+00 +1.32280E+01 -6.50054E+00
 +1.51122E+01 -3.55150E+00 +1.62302E+01 -7.90533E-02 +1.64471E+01 +3.69666E+00 +1.56936E+01 +7.52386E+00
 +1.39730E+01 +1.11390E+01 +1.13614E+01 +1.42874E+01 +8.00232E+00 +1.67437E+01 +4.09605E+00 +1.83290E+01
 -1.15733E-01 +1.89248E+01 -4.36822E+00 +1.84819E+01 -8.39353E+00 +1.70238E+01 -1.19406E+01 +1.46443E+01
 -1.47938E+01 +1.14998E+01 -1.67878E+01 +7.79692E+00 -1.78194E+01 +3.77613E+00 -1.78531E+01 -3.06232E-01
 -1.69224E+01 -4.19722E+00 -1.51249E+01 -7.66561E+00 -1.26136E+01 -1.05181E+01 -9.58322E+00 -1.26118E+01
 -6.25467E+00 -1.38633E+01 -2.85739E+00 -1.42513E+01 +3.87899E-01 -1.38165E+01 +3.28518E+00 -1.26543E+01
 +5.67660E+00 -1.09056E+01 +7.45231E+00 -8.74352E+00 +8.55607E+00 -6.35783E+00 +8.98642E+00 -3.93977E+00
 +8.79337E+00 -1.66673E+00 +8.07116E+00 +3.10907E-01 +6.94777E+00 +1.88015E+00 +5.57224E+00 +2.97218E+00
 +4.10088E+00 +3.56519E+00 +2.68355E+00 +3.68314E+00 +1.45119E+00 +3.39073E+00 +5.05548E-01 +2.78523E+00
 -8.81204E-02 +1.98586E+00 -3.04860E-01 +1.12177E+00 -1.60186E-01 +3.19781E-01 +2.93283E-01 -3.07293E-01
 +9.72303E-01 -6.70529E-01 +1.77194E+00 -7.12362E-01 +2.57609E+00 -4.11038E-01 +3.26870E+00 +2.18228E-01
 +3.74458E+00 +1.12538E+00 +3.91909E+00 +2.23066E+00 +3.73573E+00 +3.43219E+00 +3.17115E+00 +4.61533E+00
 +2.23725E+00 +5.66303E+00 +9.80143E-01 +6.46609E+00 -5.23710E-01 +6.93271E+00 -2.17386E+00 +6.99635E+00
 -3.85414E+00 +6.62147E+00 -5.44217E+00 +5.80656E+00 -6.81916E+00 +4.58444E+00 -7.87932E+00 +3.01972E+00
 -8.53813E+00 +1.20382E+00 -8.73878E+00 -7.52025E-01 -8.45636E+00 -2.72525E+00 -7.69950E+00 -4.59111E+00
 -6.50946E+00 -6.23179E+00 -4.95680E+00 -7.54489E+00 -3.13586E+00 -8.45047E+00 -1.15772E+00 -8.89626E+00
 +8.57907E-01 -8.86080E+00 +2.79117E+00 -8.35408E+00 +4.53028E+00 -7.41606E+00 +5.97887E+00 -6.11300E+00
 +7.06194E+00 -4.53207E+00 +7.73010E+00 -2.77476E+00 +7.96181E+00 -9.49539E-01 +7.76356E+00 +8.35685E-01
 +7.16814E+00 +2.48060E+00 +6.23113E+00 +3.89872E+00 +5.02603E+00 +5.02228E+00 +3.63850E+00 +5.80560E+00
 +2.15997E+00 +6.22671E+00 +6.81430E-01 +6.28732E+00 -7.12517E-01 +6.01109E+00 -1.94865E+00 +5.44063E+00
 -2.96906E+00 +4.63333E+00 -3.73379E+00 +3.65658E+00 -4.22199E+00 +2.58263E+00 -4.43182E+00 +1.48346E+00
 -4.37892E+00 +4.26162E-01 -4.09399E+00 -5.31026E-01 -3.61948E+00 -1.34180E+00 -3.00571E+00 -1.97377E+00
 -2.30690E+00 -2.40935E+00 -1.57718E+00 -2.64562E+00 -8.66994E-01 -2.69315E+00 -2.20026E-01 -2.57406E+00
 +3.29147E-01 -2.31949E+00 +7.56602E-01 -1.96660E+00 +1.04978E+00 -1.55549E+00 +1.20735E+00 -1.12612E+00
 +1.23840E+00 -7.15479E-01 +1.16087E+00 -3.55199E-01 +9.99644E-01 -6.96421E-02 +7.84162E-01 +1.25368E-01
 +5.45967E-01 +2.23171E-01 +3.16190E-01 +2.26252E-01 +1.23195E-01 +1.45600E-01 -9.50108E-03 -4.72900E-04
 -6.49137E-02 -1.87974E-01 -3.37988E-02 -3.89222E-01 +8.46834E-02 -5.75055E-01 +2.82879E-01 -7.17134E-01
 +5.45133E-01 -7.90189E-01 +8.48829E-01 -7.74092E-01 +1.16594E+00 -6.55605E-01 +1.46499E+00 -4.29716E-01
 +1.71332E+00 -1.00439E-01 +1.87954E+00 +3.18974E-01 +1.93602E+00 +8.06459E-01 +1.86121E+00 +1.33221E+00
 +1.64176E+00 +1.86034E+00 +1.27405E+00 +2.35112E+00 +7.65298E-01 +2.76358E+00 +1.33824E-01 +3.05839E+00
 -5.91337E-01 +3.20091E+00 -1.37168E+00 +3.16395E+00 -2.16123E+00 +2.93042E+00 -2.90918E+00 +2.49526E+00
 -3.56312E+00 +1.86675E+00 -4.07257E+00 +1.06698E+00 -4.39263E+00 +1.31291E-01 -4.48751E+00 -8.93165E-01
 -4.33365E+00 -1.94989E+00 -3.92212E+00 -2.97630E+00 -3.26021E+00 -3.90757E+00 -2.37191E+00 -4.68100E+00
 -1.29730E+00 -5.24035E+00 -9.06696E-02 -5.54008E+00 +1.18242E+00 -5.54896E+00 +2.44901E+00 -5.25293E+00
 +3.63338E+00 -4.65682E+00 +4.66203E+00 -3.78486E+00 +5.46883E+00 -2.67974E+00 +5.99970E+00 -1.40045E+00
 +6.21676E+00 -1.87133E-02 +6.10132E+00 +1.38550E+00 +5.65569E+00 +2.72923E+00 +4.90345E+00 +3.93217E+00
 +3.88826E+00 +4.92226E+00 +2.67111E+00 +5.64076E+00 +1.32630E+00 +6.04654E+00 -6.36658E-02 +6.11907E+00
 -1.41385E+00 +5.85999E+00 -2.64291E+00 +5.29301E+00 -3.67891E+00 +4.46223E+00 -4.46448E+00 +3.42877E+00
 -4.96090E+00 +2.26626E+00 -5.15077E+00 +1.05523E+00 -5.03903E+00 -1.23013E-01 -4.65222E+00 -1.19252E+00
 -4.03609E+00 -2.08848E+00 -3.25165E+00 -2.76204E+00 -2.36999E+00 -3.18388E+00 -1.46636E+00 -3.34614E+00
 -6.13855E-01 -3.26256E+00 +1.22620E-01 -2.96693E+00 +6.91741E-01 -2.50973E+00 +1.05994E+00 -1.95344E+00
 +1.21408E+00 -1.36681E+00 +1.16236E+00 -8.18553E-01 +9.33312E-01 -3.71112E-01 +5.73083E-01 -7.48573E-02
 +1.41061E-01 +3.66301E-02 -2.95679E-01 -5.01694E-02 -6.68704E-01 -3.27194E-01 -9.14755E-01 -7.65199E-01
 -9.81951E-01 -1.31607E+00 -8.35075E-01 -1.91687E+00 -4.59510E-01 -2.49533E+00 +1.36577E-01 -2.97631E+00
 +9.22023E-01 -3.28869E+00 +1.84448E+00 -3.37212E+00 +2.83415E+00 -3.18301E+00 +3.80917E+00 -2.69933E+00
 +4.68223E+00 -1.92359E+00 +5.36785E+00 -8.83870E-01 +5.78979E+00 +3.67258E-01 +5.88793E+00 +1.75599E+00
 +5.62395E+00 +3.19238E+00 +4.98549E+00 +4.57694E+00 +3.98823E+00 +5.80826E+00 +2.67580E+00 +6.79094E+00
 +1.11732E+00 +7.44335E+00 -5.97006E-01 +7.70439E+00 -2.36226E+00 +7.53882E+00 -4.06634E+00 +6.94066E+00
 -5.59830E+00 +5.93430E+00 -6.85670E+00 +4.57333E+00 -7.75730E+00 +2.93695E+00 -8.23960E+00 +1.12444E+00
 -8.27146E+00 -7.52014E-01 -7.85170E+00 -2.57558E+00 -7.01019E+00 -4.23337E+00 -5.80556E+00 -5.62481E+00
 -4.32075E+00 -6.66899E+00 -2.65656E+00 -7.31049E+00 -9.23972E-01 -7.52317E+00 +7.64372E-01 -7.31167E+00
 +2.30265E+00 -6.71044E+00 +3.59975E+00 -5.78049E+00 +4.58588E+00 -4.60398E+00 +5.21734E+00 -3.27732E+00
 +5.47914E+00 -1.90319E+00 +5.38527E+00 -5.82184E-01 +4.97654E+00 +5.95166E-01 +4.31632E+00 +1.55540E+00
 +3.48445E+00 +2.24758E+00 +2.56996E+00 +2.64672E+00 +1.66306E+00 +2.75499E+00 +8.47340E-01 +2.60053E+00
 +1.92542E-01 +2.23408E+00 -2.51222E-01 +1.72371E+00 -4.57504E-01 +1.14813E+00 -4.25372E-01 +5.89107E-01
 -1.78999E-01 +1.23800E-01 +2.35001E-01 -1.82513E-01 +7.52219E-01 -2.82530E-01 +1.29668E+00 -1.51397E-01
 +1.78809E+00 +2.10850E-01 +2.14950E+00 +7.79088E-01 +2.31468E+00 +1.50515E+00 +2.23457E+00 +2.32198E+00
 +1.88228E+00 +3.14944E+00 +1.25617E+00 +3.90146E+00 +3.80665E-01 +4.49365E+00 -6.95068E-01 +4.85100E+00
 -1.90076E+00 +4.91480E+00 -3.15044E+00 +4.64827E+00 -4.34935E+00 +4.04043E+00 -5.40166E+00 +3.10780E+00
 -6.21839E+00 +1.89384E+00 -6.72490E+00 +4.66114E-01 -6.86726E+00 -1.08852E+00 -6.61704E+00 -2.67045E+00
 -5.97400E+00 -4.17486E+00 -4.96663E+00 -5.49983E+00 -3.65031E+00 -6.55420E+00 -2.10334E+00 -7.26469E+00
 -4.21158E-01 -7.58152E+00 +1.29080E+00 -7.48227E+00 +2.92503E+00 -6.97349E+00 +4.37996E+00 -6.09012E+00
 +5.56748E+00 -4.89265E+00 +6.41931E+00 -3.46228E+00 +6.89179E+00 -1.89463E+00 +6.96859E+00 -2.92310E-01
 +6.66137E+00 +1.24284E+00 +6.00808E+00 +2.61737E+00 +5.06941E+00 +3.75291E+00 +3.92342E+00 +4.59164E+00
 +2.65896E+00 +5.09988E+00 +1.36850E+00 +5.26971E+00 +1.40802E-01 +5.11851E+00 -9.45806E-01 +4.68644E+00
 -1.82914E+00 +4.03219E+00 -2.46730E+00 +3.22738E+00 -2.84106E+00 +2.35008E+00 -2.95421E+00 +1.47809E+00
 -2.83206E+00 +6.82398E-01 -2.51811E+00 +2.15773E-02 -2.06937E+00 -4.62650E-01 -1.55062E+00 -7.48190E-01
 -1.02828E+00 -8.33569E-01 -5.64274E-01 -7.37095E-01 -2.10587E-01 -4.94312E-01 -4.78245E-03 -1.54001E-01
 +3.30146E-02 +2.26868E-01 -9.84926E-02 +5.88793E-01 -3.82106E-01 +8.75475E-01 -7.84126E-01 +1.03915E+00
 -1.25779E+00 +1.04503E+00 -1.74782E+00 +8.74538E-01 -2.19570E+00 +5.27015E-01 -2.54515E+00 +1.97944E-02
 -2.74736E+00 -6.13302E-01 -2.76550E+00 -1.32493E+00 -2.57821E+00 -2.05837E+00 -2.18161E+00 -2.75244E+00
 -1.58992E+00 -3.34680E+00 -8.34357E-01 -3.78715E+00 +3.92321E-02 -4.02989E+00 +9.74102E-01 -4.04585E+00
 +1.90715E+00 -3.82274E+00 +2.77398E+00 -3.36633E+00 +3.51402E+00 -2.69995E+00 +4.07529E+00 -1.86269E+00
 +4.41838E+00 -9.06309E-01 +4.51939E+00 +1.08807E-01 +4.37162E+00 +1.11835E+00 +3.98578E+00 +2.05895E+00
 +3.38889E+00 +2.87292E+00 +2.62195E+00 +3.51238E+00 +1.73651E+00 +3.94254E+00 +7.90606E-01 +4.14385E+00
 -1.55715E-01 +4.11288E+00 -1.04482E+00 +3.86198E+00 -1.82557E+00 +3.41770E+00 -2.45673E+00 +2.81818E+00
 -2.90943E+00 +2.10980E+00 -3.16856E+00 +1.34336E+00 -3.23304E+00 +5.70167E-01 -3.11497E+00 -1.61789E-01
 -2.83788E+00 -8.11041E-01 -2.43411E+00 -1.34522E+00 -1.94179E+00 -1.74270E+00 -1.40150E+00 -1.99333E+00
 -8.53081E-01 -2.09813E+00 -3.32700E-01 -2.06824E+00 +1.29518E-01 -1.92304E+00 +5.11165E-01 -1.68784E+00
 +7.98447E-01 -1.39134E+00 +9.86288E-01 -1.06294E+00 +1.07771E+00 -7.30399E-01 +1.08258E+00 -4.17771E-01
 +1.01594E+00 -1.43953E-01 +8.96090E-01 +7.81982E-02 +7.42535E-01 +2.42106E-01 +5.74184E-01 +3.47126E-01
 +4.07752E-01 +3.97698E-01 +2.56603E-01 +4.02152E-01 +1.30061E-01 +3.71290E-01 +3.32104E-02 +3.16937E-01
 -3.28535E-02 +2.50592E-01 -7.04011E-02 +1.82310E-01 -8.41819E-02 +1.19913E-01 -8.04043E-02 +6.85588E-02
 -6.57097E-02 +3.06873E-02 -4.62608E-02 +6.29923E-03 -2.70379E-02 -6.51202E-03 -1.14039E-02 -1.08640E-02
