 Created: 19-Jan-2021
 $NMID
 ID='D:\BASISSIMULATI'
 FMTDAT='(8E13.5)'
 VOLUME=   1.00000E+00
 TRAMP=   1.00000E+00
 $END
 +4.00379E+01 +9.32609E+00 +3.21478E+01 +2.45063E+01 +1.87806E+01 +3.46408E+01 +2.80974E+00 +3.79650E+01
 -1.24732E+01 +3.42353E+01 -2.41153E+01 +2.47155E+01 -3.01476E+01 +1.18096E+01 -2.99660E+01 -1.55460E+00
 -2.43676E+01 -1.26306E+01 -1.52512E+01 -1.94690E+01 -5.07539E+00 -2.12991E+01 +3.77820E+00 -1.85942E+01
 +9.57005E+00 -1.28284E+01 +1.15605E+01 -6.00422E+00 +1.00841E+01 -8.94023E-02 +6.34266E+00 +3.48722E+00
 +1.99154E+00 +4.15517E+00 -1.35725E+00 +2.26778E+00 -2.57865E+00 -1.08440E+00 -1.31130E+00 -4.44406E+00
 +1.99384E+00 -6.42962E+00 +6.24980E+00 -6.12641E+00 +1.00720E+01 -3.32565E+00 +1.21775E+01 +1.44228E+00
 +1.17336E+01 +7.07517E+00 +8.56896E+00 +1.22089E+01 +3.19838E+00 +1.55780E+01 -3.32898E+00 +1.63298E+01
 -9.70659E+00 +1.42131E+01 -1.46904E+01 +9.60493E+00 -1.73766E+01 +3.38207E+00 -1.73709E+01 -3.31345E+00
 -1.48197E+01 -9.34447E+00 -1.03122E+01 -1.38123E+01 -4.69691E+00 -1.62000E+01 +1.12818E+00 -1.64045E+01
 +6.39263E+00 -1.46684E+01 +1.05587E+01 -1.14504E+01 +1.33422E+01 -7.28361E+00 +1.46653E+01 -2.66625E+00
 +1.45761E+01 +1.99116E+00 +1.31742E+01 +6.35979E+00 +1.05740E+01 +1.01501E+01 +6.91608E+00 +1.30667E+01
 +2.41470E+00 +1.47923E+01 -2.58629E+00 +1.50203E+01 -7.58489E+00 +1.35327E+01 -1.19467E+01 +1.02991E+01
 -1.49939E+01 +5.56149E+00 -1.61439E+01 -1.35110E-01 -1.50610E+01 -5.98995E+00 -1.17778E+01 -1.10742E+01
 -6.74223E+00 -1.45157E+01 -7.66756E-01 -1.56960E+01 +5.11838E+00 -1.44075E+01 +9.87859E+00 -1.09231E+01
 +1.27031E+01 -5.95461E+00 +1.31898E+01 -5.01462E-01 +1.14357E+01 +4.37371E+00 +8.00791E+00 +7.78900E+00
 +3.79804E+00 +9.24323E+00 -2.02208E-01 +8.71992E+00 -3.14741E+00 +6.66754E+00 -4.54190E+00 +3.86154E+00
 -4.34697E+00 +1.18505E+00 -2.96443E+00 -6.12662E-01 -1.10207E+00 -1.11503E+00 +4.41008E-01 -3.41139E-01
 +1.01010E+00 +1.27419E+00 +2.86796E-01 +3.01663E+00 -1.61534E+00 +4.10661E+00 -4.17731E+00 +3.93234E+00
 -6.61601E+00 +2.23744E+00 -8.10186E+00 -7.88466E-01 -7.99352E+00 -4.54119E+00 -6.02624E+00 -8.14768E+00
 -2.40305E+00 -1.06874E+01 +2.23583E+00 -1.14310E+01 +6.95770E+00 -1.00333E+01 +1.07584E+01 -6.63156E+00
 +1.28027E+01 -1.82263E+00 +1.26231E+01 +3.47210E+00 +1.02272E+01 +8.21973E+00 +6.09039E+00 +1.15116E+01
 +1.03715E+00 +1.27631E+01 -3.95415E+00 +1.18301E+01 -7.97306E+00 +9.01797E+00 -1.03702E+01 +4.98521E+00
 -1.08768E+01 +5.73546E-01 -9.62656E+00 -3.39103E+00 -7.08323E+00 -6.27499E+00 -3.89844E+00 -7.75090E+00
 -7.42369E-01 -7.82610E+00 +1.84851E+00 -6.78824E+00 +3.57011E+00 -5.09051E+00 +4.37709E+00 -3.21312E+00
 +4.43883E+00 -1.53998E+00 +4.04606E+00 -2.81586E-01 +3.49995E+00 +5.40756E-01 +3.01738E+00 +1.05297E+00
 +2.67798E+00 +1.44794E+00 +2.42379E+00 +1.89567E+00 +2.10610E+00 +2.47259E+00 +1.56035E+00 +3.13074E+00
 +6.82802E-01 +3.71381E+00 -5.15977E-01 +4.01227E+00 -1.89732E+00 +3.83818E+00 -3.22397E+00 +3.09537E+00
 -4.22308E+00 +1.82259E+00 -4.66297E+00 +1.96662E-01 -4.42052E+00 -1.50561E+00 -3.51909E+00 -2.97505E+00
 -2.12622E+00 -3.94767E+00 -5.12266E-01 -4.26992E+00 +1.01784E+00 -3.93341E+00 +2.19985E+00 -3.07037E+00
 +2.87171E+00 -1.91224E+00 +3.00457E+00 -7.24409E-01 +2.69643E+00 +2.64016E-01 +2.13179E+00 +9.15369E-01
 +1.52049E+00 +1.20904E+00 +1.03426E+00 +1.23177E+00 +7.59218E-01 +1.13724E+00 +6.77453E-01 +1.08825E+00
 +6.81853E-01 +1.19922E+00 +6.18698E-01 +1.49603E+00 +3.44591E-01 +1.90497E+00 -2.19483E-01 +2.27356E+00
 -1.05306E+00 +2.41699E+00 -2.03054E+00 +2.17680E+00 -2.94698E+00 +1.47468E+00 -3.56868E+00 +3.46232E-01
 -3.69485E+00 -1.05533E+00 -3.21399E+00 -2.48704E+00 -2.13980E+00 -3.66894E+00 -6.17130E-01 -4.34840E+00
 +1.10397E+00 -4.35993E+00 +2.71965E+00 -3.66564E+00 +3.93676E+00 -2.36678E+00 +4.53494E+00 -6.83793E-01
 +4.41196E+00 +1.08962E+00 +3.60246E+00 +2.64741E+00 +2.26695E+00 +3.73262E+00 +6.54795E-01 +4.18580E+00
 -9.49057E-01 +3.97057E+00 -2.28109E+00 +3.17234E+00 -3.14755E+00 +1.97253E+00 -3.45453E+00 +6.05772E-01
 -3.21543E+00 -6.89069E-01 -2.53651E+00 -1.71358E+00 -1.58607E+00 -2.34125E+00 -5.55710E-01 -2.53116E+00
 +3.77743E-01 -2.32344E+00 +1.08196E+00 -1.82002E+00 +1.48607E+00 -1.15681E+00 +1.58357E+00 -4.73791E-01
 +1.42300E+00 +1.10751E-01 +1.09016E+00 +5.17944E-01 +6.86574E-01 +7.16173E-01 +3.08536E-01 +7.19400E-01
 +3.02113E-02 +5.77885E-01 -1.07257E-01 +3.63982E-01 -9.98152E-02 +1.55908E-01 +2.19862E-02 +2.20490E-02
 +2.01086E-01 +7.94396E-03 +3.66193E-01 +1.27568E-01 +4.46517E-01 +3.60073E-01 +3.86876E-01 +6.52628E-01
 +1.60878E-01 +9.29337E-01 -2.20223E-01 +1.10538E+00 -7.05116E-01 +1.10454E+00 -1.20788E+00 +8.77204E-01
 -1.62141E+00 +4.15456E-01 -1.83733E+00 -2.38436E-01 -1.76928E+00 -9.92964E-01 -1.37496E+00 -1.71906E+00
 -6.72041E-01 -2.27166E+00 +2.56514E-01 -2.51784E+00 +1.27052E+00 -2.36633E+00 +2.19392E+00 -1.79194E+00
 +2.84648E+00 -8.49019E-01 +3.08003E+00 +3.30541E-01 +2.81188E+00 +1.55577E+00 +2.04775E+00 +2.60939E+00
 +8.88274E-01 +3.28902E+00 -4.83602E-01 +3.44864E+00 -1.83326E+00 +3.03147E+00 -2.91765E+00 +2.08664E+00
 -3.53281E+00 +7.65128E-01 -3.55588E+00 -7.05387E-01 -2.97242E+00 -2.06244E+00 -1.88278E+00 -3.05947E+00
 -4.85141E-01 -3.51507E+00 +9.61862E-01 -3.35029E+00 +2.18993E+00 -2.60600E+00 +2.97505E+00 -1.43586E+00
 +3.18324E+00 -7.57784E-02 +2.79835E+00 +1.20437E+00 +1.92530E+00 +2.15695E+00 +7.67590E-01 +2.60877E+00
 -4.16830E-01 +2.49806E+00 -1.37230E+00 +1.88735E+00 -1.90245E+00 +9.49085E-01 -1.91485E+00 -7.39695E-02
 -1.44261E+00 -9.25102E-01 -6.37304E-01 -1.39461E+00 +2.66341E-01 -1.37128E+00 +1.00672E+00 -8.71874E-01
 +1.36030E+00 -4.07436E-02 +1.19998E+00 +8.81825E-01 +5.32593E-01 +1.61649E+00 -4.94787E-01 +1.91458E+00
 -1.62301E+00 +1.62436E+00 -2.53875E+00 +7.37666E-01 -2.94994E+00 -5.95897E-01 -2.66149E+00 -2.09269E+00
 -1.63294E+00 -3.39348E+00 -2.87531E-03 -4.14489E+00 +1.92811E+00 -4.08570E+00 +3.75457E+00 -3.11766E+00
 +5.05253E+00 -1.34297E+00 +5.47646E+00 +9.42780E-01 +4.84455E+00 +3.30318E+00 +3.19178E+00 +5.24955E+00
 +7.76403E-01 +6.34681E+00 -1.96395E+00 +6.31293E+00 -4.49888E+00 +5.08879E+00 -6.31637E+00 +2.86107E+00
 -7.03417E+00 +3.10119E-02 -6.48563E+00 -2.86537E+00 -4.76002E+00 -5.26904E+00 -2.18705E+00 -6.71675E+00
 +7.31989E-01 -6.94019E+00 +3.43116E+00 -5.92258E+00 +5.40107E+00 -3.89979E+00 +6.29663E+00 -1.30545E+00
 +6.00695E+00 +1.32706E+00 +4.67169E+00 +3.48295E+00 +2.64085E+00 +4.77738E+00 +3.88236E-01 +5.03425E+00
 -1.60038E+00 +4.31484E+00 -2.93780E+00 +2.89082E+00 -3.41866E+00 +1.16949E+00 -3.05670E+00 -4.09812E-01
 -2.06828E+00 -1.48277E+00 -8.07913E-01 -1.84465E+00 +3.27385E-01 -1.49297E+00 +1.00089E+00 -6.18800E-01
 +1.02083E+00 +4.49476E-01 +3.86765E-01 +1.33531E+00 -7.12747E-01 +1.71329E+00 -1.94962E+00 +1.39432E+00
 -2.93984E+00 +3.76117E-01 -3.34047E+00 -1.15241E+00 -2.93643E+00 -2.85320E+00 -1.69688E+00 -4.31658E+00
 +2.11441E-01 -5.15559E+00 +2.45592E+00 -5.09499E+00 +4.60649E+00 -4.03510E+00 +6.22449E+00 -2.07724E+00
 +6.95208E+00 +4.93247E-01 +6.58353E+00 +3.26076E+00 +5.10491E+00 +5.75725E+00 +2.69635E+00 +7.54708E+00
 -3.00582E-01 +8.30260E+00 -3.44177E+00 +7.85749E+00 -6.25297E+00 +6.23097E+00 -8.30294E+00 +3.62182E+00
 -9.26605E+00 +3.76720E-01 -8.96737E+00 -3.06027E+00 -7.40625E+00 -6.20863E+00 -4.75796E+00 -8.61526E+00
 -1.35449E+00 -9.91508E+00 +2.35368E+00 -9.88261E+00 +5.85212E+00 -8.46971E+00 +8.62955E+00 -5.82392E+00
 +1.02517E+01 -2.28239E+00 +1.04330E+01 +1.66245E+00 +9.09496E+00 +5.42598E+00 +6.39803E+00 +8.41848E+00
 +2.73607E+00 +1.01451E+01 -1.31273E+00 +1.03015E+01 -5.07658E+00 +8.84586E+00 -7.91011E+00 +6.02627E+00
 -9.32241E+00 +2.35285E+00 -9.08551E+00 -1.48877E+00 -7.29644E+00 -4.76998E+00 -4.37250E+00 -6.87280E+00
 -9.73532E-01 -7.43088E+00 +2.13800E+00 -6.42273E+00 +4.27146E+00 -4.18986E+00 +4.97706E+00 -1.36812E+00
 +4.16706E+00 +1.25836E+00 +2.15393E+00 +2.95075E+00 -4.11193E-01 +3.21104E+00 -2.69268E+00 +1.92945E+00
 -3.88503E+00 -5.58958E-01 -3.43700E+00 -3.53103E+00 -1.22723E+00 -6.04075E+00 +2.35913E+00 -7.15901E+00
 +6.48198E+00 -6.23148E+00 +1.00238E+01 -3.08831E+00 +1.18583E+01 +1.85343E+00 +1.11474E+01 +7.63117E+00
 +7.59365E+00 +1.29237E+01 +1.57732E+00 +1.63485E+01 -5.86494E+00 +1.68020E+01 -1.32283E+01 +1.37606E+01
 -1.88596E+01 +7.46430E+00 -2.13398E+01 -1.07356E+00 -1.98367E+01 -1.02421E+01 -1.43416E+01 -1.81647E+01
 -5.72354E+00 -2.31140E+01 +4.42031E+00 -2.39143E+01 +1.40929E+01 -2.02324E+01 +2.13310E+01 -1.26843E+01
 +2.46460E+01 -2.72396E+00 +2.33646E+01 +7.66463E+00 +1.77882E+01 +1.64039E+01 +9.12740E+00 +2.17853E+01
 -7.73636E-01 +2.28486E+01 -9.85961E+00 +1.95863E+01 -1.63320E+01 +1.29245E+01 -1.90499E+01 +4.48515E+00
 -1.77683E+01 -3.81111E+00 -1.31564E+01 -1.02031E+01 -6.59752E+00 -1.34959E+01 +1.78611E-01 -1.33169E+01
 +5.53519E+00 -1.01615E+01 +8.32829E+00 -5.22202E+00 +8.16834E+00 -4.80846E-02 +5.48015E+00 +3.87144E+00
 +1.35176E+00 +5.49551E+00 -2.78382E+00 +4.48911E+00 -5.54745E+00 +1.28888E+00 -5.98791E+00 -3.03612E+00
 -3.83433E+00 -7.08760E+00 +4.36066E-01 -9.52237E+00 +5.72864E+00 -9.41590E+00 +1.06222E+01 -6.51102E+00
 +1.37410E+01 -1.28944E+00 +1.41101E+01 +5.14808E+00 +1.14027E+01 +1.13574E+01 +6.02003E+00 +1.59078E+01
 -1.01182E+00 +1.77262E+01 -8.29431E+00 +1.63431E+01 -1.43886E+01 +1.19832E+01 -1.81402E+01 +5.48464E+00
 -1.89165E+01 -1.91925E+00 -1.67037E+01 -8.89494E+00 -1.20524E+01 -1.42987E+01 -5.89926E+00 -1.73908E+01
 +6.76371E-01 -1.79296E+01 +6.69076E+00 -1.61351E+01 +1.14281E+01 -1.25538E+01 +1.45118E+01 -7.87374E+00
 +1.58739E+01 -2.75383E+00 +1.56527E+01 +2.28689E+00 +1.40679E+01 +6.89637E+00 +1.13242E+01 +1.08428E+01
 +7.57798E+00 +1.39295E+01 +2.97498E+00 +1.59188E+01 -2.26420E+00 +1.65094E+01 -7.75404E+00 +1.53862E+01
 -1.28996E+01 +1.23371E+01 -1.69346E+01 +7.39630E+00 -1.90525E+01 +9.61563E-01 -1.86053E+01 -6.17155E+00
 -1.53174E+01 -1.28915E+01 -9.44566E+00 -1.79693E+01 -1.82272E+00 -2.03358E+01 +6.24896E+00 -1.93661E+01
 +1.32474E+01 -1.50909E+01 +1.77734E+01 -8.26240E+00 +1.89006E+01 -2.38066E-01 +1.64361E+01 +7.30542E+00
