 Created: 19-Jan-2021
 $NMID
 ID='D:\BASISSIMULATI'
 FMTDAT='(8E13.5)'
 VOLUME=   1.00000E+00
 TRAMP=   1.00000E+00
 $END
 +7.00560E+01 +1.17738E+01 +6.66086E+01 +2.34291E+01 +6.06314E+01 +3.40325E+01 +5.24263E+01 +4.30758E+01
 +4.24026E+01 +5.01346E+01 +3.10535E+01 +5.48905E+01 +1.89295E+01 +5.71462E+01 +6.60772E+00 +5.68348E+01
 -5.33887E+00 +5.40205E+01 -1.63716E+01 +4.88928E+01 -2.60137E+01 +4.17533E+01 -3.38738E+01 +3.29971E+01
 -3.96638E+01 +2.30891E+01 -4.32109E+01 +1.25371E+01 -4.44626E+01 +1.86360E+00 -4.34844E+01 -8.42289E+00
 -4.04522E+01 -1.78540E+01 -3.56374E+01 -2.60252E+01 -2.93879E+01 -3.26143E+01 -2.21060E+01 -3.73957E+01
 -1.42234E+01 -4.02469E+01 -6.17638E+00 -4.11509E+01 +1.61881E+00 -4.01910E+01 +8.78744E+00 -3.75408E+01
 +1.50148E+01 -3.34497E+01 +2.00601E+01 -2.82245E+01 +2.37653E+01 -2.22090E+01 +2.60588E+01 -1.57625E+01
 +2.69537E+01 -9.23877E+00 +2.65413E+01 -2.96623E+00 +2.49803E+01 +2.76861E+00 +2.24827E+01 +7.73464E+00
 +1.92974E+01 +1.17653E+01 +1.56928E+01 +1.47635E+01 +1.19389E+01 +1.67015E+01 +8.29102E+00 +1.76176E+01
 +4.97485E+00 +1.76081E+01 +2.17482E+00 +1.68166E+01 +2.54683E-02 +1.54214E+01 -1.39349E+00 +1.36212E+01
 -2.05832E+00 +1.16207E+01 -1.99895E+00 +9.61670E+00 -1.29339E+00 +7.78593E+00 -5.94792E-02 +6.27440E+00
 +1.55530E+00 +5.18984E+00 +3.38533E+00 +4.59687E+00 +5.25878E+00 +4.51520E+00 +7.00926E+00 +4.92089E+00
 +8.48653E+00 +5.75018E+00 +9.56559E+00 +6.90582E+00 +1.01537E+01 +8.26504E+00 +1.01954E+01 +9.68888E+00
 +9.67421E+00 +1.10320E+01 +8.61303E+00 +1.21526E+01 +7.07120E+00 +1.29215E+01 +5.13997E+00 +1.32306E+01
 +2.93618E+00 +1.29990E+01 +5.94721E-01 +1.21786E+01 -1.73985E+00 +1.07560E+01 -3.92190E+00 +8.75382E+00
 -5.81312E+00 +6.22941E+00 -7.29030E+00 +3.27154E+00 -8.25207E+00 -4.25672E-03 -8.62435E+00 -3.46171E+00
 -8.36423E+00 -6.95082E+00 -7.46215E+00 -1.03155E+01 -5.94245E+00 -1.34012E+01 -3.86214E+00 -1.60627E+01
 -1.30816E+00 -1.81710E+01 +1.60683E+00 -1.96199E+01 +4.74979E+00 -2.03305E+01 +7.97358E+00 -2.02557E+01
 +1.11239E+01 -1.93823E+01 +1.40464E+01 -1.77318E+01 +1.65942E+01 -1.53600E+01 +1.86344E+01 -1.23544E+01
 +2.00547E+01 -8.83129E+00 +2.07688E+01 -4.93004E+00 +2.07209E+01 -8.07803E-01 +1.98882E+01 +3.36748E+00
 +1.82832E+01 +7.42432E+00 +1.59534E+01 +1.11953E+01 +1.29798E+01 +1.45243E+01 +9.47391E+00 +1.72740E+01
 +5.57312E+00 +1.93317E+01 +1.43517E+00 +2.06149E+01 -2.76885E+00 +2.10755E+01 -6.86199E+00 +2.07018E+01
 -1.06695E+01 +1.95198E+01 -1.40269E+01 +1.75920E+01 -1.67877E+01 +1.50153E+01 -1.88304E+01 +1.19157E+01
 -2.00647E+01 +8.44366E+00 -2.04359E+01 +4.76611E+00 -1.99278E+01 +1.05899E+00 -1.85642E+01 -2.50143E+00
 -1.64075E+01 -5.74716E+00 -1.35566E+01 -8.52686E+00 -1.01415E+01 -1.07133E+01 -6.31799E+00 -1.22099E+01
 -2.25920E+00 -1.29554E+01 +1.85240E+00 -1.29269E+01 +5.83418E+00 -1.21413E+01 +9.51251E+00 -1.06538E+01
 +1.27313E+01 -8.55472E+00 +1.53597E+01 -5.96517E+00 +1.72986E+01 -3.02979E+00 +1.84850E+01 +9.08849E-02
 +1.88948E+01 +3.22920E+00 +1.85436E+01 +6.21949E+00 +1.74845E+01 +8.90702E+00 +1.58049E+01 +1.11562E+01
 +1.36205E+01 +1.28579E+01 +1.10689E+01 +1.39347E+01 +8.30086E+00 +1.43448E+01 +5.47166E+00 +1.40838E+01
 +2.73237E+00 +1.31836E+01 +2.21291E-01 +1.17106E+01 -1.94357E+00 +9.76037E+00 -3.67068E+00 +7.45184E+00
 -4.89941E+00 +4.91977E+00 -5.60258E+00 +2.30642E+00 -5.78686E+00 -2.46912E-01 -5.49111E+00 -2.60826E+00
 -4.78279E+00 -4.66249E+00 -3.75270E+00 -6.31770E+00 -2.50828E+00 -7.51003E+00 -1.16617E+00 -8.20655E+00
 +1.55792E-01 -8.40631E+00 +1.34637E+00 -8.13925E+00 +2.30820E+00 -7.46318E+00 +2.96402E+00 -6.45918E+00
 +3.26141E+00 -5.22550E+00 +3.17593E+00 -3.87051E+00 +2.71226E+00 -2.50523E+00 +1.90351E+00 -1.23571E+00
 +8.08548E-01 -1.56004E-01 -4.92206E-01 +6.58057E-01 -1.90250E+00 +1.15369E+00 -3.31688E+00 +1.30448E+00
 -4.62797E+00 +1.11181E+00 -5.73374E+00 +6.04533E-01 -6.54452E+00 -1.63261E-01 -6.98912E+00 -1.11611E+00
 -7.01976E+00 -2.16245E+00 -6.61551E+00 -3.20096E+00 -5.78399E+00 -4.12752E+00 -4.56127E+00 -4.84243E+00
 -3.00997E+00 -5.25730E+00 -1.21559E+00 -5.30127E+00 +7.18457E-01 -4.92623E+00 +2.67712E+00 -4.11050E+00
 +4.54061E+00 -2.86097E+00 +6.19173E+00 -1.21349E+00 +7.52302E+00 +7.68617E-01 +8.44341E+00 +2.99764E+00
 +8.88392E+00 +5.36615E+00 +8.80209E+00 +7.75285E+00 +8.18487E+00 +1.00294E+01 +7.04981E+00 +1.20676E+01
 +5.44449E+00 +1.37468E+01 +3.44419E+00 +1.49608E+01 +1.14803E+00 +1.56243E+01 -1.32634E+00 +1.56776E+01
 -3.84904E+00 +1.50909E+01 -6.28506E+00 +1.38657E+01 -8.50156E+00 +1.20358E+01 -1.03751E+01 +9.66595E+00
 -1.17986E+01 +6.84835E+00 -1.26869E+01 +3.69864E+00 -1.29817E+01 +3.49949E-01 -1.26547E+01 -3.05369E+00
 -1.17095E+01 -6.36458E+00 -1.01810E+01 -9.43882E+00 -8.13435E+00 -1.21434E+01 -5.66141E+00 -1.43629E+01
 -2.87595E+00 -1.60050E+01 +9.19726E-02 -1.70052E+01 +3.10269E+00 -1.73295E+01 +6.01397E+00 -1.69759E+01
 +8.68821E+00 -1.59743E+01 +1.09993E+01 -1.43844E+01 +1.28388E+01 -1.22926E+01 +1.41213E+01 -9.80712E+00
 +1.47886E+01 -7.05247E+00 +1.48117E+01 -4.16284E+00 +1.41929E+01 -1.27537E+00 +1.29645E+01 +1.47680E+00
 +1.11869E+01 +3.97101E+00 +8.94549E+00 +6.10106E+00 +6.34580E+00 +7.78205E+00 +3.50784E+00 +8.95419E+00
 +5.59918E-01 +9.58510E+00 -2.36787E+00 +9.67070E+00 -5.15021E+00 +9.23462E+00 -7.67268E+00 +8.32608E+00
 -9.83718E+00 +7.01653E+00 -1.15664E+01 +5.39523E+00 -1.28070E+01 +3.56389E+00 -1.35318E+01 +1.63082E+00
 -1.37398E+01 -2.95077E-01 -1.34558E+01 -2.11030E+00 -1.27275E+01 -3.72217E+00 -1.16228E+01 -5.05363E+00
 -1.02247E+01 -6.04694E+00 -8.62632E+00 -6.66630E+00 -6.92563E+00 -6.89905E+00 -5.21947E+00 -6.75566E+00
 -3.59832E+00 -6.26828E+00 -2.14137E+00 -5.48817E+00 -9.12468E-01 -4.48202E+00 +4.29244E-02 -3.32754E+00
 +6.99607E-01 -2.10843E+00 +1.05326E+00 -9.09212E-01 +1.11979E+00 +1.89926E-01 +9.33494E-01 +1.11790E+00
 +5.44109E-01 +1.81681E+00 +1.30632E-02 +2.24519E+00 -5.90955E-01 +2.38015E+00 -1.19675E+00 +2.21837E+00
 -1.73543E+00 +1.77586E+00 -2.14497E+00 +1.08661E+00 -2.37427E+00 +2.00070E-01 -2.38645E+00 -8.22198E-01
 -2.16122E+00 -1.91060E+00 -1.69611E+00 -2.99198E+00 -1.00665E+00 -3.99433E+00 -1.25351E-01 -4.85124E+00
 +9.00338E-01 -5.50605E+00 +2.01102E+00 -5.91534E+00 +3.13906E+00 -6.05151E+00 +4.21275E+00 -5.90447E+00
 +5.16082E+00 -5.48213E+00 +5.91675E+00 -4.80989E+00 +6.42298E+00 -3.92906E+00 +6.63440E+00 -2.89429E+00
 +6.52122E+00 -1.77026E+00 +6.07088E+00 -6.27832E-01 +5.28894E+00 +4.60247E-01 +4.19899E+00 +1.42359E+00
 +2.84142E+00 +2.19832E+00 +1.27132E+00 +2.73083E+00 -4.44421E-01 +2.98084E+00 -2.23078E+00 +2.92378E+00
 -4.00854E+00 +2.55215E+00 -5.69856E+00 +1.87597E+00 -7.22589E+00 +9.22240E-01 -8.52373E+00 -2.66563E-01
 -9.53682E+00 -1.63483E+00 -1.02242E+01 -3.11685E+00 -1.05613E+01 -4.64040E+00 -1.05408E+01 -6.13057E+00
 -1.01730E+01 -7.51381E+00 -9.48476E+00 -8.72179E+00 -8.51823E+00 -9.69496E+00 -7.32821E+00 -1.03856E+01
 -5.97918E+00 -1.07602E+01 -4.54184E+00 -1.08013E+01 -3.08938E+00 -1.05078E+01 -1.69366E+00 -9.89567E+00
 -4.21578E-01 -8.99622E+00 +6.68341E-01 -7.85491E+00 +1.52878E+00 -6.52874E+00 +2.12593E+00 -5.08334E+00
 +2.44097E+00 -3.58954E+00 +2.47088E+00 -2.11978E+00 +2.22831E+00 -7.44398E-01 +1.74076E+00 +4.71879E-01
 +1.04884E+00 +1.47321E+00 +2.04057E-01 +2.21541E+00 -7.34131E-01 +2.66816E+00 -1.70156E+00 +2.81642E+00
 -2.63291E+00 +2.66122E+00 -3.46528E+00 +2.21945E+00 -4.14171E+00 +1.52297E+00 -4.61435E+00 +6.16839E-01
 -4.84720E+00 -4.43032E-01 -4.81826E+00 -1.59295E+00 -4.52094E+00 -2.76483E+00 -3.96467E+00 -3.88997E+00
 -3.17460E+00 -4.90276E+00 -2.19055E+00 -5.74443E+00 -1.06499E+00 -6.36638E+00 +1.39603E-01 -6.73306E+00
 +1.35410E+00 -6.82417E+00 +2.50645E+00 -6.63602E+00 +3.52576E+00 -6.18210E+00 +4.34636E+00 -5.49255E+00
 +4.91172E+00 -4.61276E+00 +5.17801E+00 -3.60104E+00 +5.11696E+00 -2.52547E+00 +4.71799E+00 -1.46011E+00
 +3.98937E+00 -4.80719E-01 +2.95836E+00 +3.39707E-01 +1.67022E+00 +9.35431E-01 +1.86144E-01 +1.25214E+00
 -1.41976E+00 +1.25059E+00 -3.06436E+00 +9.09456E-01 -4.66007E+00 +2.27217E-01 -6.11974E+00 -7.77079E-01
 -7.36180E+00 -2.06427E+00 -8.31507E+00 -3.57675E+00 -8.92322E+00 -5.24132E+00 -9.14840E+00 -6.97302E+00
 -8.97388E+00 -8.67988E+00 -8.40550E+00 -1.02681E+01 -7.47182E+00 -1.16477E+01 -6.22283E+00 -1.27379E+01
 -4.72741E+00 -1.34721E+01 -3.06954E+00 -1.38022E+01 -1.34352E+00 -1.37023E+01 +3.51550E-01 -1.31699E+01
 +1.91769E+00 -1.22273E+01 +3.26400E+00 -1.09206E+01 +4.31228E+00 -9.31680E+00 +5.00200E+00 -7.50085E+00
 +5.29418E+00 -5.57036E+00 +5.17402E+00 -3.63000E+00 +4.65209E+00 -1.78528E+00 +3.76385E+00 -1.36156E-01
 +2.56765E+00 +1.22908E+00 +1.14125E+00 +2.23926E+00 -4.22977E-01 +2.84478E+00 -2.02374E+00 +3.02069E+00
 -3.55724E+00 +2.76829E+00 -4.92377E+00 +2.11509E+00 -6.03410E+00 +1.11300E+00 -6.81521E+00 -1.64909E-01
 -7.21512E+00 -1.62915E+00 -7.20625E+00 -3.17957E+00 -6.78735E+00 -4.71179E+00 -5.98363E+00 -6.12399E+00
 -4.84521E+00 -7.32355E+00 -3.44398E+00 -8.23299E+00 -1.86894E+00 -8.79508E+00 -2.20453E-01 -8.97650E+00
 +1.39622E+00 -8.76997E+00 +2.87780E+00 -8.19467E+00 +4.12966E+00 -7.29493E+00 +5.07201E+00 -6.13716E+00
 +5.64505E+00 -4.80544E+00 +5.81278E+00 -3.39590E+00 +5.56535E+00 -2.01025E+00 +4.91954E+00 -7.49060E-01
 +3.91759E+00 +2.94917E-01 +2.62433E+00 +1.04289E+00 +1.12284E+00 +1.43518E+00 -4.91074E-01 +1.43511E+00
 -2.11514E+00 +1.03132E+00 -3.64732E+00 +2.38415E-01 -4.99235E+00 -9.04134E-01 -6.06784E+00 -2.33470E+00
 -6.80935E+00 -3.97367E+00 -7.17426E+00 -5.72869E+00 -7.14415E+00 -7.50078E+00 -6.72553E+00 -9.19069E+00
 -5.94888E+00 -1.07052E+01 -4.86616E+00 -1.19630E+01 -3.54693E+00 -1.28994E+01 -2.07345E+00 -1.34703E+01
 -5.34932E-01 -1.36540E+01 +9.78343E-01 -1.34525E+01 +2.38094E+00 -1.28901E+01 +3.59763E+00 -1.20111E+01
 +4.56785E+00 -1.08764E+01 +5.24907E+00 -9.55901E+00 +5.61879E+00 -8.13838E+00 +5.67507E+00 -6.69533E+00
 +5.43564E+00 -5.30654E+00 +4.93568E+00 -4.03984E+00 +4.22449E+00 -2.95017E+00 +3.36128E+00 -2.07677E+00
 +2.41049E+00 -1.44153E+00 +1.43695E+00 -1.04870E+00 +5.01279E-01 -8.85939E-01 -3.44249E-01 -9.26429E-01
