 Created: 19-Jan-2021
 $NMID
 ID='D:\BASISSIMULATI'
 FMTDAT='(8E13.5)'
 VOLUME=   1.00000E+00
 TRAMP=   1.00000E+00
 $END
 +6.19646E+01 +1.10185E+01 +5.48454E+01 +1.27373E+01 +3.71821E+01 +1.26755E+01 +1.28925E+01 +1.14469E+01
 -1.26453E+01 +9.66433E+00 -3.38823E+01 +7.75367E+00 -4.64127E+01 +5.89386E+00 -4.79832E+01 +4.08556E+00
 -3.89519E+01 +2.29995E+00 -2.20972E+01 +6.29216E-01 -1.84529E+00 -6.38656E-01 +1.68686E+01 -1.06623E+00
 +2.98030E+01 -2.29288E-01 +3.43725E+01 +2.06049E+00 +3.01423E+01 +5.56156E+00 +1.87581E+01 +9.52713E+00
 +3.37057E+00 +1.28051E+01 -1.22619E+01 +1.41124E+01 -2.47348E+01 +1.24185E+01 -3.17708E+01 +7.32534E+00
 -3.26208E+01 -6.84224E-01 -2.80268E+01 -1.02306E+01 -1.98070E+01 -1.92919E+01 -1.02184E+01 -2.56844E+01
 -1.30415E+00 -2.76506E+01 +5.58939E+00 -2.43905E+01 +1.00071E+01 -1.63729E+01 +1.22741E+01 -5.31741E+00
 +1.31575E+01 +6.17462E+00 +1.34427E+01 +1.52614E+01 +1.35821E+01 +1.96096E+01 +1.35351E+01 +1.80465E+01
 +1.28444E+01 +1.09271E+01 +1.09079E+01 +9.97337E-02 +7.33510E+00 -1.15364E+01 +2.24896E+00 -2.07763E+01
 -3.59026E+00 -2.49590E+01 -8.90012E+00 -2.26929E+01 -1.22102E+01 -1.42527E+01 -1.23179E+01 -1.53401E+00
 -8.72104E+00 +1.24294E+01 -1.88156E+00 +2.42576E+01 +6.78023E+00 +3.11126E+01 +1.51805E+01 +3.14392E+01
 +2.10876E+01 +2.53578E+01 +2.27191E+01 +1.46037E+01 +1.92501E+01 +2.03379E+00 +1.10834E+01 -9.15915E+00
 -2.04112E-01 -1.63025E+01 -1.22312E+01 -1.79354E+01 -2.24014E+01 -1.41475E+01 -2.85519E+01 -6.48229E+00
 -2.94842E+01 +2.55685E+00 -2.52352E+01 +1.02455E+01 -1.70203E+01 +1.44066E+01 -6.87432E+00 +1.39898E+01
 +2.90146E+00 +9.30467E+00 +1.03257E+01 +1.85399E+00 +1.41962E+01 -6.16764E+00 +1.43038E+01 -1.25508E+01
 +1.13603E+01 -1.57181E+01 +6.68483E+00 -1.51504E+01 +1.75996E+00 -1.14747E+01 -2.19822E+00 -6.20060E+00
 -4.52983E+00 -1.19674E+00 -5.20502E+00 +1.92146E+00 -4.68203E+00 +2.30242E+00 -3.61928E+00 +1.09870E-01
 -2.55651E+00 -3.55798E+00 -1.68432E+00 -7.05147E+00 -7.85735E-01 -8.73023E+00 +6.30597E-01 -7.52314E+00
 +3.05658E+00 -3.30937E+00 +6.67483E+00 +3.00164E+00 +1.11353E+01 +9.72029E+00 +1.55170E+01 +1.48835E+01
 +1.85124E+01 +1.68643E+01 +1.87980E+01 +1.48970E+01 +1.54831E+01 +9.35364E+00 +8.49483E+00 +1.68245E+00
 -1.23920E+00 -5.98199E+00 -1.18919E+01 -1.14257E+01 -2.11240E+01 -1.30029E+01 -2.66686E+01 -1.01323E+01
 -2.69571E+01 -3.49484E+00 -2.16068E+01 +5.13156E+00 -1.16180E+01 +1.33538E+01 +7.94395E-01 +1.88272E+01
 +1.27102E+01 +1.99107E+01 +2.12288E+01 +1.61262E+01 +2.42194E+01 +8.29276E+00 +2.08916E+01 -1.70140E+00
 +1.20254E+01 -1.14195E+01 -2.08595E-01 -1.85396E+01 -1.27964E+01 -2.14716E+01 -2.26514E+01 -1.97555E+01
 -2.74005E+01 -1.41364E+01 -2.59760E+01 -6.30610E+00 -1.88549E+01 +1.60369E+00 -7.88854E+00 +7.62194E+00
 +4.22351E+00 +1.04587E+01 +1.46619E+01 +9.80147E+00 +2.12150E+01 +6.31467E+00 +2.28061E+01 +1.36149E+00
 +1.96868E+01 -3.45359E+00 +1.32568E+01 -6.77379E+00 +5.58314E+00 -7.86172E+00 -1.22876E+00 -6.74891E+00
 -5.62415E+00 -4.13246E+00 -6.97831E+00 -1.06875E+00 -5.66854E+00 +1.42362E+00 -2.83634E+00 +2.71581E+00
 +6.81423E-02 +2.75947E+00 +1.80475E+00 +2.05765E+00 +1.75659E+00 +1.43245E+00 +1.08613E-01 +1.67449E+00
 -2.25960E+00 +3.19946E+00 -4.12463E+00 +5.83544E+00 -4.39289E+00 +8.82169E+00 -2.53669E+00 +1.10291E+01
 +1.15640E+00 +1.13375E+01 +5.61071E+00 +9.04865E+00 +9.26749E+00 +4.19635E+00 +1.05791E+01 -2.35900E+00
 +8.53950E+00 -9.09826E+00 +3.08086E+00 -1.42399E+01 -4.79760E+00 -1.62551E+01 -1.32252E+01 -1.43494E+01
 -1.99372E+01 -8.75897E+00 -2.29054E+01 -7.62000E-01 -2.09393E+01 +7.61587E+00 -1.40808E+01 +1.41294E+01
 -3.66755E+00 +1.69312E+01 +7.96477E+00 +1.51023E+01 +1.80686E+01 +8.94069E+00 +2.42007E+01 -8.32711E-02
 +2.48708E+01 -9.69918E+00 +1.99431E+01 -1.74379E+01 +1.06764E+01 -2.12954E+01 -6.05941E-01 -2.02732E+01
 -1.11273E+01 -1.46431E+01 -1.83783E+01 -5.86243E+00 -2.07504E+01 +3.83438E+00 -1.79138E+01 +1.20508E+01
 -1.08432E+01 +1.68739E+01 -1.49964E+00 +1.73690E+01 +7.73207E+00 +1.37882E+01 +1.46840E+01 +7.44099E+00
 +1.79443E+01 +2.74419E-01 +1.71524E+01 -5.70664E+00 +1.29852E+01 -9.00703E+00 +6.86093E+00 -9.03189E+00
 +4.66538E-01 -6.19315E+00 -4.73793E+00 -1.71227E+00 -7.89176E+00 +2.80889E+00 -8.88090E+00 +5.90988E+00
 -8.23580E+00 +6.72244E+00 -6.83478E+00 +5.21314E+00 -5.52683E+00 +2.14843E+00 -4.80764E+00 -1.19925E+00
 -4.65858E+00 -3.50472E+00 -4.59903E+00 -3.85389E+00 -3.92748E+00 -2.06719E+00 -2.06124E+00 +1.22306E+00
 +1.15092E+00 +4.76882E+00 +5.26180E+00 +7.11605E+00 +9.27618E+00 +7.09900E+00 +1.19178E+01 +4.26088E+00
 +1.20375E+01 -9.37269E-01 +9.03385E+00 -7.19423E+00 +3.14636E+00 -1.27193E+01 -4.48888E+00 -1.57571E+01
 -1.20598E+01 -1.51311E+01 -1.75310E+01 -1.06392E+01 -1.92073E+01 -3.17594E+00 -1.62478E+01 +5.46521E+00
 -8.97338E+00 +1.30625E+01 +1.13470E+00 +1.75776E+01 +1.17607E+01 +1.77349E+01 +2.03285E+01 +1.33985E+01
 +2.46719E+01 +5.63514E+00 +2.36164E+01 -3.55919E+00 +1.73098E+01 -1.17954E+01 +7.20588E+00 -1.69389E+01
 -4.30029E+00 -1.76856E+01 -1.44864E+01 -1.39057E+01 -2.10012E+01 -6.65940E+00 -2.24561E+01 +2.11535E+00
 -1.87525E+01 +1.01490E+01 -1.10614E+01 +1.54621E+01 -1.46928E+00 +1.68862E+01 +7.60247E+00 +1.43386E+01
 +1.40380E+01 +8.78322E+00 +1.65509E+01 +1.90015E+00 +1.49518E+01 -4.42883E+00 +1.01028E+01 -8.66145E+00
 +3.58708E+00 -1.00039E+01 -2.79072E+00 -8.57339E+00 -7.52140E+00 -5.27926E+00 -9.77269E+00 -1.47160E+00
 -9.53392E+00 +1.52162E+00 -7.49898E+00 +2.82070E+00 -4.74403E+00 +2.25019E+00 -2.31762E+00 +3.49509E-01
 -8.81644E-01 -1.85751E+00 -5.19345E-01 -3.25257E+00 -7.66845E-01 -3.04046E+00 -8.48650E-01 -1.05426E+00
 -2.92401E-02 +2.15506E+00 +2.04606E+00 +5.47823E+00 +5.14464E+00 +7.60918E+00 +8.45410E+00 +7.49435E+00
 +1.08121E+01 +4.72457E+00 +1.10917E+01 -2.61580E-01 +8.61861E+00 -6.23791E+00 +3.48170E+00 -1.15084E+01
 -3.37724E+00 -1.43956E+01 -1.03413E+01 -1.37555E+01 -1.55290E+01 -9.36333E+00 -1.73272E+01 -2.04599E+00
 -1.48906E+01 +6.48890E+00 -8.45529E+00 +1.40884E+01 +6.39686E-01 +1.87364E+01 +1.02453E+01 +1.91170E+01
 +1.79415E+01 +1.49981E+01 +2.16792E+01 +7.31996E+00 +2.03460E+01 -2.03862E+00 +1.40953E+01 -1.07557E+01
 +4.33981E+00 -1.66840E+01 -6.59552E+00 -1.84192E+01 -1.60700E+01 -1.56599E+01 -2.18117E+01 -9.26213E+00
 -2.25032E+01 -9.78296E-01 -1.81093E+01 +7.03942E+00 -9.85911E+00 +1.28266E+01 +1.05504E-01 +1.51175E+01
 +9.31439E+00 +1.36394E+01 +1.56199E+01 +9.11631E+00 +1.77350E+01 +2.99547E+00 +1.55157E+01 -3.01130E+00
 +9.92125E+00 -7.42782E+00 +2.67889E+00 -9.40674E+00 -4.23799E+00 -8.90545E+00 -9.16086E+00 -6.60503E+00
 -1.11483E+01 -3.61304E+00 -1.01668E+01 -1.05595E+00 -6.99505E+00 +3.02726E-01 -2.89804E+00 +2.95413E-01
 +8.12419E-01 -6.36430E-01 +3.18946E+00 -1.64706E+00 +3.90776E+00 -1.83495E+00 +3.29311E+00 -6.13747E-01
 +2.12875E+00 +2.02342E+00 +1.31391E+00 +5.44129E+00 +1.49654E+00 +8.53093E+00 +2.80772E+00 +1.00624E+01
 +4.79002E+00 +9.11232E+00 +6.54668E+00 +5.42661E+00 +7.06392E+00 -4.04521E-01 +5.59963E+00 -7.03049E+00
 +2.00629E+00 -1.26735E+01 -3.12680E+00 -1.56233E+01 -8.57171E+00 -1.47525E+01 -1.27844E+01 -9.89511E+00
 -1.43619E+01 -1.97014E+00 -1.24973E+01 +7.20165E+00 -7.28848E+00 +1.53474E+01 +2.03150E-01 +2.03397E+01
 +8.17889E+00 +2.07776E+01 +1.45607E+01 +1.63847E+01 +1.75581E+01 +8.10991E+00 +1.61833E+01 -2.10195E+00
 +1.05635E+01 -1.18114E+01 +1.95296E+00 -1.87184E+01 -7.56633E+00 -2.12563E+01 -1.56196E+01 -1.89823E+01
 -2.01646E+01 -1.26607E+01 -2.00343E+01 -4.02293E+00 -1.52465E+01 +4.72244E+00 -6.99515E+00 +1.14865E+01
 +2.67369E+00 +1.48351E+01 +1.14085E+01 +1.43173E+01 +1.71689E+01 +1.05052E+01 +1.87431E+01 +4.75003E+00
 +1.60255E+01 -1.26021E+00 +9.98932E+00 -6.00082E+00 +2.37039E+00 -8.51940E+00 -4.83555E+00 -8.63819E+00
 -9.91560E+00 -6.90296E+00 -1.18687E+01 -4.31162E+00 -1.06073E+01 -1.92258E+00 -6.89046E+00 -4.76983E-01
 -2.02485E+00 -1.59108E-01 +2.56184E+00 -5.70974E-01 +5.74026E+00 -9.24497E-01 +6.96701E+00 -3.81973E-01
 +6.36346E+00 +1.57447E+00 +4.57819E+00 +4.87516E+00 +2.49387E+00 +8.79649E+00 +8.85895E-01 +1.21308E+01
 +1.50367E-01 +1.35501E+01 +1.91183E-01 +1.20556E+01 +4.99334E-01 +7.36886E+00 +3.91117E-01 +1.33713E-01
 -6.82638E-01 -8.15177E+00 -2.86916E+00 -1.54743E+01 -5.78812E+00 -1.98318E+01 -8.60089E+00 -1.98043E+01
 -1.02622E+01 -1.50023E+01 -9.87748E+00 -6.25686E+00 -7.05042E+00 +4.51743E+00 -2.09887E+00 +1.47650E+01
 +3.94347E+00 +2.19255E+01 +9.55968E+00 +2.40972E+01 +1.31611E+01 +2.05472E+01 +1.35617E+01 +1.19279E+01
 +1.03718E+01 +1.38334E-01 +4.18521E+00 -1.21364E+01 -3.51280E+00 -2.20859E+01 -1.07051E+01 -2.74625E+01
 -1.53800E+01 -2.71163E+01 -1.60981E+01 -2.12441E+01 -1.24246E+01 -1.12954E+01 -5.09674E+00 +4.27135E-01
 +4.13126E+00 +1.13554E+01 +1.29341E+01 +1.92733E+01 +1.90325E+01 +2.28039E+01 +2.08135E+01 +2.16520E+01
 +1.77773E+01 +1.65611E+01 +1.06849E+01 +9.02348E+00 +1.35973E+00 +8.43621E-01 -7.80334E+00 -6.31358E+00
 -1.44863E+01 -1.12699E+01 -1.70729E+01 -1.34998E+01 -1.50766E+01 -1.30999E+01 -9.25264E+00 -1.06084E+01
 -1.36598E+00 -6.75690E+00 +6.31541E+00 -2.24786E+00 +1.16572E+01 +2.37392E+00 +1.32441E+01 +6.73173E+00
 +1.07505E+01 +1.05344E+01 +4.99628E+00 +1.34628E+01 -2.31951E+00 +1.50971E+01 -9.12557E+00 +1.49403E+01
 -1.35738E+01 +1.25494E+01 -1.45521E+01 +7.74121E+00 -1.19693E+01 +7.94687E-01 -6.73829E+00 -7.43506E+00
 -4.71033E-01 -1.55644E+01 +5.01755E+00 -2.19140E+01 +8.24561E+00 -2.48899E+01 +8.48312E+00 -2.34215E+01
 +5.93422E+00 -1.73300E+01 +1.63694E+00 -7.50679E+00 -2.88124E+00 +4.17542E+00 -6.08243E+00 +1.52277E+01
 -6.88544E+00 +2.31113E+01 -4.98193E+00 +2.58703E+01 -9.11206E-01 +2.26603E+01 +4.12232E+00 +1.40264E+01
 +8.62768E+00 +1.83741E+00 +1.12832E+01 -1.11211E+01 +1.13307E+01 -2.18050E+01 +8.79135E+00 -2.76541E+01
 +4.44195E+00 -2.72289E+01 -4.35200E-01 -2.05723E+01 -4.44794E+00 -9.19970E+00 -6.51294E+00 +4.28186E+00
 -6.17066E+00 +1.68254E+01 -3.70418E+00 +2.56950E+01 -3.11668E-02 +2.91193E+01 +3.59235E+00 +2.66804E+01
 +5.96173E+00 +1.93450E+01 +6.28628E+00 +9.14212E+00 +4.41549E+00 -1.41119E+00 +8.64147E-01 -9.97251E+00
