 Created: 19-Jan-2021
 $NMID
 ID='D:\BASISSIMULATI'
 FMTDAT='(8E13.5)'
 VOLUME=   1.00000E+00
 TRAMP=   1.00000E+00
 $END
 +4.30795E+01 +8.44414E+00 +3.57577E+01 +2.47521E+01 +2.22278E+01 +3.61810E+01 +5.35772E+00 +4.05199E+01
 -1.13147E+01 +3.71083E+01 -2.43661E+01 +2.69617E+01 -3.12380E+01 +1.25223E+01 -3.07837E+01 -2.90409E+00
 -2.34929E+01 -1.58940E+01 -1.13477E+01 -2.36653E+01 +2.65062E+00 -2.46788E+01 +1.51713E+01 -1.89505E+01
 +2.33023E+01 -8.01097E+00 +2.51880E+01 +5.47192E+00 +2.04156E+01 +1.83131E+01 +1.00718E+01 +2.75299E+01
 -3.53544E+00 +3.09972E+01 -1.74170E+01 +2.78942E+01 -2.85779E+01 +1.88490E+01 -3.46716E+01 +5.75991E+00
 -3.44907E+01 -8.65751E+00 -2.81888E+01 -2.14857E+01 -1.71972E+01 -3.02418E+01 -3.86485E+00 -3.33926E+01
 +9.08574E+00 -3.06412E+01 +1.91589E+01 -2.29296E+01 +2.46076E+01 -1.21725E+01 +2.47646E+01 -7.93428E-01
 +2.01220E+01 +8.82555E+00 +1.21522E+01 +1.48525E+01 +2.92750E+00 +1.63648E+01 -5.36812E+00 +1.34878E+01
 -1.09202E+01 +7.29595E+00 -1.26523E+01 -4.86628E-01 -1.04085E+01 -7.90663E+00 -4.92211E+00 -1.32227E+01
 +2.40716E+00 -1.52685E+01 +9.86432E+00 -1.36631E+01 +1.58116E+01 -8.83490E+00 +1.90329E+01 -1.86817E+00
 +1.89578E+01 +5.77927E+00 +1.57281E+01 +1.26141E+01 +1.01039E+01 +1.74219E+01 +3.24802E+00 +1.94917E+01
 -3.55405E+00 +1.87098E+01 -9.16961E+00 +1.55166E+01 -1.28296E+01 +1.07505E+01 -1.42365E+01 +5.42737E+00
 -1.35575E+01 +5.10437E-01 -1.13205E+01 -3.27533E+00 -8.24827E+00 -5.55055E+00 -5.07775E+00 -6.29742E+00
 -2.40755E+00 -5.79509E+00 -6.03405E-01 -4.50248E+00 +2.26566E-01 -2.92507E+00 +1.94221E-01 -1.49981E+00
 -4.46857E-01 -5.22386E-01 -1.39202E+00 -1.25331E-01 -2.36232E+00 -3.00743E-01 -3.15028E+00 -9.49921E-01
 -3.62980E+00 -1.93799E+00 -3.73786E+00 -3.13441E+00 -3.44364E+00 -4.42875E+00 -2.72247E+00 -5.72199E+00
 -1.54820E+00 -6.90340E+00 +9.15087E-02 -7.82881E+00 +2.16267E+00 -8.31517E+00 +4.54880E+00 -8.16091E+00
 +7.02866E+00 -7.19153E+00 +9.28241E+00 -5.31955E+00 +1.09333E+01 -2.60083E+00 +1.16201E+01 +7.33238E-01
 +1.10859E+01 +4.28354E+00 +9.25946E+00 +7.53739E+00 +6.30530E+00 +9.96241E+00 +2.62426E+00 +1.11213E+01
 -1.20360E+00 +1.07805E+01 -4.52603E+00 +8.98387E+00 -6.75466E+00 +6.06964E+00 -7.49947E+00 +2.61945E+00
 -6.66865E+00 -6.53033E-01 -4.50710E+00 -3.05289E+00 -1.55970E+00 -4.06056E+00 +1.43679E+00 -3.45769E+00
 +3.71207E+00 -1.39053E+00 +4.63637E+00 +1.64715E+00 +3.87044E+00 +4.91186E+00 +1.45551E+00 +7.56953E+00
 -2.18003E+00 +8.88182E+00 -6.30189E+00 +8.37751E+00 -1.00232E+01 +5.96937E+00 -1.24970E+01 +1.98786E+00
 -1.31055E+01 -2.87786E+00 -1.16024E+01 -7.72056E+00 -8.17578E+00 -1.16070E+01 -3.41633E+00 -1.37791E+01
 +1.80414E+00 -1.38191E+01 +6.51654E+00 -1.17415E+01 +9.86079E+00 -7.99142E+00 +1.12686E+01 -3.34795E+00
 +1.05822E+01 +1.24418E+00 +8.08282E+00 +4.87866E+00 +4.42324E+00 +6.88137E+00 +4.80004E-01 +6.95118E+00
 -2.84125E+00 +5.21735E+00 -4.80372E+00 +2.20180E+00 -4.99689E+00 -1.30388E+00 -3.41956E+00 -4.41838E+00
 -4.71334E-01 -6.36657E+00 +3.14358E+00 -6.64813E+00 +6.57726E+00 -5.14220E+00 +9.02672E+00 -2.12657E+00
 +9.90827E+00 +1.79062E+00 +8.97958E+00 +5.80945E+00 +6.38441E+00 +9.11473E+00 +2.61227E+00 +1.10506E+01
 -1.61510E+00 +1.12555E+01 -5.50350E+00 +9.72851E+00 -8.35563E+00 +6.81706E+00 -9.71290E+00 +3.12921E+00
 -9.44014E+00 -6.05154E-01 -7.73713E+00 -3.69312E+00 -5.07802E+00 -5.62161E+00 -2.09519E+00 -6.15435E+00
 +5.64409E-01 -5.36404E+00 +2.37768E+00 -3.59632E+00 +3.04884E+00 -1.37711E+00 +2.55736E+00 +7.13261E-01
 +1.14319E+00 +2.16972E+00 -7.63488E-01 +2.66734E+00 -2.64941E+00 +2.12012E+00 -4.03610E+00 +6.83777E-01
 -4.58227E+00 -1.29428E+00 -4.14904E+00 -3.36325E+00 -2.81664E+00 -5.07345E+00 -8.52202E-01 -6.07283E+00
 +1.36045E+00 -6.17505E+00 +3.41063E+00 -5.38628E+00 +4.94895E+00 -3.88829E+00 +5.75455E+00 -1.98518E+00
 +5.76837E+00 -2.86993E-02 +5.08830E+00 +1.65931E+00 +3.93098E+00 +2.84989E+00 +2.57201E+00 +3.44289E+00
 +1.28030E+00 +3.47048E+00 +2.62078E-01 +3.07110E+00 -3.73942E-01 +2.44318E+00 -6.24590E-01 +1.79147E+00
 -5.74912E-01 +1.27968E+00 -3.62769E-01 +9.99492E-01 -1.36157E-01 +9.61513E-01 -1.46338E-02 +1.10737E+00
 -6.38831E-02 +1.33710E+00 -2.88096E-01 +1.54290E+00 -6.39726E-01 +1.63952E+00 -1.04168E+00 +1.58369E+00
 -1.41421E+00 +1.37878E+00 -1.69834E+00 +1.06523E+00 -1.86945E+00 +7.01265E-01 -1.93804E+00 +3.40839E-01
 -1.93873E+00 +1.58941E-02 -1.91196E+00 -2.71768E-01 -1.88488E+00 -5.46866E-01 -1.85781E+00 -8.46890E-01
 -1.80088E+00 -1.20294E+00 -1.66217E+00 -1.62154E+00 -1.38527E+00 -2.07355E+00 -9.30950E-01 -2.49435E+00
 -2.96507E-01 -2.79614E+00 +4.73548E-01 -2.88955E+00 +1.28937E+00 -2.70916E+00 +2.03095E+00 -2.23572E+00
 +2.57353E+00 -1.50867E+00 +2.81716E+00 -6.24570E-01 +2.71306E+00 +2.79106E-01 +2.27951E+00 +1.05189E+00
 +1.60273E+00 +1.56358E+00 +8.21409E-01 +1.73484E+00 +9.79792E-02 +1.55758E+00 -4.17221E-01 +1.09957E+00
 -6.20513E-01 +4.91555E-01 -4.79933E-01 -1.00810E-01 -4.45444E-02 -5.14062E-01 +5.64670E-01 -6.24697E-01
 +1.18071E+00 -3.78832E-01 +1.62772E+00 +1.93280E-01 +1.76102E+00 +9.81530E-01 +1.50115E+00 +1.81842E+00
 +8.53865E-01 +2.51493E+00 -8.83949E-02 +2.90185E+00 -1.16422E+00 +2.86756E+00 -2.17632E+00 +2.38364E+00
 -2.93278E+00 +1.51280E+00 -3.28759E+00 +3.97196E-01 -3.17151E+00 -7.70192E-01 -2.60675E+00 -1.78510E+00
 -1.70243E+00 -2.47373E+00 -6.31805E-01 -2.72794E+00 +4.03593E-01 -2.52643E+00 +1.21524E+00 -1.93768E+00
 +1.66561E+00 -1.10430E+00 +1.69497E+00 -2.12378E-01 +1.33173E+00 +5.47499E-01 +6.84423E-01 +1.01937E+00
 -8.24904E-02 +1.11311E+00 -7.83791E-01 +8.21480E-01 -1.25212E+00 +2.19927E-01 -1.37219E+00 -5.50437E-01
 -1.10376E+00 -1.31285E+00 -4.89007E-01 -1.89158E+00 +3.56760E-01 -2.14771E+00 +1.26892E+00 -2.00707E+00
 +2.06677E+00 -1.47480E+00 +2.58952E+00 -6.34116E-01 +2.72788E+00 +3.70273E-01 +2.44531E+00 +1.36056E+00
 +1.78487E+00 +2.16034E+00 +8.60715E-01 +2.62853E+00 -1.64097E-01 +2.68618E+00 -1.10888E+00 +2.33124E+00
 -1.80981E+00 +1.63844E+00 -2.15101E+00 +7.44639E-01 -2.08634E+00 -1.77696E-01 -1.64783E+00 -9.53726E-01
 -9.39148E-01 -1.43990E+00 -1.15293E-01 -1.55167E+00 +6.47659E-01 -1.27995E+00 +1.18710E+00 -6.93076E-01
 +1.38613E+00 +7.62280E-02 +1.19734E+00 +8.56672E-01 +6.53208E-01 +1.47215E+00 -1.38920E-01 +1.77710E+00
 -1.01687E+00 +1.68654E+00 -1.79504E+00 +1.19488E+00 -2.30133E+00 +3.79331E-01 -2.41245E+00 -6.13151E-01
 -2.08057E+00 -1.59329E+00 -1.34564E+00 -2.36641E+00 -3.30362E-01 -2.77170E+00 +7.81718E-01 -2.71597E+00
 +1.78132E+00 -2.19499E+00 +2.47502E+00 -1.29734E+00 +2.72522E+00 -1.89557E-01 +2.48000E+00 +9.15365E-01
 +1.78653E+00 +1.80012E+00 +7.84489E-01 +2.28774E+00 -3.20028E-01 +2.27942E+00 -1.29532E+00 +1.77761E+00
 -1.93177E+00 +8.88594E-01 -2.08674E+00 -1.96526E-01 -1.71690E+00 -1.23945E+00 -8.90844E-01 -2.00376E+00
 +2.21547E-01 -2.30540E+00 +1.38179E+00 -2.05401E+00 +2.33131E+00 -1.27582E+00 +2.84621E+00 -1.12570E-01
 +2.78669E+00 +1.20441E+00 +2.13042E+00 +2.40030E+00 +9.81972E-01 +3.21406E+00 -4.44659E-01 +3.45489E+00
 -1.86766E+00 +3.04578E+00 -2.99519E+00 +2.04424E+00 -3.58742E+00 +6.34805E-01 -3.50962E+00 -9.06035E-01
 -2.76442E+00 -2.26593E+00 -1.49561E+00 -3.16242E+00 +3.84026E-02 -3.40436E+00 +1.51672E+00 -2.93567E+00
 +2.62324E+00 -1.85123E+00 +3.11492E+00 -3.80566E-01 +2.87628E+00 +1.15799E+00 +1.94785E+00 +2.42384E+00
 +5.21560E-01 +3.12727E+00 -1.09676E+00 +3.09367E+00 -2.55066E+00 +2.30448E+00 -3.50899E+00 +9.05391E-01
 -3.73826E+00 -8.20840E-01 -3.15565E+00 -2.51196E+00 -1.85065E+00 -3.80236E+00 -7.00157E-02 -4.40162E+00
 +1.83165E+00 -4.15858E+00 +3.46545E+00 -3.09661E+00 +4.49056E+00 -1.41206E+00 +4.68765E+00 +5.64585E-01
 +4.00739E+00 +2.43684E+00 +2.58321E+00 +3.82552E+00 +7.05084E-01 +4.44936E+00 -1.24043E+00 +4.18550E+00
 -2.85132E+00 +3.09678E+00 -3.79512E+00 +1.41963E+00 -3.87974E+00 -4.85133E-01 -3.09466E+00 -2.20817E+00
 -1.61378E+00 -3.37806E+00 +2.40834E-01 -3.73992E+00 +2.06657E+00 -3.20944E+00 +3.46491E+00 -1.89091E+00
 +4.12501E+00 -5.56161E-02 +3.88876E+00 +1.91482E+00 +2.78364E+00 +3.60782E+00 +1.01673E+00 +4.66525E+00
 -1.06828E+00 +4.85695E+00 -3.06198E+00 +4.12722E+00 -4.57277E+00 +2.60503E+00 -5.30567E+00 +5.76534E-01
 -5.12050E+00 -1.57398E+00 -4.05778E+00 -3.44190E+00 -2.32798E+00 -4.68274E+00 -2.67155E-01 -5.07898E+00
 +1.73144E+00 -4.58026E+00 +3.29525E+00 -3.30974E+00 +4.14444E+00 -1.53625E+00 +4.14386E+00 +3.81116E-01
 +3.32578E+00 +2.06434E+00 +1.87977E+00 +3.18955E+00 +1.12908E-01 +3.54770E+00 -1.61112E+00 +3.08191E+00
 -2.94189E+00 +1.89525E+00 -3.60789E+00 +2.28633E-01 -3.46601E+00 -1.58619E+00 -2.52650E+00 -3.18909E+00
 -9.49737E-01 -4.25793E+00 +9.83817E-01 -4.56693E+00 +2.92449E+00 -4.02715E+00 +4.51588E+00 -2.70252E+00
 +5.45805E+00 -7.99037E-01 +5.56080E+00 +1.37051E+00 +4.77812E+00 +3.44028E+00 +3.21810E+00 +5.05459E+00
 +1.12664E+00 +5.93016E+00 -1.15287E+00 +5.90687E+00 -3.23747E+00 +4.97856E+00 -4.77098E+00 +3.29795E+00
 -5.48785E+00 +1.15405E+00 -5.26332E+00 -1.07525E+00 -4.14077E+00 -2.98833E+00 -2.32995E+00 -4.23222E+00
 -1.74973E-01 -4.56968E+00 +1.90420E+00 -3.92847E+00 +3.48756E+00 -2.42265E+00 +4.23536E+00 -3.39936E-01
 +3.95779E+00 +1.90475E+00 +2.66027E+00 +3.84312E+00 +5.53549E-01 +5.04241E+00 -1.97576E+00 +5.19293E+00
 -4.43124E+00 +4.17710E+00 -6.29883E+00 +2.10469E+00 -7.14843E+00 -6.95012E-01 -6.72516E+00 -3.72561E+00
 -5.01104E+00 -6.41290E+00 -2.24258E+00 -8.21543E+00 +1.12215E+00 -8.73498E+00 +4.48340E+00 -7.80436E+00
 +7.21293E+00 -5.53300E+00 +8.77906E+00 -2.29858E+00 +8.85850E+00 +1.31679E+00 +7.41081E+00 +4.63539E+00
 +4.69835E+00 +7.01756E+00 +1.24457E+00 +7.99361E+00 -2.26341E+00 +7.36626E+00 -5.11023E+00 +5.26105E+00
 -6.69903E+00 +2.11160E+00 -6.67934E+00 -1.41965E+00 -5.02843E+00 -4.57159E+00 -2.06726E+00 -6.63987E+00
 +1.59478E+00 -7.12619E+00 +5.17746E+00 -5.84975E+00 +7.88701E+00 -2.99620E+00 +9.08157E+00 +9.08355E-01
 +8.41047E+00 +5.09529E+00 +5.89706E+00 +8.70508E+00 +1.94633E+00 +1.09626E+01 -2.72660E+00 +1.13398E+01
 -7.23438E+00 +9.67224E+00 -1.06947E+01 +6.20272E+00 -1.24108E+01 +1.54241E+00 -1.20184E+01 -3.44522E+00
