 Created: 19-Jan-2021
 $NMID
 ID='D:\BASISSIMULATI'
 FMTDAT='(8E13.5)'
 VOLUME=   1.00000E+00
 TRAMP=   1.00000E+00
 $END
 +2.06016E+02 +3.14332E+01 +1.93541E+02 +7.55007E+01 +1.70910E+02 +1.15113E+02 +1.39617E+02 +1.47868E+02
 +1.01726E+02 +1.71843E+02 +5.97210E+01 +1.85728E+02 +1.63240E+01 +1.88915E+02 -2.56978E+01 +1.81528E+02
 -6.37302E+01 +1.64409E+02 -9.54953E+01 +1.39045E+02 -1.19209E+02 +1.07451E+02 -1.33699E+02 +7.20152E+01
 -1.38480E+02 +3.53192E+01 -1.33770E+02 -5.43999E-02 -1.20463E+02 -3.17109E+01 -1.00042E+02 -5.76158E+01
 -7.44592E+01 -7.62374E+01 -4.59737E+01 -8.66489E+01 -1.69755E+01 -8.85831E+01 +1.02011E+01 -8.24361E+01
 +3.34559E+01 -6.92198E+01 +5.10797E+01 -5.04683E+01 +6.18791E+01 -2.81050E+01 +6.52584E+01 -4.28150E+00
 +6.12542E+01 +1.87983E+01 +5.05195E+01 +3.90563E+01 +3.42594E+01 +5.47056E+01 +1.41242E+01 +6.43911E+01
 -7.93269E+00 +6.72934E+01 -2.98180E+01 +6.31896E+01 -4.94731E+01 +5.24658E+01 -6.50433E+01 +3.60797E+01
 -7.50303E+01 +1.54791E+01 -7.84151E+01 -7.52036E+00 -7.47413E+01 -3.08854E+01 -6.41538E+01 -5.25329E+01
 -4.73884E+01 -7.05016E+01 -2.57139E+01 -8.31142E+01 -8.31372E-01 -8.91159E+01 +2.52611E+01 -8.77809E+01
 +5.04288E+01 -7.89752E+01 +7.25712E+01 -6.31735E+01 +8.97922E+01 -4.14272E+01 +1.00553E+02 -1.52868E+01
 +1.03801E+02 +1.33170E+01 +9.90566E+01 +4.22210E+01 +8.64577E+01 +6.91984E+01 +6.67580E+01 +9.21325E+01
 +4.12728E+01 +1.09184E+02 +1.17836E+01 +1.18936E+02 -1.95955E+01 +1.20509E+02 -5.05778E+01 +1.13637E+02
 -7.88789E+01 +9.86869E+01 -1.02392E+02 +7.66422E+01 -1.19349E+02 +4.90296E+01 -1.28462E+02 +1.78069E+01
 -1.29020E+02 -1.47833E+01 -1.20951E+02 -4.63829E+01 -1.04827E+02 -7.46967E+01 -8.18267E+01 -9.76674E+01
 -5.36464E+01 -1.13632E+02 -2.23744E+01 -1.21452E+02 +9.66610E+00 -1.20597E+02 +4.00933E+01 -1.11190E+02
 +6.66467E+01 -9.39994E+01 +8.73590E+01 -7.03819E+01 +1.00706E+02 -4.21794E+01 +1.05724E+02 -1.15813E+01
 +1.02080E+02 +1.90414E+01 +9.01042E+01 +4.73160E+01 +7.07600E+01 +7.10481E+01 +4.55747E+01 +8.83881E+01
 +1.65237E+01 +9.79726E+01 -1.41187E+01 +9.90280E+01 -4.39517E+01 +9.14300E+01 -7.06293E+01 +7.57138E+01
 -9.20379E+01 +5.30345E+01 -1.06457E+02 +2.50801E+01 -1.12688E+02 -6.05510E+00 -1.10147E+02 -3.80281E+01
 -9.89066E+01 -6.84238E+01 -7.96939E+01 -9.49361E+01 -5.38324E+01 -1.15541E+02 -2.31444E+01 -1.28650E+02
 +1.01864E+01 -1.33223E+02 +4.37785E+01 -1.28852E+02 +7.52310E+01 -1.15786E+02 +1.02302E+02 -9.49112E+01
 +1.23077E+02 -6.76818E+01 +1.36107E+02 -3.60107E+01 +1.40514E+02 -2.12338E+00 +1.36056E+02 +3.16093E+01
 +1.23136E+02 +6.28485E+01 +1.02770E+02 +8.94619E+01 +7.65034E+01 +1.09680E+02 +4.62903E+01 +1.22226E+02
 +1.43443E+01 +1.26404E+02 -1.70320E+01 +1.22146E+02 -4.56211E+01 +1.10009E+02 -6.94570E+01 +9.11249E+01
 -8.69709E+01 +6.71048E+01 -9.71048E+01 +3.99123E+01 -9.93852E+01 +1.17066E+01 -9.39509E+01 -1.53256E+01
 -8.15333E+01 -3.91396E+01 -6.33910E+01 -5.79892E+01 -4.12042E+01 -7.05587E+01 -1.69372E+01 -7.60600E+01
 +7.31999E+00 -7.42881E+01 +2.95190E+01 -6.56296E+01 +4.78150E+01 -5.10261E+01 +6.07126E+01 -3.18924E+01
 +6.71823E+01 -9.99958E+00 +6.67396E+01 +1.26705E+01 +5.94813E+01 +3.40863E+01 +4.60749E+01 +5.23311E+01
 +2.77025E+01 +6.57580E+01 +5.96491E+00 +7.31229E+01 -1.72484E+01 +7.36854E+01 -3.99117E+01 +6.72701E+01
 -6.00265E+01 +5.42824E+01 -7.57832E+01 +3.56786E+01 -8.57080E+01 +1.28924E+01 -8.87838E+01 -1.22773E+01
 -8.45355E+01 -3.78071E+01 -7.30729E+01 -6.16083E+01 -5.50876E+01 -8.16930E+01 -3.18044E+01 -9.63313E+01
 -4.89057E+00 -1.04191E+02 +2.36698E+01 -1.04447E+02 +5.17271E+01 -9.68499E+01 +7.71316E+01 -8.17515E+01
 +9.78989E+01 -6.00861E+01 +1.12365E+02 -3.33028E+01 +1.19316E+02 -3.26038E+00 +1.18085E+02 +2.79108E+01
 +1.08609E+02 +5.79681E+01 +9.14375E+01 +8.47259E+01 +6.76929E+01 +1.06220E+02 +3.89934E+01 +1.20858E+02
 +7.33255E+00 +1.27539E+02 -2.50687E+01 +1.25740E+02 -5.59265E+01 +1.15555E+02 -8.30650E+01 +9.76912E+01
 -1.04578E+02 +7.34149E+01 -1.18971E+02 +4.44595E+01 -1.25272E+02 +1.28949E+01 -1.23106E+02 -1.90270E+01
 -1.12714E+02 -4.90402E+01 -9.49423E+01 -7.50338E+01 -7.11692E+01 -9.52090E+01 -4.32031E+01 -1.08211E+02
 -1.31438E+01 -1.13230E+02 +1.67771E+01 -1.10056E+02 +4.43646E+01 -9.90917E+01 +6.76254E+01 -8.13172E+01
 +8.49169E+01 -5.82121E+01 +9.50691E+01 -3.16392E+01 +9.74692E+01 -3.69942E+00 +9.21039E+01 +2.34295E+01
 +7.95553E+01 +4.76607E+01 +6.09514E+01 +6.71564E+01 +3.78756E+01 +8.04681E+01 +1.22403E+01 +8.66440E+01
 -1.38623E+01 +8.52997E+01 -3.83235E+01 +7.66433E+01 -5.91822E+01 +6.14558E+01 -7.47758E+01 +4.10267E+01
 -8.38677E+01 +1.70509E+01 -8.57423E+01 -8.50500E+00 -8.02577E+01 -3.35577E+01 -6.78551E+01 -5.60700E+01
 -4.95221E+01 -7.42092E+01 -2.67146E+01 -8.64907E+01 -1.24195E+00 -9.18919E+01 +2.48750E+01 -8.99324E+01
 +4.95615E+01 -8.07101E+01 +7.08507E+01 -6.48935E+01 +8.70369E+01 -4.36693E+01 +9.68080E+01 -1.86501E+01
 +9.93478E+01 +8.25067E+00 +9.43993E+01 +3.49675E+01 +8.22848E+01 +5.94425E+01 +6.38817E+01 +7.97848E+01
 +4.05546E+01 +9.44167E+01 +1.40502E+01 +1.02196E+02 -1.36369E+01 +1.02504E+02 -4.04181E+01 +9.52928E+01
 -6.42713E+01 +8.10907E+01 -8.33965E+01 +6.09600E+01 -9.63538E+01 +3.64158E+01 -1.02174E+02 +9.30994E+00
 -1.00433E+02 -1.83119E+01 -9.12839E+01 -4.43668E+01 -7.54428E+01 -6.68948E+01 -5.41360E+01 -8.42086E+01
 -2.90036E+01 -9.50226E+01 -1.97322E+00 -9.85513E+01 +2.48880E+01 -9.45678E+01 +4.95326E+01 -8.34208E+01
 +7.00899E+01 -6.60059E+01 +8.50086E+01 -4.36966E+01 +9.31761E+01 -1.82366E+01 +9.40022E+01 +8.39437E+00
 +8.74636E+01 +3.41335E+01 +7.41039E+01 +5.69938E+01 +5.49910E+01 +7.52170E+01 +3.16329E+01 +8.74081E+01
 +5.86108E+00 +9.26420E+01 -2.03119E+01 +9.05339E+01 -4.48477E+01 +8.12677E+01 -6.58394E+01 +6.55804E+01
 -8.16585E+01 +4.47043E+01 -9.10801E+01 +2.02709E+01 -9.33764E+01 -5.81611E+00 -8.83724E+01 -3.15276E+01
 -7.64581E+01 -5.48665E+01 -5.85578E+01 -7.40216E+01 -3.60576E+01 -8.75071E+01 -1.06984E+01 -9.42771E+01
 +1.55598E+01 -9.38055E+01 +4.06887E+01 -8.61261E+01 +6.27488E+01 -7.18291E+01 +8.00385E+01 -5.20154E+01
 +9.12258E+01 -2.82105E+01 +9.54497E+01 -2.24696E+00 +9.23869E+01 +2.38777E+01 +8.22758E+01 +4.81548E+01
 +6.58977E+01 +6.87196E+01 +4.45157E+01 +8.39949E+01 +1.97775E+01 +9.28120E+01 -6.41275E+00 +9.45007E+01
 -3.20407E+01 +8.89400E+01 -5.51375E+01 +7.65674E+01 -7.39314E+01 +5.83440E+01 -8.69839E+01 +3.56804E+01
 -9.33000E+01 +1.03271E+01 -9.24049E+01 -1.57602E+01 -8.43795E+01 -4.05718E+01 -6.98536E+01 -6.21988E+01
 -4.99573E+01 -7.89798E+01 -2.62327E+01 -8.96290E+01 -5.15164E-01 -9.33346E+01 +2.52085E+01 -8.98206E+01
 +4.89531E+01 -7.93681E+01 +6.88883E+01 -6.27926E+01 +8.34793E+01 -4.13809E+01 +9.16044E+01 -1.67917E+01
 +9.26417E+01 +9.07278E+00 +8.65164E+01 +3.42134E+01 +7.37057E+01 +5.66879E+01 +5.52023E+01 +7.47608E+01
 +3.24374E+01 +8.70365E+01 +7.16994E+00 +9.25667E+01 -1.86483E+01 +9.09232E+01 -4.30236E+01 +8.22305E+01
 -6.40731E+01 +6.71557E+01 -8.01699E+01 +4.68574E+01 -9.00679E+01 +2.28963E+01 -9.29974E+01 -2.88499E+00
 -8.87239E+01 -2.85036E+01 -7.75658E+01 -5.19885E+01 -6.03701E+01 -7.15319E+01 -3.84468E+01 -8.56274E+01
 -1.34683E+01 -9.31860E+01 +1.26587E+01 -9.36186E+01 +3.79399E+01 -8.68810E+01 +6.04454E+01 -7.34769E+01
 +7.84578E+01 -5.44188E+01 +9.06032E+01 -3.11499E+01 +9.59555E+01 -5.43342E+00 +9.41068E+01 +2.07826E+01
 +8.51977E+01 +4.55145E+01 +6.99052E+01 +6.68941E+01 +4.93907E+01 +8.33118E+01 +2.52095E+01 +9.35380E+01
 -8.08384E-01 +9.68166E+01 -2.66987E+01 +9.29212E+01 -5.05132E+01 +8.21711E+01 -7.04686E+01 +6.54047E+01
 -8.50817E+01 +4.39143E+01 -9.32820E+01 +1.93455E+01 -9.44918E+01 -6.42990E+00 -8.86682E+01 -3.14578E+01
 -7.63046E+01 -5.38516E+01 -5.83901E+01 -7.19364E+01 -3.63319E+01 -8.43765E+01 -1.18453E+01 -9.02761E+01
 +1.31795E+01 -8.92458E+01 +3.68234E+01 -8.14307E+01 +5.72860E+01 -6.74960E+01 +7.30240E+01 -4.85737E+01
 +8.28685E+01 -2.61729E+01 +8.61138E+01 -2.06156E+00 +8.25697E+01 +2.18714E+01 +7.25739E+01 +4.37626E+01
 +5.69630E+01 +6.19185E+01 +3.70066E+01 +7.49463E+01 +1.43057E+01 +8.18603E+01 -9.33172E+00 +8.21574E+01
 -3.20329E+01 +7.58543E+01 -5.20059E+01 +6.34847E+01 -6.76791E+01 +4.60562E+01 -7.78230E+01 +2.49705E+01
 -8.16455E+01 +1.91326E+00 -7.88530E+01 -2.12778E+01 -6.96723E+01 -4.27569E+01 -5.48327E+01 -6.08140E+01
 -3.55084E+01 -7.40081E+01 -1.32270E+01 -8.12802E+01 +1.02498E+01 -8.20353E+01 +3.30637E+01 -7.61893E+01
 +5.34045E+01 -6.41759E+01 +6.96509E+01 -4.69134E+01 +8.04977E+01 -2.57338E+01 +8.50570E+01 -2.27960E+00
 +8.29285E+01 +2.16228E+01 +7.42314E+01 +4.41051E+01 +5.95962E+01 +6.34014E+01 +4.01173E+01 +7.79856E+01
 +1.72692E+01 +8.66896E+01 -7.20660E+00 +8.87950E+01 -3.14349E+01 +8.40891E+01 -5.35512E+01 +7.28831E+01
 -7.18454E+01 +5.59887E+01 -8.48933E+01 +3.46576E+01 -9.16665E+01 +1.04860E+01 -9.16125E+01 -1.47068E+01
 -8.46974E+01 -3.90175E+01 -7.14097E+01 -6.06041E+01 -5.27238E+01 -7.78266E+01 -3.00259E+01 -8.93726E+01
 -5.00923E+00 -9.43573E+01 +2.04552E+01 -9.23918E+01 +4.44605E+01 -8.36122E+01 +6.52092E+01 -6.86700E+01
 +8.11500E+01 -4.86818E+01 +9.10949E+01 -2.51447E+01 +9.43098E+01 +1.78303E-01 +9.05691E+01 +2.53918E+01
 +8.01726E+01 +4.86126E+01 +6.39212E+01 +6.81126E+01 +4.30551E+01 +8.24495E+01 +1.91588E+01 +9.05756E+01
 -5.96050E+00 +9.19165E+01 -3.04110E+01 +8.64129E+01 -5.23601E+01 +7.45237E+01 -7.01738E+01 +5.71887E+01
 -8.25405E+01 +3.57559E+01 -8.85689E+01 +1.18764E+01 -8.78549E+01 -1.26222E+01 -8.05099E+01 -3.58764E+01
 -6.71497E+01 -5.61290E+01 -4.88454E+01 -7.18634E+01 -2.70391E+01 -8.19176E+01 -3.43170E+00 -8.55725E+01
 +2.01490E+01 -8.26041E+01 +4.18889E+01 -7.32986E+01 +6.01273E+01 -5.84277E+01 +7.34834E+01 -3.91870E+01
 +8.09617E+01 -1.71021E+01 +8.20265E+01 +6.09103E+00 +7.66417E+01 +2.85804E+01 +6.52706E+01 +4.86187E+01
 +4.88383E+01 +6.46576E+01 +2.86584E+01 +7.54670E+01 +6.32953E+00 +8.02288E+01 -1.63896E+01 +7.85987E+01
 -3.77167E+01 +7.07314E+01 -5.59848E+01 +5.72663E+01 -6.97706E+01 +3.92773E+01 -7.80044E+01 +1.81871E+01
 -8.00524E+01 -4.34351E+00 -7.57646E+01 -2.65453E+01 -6.54852E+01 -4.66787E+01 -5.00253E+01 -6.31684E+01
