 Created: 19-Jan-2021
 $NMID
 ID='D:\BASISSIMULATI'
 FMTDAT='(8E13.5)'
 VOLUME=   1.00000E+00
 TRAMP=   1.00000E+00
 $END
 +1.11305E+02 +1.84272E+01 +1.00747E+02 +2.69757E+01 +7.53017E+01 +3.51351E+01 +4.12075E+01 +4.44905E+01
 +6.77424E+00 +5.46685E+01 -2.02736E+01 +6.32665E+01 -3.51311E+01 +6.68595E+01 -3.71025E+01 +6.26339E+01
 -2.92935E+01 +4.99066E+01 -1.70385E+01 +3.08288E+01 -5.76056E+00 +9.91791E+00 +8.77804E-01 -7.42811E+00
 +1.87160E+00 -1.68451E+01 -1.39683E+00 -1.65654E+01 -6.31364E+00 -8.00107E+00 -1.04594E+01 +4.87240E+00
 -1.26491E+01 +1.70518E+01 -1.31810E+01 +2.43208E+01 -1.32935E+01 +2.46167E+01 -1.42040E+01 +1.84514E+01
 -1.62676E+01 +8.30948E+00 -1.86928E+01 -2.62141E+00 -1.99452E+01 -1.17839E+01 -1.86043E+01 -1.80748E+01
 -1.42107E+01 -2.18701E+01 -7.63903E+00 -2.43525E+01 -7.71527E-01 -2.65633E+01 +4.39737E+00 -2.86950E+01
 +6.79657E+00 -2.99857E+01 +6.92797E+00 -2.92444E+01 +6.76614E+00 -2.57005E+01 +8.89222E+00 -1.96911E+01
 +1.52215E+01 -1.27722E+01 +2.59064E+01 -7.12342E+00 +3.89560E+01 -4.48695E+00 +5.08108E+01 -5.14698E+00
 +5.76884E+01 -7.48842E+00 +5.71450E+01 -8.44124E+00 +4.91715E+01 -4.71481E+00 +3.63137E+01 +5.66220E+00
 +2.27129E+01 +2.21733E+01 +1.24409E+01 +4.15879E+01 +7.82162E+00 +5.88755E+01 +8.46607E+00 +6.89703E+01
 +1.14573E+01 +6.87071E+01 +1.26361E+01 +5.81338E+01 +8.46011E+00 +4.06289E+01 -2.34891E+00 +2.17266E+01
 -1.80817E+01 +7.08500E+00 -3.45712E+01 +3.94536E-01 -4.67776E+01 +2.06357E+00 -5.07804E+01 +9.20397E+00
 -4.53566E+01 +1.69132E+01 -3.24914E+01 +2.03204E+01 -1.66169E+01 +1.65607E+01 -2.90073E+00 +5.88329E+00
 +4.70390E+00 -8.52790E+00 +4.85513E+00 -2.19088E+01 -8.77343E-01 -2.98561E+01 -8.87857E+00 -3.00487E+01
 -1.51063E+01 -2.30656E+01 -1.67512E+01 -1.20206E+01 -1.32490E+01 -1.22846E+00 -6.26340E+00 +5.49551E+00
 +1.27920E+00 +6.19333E+00 +6.62104E+00 +1.26411E+00 +8.41282E+00 -7.00862E+00 +7.22698E+00 -1.55970E+01
 +5.16065E+00 -2.19754E+01 +4.76089E+00 -2.49255E+01 +7.79682E+00 -2.46087E+01 +1.44447E+01 -2.19846E+01
 +2.32352E+01 -1.79620E+01 +3.17444E+01 -1.27682E+01 +3.76666E+01 -5.87626E+00 +3.97470E+01 +3.47876E+00
 +3.81425E+01 +1.54886E+01 +3.40752E+01 +2.91326E+01 +2.89932E+01 +4.21127E+01 +2.36978E+01 +5.14932E+01
 +1.79053E+01 +5.48167E+01 +1.04956E+01 +5.12058E+01 +3.40845E-01 +4.19164E+01 -1.26997E+01 +3.00238E+01
 -2.71535E+01 +1.93034E+01 -4.00704E+01 +1.27431E+01 -4.79687E+01 +1.13223E+01 -4.82435E+01 +1.36116E+01
 -4.04315E+01 +1.64065E+01 -2.67320E+01 +1.61628E+01 -1.14669E+01 +1.06340E+01 +3.88434E-01 -2.26020E-03
 +5.05678E+00 -1.30443E+01 +1.44116E+00 -2.42773E+01 -8.39377E+00 -2.97007E+01 -1.99818E+01 -2.72526E+01
 -2.81853E+01 -1.77934E+01 -2.92137E+01 -4.90690E+00 -2.21147E+01 +6.42804E+00 -9.13064E+00 +1.17686E+01
 +5.22677E+00 +8.95306E+00 +1.60020E+01 -1.05535E+00 +1.97738E+01 -1.45664E+01 +1.59828E+01 -2.66316E+01
 +7.08251E+00 -3.29706E+01 -2.51859E+00 -3.15692E+01 -8.26451E+00 -2.33138E+01 -7.25350E+00 -1.14466E+01
 +6.89348E-01 -1.17335E-01 +1.30656E+01 +7.32859E+00 +2.58006E+01 +9.60825E+00 +3.48776E+01 +7.81151E+00
 +3.78141E+01 +4.69724E+00 +3.43958E+01 +3.34084E+00 +2.64387E+01 +5.75376E+00 +1.67764E+01 +1.20691E+01
 +7.98257E+00 +2.06036E+01 +1.41070E+00 +2.87029E+01 -3.06623E+00 +3.39369E+01 -6.58135E+00 +3.50857E+01
 -1.03778E+01 +3.24893E+01 -1.49789E+01 +2.76558E+01 -1.98472E+01 +2.23755E+01 -2.36875E+01 +1.78104E+01
 -2.52133E+01 +1.40132E+01 -2.39572E+01 +1.01011E+01 -2.06798E+01 +4.97070E+00 -1.71273E+01 -1.83753E+00
 -1.52204E+01 -9.59709E+00 -1.60526E+01 -1.64980E+01 -1.92016E+01 -2.03943E+01 -2.27373E+01 -1.98664E+01
 -2.39913E+01 -1.50809E+01 -2.07904E+01 -7.99139E+00 -1.26031E+01 -1.70611E+00 -1.05015E+00 +7.62507E-01
 +1.05212E+01 -2.15634E+00 +1.82856E+01 -9.76123E+00 +1.95220E+01 -1.91820E+01 +1.38534E+01 -2.64430E+01
 +3.58294E+00 -2.80851E+01 -7.07393E+00 -2.26742E+01 -1.35921E+01 -1.15391E+01 -1.29369E+01 +1.61821E+00
 -4.81847E+00 +1.21242E+01 +8.13549E+00 +1.61985E+01 +2.13794E+01 +1.25192E+01 +3.02277E+01 +2.82884E+00
 +3.16879E+01 -8.68608E+00 +2.56001E+01 -1.70098E+01 +1.46234E+01 -1.82572E+01 +3.09058E+00 -1.11896E+01
 -4.78246E+00 +2.31996E+00 -6.58378E+00 +1.80423E+01 -2.60215E+00 +3.10396E+01 +4.41088E+00 +3.75234E+01
 +1.04770E+01 +3.61771E+01 +1.20794E+01 +2.84447E+01 +7.58976E+00 +1.77309E+01 -2.14075E+00 +7.90494E+00
 -1.42266E+01 +1.76516E+00 -2.49862E+01 +9.26964E-02 -3.14117E+01 +1.63441E+00 -3.22459E+01 +3.93656E+00
 -2.82498E+01 +4.59324E+00 -2.16218E+01 +2.32833E+00 -1.48976E+01 -2.55072E+00 -9.86325E+00 -8.47157E+00
 -6.96382E+00 -1.34702E+01 -5.42337E+00 -1.61605E+01 -3.94562E+00 -1.63283E+01 -1.59398E+00 -1.48872E+01
 +1.61340E+00 -1.32594E+01 +4.69546E+00 -1.25281E+01 +6.28079E+00 -1.28138E+01 +5.45471E+00 -1.32087E+01
 +2.42619E+00 -1.23136E+01 -1.36115E+00 -9.11094E+00 -3.78102E+00 -3.72029E+00 -3.01310E+00 +2.38512E+00
 +1.49423E+00 +6.87262E+00 +8.57109E+00 +7.58241E+00 +1.56548E+01 +3.64129E+00 +1.98155E+01 -3.88026E+00
 +1.90564E+01 -1.21348E+01 +1.33075E+01 -1.75005E+01 +4.63173E+00 -1.70460E+01 -3.50925E+00 -9.84555E+00
 -7.66619E+00 +2.44469E+00 -5.90904E+00 +1.60516E+01 +1.22696E+00 +2.64559E+01 +1.07998E+01 +3.01399E+01
 +1.85515E+01 +2.59965E+01 +2.06134E+01 +1.58071E+01 +1.51320E+01 +3.56600E+00 +3.12927E+00 -6.08979E+00
 -1.17814E+01 -9.71269E+00 -2.47341E+01 -6.39053E+00 -3.14734E+01 +1.94112E+00 -2.99893E+01 +1.13396E+01
 -2.12655E+01 +1.74908E+01 -8.84569E+00 +1.74576E+01 +2.58954E+00 +1.08262E+01 +9.04490E+00 -2.02464E-01
 +8.69270E+00 -1.17795E+01 +2.43757E+00 -1.99989E+01 -6.61921E+00 -2.24365E+01 -1.45419E+01 -1.90075E+01
 -1.81518E+01 -1.18282E+01 -1.61895E+01 -4.19449E+00 -9.60990E+00 +8.42562E-01 -9.60613E-01 +1.68328E+00
 +6.81509E+00 -1.32204E+00 +1.15945E+01 -6.23822E+00 +1.27907E+01 -1.05463E+01 +1.13112E+01 -1.22912E+01
 +8.86250E+00 -1.08587E+01 +6.99176E+00 -7.06755E+00 +6.34697E+00 -2.59716E+00 +6.49578E+00 +9.20879E-01
 +6.35007E+00 +2.68498E+00 +4.93783E+00 +3.00318E+00 +2.09626E+00 +2.96074E+00 -1.29388E+00 +3.67681E+00
 -3.67620E+00 +5.55729E+00 -3.62170E+00 +7.95211E+00 -6.66369E-01 +9.42186E+00 +4.25769E+00 +8.50693E+00
 +9.06064E+00 +4.62451E+00 +1.13489E+01 -1.37388E+00 +9.53251E+00 -7.31616E+00 +3.67315E+00 -1.05195E+01
 -4.35570E+00 -8.98031E+00 -1.15307E+01 -2.41730E+00 -1.49246E+01 +7.33883E+00 -1.30117E+01 +1.68539E+01
 -6.44919E+00 +2.23543E+01 +2.05096E+00 +2.12531E+01 +8.75929E+00 +1.32982E+01 +1.04740E+01 +8.28897E-01
 +5.92996E+00 -1.20165E+01 -3.54213E+00 -2.08556E+01 -1.44219E+01 -2.27635E+01 -2.23414E+01 -1.74251E+01
 -2.38330E+01 -7.25526E+00 -1.77671E+01 +3.57085E+00 -5.87915E+00 +1.07863E+01 +7.84456E+00 +1.17172E+01
 +1.86834E+01 +6.29806E+00 +2.29916E+01 -2.98682E+00 +1.95709E+01 -1.21895E+01 +1.00666E+01 -1.75437E+01
 -1.75061E+00 -1.69787E+01 -1.14961E+01 -1.08849E+01 -1.58466E+01 -1.84279E+00 -1.37077E+01 +6.53130E+00
 -6.43890E+00 +1.11076E+01 +2.88868E+00 +1.04850E+01 +1.08333E+01 +5.45214E+00 +1.49286E+01 -1.48268E+00
 +1.44856E+01 -7.24081E+00 +1.05751E+01 -9.47699E+00 +5.28593E+00 -7.47879E+00 +6.64212E-01 -2.31084E+00
 -2.16021E+00 +3.79712E+00 -3.28080E+00 +8.49097E+00 -3.67216E+00 +1.02705E+01 -4.43112E+00 +8.98070E+00
 -6.02266E+00 +5.64527E+00 -7.93026E+00 +1.79113E+00 -8.89343E+00 -1.36049E+00 -7.61195E+00 -3.42098E+00
 -3.55414E+00 -4.83058E+00 +2.55779E+00 -6.35926E+00 +8.86516E+00 -8.40841E+00 +1.30834E+01 -1.05196E+01
 +1.35007E+01 -1.13991E+01 +9.80118E+00 -9.50496E+00 +3.30603E+00 -3.94524E+00 -3.51776E+00 +4.75694E+00
 -8.09558E+00 +1.44586E+01 -8.87795E+00 +2.19498E+01 -6.05021E+00 +2.41162E+01 -1.47275E+00 +1.92592E+01
 +2.15586E+00 +7.99952E+00 +2.56366E+00 -6.67427E+00 -9.63359E-01 -2.03156E+01 -7.11061E+00 -2.85817E+01
 -1.29780E+01 -2.88482E+01 -1.52901E+01 -2.12234E+01 -1.18763E+01 -8.53320E+00 -2.77913E+00 +4.73877E+00
 +9.51663E+00 +1.41462E+01 +2.08849E+01 +1.69353E+01 +2.71004E+01 +1.30004E+01 +2.55109E+01 +4.77112E+00
 +1.61531E+01 -3.89889E+00 +1.84310E+00 -9.36170E+00 -1.28139E+01 -9.64292E+00 -2.31093E+01 -5.15145E+00
 -2.59442E+01 +1.63198E+00 -2.08984E+01 +7.31645E+00 -1.02533E+01 +9.09203E+00 +2.00170E+00 +5.91058E+00
 +1.17463E+01 -1.12760E+00 +1.62397E+01 -9.30951E+00 +1.49783E+01 -1.54985E+01 +9.61147E+00 -1.74420E+01
 +3.02940E+00 -1.46374E+01 -1.93098E+00 -8.41458E+00 -3.59630E+00 -1.24734E+00 -1.94262E+00 +4.35921E+00
 +1.67658E+00 +6.89481E+00 +5.35268E+00 +6.34263E+00 +7.56330E+00 +3.97195E+00 +7.78950E+00 +1.57568E+00
 +6.55688E+00 +5.48155E-01 +4.94488E+00 +1.24884E+00 +3.86544E+00 +2.93845E+00 +3.50924E+00 +4.28525E+00
 +3.25453E+00 +4.16122E+00 +2.08379E+00 +2.31071E+00 -7.16639E-01 -4.56774E-01 -4.95723E+00 -2.65875E+00
 -9.39442E+00 -2.93066E+00 -1.21622E+01 -8.20755E-01 -1.16262E+01 +2.82538E+00 -7.26845E+00 +6.12101E+00
 -1.58705E-01 +6.96129E+00 +7.27214E+00 +4.05540E+00 +1.21296E+01 -2.31641E+00 +1.22781E+01 -1.02085E+01
 +7.35871E+00 -1.66811E+01 -8.74700E-01 -1.89910E+01 -9.11120E+00 -1.58029E+01 -1.37554E+01 -7.87927E+00
 -1.24180E+01 +2.08625E+00 -5.00021E+00 +1.04687E+01 +6.10944E+00 +1.41532E+01 +1.68539E+01 +1.18175E+01
 +2.30453E+01 +4.50390E+00 +2.20182E+01 -4.78263E+00 +1.37288E+01 -1.23031E+01 +8.49149E-01 -1.51349E+01
 -1.21925E+01 -1.23935E+01 -2.08457E+01 -5.60354E+00 -2.20991E+01 +1.94774E+00 -1.55213E+01 +6.61275E+00
 -3.29800E+00 +5.95898E+00 +1.07048E+01 -1.42362E-01 +2.24303E+01 -9.37291E+00 +2.90551E+01 -1.78349E+01
 +2.97944E+01 -2.15787E+01 +2.58257E+01 -1.81709E+01 +1.94543E+01 -7.67654E+00 +1.29562E+01 +7.32048E+00
 +7.63270E+00 +2.26404E+01 +3.47724E+00 +3.39807E+01 -4.54612E-01 +3.83506E+01 -5.21283E+00 +3.49325E+01
 -1.11042E+01 +2.51042E+01 -1.72645E+01 +1.17098E+01 -2.18748E+01 -2.04118E+00 -2.29314E+01 -1.35688E+01
 -1.92091E+01 -2.14476E+01 -1.09631E+01 -2.53555E+01 -2.41655E-02 -2.56225E+01 +1.07774E+01 -2.27132E+01
 +1.86235E+01 -1.69606E+01 +2.17220E+01 -8.68292E+00 +1.98883E+01 +1.43075E+00 +1.44625E+01 +1.19590E+01
 +7.62733E+00 +2.07249E+01 +1.45780E+00 +2.52659E+01 -2.85691E+00 +2.36900E+01 -5.27860E+00 +1.55758E+01
