 Created: 19-Jan-2021
 $NMID
 ID='D:\BASISSIMULATI'
 FMTDAT='(8E13.5)'
 VOLUME=   1.00000E+00
 TRAMP=   1.00000E+00
 $END
 +8.54776E+01 +1.55095E+01 +7.55236E+01 +2.02652E+01 +5.28837E+01 +2.36996E+01 +2.30819E+01 +2.73013E+01
 -6.73508E+00 +3.13874E+01 -2.99780E+01 +3.48970E+01 -4.25137E+01 +3.59152E+01 -4.36366E+01 +3.26674E+01
 -3.58305E+01 +2.45138E+01 -2.34950E+01 +1.24721E+01 -1.11854E+01 -9.87673E-01 -2.05596E+00 -1.28076E+01
 +2.93652E+00 -2.04957E+01 +4.85520E+00 -2.30639E+01 +5.82445E+00 -2.13326E+01 +7.78285E+00 -1.74584E+01
 +1.15160E+01 -1.38861E+01 +1.63682E+01 -1.21861E+01 +2.07024E+01 -1.22997E+01 +2.28352E+01 -1.25477E+01
 +2.19695E+01 -1.04266E+01 +1.86631E+01 -3.86641E+00 +1.46026E+01 +7.59460E+00 +1.17795E+01 +2.22519E+01
 +1.14542E+01 +3.65841E+01 +1.34058E+01 +4.64231E+01 +1.58502E+01 +4.85054E+01 +1.61174E+01 +4.17835E+01
 +1.18362E+01 +2.79543E+01 +2.12840E+00 +1.09595E+01 -1.17154E+01 -4.37366E+00 -2.64144E+01 -1.40344E+01
 -3.77168E+01 -1.62164E+01 -4.18917E+01 -1.18520E+01 -3.71195E+01 -4.09775E+00 -2.42268E+01 +3.01015E+00
 -6.46751E+00 +6.18319E+00 +1.15715E+01 +4.14214E+00 +2.55183E+01 -1.97441E+00 +3.26194E+01 -9.18785E+00
 +3.24732E+01 -1.39758E+01 +2.68507E+01 -1.37378E+01 +1.87338E+01 -7.83203E+00 +1.10120E+01 +2.22048E+00
 +5.39260E+00 +1.34084E+01 +1.96117E+00 +2.24644E+01 -4.73321E-01 +2.71256E+01 -3.46355E+00 +2.68972E+01
 -7.89846E+00 +2.30317E+01 -1.33647E+01 +1.77801E+01 -1.82062E+01 +1.32858E+01 -2.02676E+01 +1.06286E+01
 -1.79875E+01 +9.44517E+00 -1.13303E+01 +8.27884E+00 -2.10086E+00 +5.47578E+00 +6.56005E+00 +1.97437E-01
 +1.13388E+01 -6.93988E+00 +1.01113E+01 -1.39216E+01 +2.93132E+00 -1.80994E+01 -7.80081E+00 -1.73501E+01
 -1.81095E+01 -1.11248E+01 -2.38904E+01 -9.05146E-01 -2.24796E+01 +1.01727E+01 -1.37258E+01 +1.84198E+01
 -1.30641E-01 +2.09970E+01 +1.40129E+01 +1.70510E+01 +2.41597E+01 +8.10776E+00 +2.71359E+01 -2.45736E+00
 +2.22270E+01 -1.06792E+01 +1.13289E+01 -1.34993E+01 -1.86610E+00 -9.90734E+00 -1.32954E+01 -1.27815E+00
 -1.99877E+01 +9.21718E+00 -2.09945E+01 +1.78730E+01 -1.74671E+01 +2.18649E+01 -1.19143E+01 +2.02496E+01
 -7.00914E+00 +1.41672E+01 -4.47371E+00 +6.19951E+00 -4.50403E+00 -8.05727E-01 -5.93780E+00 -4.92810E+00
 -7.03129E+00 -5.87597E+00 -6.44792E+00 -4.91654E+00 -3.98212E+00 -4.09754E+00 -6.78279E-01 -5.13350E+00
 +1.70742E+00 -8.47304E+00 +1.64476E+00 -1.29796E+01 -1.28360E+00 -1.63833E+01 -5.98500E+00 -1.63167E+01
 -1.01760E+01 -1.14798E+01 -1.13220E+01 -2.41049E+00 -7.81072E+00 +8.50772E+00 +1.56801E-01 +1.78453E+01
 +1.03787E+01 +2.24308E+01 +1.93088E+01 +2.06308E+01 +2.33394E+01 +1.30670E+01 +2.02194E+01 +2.45670E+00
 +1.00330E+01 -7.38389E+00 -4.67386E+00 -1.29881E+01 -1.97010E+01 -1.25630E+01 -3.06443E+01 -6.66072E+00
 -3.44360E+01 +2.06936E+00 -3.03836E+01 +9.94131E+00 -2.03168E+01 +1.36755E+01 -7.80600E+00 +1.16445E+01
 +3.21917E+00 +4.43608E+00 +9.89250E+00 -5.46816E+00 +1.13234E+01 -1.47322E+01 +8.67049E+00 -2.04762E+01
 +4.40323E+00 -2.13163E+01 +1.10720E+00 -1.77273E+01 +3.60074E-01 -1.16247E+01 +2.14873E+00 -5.39260E+00
 +5.04521E+00 -8.14364E-01 +7.02139E+00 +1.62008E+00 +6.50629E+00 +2.73795E+00 +3.19375E+00 +4.05819E+00
 -1.76991E+00 +6.83128E+00 -6.30401E+00 +1.12115E+01 -8.38149E+00 +1.59695E+01 -7.03436E+00 +1.89110E+01
 -2.90768E+00 +1.78414E+01 +1.91450E+00 +1.16624E+01 +4.76785E+00 +1.09928E+00 +3.60009E+00 -1.12976E+01
 -2.01691E+00 -2.19383E+01 -1.05114E+01 -2.74848E+01 -1.87729E+01 -2.61397E+01 -2.33003E+01 -1.84023E+01
 -2.15918E+01 -6.96213E+00 -1.32146E+01 +4.25540E+00 -1.09134E-01 +1.15302E+01 +1.40167E+01 +1.27152E+01
 +2.49802E+01 +7.99410E+00 +2.96064E+01 -2.65090E-01 +2.68254E+01 -8.48946E+00 +1.79682E+01 -1.33142E+01
 +6.16928E+00 -1.28617E+01 -4.86283E+00 -7.38763E+00 -1.22001E+01 +9.37940E-01 -1.46417E+01 +8.98930E+00
 -1.29056E+01 +1.39633E+01 -9.04578E+00 +1.44431E+01 -5.39182E+00 +1.08253E+01 -3.49671E+00 +4.96975E+00
 -3.54455E+00 -7.31063E-01 -4.45084E+00 -4.43256E+00 -4.57053E+00 -5.58600E+00 -2.65855E+00 -5.03777E+00
 +1.38032E+00 -4.46003E+00 +6.31473E+00 -5.39462E+00 +1.00818E+01 -8.36508E+00 +1.07429E+01 -1.24810E+01
 +7.46871E+00 -1.57383E+01 +1.09318E+00 -1.59044E+01 -6.04881E+00 -1.16067E+01 -1.09787E+01 -3.13534E+00
 -1.12940E+01 +7.42270E+00 -6.24465E+00 +1.68232E+01 +2.80337E+00 +2.18530E+01 +1.27478E+01 +2.05951E+01
 +1.98583E+01 +1.32495E+01 +2.11931E+01 +2.15533E+00 +1.57649E+01 -9.02025E+00 +4.98681E+00 -1.66203E+01
 -7.79230E+00 -1.83409E+01 -1.84871E+01 -1.40493E+01 -2.37467E+01 -5.75961E+00 -2.21271E+01 +3.21074E+00
 -1.45236E+01 +9.55462E+00 -3.72074E+00 +1.12258E+01 +6.72904E+00 +8.13316E+00 +1.38304E+01 +2.02472E+00
 +1.61459E+01 -4.35502E+00 +1.41030E+01 -8.45477E+00 +9.53899E+00 -8.94517E+00 +4.73572E+00 -6.16500E+00
 +1.39192E+00 -1.82538E+00 -1.69374E-02 +1.86516E+00 -2.37304E-01 +3.24729E+00 -6.38246E-01 +1.95862E+00
 -2.32841E+00 -9.45608E-01 -5.42745E+00 -3.54277E+00 -8.85457E+00 -4.00751E+00 -1.07557E+01 -1.54749E+00
 -9.39235E+00 +3.12340E+00 -4.09004E+00 +8.00643E+00 +4.20234E+00 +1.06591E+01 +1.30395E+01 +9.30212E+00
 +1.92974E+01 +3.70796E+00 +2.03794E+01 -4.53218E+00 +1.53237E+01 -1.25129E+01 +5.33650E+00 -1.71115E+01
 -6.50413E+00 -1.62414E+01 -1.62968E+01 -9.74624E+00 -2.07302E+01 +4.44558E-01 -1.83139E+01 +1.09804E+01
 -9.94367E+00 +1.83225E+01 +1.42776E+00 +2.00590E+01 +1.18845E+01 +1.57817E+01 +1.79813E+01 +7.18309E+00
 +1.79605E+01 -2.65186E+00 +1.22938E+01 -1.04581E+01 +3.36647E+00 -1.40121E+01 -5.53309E+00 -1.28755E+01
 -1.14882E+01 -8.38623E+00 -1.29785E+01 -2.93742E+00 -1.02669E+01 +1.11834E+00 -5.04588E+00 +2.46195E+00
 +4.51784E-01 +1.28015E+00 +4.45539E+00 -9.61896E-01 +6.33108E+00 -2.31822E+00 +6.65368E+00 -1.35416E+00
 +6.68427E+00 +2.12126E+00 +7.53292E+00 +6.91515E+00 +9.42567E+00 +1.09687E+01 +1.14434E+01 +1.23029E+01
 +1.18805E+01 +9.96796E+00 +9.08127E+00 +4.56264E+00 +2.37954E+00 -1.92626E+00 -7.30071E+00 -6.91891E+00
 -1.74995E+01 -8.34395E+00 -2.49704E+01 -5.57409E+00 -2.68634E+01 +2.19825E-01 -2.18750E+01 +6.47382E+00
 -1.08881E+01 +1.02523E+01 +3.18675E+00 +9.47697E+00 +1.63434E+01 +3.85377E+00 +2.48453E+01 -4.89759E+00
 +2.65077E+01 -1.36283E+01 +2.14064E+01 -1.89419E+01 +1.17505E+01 -1.85080E+01 +9.86636E-01 -1.19861E+01
 -7.49947E+00 -1.18967E+00 -1.15677E+01 +1.05719E+01 -1.09460E+01 +1.97099E+01 -7.08370E+00 +2.36476E+01
 -2.34910E+00 +2.16844E+01 +1.05347E+00 +1.51131E+01 +1.97641E+00 +6.58152E+00 +6.67839E-01 -1.01102E+00
 -1.55039E+00 -5.61452E+00 -3.07774E+00 -6.68614E+00 -2.91144E+00 -5.17006E+00 -1.18675E+00 -2.86073E+00
 +8.75621E-01 -1.46866E+00 +1.59563E+00 -1.81910E+00 -2.54583E-01 -3.53419E+00 -4.68371E+00 -5.31925E+00
 -1.02396E+01 -5.69569E+00 -1.44512E+01 -3.82182E+00 -1.48116E+01 -5.08961E-03 -9.90671E+00 +4.34811E+00
 -2.09168E-01 +7.33969E+00 +1.18339E+01 +7.47854E+00 +2.25084E+01 +4.45960E+00 +2.81037E+01 -5.50400E-01
 +2.62717E+01 -5.28786E+00 +1.69496E+01 -7.30553E+00 +2.47753E+00 -5.05472E+00 -1.31452E+01 +1.32777E+00
 -2.55942E+01 +9.88979E+00 -3.16449E+01 +1.74900E+01 -3.01648E+01 +2.09644E+01 -2.23308E+01 +1.83813E+01
 -1.10342E+01 +9.88019E+00 +2.50014E-01 -2.25902E+00 +8.66721E+00 -1.43671E+01 +1.28041E+01 -2.26810E+01
 +1.28591E+01 -2.46888E+01 +1.01793E+01 -2.00063E+01 +6.44067E+00 -1.04559E+01 +2.86929E+00 +6.67178E-01
 -1.53706E-01 +9.83676E+00 -2.96752E+00 +1.45507E+01 -6.10595E+00 +1.41167E+01 -9.67940E+00 +9.69215E+00
 -1.30133E+01 +3.61282E+00 -1.47631E+01 -1.66946E+00 -1.34915E+01 -4.57838E+00 -8.45423E+00 -4.92614E+00
 -2.18229E-01 -3.76523E+00 +9.22206E+00 -2.68968E+00 +1.69602E+01 -2.93287E+00 +2.01772E+01 -4.68798E+00
 +1.72484E+01 -6.96707E+00 +8.49929E+00 -8.06701E+00 -3.73117E+00 -6.43351E+00 -1.57997E+01 -1.52935E+00
 -2.40040E+01 +5.69878E+00 -2.59013E+01 +1.29937E+01 -2.11911E+01 +1.75660E+01 -1.18088E+01 +1.71761E+01
 -1.18681E+00 +1.10806E+01 +7.03809E+00 +4.43595E-01 +1.03682E+01 -1.19708E+01 +8.32167E+00 -2.27191E+01
 +2.50972E+00 -2.88590E+01 -4.09603E+00 -2.89317E+01 -8.39855E+00 -2.33753E+01 -8.41054E+00 -1.42331E+01
 -4.00102E+00 -4.30583E+00 +3.12711E+00 +3.88701E+00 +1.01918E+01 +8.91526E+00 +1.44878E+01 +1.07143E+01
 +1.44620E+01 +1.02714E+01 +1.02749E+01 +8.91954E+00 +3.64121E+00 +7.59746E+00 -2.95364E+00 +6.42655E+00
 -7.31122E+00 +4.79188E+00 -8.39965E+00 +1.86626E+00 -6.69520E+00 -2.70235E+00 -3.86388E+00 -8.30747E+00
 -1.94385E+00 -1.33883E+01 -2.39580E+00 -1.59811E+01 -5.43279E+00 -1.46140E+01 -9.91003E+00 -9.15243E+00
 -1.38078E+01 -1.18389E+00 -1.50865E+01 +6.30582E+00 -1.25402E+01 +9.92349E+00 -6.28766E+00 +7.19091E+00
 +2.29415E+00 -2.31158E+00 +1.11410E+01 -1.64638E+01 +1.83085E+01 -3.10439E+01 +2.26554E+01 -4.09980E+01
 +2.41118E+01 -4.21274E+01 +2.34418E+01 -3.25978E+01 +2.16452E+01 -1.37214E+01 +1.93096E+01 +1.02899E+01
 +1.62475E+01 +3.35292E+01 +1.16151E+01 +5.01483E+01 +4.48072E+00 +5.60639E+01 -5.41866E+00 +5.00556E+01
 -1.71052E+01 +3.39307E+01 -2.82942E+01 +1.17743E+01 -3.59481E+01 -1.13863E+01 -3.72952E+01 -3.10046E+01
 -3.09288E+01 -4.40582E+01 -1.75358E+01 -4.94437E+01 +8.51095E-02 -4.77303E+01 +1.77844E+01 -4.05105E+01
 +3.13625E+01 -2.96932E+01 +3.79405E+01 -1.70245E+01 +3.68861E+01 -3.95273E+00 +2.99367E+01 +8.24643E+00
 +2.04667E+01 +1.82972E+01 +1.21761E+01 +2.49176E+01 +7.70600E+00 +2.70754E+01 +7.70845E+00 +2.44229E+01
 +1.07223E+01 +1.76856E+01 +1.38847E+01 +8.74551E+00 +1.41832E+01 +2.65855E-01 +9.74401E+00 -5.09716E+00
 +6.50928E-01 -5.64025E+00 -1.10185E+01 -1.34445E+00 -2.19368E+01 +5.94355E+00 -2.87433E+01 +1.30262E+01
 -2.92523E+01 +1.64397E+01 -2.31923E+01 +1.37385E+01 -1.22183E+01 +4.49856E+00 +7.67163E-01 -9.36185E+00
 +1.26805E+01 -2.41036E+01 +2.12781E+01 -3.53690E+01 +2.57480E+01 -3.96381E+01 +2.66893E+01 -3.54080E+01
 +2.55590E+01 -2.36605E+01 +2.38721E+01 -7.45750E+00 +2.25206E+01 +9.16716E+00 +2.14868E+01 +2.25836E+01
 +2.00318E+01 +3.06860E+01 +1.72216E+01 +3.33489E+01 +1.25104E+01 +3.20915E+01 +6.09672E+00 +2.91378E+01
 -1.10869E+00 +2.63017E+01 -7.86628E+00 +2.41762E+01 -1.31365E+01 +2.19642E+01 -1.64796E+01 +1.80062E+01
