 Created: 19-Jan-2021
 $NMID
 ID='D:\BASISSIMULATI'
 FMTDAT='(8E13.5)'
 VOLUME=   1.00000E+00
 TRAMP=   1.00000E+00
 $END
 +3.85809E+01 +5.87951E+00 +2.92882E+01 +2.43880E+01 +1.11251E+01 +3.38098E+01 -8.67893E+00 +3.07086E+01
 -2.23100E+01 +1.66837E+01 -2.45111E+01 -2.30720E+00 -1.46751E+01 -1.83720E+01 +2.94375E+00 -2.48697E+01
 +2.09740E+01 -1.90720E+01 +3.19113E+01 -3.23528E+00 +3.11370E+01 +1.63376E+01 +1.87575E+01 +3.18553E+01
 -4.67541E-01 +3.71769E+01 -1.90653E+01 +3.02667E+01 -2.98668E+01 +1.39835E+01 -2.88804E+01 -5.10184E+00
 -1.68692E+01 -1.93707E+01 +9.93109E-01 -2.32226E+01 +1.72346E+01 -1.53084E+01 +2.51055E+01 +9.61424E-01
 +2.12854E+01 +1.88232E+01 +7.19354E+00 +3.09033E+01 -1.16152E+01 +3.21864E+01 -2.77101E+01 +2.20132E+01
 -3.47813E+01 +4.31479E+00 -3.01631E+01 -1.39983E+01 -1.58748E+01 -2.58312E+01 +2.22797E+00 -2.67508E+01
 +1.68344E+01 -1.67415E+01 +2.21250E+01 -1.71599E-01 +1.60947E+01 +1.59983E+01 +1.32492E+00 +2.50338E+01
 -1.60918E+01 +2.31307E+01 -2.90281E+01 +1.09194E+01 -3.21931E+01 -6.82314E+00 -2.42417E+01 -2.31243E+01
 -8.28244E+00 -3.16309E+01 +9.40673E+00 -2.91516E+01 +2.19232E+01 -1.69080E+01 +2.45125E+01 -4.24863E-03
 +1.64536E+01 +1.46575E+01 +1.30905E+00 +2.11629E+01 -1.45470E+01 +1.69493E+01 -2.45147E+01 +3.80307E+00
 -2.44209E+01 -1.28986E+01 -1.41732E+01 -2.63794E+01 +2.23964E+00 -3.11963E+01 +1.83847E+01 -2.54115E+01
 +2.79866E+01 -1.13369E+01 +2.74415E+01 +5.43357E+00 +1.72333E+01 +1.82979E+01 +1.69787E+00 +2.23022E+01
 -1.27570E+01 +1.61085E+01 -2.02429E+01 +2.49191E+00 -1.77480E+01 -1.28168E+01 -6.31505E+00 -2.34625E+01
 +9.41879E+00 -2.50227E+01 +2.31194E+01 -1.67629E+01 +2.93134E+01 -1.89383E+00 +2.55741E+01 +1.37559E+01
 +1.34614E+01 +2.41028E+01 -2.14626E+00 +2.52480E+01 -1.50432E+01 +1.70138E+01 -2.01977E+01 +2.97106E+00
 -1.57538E+01 -1.10360E+01 -3.73716E+00 -1.92597E+01 +1.08035E+01 -1.83528E+01 +2.18566E+01 -8.68260E+00
 +2.48705E+01 +5.85850E+00 +1.85617E+01 +1.94544E+01 +5.39256E+00 +2.67183E+01 -9.45863E+00 +2.48457E+01
 -2.02036E+01 +1.47067E+01 -2.27683E+01 +4.52378E-01 -1.64020E+01 -1.21887E+01 -3.93397E+00 -1.82243E+01
 +9.40687E+00 -1.53878E+01 +1.81188E+01 -5.01040E+00 +1.86360E+01 +8.55998E+00 +1.07329E+01 +1.97408E+01
 -2.42871E+00 +2.39686E+01 -1.56092E+01 +1.95140E+01 -2.36169E+01 +8.13861E+00 -2.33852E+01 -5.65636E+00
 -1.51714E+01 -1.64680E+01 -2.40683E+00 -2.01653E+01 +9.72059E+00 -1.55238E+01 +1.63682E+01 -4.67230E+00
 +1.49717E+01 +7.80806E+00 +6.23823E+00 +1.67549E+01 -6.18494E+00 +1.85007E+01 -1.72138E+01 +1.23202E+01
 -2.23847E+01 +6.78372E-01 -1.96322E+01 -1.18021E+01 -1.00809E+01 -2.02223E+01 +2.45206E+00 -2.13704E+01
 +1.30241E+01 -1.49798E+01 +1.75607E+01 -3.78939E+00 +1.44701E+01 +7.59966E+00 +5.23896E+00 +1.45945E+01
 -6.21317E+00 +1.44476E+01 -1.51424E+01 +7.32544E+00 -1.78926E+01 -3.80582E+00 -1.33412E+01 -1.44131E+01
 -3.30683E+00 -2.02358E+01 +8.22587E+00 -1.89853E+01 +1.67352E+01 -1.12272E+01 +1.89782E+01 -1.06868E-01
 +1.42636E+01 +9.95173E+00 +4.68224E+00 +1.50359E+01 -5.77852E+00 +1.32976E+01 -1.28635E+01 +5.65379E+00
 -1.37550E+01 -4.63190E+00 -8.17298E+00 -1.32973E+01 +1.56031E+00 -1.68047E+01 +1.14968E+01 -1.37419E+01
 +1.76708E+01 -5.34705E+00 +1.76836E+01 +5.03519E+00 +1.16313E+01 +1.33294E+01 +2.01829E+00 +1.63703E+01
 -7.29037E+00 +1.31472E+01 -1.26387E+01 +5.16377E+00 -1.20345E+01 -4.21481E+00 -5.90948E+00 -1.11440E+01
 +3.10459E+00 -1.28454E+01 +1.12734E+01 -8.69368E+00 +1.52749E+01 -4.20761E-01 +1.35176E+01 +8.62566E+00
 +6.73834E+00 +1.48530E+01 -2.34143E+00 +1.58622E+01 -1.01448E+01 +1.13785E+01 -1.36846E+01 +3.31285E+00
 -1.17397E+01 -5.05016E+00 -5.30045E+00 -1.03934E+01 +2.87915E+00 -1.06902E+01 +9.42253E+00 -5.98115E+00
 +1.16921E+01 +1.69248E+00 +8.82348E+00 +9.15213E+00 +2.02639E+00 +1.33775E+01 -5.94851E+00 +1.27069E+01
 -1.19445E+01 +7.46574E+00 -1.36663E+01 -2.13273E-01 -1.05720E+01 -7.28611E+00 -4.04195E+00 -1.10329E+01
 +3.22246E+00 -1.01312E+01 +8.31012E+00 -5.14398E+00 +9.26480E+00 +1.75794E+00 +5.83679E+00 +7.70553E+00
 -4.66672E-01 +1.02941E+01 -7.03220E+00 +8.52740E+00 -1.12129E+01 +3.17353E+00 -1.13827E+01 -3.59255E+00
 -7.55313E+00 -9.09587E+00 -1.31874E+00 -1.12400E+01 +4.82511E+00 -9.32226E+00 +8.50211E+00 -4.26823E+00
 +8.39477E+00 +1.78841E+00 +4.73248E+00 +6.39351E+00 -8.51841E-01 +7.75809E+00 -6.01859E+00 +5.44634E+00
 -8.67559E+00 +5.01980E-01 -7.80077E+00 -5.01813E+00 -3.81037E+00 -8.89682E+00 +1.65783E+00 -9.64261E+00
 +6.43885E+00 -7.05504E+00 +8.71868E+00 -2.25600E+00 +7.73965E+00 +2.80548E+00 +4.05909E+00 +6.15781E+00
 -7.24464E-01 +6.58867E+00 -4.64739E+00 +4.09383E+00 -6.17432E+00 -1.71978E-01 -4.78812E+00 -4.40226E+00
 -1.15059E+00 -6.88289E+00 +3.21174E+00 -6.66713E+00 +6.55091E+00 -3.91614E+00 +7.59941E+00 +2.15509E-01
 +6.04889E+00 +4.08298E+00 +2.62575E+00 +6.22471E+00 -1.24708E+00 +5.93045E+00 -4.04745E+00 +3.48312E+00
 -4.75999E+00 -5.21936E-03 -3.24929E+00 -3.07730E+00 -2.64402E-01 -4.52504E+00 +2.90722E+00 -3.85226E+00
 +4.97932E+00 -1.42909E+00 +5.17434E+00 +1.70578E+00 +3.49892E+00 +4.29558E+00 +6.91887E-01 +5.37446E+00
 -2.11425E+00 +4.62872E+00 -3.86530E+00 +2.47615E+00 -3.99420E+00 -1.49497E-01 -2.60821E+00 -2.20300E+00
 -3.95528E-01 -2.94673E+00 +1.69088E+00 -2.21613E+00 +2.82948E+00 -4.37444E-01 +2.64195E+00 +1.58999E+00
 +1.30279E+00 +3.04088E+00 -5.79955E-01 +3.39072E+00 -2.24500E+00 +2.59300E+00 -3.09205E+00 +1.04958E+00
 -2.90029E+00 -5.94389E-01 -1.87257E+00 -1.73057E+00 -5.05609E-01 -2.02173E+00 +6.42181E-01 -1.49993E+00
 +1.17868E+00 -5.04136E-01 +1.00889E+00 +4.97750E-01 +3.26791E-01 +1.11423E+00 -5.09902E-01 +1.17363E+00
 -1.15266E+00 +7.53755E-01 -1.40174E+00 +1.01874E-01 -1.25672E+00 -5.03038E-01 -8.69874E-01 -8.74894E-01
 -4.40147E-01 -9.76885E-01 -1.08631E-01 -8.94468E-01 +9.25268E-02 -7.52745E-01 +2.19424E-01 -6.30932E-01
 +3.45763E-01 -5.22527E-01 +4.89984E-01 -3.60363E-01 +5.86773E-01 -8.73996E-02 +5.22734E-01 +2.72877E-01
 +2.17887E-01 +5.93806E-01 -2.94426E-01 +6.92563E-01 -8.40703E-01 +4.29302E-01 -1.16056E+00 -1.91985E-01
 -1.02529E+00 -9.79616E-01 -3.68367E-01 -1.60344E+00 +6.40192E-01 -1.72865E+00 +1.62479E+00 -1.17994E+00
 +2.14309E+00 -5.81499E-02 +1.88184E+00 +1.25614E+00 +8.23589E-01 +2.23109E+00 -6.99129E-01 +2.40235E+00
 -2.10297E+00 +1.59185E+00 -2.78013E+00 +2.55769E-02 -2.36400E+00 -1.71572E+00 -9.18474E-01 -2.90986E+00
 +1.04224E+00 -2.99295E+00 +2.72982E+00 -1.82096E+00 +3.39549E+00 +2.26049E-01 +2.65639E+00 +2.35774E+00
 +6.93243E-01 +3.67533E+00 -1.77784E+00 +3.54648E+00 -3.76580E+00 +1.89694E+00 -4.40358E+00 -7.13331E-01
 -3.32480E+00 -3.27885E+00 -8.55141E-01 -4.74068E+00 +2.07638E+00 -4.42906E+00 +4.28758E+00 -2.37134E+00
 +4.82326E+00 +6.74100E-01 +3.37028E+00 +3.49015E+00 +4.27870E-01 +4.88299E+00 -2.85314E+00 +4.18311E+00
 -5.11379E+00 +1.55537E+00 -5.34246E+00 -2.02300E+00 -3.31544E+00 -5.12540E+00 +2.68347E-01 -6.44576E+00
 +4.03052E+00 -5.34743E+00 +6.45167E+00 -2.16062E+00 +6.49457E+00 +1.90808E+00 +4.05639E+00 +5.23489E+00
 +5.35997E-02 +6.43229E+00 -3.91236E+00 +4.93383E+00 -6.18804E+00 +1.26398E+00 -5.74957E+00 -3.13246E+00
 -2.65203E+00 -6.44917E+00 +1.94920E+00 -7.24945E+00 +6.23113E+00 -5.07383E+00 +8.42846E+00 -6.67602E-01
 +7.56287E+00 +4.28020E+00 +3.87465E+00 +7.79699E+00 -1.23221E+00 +8.42771E+00 -5.72650E+00 +5.85116E+00
 -7.76330E+00 +1.05088E+00 -6.44845E+00 -4.04532E+00 -2.23755E+00 -7.32641E+00 +3.20724E+00 -7.35959E+00
 +7.66098E+00 -4.00067E+00 +9.23147E+00 +1.50569E+00 +7.14597E+00 +6.99319E+00 +2.10226E+00 +1.02337E+01
 -3.97316E+00 +9.84815E+00 -8.67810E+00 +5.89601E+00 -1.01043E+01 -1.08322E-01 -7.63219E+00 -5.77498E+00
 -2.21902E+00 -8.79284E+00 +3.95043E+00 -7.87752E+00 +8.32579E+00 -3.32417E+00 +9.02528E+00 +3.07187E+00
 +5.62303E+00 +8.71059E+00 -6.39158E-01 +1.12299E+01 -7.31700E+00 +9.47728E+00 -1.17321E+01 +4.01046E+00
 -1.20599E+01 -3.08835E+00 -8.09404E+00 -9.02615E+00 -1.36816E+00 -1.14222E+01 +5.43068E+00 -9.28838E+00
 +9.53280E+00 -3.46336E+00 +9.21445E+00 +3.68987E+00 +4.52403E+00 +9.21529E+00 -2.69919E+00 +1.07575E+01
 -9.53693E+00 +7.53573E+00 -1.31591E+01 +6.96451E-01 -1.19793E+01 -7.11354E+00 -6.32711E+00 -1.27941E+01
 +1.64736E+00 -1.40451E+01 +8.81307E+00 -1.03182E+01 +1.23135E+01 -3.07376E+00 +1.07346E+01 +4.77619E+00
 +4.70703E+00 +1.00270E+01 -3.31348E+00 +1.04810E+01 -1.00130E+01 +5.86115E+00 -1.25537E+01 -2.04081E+00
 -9.73825E+00 -1.00566E+01 -2.52728E+00 -1.49057E+01 +6.31306E+00 -1.45284E+01 +1.33040E+01 -8.94446E+00
 +1.56557E+01 -2.80515E-01 +1.24124E+01 +8.05906E+00 +4.87011E+00 +1.27550E+01 -3.91510E+00 +1.19232E+01
 -1.03418E+01 +5.90296E+00 -1.17194E+01 -2.84658E+00 -7.37685E+00 -1.07140E+01 +1.03320E+00 -1.43862E+01
 +1.01697E+01 -1.22006E+01 +1.63350E+01 -4.84620E+00 +1.69711E+01 +4.87988E+00 +1.17153E+01 +1.31765E+01
 +2.57931E+00 +1.67663E+01 -6.83427E+00 +1.42330E+01 -1.27717E+01 +6.62097E+00 -1.28498E+01 -2.95609E+00
 -7.04160E+00 -1.05520E+01 +2.28168E+00 -1.29800E+01 +1.12819E+01 -9.11760E+00 +1.61935E+01 -3.90461E-01
 +1.48536E+01 +9.77219E+00 +7.60156E+00 +1.73023E+01 -2.82563E+00 +1.91349E+01 -1.23723E+01 +1.44635E+01
 -1.72914E+01 +5.09457E+00 -1.56668E+01 -5.25320E+00 -8.21088E+00 -1.24346E+01 +1.99494E+00 -1.35535E+01
 +1.07235E+01 -8.15202E+00 +1.43041E+01 +1.57628E+00 +1.11191E+01 +1.16460E+01 +2.28422E+00 +1.78762E+01
 -8.77191E+00 +1.75843E+01 -1.76705E+01 +1.06909E+01 -2.08463E+01 -2.17853E-01 -1.70001E+01 -1.09090E+01
 -7.64851E+00 -1.71986E+01 +3.46170E+00 -1.66467E+01 +1.18495E+01 -9.56187E+00 +1.41079E+01 +1.09738E+00
 +9.29541E+00 +1.08963E+01 -6.58228E-01 +1.57079E+01 -1.17057E+01 +1.33895E+01 -1.93014E+01 +4.67170E+00
 -2.02387E+01 -7.10776E+00 -1.39622E+01 -1.73298E+01 -2.81865E+00 -2.19511E+01 +8.86559E+00 -1.91451E+01
 +1.65167E+01 -1.00606E+01 +1.71619E+01 +1.61790E+00 +1.06452E+01 +1.11404E+01 -2.86242E-01 +1.46063E+01
 -1.10715E+01 +1.05513E+01 -1.71683E+01 +5.61484E-01 -1.58944E+01 -1.13429E+01 -7.53033E+00 -2.03142E+01
 +4.76716E+00 -2.26330E+01 +1.62176E+01 -1.72231E+01 +2.23363E+01 -6.10904E+00 +2.07497E+01 +6.37813E+00
