 Created: 19-Jan-2021
 $NMID
 ID='D:\BASISSIMULATI'
 FMTDAT='(8E13.5)'
 VOLUME=   1.00000E+00
 TRAMP=   1.00000E+00
 $END
 +5.63871E+01 +9.62390E+00 +5.31692E+01 +2.04505E+01 +4.78020E+01 +3.03233E+01 +4.05529E+01 +3.88093E+01
 +3.17765E+01 +4.55482E+01 +2.18947E+01 +5.02696E+01 +1.13751E+01 +5.28050E+01 +7.05615E-01 +5.30941E+01
 -9.63018E+00 +5.11860E+01 -1.91774E+01 +4.72335E+01 -2.75320E+01 +4.14833E+01 -3.43595E+01 +3.42601E+01
 -3.94100E+01 +2.59486E+01 -4.25274E+01 +1.69718E+01 -4.36542E+01 +7.76895E+00 -4.28308E+01 -1.22761E+00
 -4.01894E+01 -9.61323E+00 -3.59440E+01 -1.70302E+01 -3.03760E+01 -2.31836E+01 -2.38174E+01 -2.78528E+01
 -1.66319E+01 -3.08995E+01 -9.19553E+00 -3.22701E+01 -1.87770E+00 -3.19947E+01 +4.97692E+00 -3.01808E+01
 +1.10638E+01 -2.70047E+01 +1.61311E+01 -2.26988E+01 +1.99893E+01 -1.75374E+01 +2.25167E+01 -1.18216E+01
 +2.36614E+01 -5.86268E+00 +2.34400E+01 +3.24844E-02 +2.19327E+01 +5.57608E+00 +1.92762E+01 +1.05115E+01
 +1.56536E+01 +1.46233E+01 +1.12840E+01 +1.77448E+01 +6.41023E+00 +1.97625E+01 +1.28656E+00 +2.06183E+01
 -3.83267E+00 +2.03086E+01 -8.70417E+00 +1.88817E+01 -1.31053E+01 +1.64326E+01 -1.68422E+01 +1.30965E+01
 -1.97561E+01 +9.04151E+00 -2.17277E+01 +4.46018E+00 -2.26800E+01 -4.39316E-01 -2.25796E+01 -5.44161E+00
 -2.14355E+01 -1.03325E+01 -1.92976E+01 -1.49069E+01 -1.62531E+01 -1.89755E+01 -1.24227E+01 -2.23711E+01
 -7.95517E+00 -2.49541E+01 -3.02195E+00 -2.66160E+01 +2.18926E+00 -2.72834E+01 +7.48083E+00 -2.69192E+01
 +1.26520E+01 -2.55244E+01 +1.75058E+01 -2.31376E+01 +2.18552E+01 -1.98337E+01 +2.55303E+01 -1.57221E+01
 +2.83841E+01 -1.09428E+01 +3.02977E+01 -5.66236E+00 +3.11858E+01 -6.82043E-02 +3.09998E+01 +5.63769E+00
 +2.97308E+01 +1.12459E+01 +2.74110E+01 +1.65473E+01 +2.41133E+01 +2.13412E+01 +1.99494E+01 +2.54429E+01
 +1.50670E+01 +2.86924E+01 +9.64396E+00 +3.09605E+01 +3.88227E+00 +3.21556E+01 -1.99996E+00 +3.22282E+01
 -7.77734E+00 +3.11737E+01 -1.32268E+01 +2.90341E+01 -1.81371E+01 +2.58966E+01 -2.23189E+01 +2.18910E+01
 -2.56130E+01 +1.71842E+01 -2.78982E+01 +1.19733E+01 -2.90972E+01 +6.47719E+00 -2.91809E+01 +9.26241E-01
 -2.81698E+01 -4.44808E+00 -2.61334E+01 -9.42426E+00 -2.31870E+01 -1.38013E+01 -1.94862E+01 -1.74084E+01
 -1.52195E+01 -2.01134E+01 -1.05985E+01 -2.18289E+01 -5.84781E+00 -2.25166E+01 -1.19312E+00 -2.21887E+01
 +3.14975E+00 -2.09069E+01 +6.98596E+00 -1.87790E+01 +1.01514E+01 -1.59523E+01 +1.25208E+01 -1.26057E+01
 +1.40138E+01 -8.94001E+00 +1.45984E+01 -5.16670E+00 +1.42917E+01 -1.49664E+00 +1.31585E+01 +1.87124E+00
 +1.13065E+01 +4.76049E+00 +8.88007E+00 +7.02624E+00 +6.05122E+00 +8.56261E+00 +3.00986E+00 +9.30764E+00
 -4.71355E-02 +9.24592E+00 -2.92694E+00 +8.40847E+00 -5.45142E+00 +6.87007E+00 -7.46678E+00 +4.74423E+00
 -8.85159E+00 +2.17607E+00 -9.52297E+00 -6.66381E-01 -9.44038E+00 -3.60205E+00 -8.60706E+00 -6.44711E+00
 -7.06896E+00 -9.02526E+00 -4.91136E+00 -1.11773E+01 -2.25333E+00 -1.27695E+01 +7.59432E-01 -1.37006E+01
 +3.96311E+00 -1.39063E+01 +7.18502E+00 -1.33623E+01 +1.02531E+01 -1.20842E+01 +1.30049E+01 -1.01266E+01
 +1.52962E+01 -7.57833E+00 +1.70077E+01 -4.55753E+00 +1.80512E+01 -1.20459E+00 +1.83722E+01 +2.32569E+00
 +1.79529E+01 +5.87234E+00 +1.68109E+01 +9.27656E+00 +1.49978E+01 +1.23895E+01 +1.25951E+01 +1.50793E+01
 +9.70956E+00 +1.72367E+01 +6.46644E+00 +1.87797E+01 +3.00330E+00 +1.96561E+01 -5.37268E-01 +1.98447E+01
 -4.01445E+00 +1.93549E+01 -7.29564E+00 +1.82247E+01 -1.02620E+01 +1.65177E+01 -1.28133E+01 +1.43187E+01
 -1.48708E+01 +1.17286E+01 -1.63803E+01 +8.85955E+00 -1.73123E+01 +5.82873E+00 -1.76620E+01 +2.75344E+00
 -1.74480E+01 -2.54061E-01 -1.67099E+01 -3.09091E+00 -1.55050E+01 -5.66728E+00 -1.39052E+01 -7.90915E+00
 -1.19925E+01 -9.76023E+00 -9.85554E+00 -1.11829E+01 -7.58509E+00 -1.21583E+01 -5.27074E+00 -1.26859E+01
 -2.99735E+00 -1.27819E+01 -8.42164E-01 -1.24777E+01 +1.12753E+00 -1.18175E+01 +2.85625E+00 -1.08557E+01
 +4.30162E+00 -9.65446E+00 +5.43501E+00 -8.28050E+00 +6.24181E+00 -6.80275E+00 +6.72115E+00 -5.28954E+00
 +6.88517E+00 -3.80616E+00 +6.75795E+00 -2.41261E+00 +6.37411E+00 -1.16163E+00 +5.77711E+00 -9.70111E-02
 +5.01731E+00 +7.47748E-01 +4.14984E+00 +1.35045E+00 +3.23237E+00 +1.70081E+00 +2.32276E+00 +1.80066E+00
 +1.47671E+00 +1.66375E+00 +7.45455E-01 +1.31511E+00 +1.73610E-01 +7.89968E-01 -2.02821E-01 +1.32316E-01
 -3.58117E-01 -6.06994E-01 -2.78149E-01 -1.37243E+00 +3.87482E-02 -2.10625E+00 +5.81412E-01 -2.75116E+00
 +1.32604E+00 -3.25302E+00 +2.23697E+00 -3.56355E+00 +3.26798E+00 -3.64287E+00 +4.36424E+00 -3.46173E+00
 +5.46459E+00 -3.00334E+00 +6.50440E+00 -2.26468E+00 +7.41854E+00 -1.25721E+00 +8.14462E+00 -6.86318E-03
 +8.62614E+00 +1.44658E+00 +8.81549E+00 +3.05092E+00 +8.67667E+00 +4.74356E+00 +8.18748E+00 +6.45411E+00
 +7.34115E+00 +8.10751E+00 +6.14721E+00 +9.62743E+00 +4.63169E+00 +1.09398E+01 +2.83640E+00 +1.19766E+01
 +8.17548E-01 +1.26789E+01 -1.35644E+00 +1.30002E+01 -3.60775E+00 +1.29087E+01 -5.85244E+00 +1.23893E+01
 -8.00415E+00 +1.14448E+01 -9.97789E+00 +1.00958E+01 -1.16939E+01 +8.38055E+00 -1.30814E+01 +6.35335E+00
 -1.40817E+01 +4.08242E+00 -1.46508E+01 +1.64716E+00 -1.47620E+01 -8.65232E-01 -1.44068E+01 -3.36346E+00
 -1.35954E+01 -5.75607E+00 -1.23568E+01 -7.95537E+00 -1.07370E+01 -9.88121E+00 -8.79754E+00 -1.14645E+01
 -6.61284E+00 -1.26501E+01 -4.26681E+00 -1.33991E+01 -1.84939E+00 -1.36909E+01 +5.47301E-01 -1.35233E+01
 +2.83297E+00 -1.29132E+01 +4.92299E+00 -1.18956E+01 +6.74200E+00 -1.05218E+01 +8.22716E+00 -8.85743E+00
 +9.33079E+00 -6.97922E+00 +1.00224E+01 -4.97188E+00 +1.02898E+01 -2.92418E+00 +1.01400E+01 -9.25023E-01
 +9.59812E+00 +9.40495E-01 +8.70699E+00 +2.59495E+00 +7.52456E+00 +3.97206E+00 +6.12152E+00 +5.01978E+00
 +4.57793E+00 +5.70268E+00 +2.97949E+00 +6.00367E+00 +1.41347E+00 +5.92487E+00 -3.54876E-02 +5.48763E+00
 -1.28952E+00 +4.73163E+00 -2.28146E+00 +3.71305E+00 -2.95829E+00 +2.50202E+00 -3.28407E+00 +1.17921E+00
 -3.24199E+00 -1.68109E-01 -2.83564E+00 -1.45042E+00 -2.08921E+00 -2.58063E+00 -1.04673E+00 -3.47865E+00
 +2.29812E-01 -4.07588E+00 +1.66322E+00 -4.31912E+00 +3.16485E+00 -4.17392E+00 +4.63897E+00 -3.62701E+00
 +5.98775E+00 -2.68774E+00 +7.11648E+00 -1.38831E+00 +7.93883E+00 +2.17128E-01 +8.38186E+00 +2.05462E+00
 +8.39049E+00 +4.03369E+00 +7.93117E+00 +6.05164E+00 +6.99456E+00 +7.99865E+00 +5.59692E+00 +9.76349E+00
 +3.78021E+00 +1.12394E+01 +1.61082E+00 +1.23303E+01 -8.23145E-01 +1.29558E+01 -3.41579E+00 +1.30568E+01
 -6.04850E+00 +1.25988E+01 -8.59587E+00 +1.15748E+01 -1.09321E+01 +1.00066E+01 -1.29378E+01 +7.94435E+00
 -1.45063E+01 +5.46493E+00 -1.55496E+01 +2.66831E+00 -1.60039E+01 -3.26978E-01 -1.58329E+01 -3.38971E+00
 -1.50304E+01 -6.38259E+00 -1.36216E+01 -9.16935E+00 -1.16615E+01 -1.16219E+01 -9.23301E+00 -1.36270E+01
 -6.44267E+00 -1.50926E+01 -3.41521E+00 -1.59525E+01 -2.87214E-01 -1.61701E+01 +2.80000E+00 -1.57403E+01
 +5.70778E+00 -1.46897E+01 +8.30733E+00 -1.30753E+01 +1.04864E+01 -1.09812E+01 +1.21551E+01 -8.51386E+00
 +1.32503E+01 -5.79663E+00 +1.37384E+01 -2.96266E+00 +1.36170E+01 -1.47959E-01 +1.29142E+01 +2.51590E+00
 +1.16862E+01 +4.90861E+00 +1.00143E+01 +6.92717E+00 +7.99937E+00 +8.49095E+00 +5.75610E+00 +9.54525E+00
 +3.40655E+00 +1.00634E+01 +1.07331E+00 +1.00472E+01 -1.12697E+00 +9.52589E+00 -3.08962E+00 +8.55319E+00
 -4.72693E+00 +7.20377E+00 -5.97210E+00 +5.56816E+00 -6.78179E+00 +3.74723E+00 -7.13721E+00 +1.84634E+00
 -7.04383E+00 -3.04563E-02 -6.52969E+00 -1.78581E+00 -5.64265E+00 -3.33374E+00 -4.44668E+00 -4.60336E+00
 -3.01745E+00 -5.54154E+00 -1.43776E+00 -6.11434E+00 +2.07153E-01 -6.30731E+00 +1.83399E+00 -6.12467E+00
 +3.36524E+00 -5.58756E+00 +4.73229E+00 -4.73159E+00 +5.87773E+00 -3.60386E+00 +6.75679E+00 -2.25977E+00
 +7.33791E+00 -7.59838E-01 +7.60250E+00 +8.33291E-01 +7.54417E+00 +2.45740E+00 +7.16745E+00 +4.05279E+00
 +6.48629E+00 +5.56377E+00 +5.52246E+00 +6.93959E+00 +4.30415E+00 +8.13498E+00 +2.86469E+00 +9.11016E+00
 +1.24171E+00 +9.83078E+00 -5.23433E-01 +1.02677E+01 -2.38585E+00 +1.03968E+01 -4.29716E+00 +1.01994E+01
 -6.20532E+00 +9.66240E+00 -8.05467E+00 +8.77911E+00 -9.78603E+00 +7.55064E+00 -1.13374E+01 +5.98715E+00
 -1.26449E+01 +4.10942E+00 -1.36447E+01 +1.95039E+00 -1.42753E+01 -4.43663E-01 -1.44805E+01 -3.01235E+00
 -1.42129E+01 -5.68123E+00 -1.34375E+01 -8.36266E+00 -1.21356E+01 -1.09578E+01 -1.03084E+01 -1.33596E+01
 -7.97960E+00 -1.54569E+01 -5.19751E+00 -1.71396E+01 -2.03602E+00 -1.83042E+01 +1.40617E+00 -1.88603E+01
 +5.00775E+00 -1.87366E+01 +8.62860E+00 -1.78869E+01 +1.21152E+01 -1.62951E+01 +1.53076E+01 -1.39790E+01
 +1.80468E+01 -1.09928E+01 +2.01840E+01 -7.42712E+00 +2.15888E+01 -3.40724E+00 +2.21579E+01 +9.10728E-01
 +2.18226E+01 +5.34601E+00 +2.05548E+01 +9.70113E+00 +1.83712E+01 +1.37714E+01 +1.53353E+01 +1.73555E+01
 +1.15564E+01 +2.02666E+01 +7.18660E+00 +2.23428E+01 +2.41440E+00 +2.34577E+01 -2.54345E+00 +2.35286E+01
 -7.45254E+00 +2.25229E+01 -1.20727E+01 +2.04621E+01 -1.61708E+01 +1.74228E+01 -1.95335E+01 +1.35342E+01
 -2.19799E+01 +8.97326E+00 -2.33718E+01 +3.95636E+00 -2.36228E+01 -1.27126E+00 -2.27045E+01 -6.44806E+00
 -2.06490E+01 -1.13101E+01 -1.75488E+01 -1.56053E+01 -1.35529E+01 -1.91074E+01 -8.85984E+00 -2.16289E+01
 -3.70728E+00 -2.30316E+01 +1.64006E+00 -2.32353E+01 +6.90462E+00 -2.22224E+01 +1.18111E+01 -2.00396E+01
 +1.61012E+01 -1.67963E+01 +1.95481E+01 -1.26586E+01 +2.19691E+01 -7.84060E+00 +2.32349E+01 -2.59320E+00
 +2.32779E+01 +2.80975E+00 +2.20947E+01 +8.08621E+00 +1.97469E+01 +1.29612E+01 +1.63574E+01 +1.71819E+01
 +1.21032E+01 +2.05307E+01 +7.20552E+00 +2.28371E+01 +1.91786E+00 +2.39864E+01 -3.48833E+00 +2.39249E+01
 -8.73824E+00 +2.26624E+01 -1.35683E+01 +2.02705E+01 -1.77402E+01 +1.68780E+01 -2.10529E+01 +1.26628E+01
 -2.33523E+01 +7.84144E+00 -2.45387E+01 +2.65729E+00 -2.45701E+01 -2.63328E+00 -2.34635E+01 -7.77443E+00
 -2.12916E+01 -1.25241E+01 -1.81777E+01 -1.66661E+01 -1.42875E+01 -2.00203E+01 -9.81901E+00 -2.24503E+01
 -4.99145E+00 -2.38690E+01 -3.30356E-02 -2.42405E+01 +4.83069E+00 -2.35799E+01 +9.38803E+00 -2.19498E+01
