 Created: 19-Jan-2021
 $NMID
 ID='D:\BASISSIMULATI'
 FMTDAT='(8E13.5)'
 VOLUME=   1.00000E+00
 TRAMP=   1.00000E+00
 $END
 +7.11125E+01 +1.24100E+01 +5.96242E+01 +2.83261E+01 +3.48034E+01 +3.87452E+01 +3.13937E+00 +4.20487E+01
 -2.70264E+01 +3.78317E+01 -4.78404E+01 +2.69249E+01 -5.41241E+01 +1.13084E+01 -4.47654E+01 -6.10868E+00
 -2.29197E+01 -2.18815E+01 +5.01392E+00 -3.26135E+01 +3.13033E+01 -3.56725E+01 +4.90931E+01 -2.98955E+01
 +5.42558E+01 -1.60740E+01 +4.63624E+01 +2.98252E+00 +2.85416E+01 +2.29248E+01 +6.33799E+00 +3.88471E+01
 -1.40268E+01 +4.65632E+01 -2.74382E+01 +4.38287E+01 -3.11957E+01 +3.11268E+01 -2.55079E+01 +1.17228E+01
 -1.31120E+01 -9.10370E+00 +1.77605E+00 -2.54854E+01 +1.47988E+01 -3.26643E+01 +2.26608E+01 -2.84491E+01
 +2.38683E+01 -1.39657E+01 +1.88646E+01 +6.57151E+00 +9.61630E+00 +2.70445E+01 -1.13328E+00 +4.12418E+01
 -1.06739E+01 +4.47524E+01 -1.69635E+01 +3.63526E+01 -1.89617E+01 +1.84402E+01 -1.66545E+01 -3.64297E+00
 -1.08642E+01 -2.32098E+01 -2.96597E+00 -3.42624E+01 +5.38702E+00 -3.33352E+01 +1.24923E+01 -2.05713E+01
 +1.67994E+01 +3.03710E-01 +1.71272E+01 +2.31036E+01 +1.29157E+01 +4.10485E+01 +4.47455E+00 +4.87983E+01
 -6.86705E+00 +4.40302E+01 -1.88293E+01 +2.80858E+01 -2.85495E+01 +5.51332E+00 -3.32365E+01 -1.73298E+01
 -3.09768E+01 -3.41640E+01 -2.14595E+01 -4.05841E+01 -6.35362E+00 -3.52368E+01 +1.08606E+01 -2.00617E+01
 +2.56533E+01 +4.21471E-01 +3.36497E+01 +2.05133E+01 +3.19508E+01 +3.49682E+01 +2.01626E+01 +4.03759E+01
 +7.67123E-01 +3.59189E+01 -2.13523E+01 +2.33543E+01 -4.01635E+01 +6.30748E+00 -5.01898E+01 -1.08451E+01
 -4.81671E+01 -2.41462E+01 -3.41360E+01 -3.09592E+01 -1.15943E+01 -3.04074E+01 +1.33831E+01 -2.33229E+01
 +3.38373E+01 -1.18136E+01 +4.39394E+01 +1.35779E+00 +4.07246E+01 +1.33976E+01 +2.50092E+01 +2.19750E+01
 +1.19708E+00 +2.55396E+01 -2.39787E+01 +2.34793E+01 -4.34096E+01 +1.61634E+01 -5.16726E+01 +4.89744E+00
 -4.65807E+01 -8.21725E+00 -2.97650E+01 -2.05553E+01 -6.12875E+00 -2.93965E+01 +1.76394E+01 -3.24891E+01
 +3.50292E+01 -2.86476E+01 +4.15528E+01 -1.82230E+01 +3.59317E+01 -3.25881E+00 +2.03072E+01 +1.27953E+01
 -5.38896E-01 +2.58267E+01 -2.06711E+01 +3.21178E+01 -3.47184E+01 +2.94445E+01 -3.93140E+01 +1.78754E+01
 -3.38618E+01 -1.78038E-02 -2.04706E+01 -1.96781E+01 -3.14773E+00 -3.57288E+01 +1.34440E+01 -4.34863E+01
 +2.52725E+01 -4.03829E+01 +2.99041E+01 -2.68495E+01 +2.69304E+01 -6.34814E+00 +1.78158E+01 +1.55075E+01
 +5.29764E+00 +3.25234E+01 -7.42801E+00 +3.97363E+01 -1.74896E+01 +3.49187E+01 -2.29067E+01 +1.93057E+01
 -2.28606E+01 -2.70072E+00 -1.76860E+01 -2.47839E+01 -8.66576E+00 -4.05568E+01 +2.27704E+00 -4.54453E+01
 +1.29215E+01 -3.80397E+01 +2.10965E+01 -2.05034E+01 +2.50279E+01 +2.08089E+00 +2.36757E+01 +2.32263E+01
 +1.70172E+01 +3.69516E+01 +6.19988E+00 +3.95093E+01 -6.53248E+00 +3.04217E+01 -1.82013E+01 +1.25332E+01
 -2.57307E+01 -8.90357E+00 -2.67446E+01 -2.78071E+01 -2.03183E+01 -3.90189E+01 -7.44127E+00 -3.97123E+01
 +9.00798E+00 -3.00659E+01 +2.48504E+01 -1.30532E+01 +3.56609E+01 +6.53564E+00 +3.80243E+01 +2.35055E+01
 +3.06266E+01 +3.36713E+01 +1.48264E+01 +3.48821E+01 -5.52441E+00 +2.74086E+01 -2.50206E+01 +1.36568E+01
 -3.81777E+01 -2.63751E+00 -4.10263E+01 -1.74576E+01 -3.23471E+01 -2.74907E+01 -1.41515E+01 -3.08126E+01
 +8.77565E+00 -2.71522E+01 +3.01710E+01 -1.77507E+01 +4.40634E+01 -4.92550E+00 +4.65026E+01 +8.50586E+00
 +3.67252E+01 +1.98014E+01 +1.74019E+01 +2.67732E+01 -6.11728E+00 +2.81244E+01 -2.73404E+01 +2.36359E+01
 -4.04949E+01 +1.42037E+01 -4.21619E+01 +1.71850E+00 -3.22040E+01 -1.12226E+01 -1.37261E+01 -2.17715E+01
 +7.89614E+00 -2.74101E+01 +2.66098E+01 -2.65578E+01 +3.74144E+01 -1.90589E+01 +3.77203E+01 -6.38999E+00
 +2.79587E+01 +8.53358E+00 +1.13048E+01 +2.19711E+01 -7.35693E+00 +3.02845E+01 -2.28845E+01 +3.09522E+01
 -3.13057E+01 +2.33776E+01 -3.08191E+01 +9.22220E+00 -2.21233E+01 -7.89201E+00 -8.03764E+00 -2.32844E+01
 +7.41487E+00 -3.25035E+01 +2.01588E+01 -3.26405E+01 +2.71181E+01 -2.32700E+01 +2.69002E+01 -6.70682E+00
 +1.99808E+01 +1.25420E+01 +8.40790E+00 +2.90057E+01 -4.83242E+00 +3.78205E+01 -1.65870E+01 +3.61791E+01
 -2.42437E+01 +2.42193E+01 -2.62349E+01 +5.06381E+00 -2.22707E+01 -1.60206E+01 -1.33060E+01 -3.31129E+01
 -1.29370E+00 -4.13415E+01 +1.12125E+01 -3.82973E+01 +2.15365E+01 -2.47369E+01 +2.73819E+01 -4.36824E+00
 +2.72932E+01 +1.72150E+01 +2.10047E+01 +3.41292E+01 +9.59634E+00 +4.18552E+01 -4.61433E+00 +3.84717E+01
 -1.84744E+01 +2.51218E+01 -2.86560E+01 +5.60503E+00 -3.24531E+01 -1.47583E+01 -2.85284E+01 -3.06362E+01
 -1.73933E+01 -3.81244E+01 -1.44768E+00 -3.57184E+01 +1.54934E+01 -2.45737E+01 +2.91134E+01 -8.03203E+00
 +3.57330E+01 +9.40298E+00 +3.33632E+01 +2.33201E+01 +2.23577E+01 +3.05258E+01 +5.44011E+00 +2.97539E+01
 -1.29482E+01 +2.18148E+01 -2.78287E+01 +9.20529E+00 -3.50766E+01 -4.66043E+00 -3.26204E+01 -1.63595E+01
 -2.10858E+01 -2.32701E+01 -3.67401E+00 -2.41027E+01 +1.47144E+01 -1.90686E+01 +2.88687E+01 -9.70037E+00
 +3.47702E+01 +1.58885E+00 +3.07628E+01 +1.20840E+01 +1.80431E+01 +1.93577E+01 +3.18042E-01 +2.17653E+01
 -1.72699E+01 +1.87710E+01 -2.96352E+01 +1.10577E+01 -3.32179E+01 +4.02432E-01 -2.69998E+01 -1.06711E+01
 -1.27747E+01 -1.94189E+01 +5.39275E+00 -2.34968E+01 +2.23510E+01 -2.15513E+01 +3.33318E+01 -1.36397E+01
 +3.52803E+01 -1.34970E+00 +2.76712E+01 +1.24583E+01 +1.25979E+01 +2.42725E+01 -5.86237E+00 +3.07972E+01
 -2.28028E+01 +2.98587E+01 -3.38194E+01 +2.10991E+01 -3.61517E+01 +6.23785E+00 -2.93382E+01 -1.12215E+01
 -1.52411E+01 -2.68095E+01 +2.52299E+00 -3.62486E+01 +1.95607E+01 -3.66443E+01 +3.18101E+01 -2.73704E+01
 +3.64961E+01 -1.03728E+01 +3.27162E+01 +1.02316E+01 +2.15495E+01 +2.91840E+01 +5.70727E+00 +4.14764E+01
 -1.11548E+01 +4.37262E+01 -2.52835E+01 +3.51400E+01 -3.36425E+01 +1.77838E+01 -3.45309E+01 -3.93352E+00
 -2.78981E+01 -2.44285E+01 -1.53116E+01 -3.84415E+01 +3.99616E-01 -4.24464E+01 +1.57527E+01 -3.55798E+01
 +2.73505E+01 -1.98330E+01 +3.26139E+01 +5.32820E-01 +3.03570E+01 +2.01750E+01 +2.10815E+01 +3.41160E+01
 +6.90629E+00 +3.90453E+01 -8.87504E+00 +3.41260E+01 -2.25347E+01 +2.11050E+01 -3.07935E+01 +3.73078E+00
 -3.16397E+01 -1.33324E+01 -2.48709E+01 -2.57720E+01 -1.22012E+01 -3.07279E+01 +3.12516E+00 -2.74446E+01
 +1.71393E+01 -1.73303E+01 +2.61784E+01 -3.45100E+00 +2.78721E+01 +1.03686E+01 +2.18085E+01 +2.05744E+01
 +9.68096E+00 +2.47681E+01 -5.14521E+00 +2.22360E+01 -1.85432E+01 +1.40168E+01 -2.67687E+01 +2.53002E+00
 -2.75166E+01 -9.10968E+00 -2.05861E+01 -1.79014E+01 -7.95558E+00 -2.16894E+01 +6.76309E+00 -1.96510E+01
 +1.93438E+01 -1.24454E+01 +2.61491E+01 -2.00818E+00 +2.51726E+01 +8.94465E+00 +1.66197E+01 +1.75825E+01
 +2.86003E+00 +2.16438E+01 -1.22386E+01 +1.99852E+01 -2.43999E+01 +1.28744E+01 -3.01442E+01 +1.95517E+00
 -2.77644E+01 -1.01155E+01 -1.78022E+01 -2.02886E+01 -2.89429E+00 -2.58664E+01 +1.29590E+01 -2.51972E+01
 +2.54911E+01 -1.81461E+01 +3.13265E+01 -6.21027E+00 +2.88796E+01 +7.77636E+00 +1.87600E+01 +2.03012E+01
 +3.58747E+00 +2.80483E+01 -1.27187E+01 +2.87741E+01 -2.59729E+01 +2.19534E+01 -3.28021E+01 +9.00536E+00
 -3.14902E+01 -6.98528E+00 -2.23822E+01 -2.20051E+01 -7.76151E+00 -3.21333E+01 +8.75100E+00 -3.45823E+01
 +2.31103E+01 -2.84777E+01 +3.18411E+01 -1.51531E+01 +3.28703E+01 +2.13706E+00 +2.60037E+01 +1.90277E+01
 +1.29462E+01 +3.11704E+01 -3.12818E+00 +3.53799E+01 -1.83462E+01 +3.04899E+01 -2.90594E+01 +1.76827E+01
 -3.27079E+01 +1.98432E-01 -2.84238E+01 -1.75025E+01 -1.72353E+01 -3.09007E+01 -1.82554E+00 -3.65934E+01
 +1.41029E+01 -3.31718E+01 +2.67097E+01 -2.15697E+01 +3.29409E+01 -4.79950E+00 +3.12756E+01 +1.28493E+01
 +2.21107E+01 +2.69276E+01 +7.68327E+00 +3.39650E+01 -8.46160E+00 +3.23339E+01 -2.23354E+01 +2.26234E+01
 -3.04962E+01 +7.44128E+00 -3.09163E+01 -9.29113E+00 -2.35058E+01 -2.33554E+01 -1.01499E+01 -3.13003E+01
 +5.75814E+00 -3.12846E+01 +2.01765E+01 -2.34950E+01 +2.94494E+01 -1.00495E+01 +3.12486E+01 +5.57628E+00
 +2.51751E+01 +1.94430E+01 +1.28597E+01 +2.81352E+01 -2.46716E+00 +2.95973E+01 -1.68231E+01 +2.36166E+01
 -2.65162E+01 +1.18441E+01 -2.91061E+01 -2.64645E+00 -2.40295E+01 -1.61446E+01 -1.27276E+01 -2.52388E+01
 +1.75399E+00 -2.76694E+01 +1.55817E+01 -2.28895E+01 +2.51464E+01 -1.21935E+01 +2.80029E+01 +1.61777E+00
 +2.34905E+01 +1.49540E+01 +1.28794E+01 +2.43547E+01 -9.88156E-01 +2.73801E+01 -1.44588E+01 +2.32440E+01
 -2.40256E+01 +1.30244E+01 -2.72328E+01 -6.07652E-01 -2.32957E+01 -1.40770E+01 -1.32835E+01 -2.38352E+01
 +1.74570E-01 -2.72932E+01 +1.35759E+01 -2.35084E+01 +2.34457E+01 -1.34437E+01 +2.72225E+01 +2.75223E-01
 +2.39066E+01 +1.40445E+01 +1.43117E+01 +2.42292E+01 +8.59435E-01 +2.81225E+01 -1.30304E+01 +2.46623E+01
 -2.38016E+01 +1.47127E+01 -2.86617E+01 +8.37980E-01 -2.62962E+01 -1.33727E+01 -1.72174E+01 -2.42463E+01
 -3.65563E+00 -2.89835E+01 +1.09852E+01 -2.63809E+01 +2.29790E+01 -1.71304E+01 +2.92243E+01 -3.62347E+00
 +2.80488E+01 +1.06804E+01 +1.96622E+01 +2.21500E+01 +6.13234E+00 +2.79081E+01 -9.11845E+00 +2.65487E+01
 -2.21792E+01 +1.84686E+01 -2.96590E+01 +5.74028E+00 -2.95772E+01 -8.43224E+00 -2.18989E+01 -2.05267E+01
 -8.56592E+00 -2.75779E+01 +6.99348E+00 -2.78995E+01 +2.07547E+01 -2.14787E+01 +2.91537E+01 -9.95807E+00
 +3.00297E+01 +3.78384E+00 +2.31996E+01 +1.63455E+01 +1.05059E+01 +2.46341E+01 -4.67619E+00 +2.66175E+01
 -1.83409E+01 +2.18187E+01 -2.69188E+01 +1.14343E+01 -2.82197E+01 -1.95067E+00 -2.19979E+01 -1.49890E+01
 -9.99157E+00 -2.43913E+01 +4.56890E+00 -2.77452E+01 +1.78403E+01 -2.41343E+01 +2.63922E+01 -1.43973E+01
 +2.81004E+01 -9.51964E-01 +2.26728E+01 +1.27861E+01 +1.16799E+01 +2.32587E+01 -1.90345E+00 +2.76836E+01
 -1.45079E+01 +2.48021E+01 -2.29062E+01 +1.52513E+01 -2.50292E+01 +1.44859E+00 -2.04571E+01 -1.30013E+01
 -1.04745E+01 -2.42372E+01 +2.30420E+00 -2.91708E+01 +1.46257E+01 -2.63394E+01 +2.34194E+01 -1.63420E+01
 +2.65445E+01 -1.72609E+00 +2.32858E+01 +1.36622E+01 +1.44937E+01 +2.56985E+01 +2.34989E+00 +3.11004E+01
 -1.01726E+01 +2.83366E+01 -2.00211E+01 +1.80698E+01 -2.47835E+01 +3.00195E+00 -2.32546E+01 -1.28438E+01
