 Created: 19-Jan-2021
 $NMID
 ID='D:\BASISSIMULATI'
 FMTDAT='(8E13.5)'
 VOLUME=   1.00000E+00
 TRAMP=   1.00000E+00
 $END
 +1.10094E+02 +1.94066E+01 +9.19504E+01 +5.94876E+01 +5.77443E+01 +8.65525E+01 +1.54987E+01 +9.47175E+01
 -2.49953E+01 +8.25974E+01 -5.45257E+01 +5.35765E+01 -6.66380E+01 +1.49309E+01 -5.91191E+01 -2.39700E+01
 -3.44372E+01 -5.39343E+01 +9.50351E-01 -6.81318E+01 +3.82347E+01 -6.36653E+01 +6.84206E+01 -4.21596E+01
 +8.44846E+01 -9.24649E+00 +8.30009E+01 +2.69029E+01 +6.48542E+01 +5.76200E+01 +3.48891E+01 +7.58429E+01
 +6.08297E-01 +7.77682E+01 -2.97345E+01 +6.36618E+01 -4.91660E+01 +3.76516E+01 -5.36478E+01 +6.58547E+00
 -4.29590E+01 -2.17419E+01 -2.06141E+01 -4.05360E+01 +7.13540E+00 -4.56418E+01 +3.29430E+01 -3.64801E+01
 +5.02282E+01 -1.60697E+01 +5.47906E+01 +9.84111E+00 +4.57850E+01 +3.42952E+01 +2.58349E+01 +5.09040E+01
 +2.78728E-01 +5.54331E+01 -2.42392E+01 +4.68097E+01 -4.14679E+01 +2.73162E+01 -4.71092E+01 +1.94267E+00
 -3.98546E+01 -2.29197E+01 -2.16554E+01 -4.11060E+01 +2.82437E+00 -4.82141E+01 +2.74172E+01 -4.26730E+01
 +4.60119E+01 -2.60885E+01 +5.40709E+01 -2.79604E+00 +4.97319E+01 +2.12530E+01 +3.42319E+01 +3.99848E+01
 +1.15612E+01 +4.87023E+01 -1.25525E+01 +4.52226E+01 -3.20692E+01 +3.03804E+01 -4.21159E+01 +7.78805E+00
 -4.01590E+01 -1.70788E+01 -2.65896E+01 -3.82327E+01 -4.59072E+00 -5.06292E+01 +2.06680E+01 -5.13698E+01
 +4.33023E+01 -4.03676E+01 +5.81349E+01 -2.03244E+01 +6.19228E+01 +3.96268E+00 +5.40976E+01 +2.67840E+01
 +3.68508E+01 +4.28977E+01 +1.45562E+01 +4.87706E+01 -7.31865E+00 +4.33852E+01 -2.35403E+01 +2.84288E+01
 -3.03534E+01 +7.82999E+00 -2.63440E+01 -1.32300E+01 -1.27233E+01 -2.95851E+01 +7.02387E+00 -3.73202E+01
 +2.80280E+01 -3.46781E+01 +4.52355E+01 -2.24289E+01 +5.46255E+01 -3.62309E+00 +5.41501E+01 +1.71986E+01
 +4.41771E+01 +3.51347E+01 +2.73392E+01 +4.61136E+01 +7.83901E+00 +4.78548E+01 -9.60828E+00 +4.03736E+01
 -2.09330E+01 +2.59172E+01 -2.36837E+01 +8.35916E+00 -1.75835E+01 -7.78828E+00 -4.54215E+00 -1.84946E+01
 +1.18675E+01 -2.11885E+01 +2.73294E+01 -1.53554E+01 +3.78663E+01 -2.61630E+00 +4.08166E+01 +1.37215E+01
 +3.54644E+01 +2.95207E+01 +2.31767E+01 +4.08585E+01 +7.02104E+00 +4.49974E+01 -9.03241E+00 +4.10430E+01
 -2.11181E+01 +3.01312E+01 -2.64386E+01 +1.51058E+01 -2.39442E+01 -2.25728E-01 -1.45641E+01 -1.20638E+01
 -9.37210E-01 -1.75719E+01 +1.32823E+01 -1.55742E+01 +2.43644E+01 -6.82479E+00 +2.94492E+01 +6.21341E+00
 +2.72593E+01 +2.00185E+01 +1.84037E+01 +3.09195E+01 +5.19993E+00 +3.60334E+01 -8.93653E+00 +3.39917E+01
 -2.03747E+01 +2.52755E+01 -2.61981E+01 +1.20764E+01 -2.49455E+01 -2.27684E+00 -1.69746E+01 -1.41776E+01
 -4.36080E+00 -2.06659E+01 +9.64328E+00 -2.01836E+01 +2.14451E+01 -1.29673E+01 +2.80338E+01 -9.82583E-01
 +2.77505E+01 +1.25835E+01 +2.07123E+01 +2.41404E+01 +8.78141E+00 +3.06140E+01 -4.90890E+00 +3.02339E+01
 -1.67534E+01 +2.29891E+01 -2.35938E+01 +1.06356E+01 -2.35246E+01 -3.74429E+00 -1.63827E+01 -1.65199E+01
 -3.79528E+00 -2.44299E+01 +1.12236E+01 -2.54068E+01 +2.50271E+01 -1.91019E+01 +3.42492E+01 -6.97700E+00
 +3.66470E+01 +8.05825E+00 +3.16608E+01 +2.23721E+01 +2.05515E+01 +3.25151E+01 +6.08304E+00 +3.60771E+01
 -8.16947E+00 +3.22804E+01 -1.87100E+01 +2.21633E+01 -2.29863E+01 +8.31014E+00 -2.00130E+01 -5.80167E+00
 -1.05989E+01 -1.66712E+01 +2.87481E+00 -2.16398E+01 +1.70656E+01 -1.95376E+01 +2.85121E+01 -1.09497E+01
 +3.44942E+01 +1.95960E+00 +3.36947E+01 +1.60143E+01 +2.64978E+01 +2.78389E+01 +1.48546E+01 +3.47069E+01
 +1.75602E+00 +3.52083E+01 -9.54799E+00 +2.95730E+01 -1.63797E+01 +1.95695E+01 -1.73027E+01 +8.01245E+00
 -1.24594E+01 -1.98876E+00 -3.49456E+00 -7.84438E+00 +6.91032E+00 -8.14976E+00 +1.57665E+01 -3.03093E+00
 +2.05786E+01 +5.91663E+00 +2.00062E+01 +1.60769E+01 +1.42137E+01 +2.45297E+01 +4.81782E+00 +2.88453E+01
 -5.55494E+00 +2.77466E+01 -1.39820E+01 +2.14645E+01 -1.80437E+01 +1.16891E+01 -1.64951E+01 +1.12822E+00
 -9.63147E+00 -7.21512E+00 +7.53982E-01 -1.08574E+01 +1.18153E+01 -8.52796E+00 +2.03915E+01 -5.54574E-01
 +2.38493E+01 +1.11659E+01 +2.08102E+01 +2.36142E+01 +1.15700E+01 +3.34059E+01 -1.90648E+00 +3.76691E+01
 -1.64265E+01 +3.48188E+01 -2.83434E+01 +2.50252E+01 -3.44740E+01 +1.02460E+01 -3.29293E+01 -6.19553E+00
 -2.36447E+01 -2.03940E+01 -8.46756E+00 -2.88171E+01 +9.23104E+00 -2.91967E+01 +2.53353E+01 -2.11322E+01
 +3.59696E+01 -6.24836E+00 +3.84493E+01 +1.21417E+01 +3.19626E+01 +2.97946E+01 +1.78100E+01 +4.25377E+01
 -8.63735E-01 +4.72724E+01 -1.97896E+01 +4.27341E+01 -3.45745E+01 +2.98214E+01 -4.17444E+01 +1.14080E+01
 -3.95761E+01 -8.31979E+00 -2.85168E+01 -2.48455E+01 -1.10860E+01 -3.43884E+01 +8.71714E+00 -3.47967E+01
 +2.63600E+01 -2.60521E+01 +3.78481E+01 -1.02646E+01 +4.06640E+01 +8.84037E+00 +3.43483E+01 +2.68174E+01
 +2.05840E+01 +3.95617E+01 +2.76758E+00 +4.42776E+01 -1.48256E+01 +4.01223E+01 -2.80765E+01 +2.83729E+01
 -3.40048E+01 +1.20799E+01 -3.14616E+01 -4.70120E+00 -2.13676E+01 -1.79098E+01 -6.44445E+00 -2.44636E+01
 +9.48848E+00 -2.29860E+01 +2.24719E+01 -1.41043E+01 +2.93823E+01 -2.49227E-01 +2.86828E+01 +1.49846E+01
 +2.07694E+01 +2.77555E+01 +7.83095E+00 +3.49356E+01 -6.73515E+00 +3.48785E+01 -1.91988E+01 +2.78037E+01
 -2.64435E+01 +1.57075E+01 -2.67448E+01 +1.82851E+00 -2.01873E+01 -1.01930E+01 -8.61917E+00 -1.72473E+01
 +4.83897E+00 -1.75434E+01 +1.66046E+01 -1.10548E+01 +2.35547E+01 +4.86255E-01 +2.38241E+01 +1.40429E+01
 +1.72800E+01 +2.60577E+01 +5.55242E+00 +3.33668E+01 -8.38488E+00 +3.40116E+01 -2.09758E+01 +2.77420E+01
 -2.89922E+01 +1.60833E+01 -3.03606E+01 +1.95122E+00 -2.46970E+01 -1.10895E+01 -1.34111E+01 -1.97325E+01
 +6.45458E-01 -2.17755E+01 +1.38991E+01 -1.66865E+01 +2.29621E+01 -5.74801E+00 +2.54961E+01 +8.25975E+00
 +2.08138E+01 +2.17590E+01 +1.00638E+01 +3.12810E+01 -4.05084E+00 +3.43496E+01 -1.79510E+01 +3.01191E+01
 -2.80871E+01 +1.96009E+01 -3.18442E+01 +5.41894E+00 -2.82162E+01 -8.84581E+00 -1.80759E+01 -1.95611E+01
 -3.96939E+00 -2.39697E+01 +1.05169E+01 -2.09018E+01 +2.16616E+01 -1.10909E+01 +2.65572E+01 +2.99175E+00
 +2.38631E+01 +1.77467E+01 +1.41696E+01 +2.93509E+01 -1.24671E-01 +3.47308E+01 -1.53972E+01 +3.23593E+01
 -2.77049E+01 +2.26709E+01 -3.37829E+01 +7.98669E+00 -3.18889E+01 -8.04124E+00 -2.22748E+01 -2.13304E+01
 -7.16438E+00 -2.83937E+01 +9.76694E+00 -2.72328E+01 +2.42870E+01 -1.78737E+01 +3.26573E+01 -2.40425E+00
 +3.25794E+01 +1.55037E+01 +2.37983E+01 +3.14757E+01 +8.20938E+00 +4.15070E+01 -1.05677E+01 +4.29604E+01
 -2.80473E+01 +3.52433E+01 -3.99638E+01 +1.99910E+01 -4.33191E+01 +7.04806E-01 -3.71340E+01 -1.80722E+01
 -2.27150E+01 -3.18440E+01 -3.36740E+00 -3.72512E+01 +1.63809E+01 -3.28950E+01 +3.18580E+01 -1.96920E+01
 +3.93689E+01 -6.70951E-01 +3.70856E+01 +1.97413E+01 +2.54897E+01 +3.67737E+01 +7.26008E+00 +4.64483E+01
 -1.33684E+01 +4.65271E+01 -3.16175E+01 +3.70374E+01 -4.33045E+01 +2.02526E+01 -4.58308E+01 +1.32885E-01
 -3.87824E+01 -1.86329E+01 -2.40005E+01 -3.17511E+01 -5.10904E+00 -3.63385E+01 +1.33789E+01 -3.15850E+01
 +2.71549E+01 -1.89067E+01 +3.31416E+01 -1.56030E+00 +3.02021E+01 +1.61797E+01 +1.93661E+01 +3.00743E+01
 +3.52548E+00 +3.69423E+01 -1.33172E+01 +3.54021E+01 -2.70533E+01 +2.61581E+01 -3.44759E+01 +1.17681E+01
 -3.40409E+01 -4.03885E+00 -2.62000E+01 -1.73177E+01 -1.32297E+01 -2.48927E+01 +1.38831E+00 -2.51288E+01
 +1.38756E+01 -1.82985E+01 +2.11180E+01 -6.46321E+00 +2.14402E+01 +7.09494E+00 +1.49998E+01 +1.87383E+01
 +3.70994E+00 +2.54141E+01 -9.28500E+00 +2.54299E+01 -2.04404E+01 +1.88713E+01 -2.67353E+01 +7.55895E+00
 -2.64528E+01 -5.43932E+00 -1.96201E+01 -1.66128E+01 -7.99832E+00 -2.29225E+01 +5.37360E+00 -2.25923E+01
 +1.69629E+01 -1.55753E+01 +2.36554E+01 -3.57800E+00 +2.35639E+01 +1.03651E+01 +1.65286E+01 +2.26579E+01
 +4.17948E+00 +3.00586E+01 -1.04539E+01 +3.05127E+01 -2.36921E+01 +2.36938E+01 -3.21268E+01 +1.11144E+01
 -3.34841E+01 -4.22549E+00 -2.72140E+01 -1.85654E+01 -1.46560E+01 -2.83107E+01 +1.26241E+00 -3.09283E+01
 +1.67248E+01 -2.55901E+01 +2.79522E+01 -1.34028E+01 +3.21308E+01 +2.83572E+00 +2.81123E+01 +1.92976E+01
 +1.67140E+01 +3.20445E+01 +5.42314E-01 +3.79831E+01 -1.66211E+01 +3.56219E+01 -3.07227E+01 +2.54456E+01
 -3.84131E+01 +9.81250E+00 -3.78573E+01 -7.60233E+00 -2.91838E+01 -2.26849E+01 -1.44604E+01 -3.18698E+01
 +2.79835E+00 -3.29985E+01 +1.84735E+01 -2.58395E+01 +2.88321E+01 -1.21452E+01 +3.14247E+01 +4.77155E+00
 +2.56728E+01 +2.08366E+01 +1.30047E+01 +3.21985E+01 -3.49572E+00 +3.61568E+01 -1.98395E+01 +3.18103E+01
 -3.21020E+01 +2.02684E+01 -3.73742E+01 +4.37220E+00 -3.44641E+01 -1.20035E+01 -2.41787E+01 -2.48996E+01
 -9.11585E+00 -3.12387E+01 +6.98062E+00 -2.95736E+01 +2.01449E+01 -2.04330E+01 +2.71655E+01 -6.18180E+00
 +2.63724E+01 +9.57094E+00 +1.80431E+01 +2.28690E+01 +4.32569E+00 +3.03898E+01 -1.13007E+01 +3.02666E+01
 -2.48953E+01 +2.25485E+01 -3.30377E+01 +9.18301E+00 -3.36814E+01 -6.47309E+00 -2.66626E+01 -2.04944E+01
 -1.37406E+01 -2.93699E+01 +1.84368E+00 -3.08823E+01 +1.61798E+01 -2.46652E+01 +2.56690E+01 -1.22965E+01
 +2.79293E+01 +3.09505E+00 +2.23962E+01 +1.76140E+01 +1.04695E+01 +2.75763E+01 -4.83420E+00 +3.04372E+01
 -1.96358E+01 +2.54355E+01 -3.01676E+01 +1.37910E+01 -3.37226E+01 -1.59545E+00 -2.93398E+01 -1.68660E+01
 -1.80524E+01 -2.81730E+01 -2.63621E+00 -3.26471E+01 +1.30824E+01 -2.91224E+01 +2.51838E+01 -1.84356E+01
 +3.06395E+01 -3.22260E+00 +2.80752E+01 +1.27372E+01 +1.81199E+01 +2.54660E+01 +3.25313E+00 +3.17844E+01
 -1.28124E+01 +3.01095E+01 -2.60588E+01 +2.08537E+01 -3.31680E+01 +6.32378E+00 -3.23525E+01 -9.85500E+00
 -2.38017E+01 -2.36452E+01 -9.63431E+00 -3.16061E+01 +6.63349E+00 -3.17521E+01 +2.09674E+01 -2.40460E+01
 +2.98227E+01 -1.04035E+01 +3.10264E+01 +5.79009E+00 +2.43135E+01 +2.05287E+01 +1.13849E+01 +3.01863E+01
 -4.52621E+00 +3.24176E+01 -1.94685E+01 +2.67346E+01 -2.97602E+01 +1.46158E+01 -3.29040E+01 -8.75763E-01
 -2.81990E+01 -1.58677E+01 -1.69005E+01 -2.66489E+01 -1.88926E+00 -3.05927E+01 +1.30616E+01 -2.68006E+01
 +2.42357E+01 -1.63089E+01 +2.88998E+01 -1.81011E+00 +2.59750E+01 +1.30366E+01 +1.62879E+01 +2.45298E+01
