 Created: 19-Jan-2021
 $NMID
 ID='D:\BASISSIMULATI'
 FMTDAT='(8E13.5)'
 VOLUME=   1.00000E+00
 TRAMP=   1.00000E+00
 $END
 +8.25913E+01 +1.32329E+01 +7.73641E+01 -1.33792E+01 +5.55340E+01 -3.45010E+01 +2.24860E+01 -4.35173E+01
 -1.35555E+01 -3.72815E+01 -4.37098E+01 -1.70076E+01 -6.07880E+01 +1.20408E+01 -6.11736E+01 +4.19789E+01
 -4.57296E+01 +6.44572E+01 -1.94940E+01 +7.29565E+01 +9.74686E+00 +6.45959E+01 +3.36131E+01 +4.09581E+01
 +4.54244E+01 +7.70833E+00 +4.20071E+01 -2.68933E+01 +2.45271E+01 -5.41822E+01 -1.87297E+00 -6.73910E+01
 -2.95263E+01 -6.34398E+01 -5.03825E+01 -4.37342E+01 -5.82464E+01 -1.37595E+01 -5.05048E+01 +1.84147E+01
 -2.88667E+01 +4.43099E+01 +1.07997E+00 +5.73032E+01 +3.13756E+01 +5.43698E+01 +5.38455E+01 +3.68373E+01
 +6.23198E+01 +9.95482E+00 +5.43127E+01 -1.85943E+01 +3.17053E+01 -4.08246E+01 +2.51561E-01 -5.06406E+01
 -3.19581E+01 -4.54916E+01 -5.66560E+01 -2.70431E+01 -6.75936E+01 -6.87966E-01 -6.21836E+01 +2.59609E+01
 -4.21491E+01 +4.51801E+01 -1.30111E+01 +5.12681E+01 +1.74362E+01 +4.21187E+01 +4.12442E+01 +1.98099E+01
 +5.24435E+01 -9.94914E+00 +4.86177E+01 -3.93573E+01 +3.14955E+01 -6.06263E+01 +6.41273E+00 -6.80765E+01
 -1.91998E+01 -5.96585E+01 -3.78811E+01 -3.74904E+01 -4.41925E+01 -7.27322E+00 -3.61979E+01 +2.32515E+01
 -1.59754E+01 +4.63786E+01 +1.09717E+01 +5.64864E+01 +3.72357E+01 +5.15034E+01 +5.55372E+01 +3.34051E+01
 +6.07123E+01 +7.61684E+00 +5.11157E+01 -1.85038E+01 +2.90630E+01 -3.76854E+01 +1.98146E-01 -4.47101E+01
 -2.80345E+01 -3.77993E+01 -4.83941E+01 -1.90486E+01 -5.57783E+01 +6.19439E+00 -4.85668E+01 +3.08297E+01
 -2.90182E+01 +4.79644E+01 -2.61989E+00 +5.27963E+01 +2.34201E+01 +4.39105E+01 +4.21266E+01 +2.36436E+01
 +4.86224E+01 -2.57472E+00 +4.14051E+01 -2.77149E+01 +2.26969E+01 -4.50616E+01 -2.21315E+00 -5.00275E+01
 -2.64467E+01 -4.13765E+01 -4.34213E+01 -2.15313E+01 -4.86302E+01 +4.10885E+00 -4.08360E+01 +2.86452E+01
 -2.23627E+01 +4.55449E+01 +1.58081E+00 +5.03878E+01 +2.43518E+01 +4.20237E+01 +3.96956E+01 +2.28376E+01
 +4.34419E+01 -1.93964E+00 +3.46164E+01 -2.56757E+01 +1.56747E+01 -4.21377E+01 -8.19404E+00 -4.71594E+01
 -3.04963E+01 -3.97269E+01 -4.51992E+01 -2.21992E+01 -4.83518E+01 +3.85514E-01 -3.91270E+01 +2.17156E+01
 -2.00096E+01 +3.59349E+01 +3.90958E+00 +3.92234E+01 +2.63307E+01 +3.08042E+01 +4.14480E+01 +1.31126E+01
 +4.54968E+01 -8.90569E+00 +3.77287E+01 -2.91674E+01 +2.05613E+01 -4.21134E+01 -1.12496E+00 -4.42080E+01
 -2.13422E+01 -3.48724E+01 -3.46261E+01 -1.66073E+01 -3.75001E+01 +5.71532E+00 -2.93791E+01 +2.61911E+01
 -1.26789E+01 +3.94815E+01 +7.88595E+00 +4.22378E+01 +2.66155E+01 +3.39692E+01 +3.83822E+01 +1.71308E+01
 +4.00120E+01 -3.58245E+00 +3.11158E+01 -2.25318E+01 +1.41580E+01 -3.46635E+01 -6.24812E+00 -3.68548E+01
 -2.46133E+01 -2.87187E+01 -3.60639E+01 -1.26581E+01 -3.76461E+01 +6.83197E+00 -2.90933E+01 +2.44132E+01
 -1.28596E+01 +3.53595E+01 +6.58002E+00 +3.68222E+01 +2.39609E+01 +2.85675E+01 +3.46535E+01 +1.29957E+01
 +3.58942E+01 -5.55031E+00 +2.74945E+01 -2.19910E+01 +1.18459E+01 -3.18946E+01 -6.76737E+00 -3.26659E+01
 -2.33527E+01 -2.42202E+01 -3.35623E+01 -8.96968E+00 -3.48488E+01 +8.86255E+00 -2.71142E+01 +2.44067E+01
 -1.26884E+01 +3.34660E+01 +4.34675E+00 +3.36355E+01 +1.92936E+01 +2.49203E+01 +2.81200E+01 +9.69756E+00
 +2.85389E+01 -7.95857E+00 +2.05974E+01 -2.33957E+01 +6.62522E+00 -3.26375E+01 -9.43296E+00 -3.34336E+01
 -2.31104E+01 -2.58275E+01 -3.06354E+01 -1.20971E+01 -2.99414E+01 +3.90309E+00 -2.12017E+01 +1.78115E+01
 -6.75298E+00 +2.59440E+01 +9.56289E+00 +2.62729E+01 +2.34512E+01 +1.89403E+01 +3.13210E+01 +6.17574E+00
 +3.12339E+01 -8.34885E+00 +2.33933E+01 -2.05423E+01 +1.00497E+01 -2.70128E+01 -5.14008E+00 -2.59787E+01
 -1.81194E+01 -1.77278E+01 -2.55256E+01 -4.51075E+00 -2.55764E+01 +1.00954E+01 -1.85127E+01 +2.21714E+01
 -6.48889E+00 +2.85168E+01 +7.05056E+00 +2.75018E+01 +1.83303E+01 +1.94818E+01 +2.42733E+01 +6.67260E+00
 +2.33224E+01 -7.47366E+00 +1.58346E+01 -1.92125E+01 +3.95024E+00 -2.55140E+01 -9.01799E+00 -2.48594E+01
 -1.95038E+01 -1.76169E+01 -2.46592E+01 -5.90434E+00 -2.31167E+01 +7.01631E+00 -1.53389E+01 +1.76400E+01
 -3.46804E+00 +2.31671E+01 +9.27533E+00 +2.22432E+01 +1.94758E+01 +1.52941E+01 +2.44444E+01 +4.37408E+00
 +2.29304E+01 -7.42428E+00 +1.54330E+01 -1.68291E+01 +4.03844E+00 -2.12818E+01 -8.16848E+00 -1.96208E+01
 -1.79500E+01 -1.23741E+01 -2.27872E+01 -1.59033E+00 -2.15427E+01 +9.74097E+00 -1.47379E+01 +1.85135E+01
 -4.37819E+00 +2.23478E+01 +6.61851E+00 +2.02250E+01 +1.52301E+01 +1.27425E+01 +1.91509E+01 +1.92967E+00
 +1.74043E+01 -9.32085E+00 +1.05838E+01 -1.80454E+01 +6.64626E-01 -2.20078E+01 -9.55598E+00 -2.02883E+01
 -1.72324E+01 -1.35068E+01 -2.02452E+01 -3.62732E+00 -1.77659E+01 +6.59851E+00 -1.04646E+01 +1.43900E+01
 -3.06703E-01 +1.76917E+01 +9.99605E+00 +1.57173E+01 +1.77293E+01 +9.14142E+00 +2.09082E+01 -1.09124E-01
 +1.88001E+01 -9.39998E+00 +1.21008E+01 -1.61178E+01 +2.72083E+00 -1.83824E+01 -6.75374E+00 -1.55486E+01
 -1.37739E+01 -8.36703E+00 -1.65186E+01 +1.23706E+00 -1.43763E+01 +1.06995E+01 -8.08960E+00 +1.75183E+01
 +4.70454E-01 +1.99281E+01 +8.83481E+00 +1.73646E+01 +1.46217E+01 +1.05976E+01 +1.61886E+01 +1.50110E+00
 +1.30748E+01 -7.47155E+00 +6.11513E+00 -1.39604E+01 -2.79951E+00 -1.63346E+01 -1.12471E+01 -1.41193E+01
 -1.69377E+01 -8.10067E+00 -1.83332E+01 -8.58860E-02 -1.50562E+01 +7.61151E+00 -7.98036E+00 +1.28164E+01
 +1.01943E+00 +1.40895E+01 +9.58316E+00 +1.11141E+01 +1.55057E+01 +4.77043E+00 +1.73254E+01 -3.11998E+00
 +1.47015E+01 -1.03054E+01 +8.48355E+00 -1.47283E+01 +4.56243E-01 -1.50916E+01 -7.16435E+00 -1.12120E+01
 -1.23425E+01 -4.06698E+00 -1.37746E+01 +4.47451E+00 -1.12305E+01 +1.21618E+01 -5.59552E+00 +1.69712E+01
 +1.39549E+00 +1.76478E+01 +7.65414E+00 +1.40344E+01 +1.13259E+01 +7.10029E+00 +1.13063E+01 -1.33306E+00
 +7.54571E+00 -9.09224E+00 +1.05965E+00 -1.42388E+01 -6.35446E+00 -1.55829E+01 -1.26147E+01 -1.29850E+01
 -1.59284E+01 -7.36738E+00 -1.52845E+01 -4.36979E-01 -1.07310E+01 +5.80139E+00 -3.36303E+00 +9.60392E+00
 +4.97246E+00 +9.96554E+00 +1.21741E+01 +6.88619E+00 +1.64478E+01 +1.35525E+00 +1.67807E+01 -4.93831E+00
 +1.32000E+01 -1.00874E+01 +6.74932E+00 -1.25052E+01 -8.08531E-01 -1.13718E+01 -7.47643E+00 -6.86592E+00
 -1.15631E+01 -1.20727E-01 -1.21304E+01 +7.08485E+00 -9.22723E+00 +1.28116E+01 -3.85079E+00 +1.54897E+01
 +2.35172E+00 +1.43469E+01 +7.55407E+00 +9.62014E+00 +1.02637E+01 +2.49250E+00 +9.73437E+00 -5.22375E+00
 +6.16597E+00 -1.15721E+01 +6.39014E-01 -1.49714E+01 -5.19609E+00 -1.46291E+01 -9.58709E+00 -1.07389E+01
 -1.11748E+01 -4.41010E+00 -9.37818E+00 +2.64640E+00 -4.56368E+00 +8.58968E+00 +2.04709E+00 +1.19457E+01
 +8.70539E+00 +1.19951E+01 +1.36087E+01 +8.94842E+00 +1.53896E+01 +3.86257E+00 +1.34874E+01 -1.67294E+00
 +8.30124E+00 -5.99188E+00 +1.08477E+00 -7.82145E+00 -6.38784E+00 -6.63682E+00 -1.22930E+01 -2.80332E+00
 -1.52373E+01 +2.53136E+00 -1.46174E+01 +7.76342E+00 -1.07625E+01 +1.12861E+01 -4.82677E+00 +1.19438E+01
 +1.53872E+00 +9.36256E+00 +6.64060E+00 +4.06428E+00 +9.19993E+00 -2.66441E+00 +8.68683E+00 -9.11410E+00
 +5.44371E+00 -1.36112E+01 +5.66622E-01 -1.49681E+01 -4.41906E+00 -1.28034E+01 -7.99663E+00 -7.64511E+00
 -9.08746E+00 -7.90671E-01 -7.35320E+00 +6.03722E+00 -3.28824E+00 +1.11452E+01 +1.92181E+00 +1.33107E+01
 +6.73511E+00 +1.20926E+01 +9.68874E+00 +7.92875E+00 +9.81344E+00 +1.99764E+00 +6.91357E+00 -4.11499E+00
 +1.63536E+00 -8.85119E+00 -4.69549E+00 -1.10982E+01 -1.04227E+01 -1.04747E+01 -1.39998E+01 -7.41082E+00
 -1.44032E+01 -3.00277E+00 -1.14056E+01 +1.31443E+00 -5.63841E+00 +4.18273E+00 +1.57423E+00 +4.70998E+00
 +8.56240E+00 +2.72415E+00 +1.37444E+01 -1.17664E+00 +1.60309E+01 -5.79111E+00 +1.50919E+01 -9.65182E+00
 +1.14172E+01 -1.14388E+01 +6.15783E+00 -1.03559E+01 +7.95413E-01 -6.36578E+00 -3.26805E+00 -2.19661E-01
 -5.08743E+00 +6.72683E+00 -4.41645E+00 +1.28625E+01 -1.75099E+00 +1.67393E+01 +1.83488E+00 +1.74490E+01
 +5.01160E+00 +1.48570E+01 +6.58432E+00 +9.63177E+00 +5.84161E+00 +3.06419E+00 +2.76615E+00 -3.27327E+00
 -1.95022E+00 -7.93449E+00 -7.09096E+00 -9.96556E+00 -1.12474E+01 -9.13197E+00 -1.32082E+01 -5.94925E+00
 -1.22989E+01 -1.51300E+00 -8.57841E+00 +2.82137E+00 -2.83996E+00 +5.81954E+00 +3.58533E+00 +6.70467E+00
 +9.16822E+00 +5.35869E+00 +1.25739E+01 +2.33545E+00 +1.30026E+01 -1.31449E+00 +1.03877E+01 -4.35651E+00
 +5.40147E+00 -5.73368E+00 -7.31290E-01 -4.87698E+00 -6.55967E+00 -1.87817E+00 -1.07833E+01 +2.52212E+00
 -1.25792E+01 +7.12756E+00 -1.17923E+01 +1.06077E+01 -8.94301E+00 +1.18599E+01 -5.05261E+00 +1.03140E+01
 -1.33987E+00 +6.09619E+00 +1.12718E+00 +9.14628E-03 +1.72756E+00 -6.66631E+00 +4.51662E-01 -1.24947E+01
 -2.10928E+00 -1.62477E+01 -4.94323E+00 -1.72085E+01 -6.91502E+00 -1.53389E+01 -7.09816E+00 -1.12685E+01
 -5.04891E+00 -6.10978E+00 -9.47175E-01 -1.15448E+00 +4.43438E+00 +2.46830E+00 +9.92434E+00 +4.07871E+00
 +1.42570E+01 +3.60305E+00 +1.64046E+01 +1.56201E+00 +1.58485E+01 -1.10241E+00 +1.27165E+01 -3.31039E+00
 +7.75016E+00 -4.15842E+00 +2.11305E+00 -3.17743E+00 -2.90876E+00 -4.64804E-01 -6.23320E+00 +3.34409E+00
 -7.24929E+00 +7.25517E+00 -5.95552E+00 +1.01949E+01 -2.93561E+00 +1.13119E+01 +8.18282E-01 +1.02184E+01
 +4.18444E+00 +7.10531E+00 +6.21577E+00 +2.70057E+00 +6.38723E+00 -1.91782E+00 +4.72151E+00 -5.60268E+00
 +1.76204E+00 -7.43698E+00 -1.59588E+00 -6.97126E+00 -4.36668E+00 -4.33679E+00 -5.75567E+00 -2.05443E-01
 -5.38235E+00 +4.39082E+00 -3.38568E+00 +8.33126E+00 -3.84015E-01 +1.06952E+01 +2.69773E+00 +1.09913E+01
 +4.88490E+00 +9.26909E+00 +5.42334E+00 +6.08365E+00 +3.98922E+00 +2.32886E+00 +7.82160E-01 -1.01498E+00
 -3.52273E+00 -3.14847E+00 -7.94977E+00 -3.66345E+00 -1.14766E+01 -2.64083E+00 -1.32984E+01 -6.11948E-01
 -1.30321E+01 +1.60299E+00 -1.08067E+01 +3.13315E+00 -7.21797E+00 +3.30546E+00 -3.16208E+00 +1.83526E+00
 +4.05996E-01 -1.09192E+00 +2.72272E+00 -4.86843E+00 +3.40853E+00 -8.62763E+00 +2.55241E+00 -1.14765E+01
 +6.68402E-01 -1.27339E+01 -1.46118E+00 -1.21103E+01 -3.01102E+00 -9.78118E+00 -3.34415E+00 -6.33576E+00
