 Created: 19-Jan-2021
 $NMID
 ID='D:\BASISSIMULATI'
 FMTDAT='(8E13.5)'
 VOLUME=   1.00000E+00
 TRAMP=   1.00000E+00
 $END
 +1.41388E+02 +2.16440E+01 +1.31319E+02 +5.56715E+01 +1.12698E+02 +8.57785E+01 +8.69127E+01 +1.09820E+02
 +5.58750E+01 +1.26112E+02 +2.18799E+01 +1.33555E+02 -1.25717E+01 +1.31717E+02 -4.49627E+01 +1.20864E+02
 -7.29506E+01 +1.01932E+02 -9.45442E+01 +7.64585E+01 -1.08252E+02 +4.64562E+01 -1.13195E+02 +1.42614E+01
 -1.09164E+02 -1.76483E+01 -9.66384E+01 -4.68429E+01 -7.67389E+01 -7.11264E+01 -5.11394E+01 -8.87025E+01
 -2.19344E+01 -9.83095E+01 +8.52558E+00 -9.93141E+01 +3.78165E+01 -9.17548E+01 +6.36286E+01 -7.63343E+01
 +8.39442E+01 -5.43606E+01 +9.71917E+01 -2.76413E+01 +1.02365E+02 +1.66000E+00 +9.90961E+01 +3.11940E+01
 +8.76832E+01 +5.86097E+01 +6.90600E+01 +8.17377E+01 +4.47210E+01 +9.87581E+01 +1.66013E+01 +1.08341E+02
 -1.30768E+01 +1.09747E+02 -4.19791E+01 +1.02885E+02 -6.78427E+01 +8.83112E+01 -8.86531E+01 +6.71888E+01
 -1.02801E+02 +4.11900E+01 -1.09207E+02 +1.23654E+01 -1.07405E+02 -1.70193E+01 -9.75763E+01 -4.46611E+01
 -8.05350E+01 -6.84011E+01 -5.76611E+01 -8.63937E+01 -3.07917E+01 -9.72508E+01 -2.07611E+00 -1.00150E+02
 +2.61940E+01 -9.49006E+01 +5.17644E+01 -8.19539E+01 +7.25959E+01 -6.23712E+01 +8.70241E+01 -3.77388E+01
 +9.38907E+01 -1.00432E+01 +9.26341E+01 +1.84842E+01 +8.33346E+01 +4.55423E+01 +6.67085E+01 +6.89405E+01
 +4.40528E+01 +8.67711E+01 +1.71447E+01 +9.75583E+01 -1.18964E+01 +1.00375E+02 -4.07738E+01 +9.49179E+01
 -6.71926E+01 +8.15288E+01 -8.90383E+01 +6.11735E+01 -1.04542E+02 +3.53662E+01 -1.12419E+02 +6.05402E+00
 -1.11969E+02 -2.45336E+01 -1.03132E+02 -5.40565E+01 -8.64982E+01 -8.02448E+01 -6.32566E+01 -1.01074E+02
 -3.51114E+01 -1.14923E+02 -4.14821E+00 -1.20699E+02 +2.73245E+01 -1.17921E+02 +5.69531E+01 -1.06760E+02
 +8.25190E+01 -8.80278E+01 +1.02110E+02 -6.31110E+01 +1.14264E+02 -3.38687E+01 +1.18088E+02 -2.48856E+00
 +1.13316E+02 +2.86801E+01 +1.00340E+02 +5.73065E+01 +8.01722E+01 +8.12567E+01 +5.43685E+01 +9.87567E+01
 +2.49102E+01 +1.08527E+02 -5.94924E+00 +1.09882E+02 -3.58578E+01 +1.02778E+02 -6.25447E+01 +8.78166E+01
 -8.39941E+01 +6.61981E+01 -9.85994E+01 +3.96265E+01 -1.05285E+02 +1.01776E+01 -1.03587E+02 -1.98615E+01
 -9.36880E+01 -4.81684E+01 -7.63988E+01 -7.25641E+01 -5.30964E+01 -9.11804E+01 -2.56144E+01 -1.02602E+02
 +3.89906E+00 -1.05976E+02 +3.31483E+01 -1.01071E+02 +5.98673E+01 -8.82978E+01 +8.19948E+01 -6.86740E+01
 +9.78326E+01 -4.37414E+01 +1.06175E+02 -1.54471E+01 +1.06403E+02 +1.40093E+01 +9.85237E+01 +4.23462E+01
 +8.31765E+01 +6.73772E+01 +6.15747E+01 +8.71798E+01 +3.54127E+01 +1.00244E+02 +6.73232E+00 +1.05586E+02
 -2.22361E+01 +1.02827E+02 -4.92476E+01 +9.22174E+01 -7.22167E+01 +7.46151E+01 -8.93787E+01 +5.14201E+01
 -9.94260E+01 +2.44624E+01 -1.01609E+02 -4.14047E+00 -9.57917E+01 -3.21493E+01 -8.24627E+01 -5.73770E+01
 -6.26942E+01 -7.78588E+01 -3.80587E+01 -9.20045E+01 -1.05048E+01 -9.87214E+01 +1.77940E+01 -9.74987E+01
 +4.46096E+01 -8.84461E+01 +6.78321E+01 -7.22846E+01 +8.56339E+01 -5.02896E+01 +9.66118E+01 -2.41914E+01
 +9.98954E+01 +3.96024E+00 +9.52145E+01 +3.19552E+01 +8.29197E+01 +5.75949E+01 +6.39550E+01 +7.88633E+01
 +3.97840E+01 +9.40831E+01 +1.22764E+01 +1.02046E+02 -1.64372E+01 +1.02105E+02 -4.41304E+01 +9.42278E+01
 -6.86536E+01 +7.89946E+01 -8.81002E+01 +5.75564E+01 -1.00954E+02 +3.15446E+01 -1.06206E+02 +2.94494E+00
 -1.03433E+02 -2.60562E+01 -9.28297E+01 -5.32406E+01 -7.51916E+01 -7.65291E+01 -5.18558E+01 -9.41423E+01
 -2.45958E+01 -1.04737E+02 +4.51513E+00 -1.07509E+02 +3.32641E+01 -1.02256E+02 +5.94694E+01 -8.93897E+01
 +8.11479E+01 -6.99049E+01 +9.66679E+01 -4.53014E+01 +1.04874E+02 -1.74673E+01 +1.05174E+02 +1.14669E+01
 +9.75862E+01 +3.92934E+01 +8.27312E+01 +6.38971E+01 +6.17874E+01 +8.34184E+01 +3.63963E+01 +9.63959E+01
 +8.53451E+00 +1.01878E+02 -1.96393E+01 +9.94940E+01 -4.59520E+01 +8.94827E+01 -6.83838E+01 +7.26702E+01
 -8.52242E+01 +5.04051E+01 -9.52030E+01 +2.44518E+01 -9.75877E+01 -3.14658E+00 -9.22379E+01 -3.02283E+01
 -7.96150E+01 -5.46805E+01 -6.07441E+01 -7.46029E+01 -3.71331E+01 -8.84553E+01 -1.06539E+01 -9.51754E+01
 +1.66040E+01 -9.42607E+01 +4.24965E+01 -8.58059E+01 +6.49920E+01 -7.04942E+01 +8.23290E+01 -4.95424E+01
 +9.31530E+01 -2.46056E+01 +9.66211E+01 +2.35295E+00 +9.24666E+01 +2.92154E+01 +8.10192E+01 +5.38742E+01
 +6.31780E+01 +7.43967E+01 +4.03412E+01 +8.91753E+01 +1.42964E+01 +9.70527E+01 -1.29194E+01 +9.74113E+01
 -3.91780E+01 +9.02214E+01 -6.24267E+01 +7.60428E+01 -8.08475E+01 +5.59812E+01 -9.29994E+01 +3.16018E+01
 -9.79297E+01 +4.80769E+00 -9.52492E+01 -2.23088E+01 -8.51617E+01 -4.76284E+01 -6.84491E+01 -6.91701E+01
 -4.64106E+01 -8.52449E+01 -2.07619E+01 -9.45878E+01 +6.49745E+00 -9.64558E+01 +3.32393E+01 -9.06864E+01
 +5.73715E+01 -7.77105E+01 +7.70007E+01 -5.85200E+01 +9.05786E+01 -3.45908E+01 +9.70226E+01 -7.77017E+00
 +9.57998E+01 +1.98667E+01 +8.69689E+01 +4.61763E+01 +7.11763E+01 +6.91120E+01 +4.96067E+01 +8.68825E+01
 +2.38925E+01 +9.80896E+01 -4.01141E+00 +1.01837E+02 -3.19780E+01 +9.77971E+01 -5.78713E+01 +8.62407E+01
 -7.97102E+01 +6.80126E+01 -9.58207E+01 +4.44685E+01 -1.04964E+02 +1.73710E+01 -1.06431E+02 -1.12456E+01
 -1.00096E+02 -3.92312E+01 -8.64273E+01 -6.44845E+01 -6.64489E+01 -8.51133E+01 -4.16620E+01 -9.95791E+01
 -1.39293E+01 -1.06814E+02 +1.46676E+01 -1.06299E+02 +4.19882E+01 -9.81083E+01 +6.59966E+01 -8.28937E+01
 +8.49168E+01 -6.18390E+01 +9.73674E+01 -3.65654E+01 +1.02466E+02 -9.00600E+00 +9.98930E+01 +1.87432E+01
 +8.99171E+01 +4.45846E+01 +7.33681E+01 +6.65795E+01 +5.15728E+01 +8.30964E+01 +2.62499E+01 +9.29342E+01
 -6.24149E-01 +9.54123E+01 -2.69682E+01 +9.04205E+01 -5.07577E+01 +7.84238E+01 -7.01803E+01 +6.04237E+01
 -8.37744E+01 +3.78778E+01 -9.05404E+01 +1.25842E+01 -9.00153E+01 -1.34591E+01 -8.23056E+01 -3.82105E+01
 -6.80759E+01 -5.97434E+01 -4.84943E+01 -7.63951E+01 -2.51385E+01 -8.68949E+01 +1.28545E-01 -9.04612E+01
 +2.53060E+01 -8.68595E+01 +4.84113E+01 -7.64186E+01 +6.76358E+01 -6.00024E+01 +8.14848E+01 -3.89395E+01
 +8.88935E+01 -1.49178E+01 +8.93094E+01 +1.01492E+01 +8.27331E+01 +3.42734E+01 +6.97170E+01 +5.55482E+01
 +5.13206E+01 +7.22984E+01 +2.90257E+01 +8.32107E+01 +4.61893E+00 +8.74368E+01 -1.99488E+01 +8.46594E+01
 -4.27163E+01 +7.51159E+01 -6.18665E+01 +5.95801E+01 -7.58693E+01 +3.93004E+01 -8.36020E+01 +1.59021E+01
 -8.44379E+01 -8.74081E+00 -7.82956E+01 -3.26527E+01 -6.56468E+01 -5.39112E+01 -4.74791E+01 -7.07990E+01
 -2.52204E+01 -8.19384E+01 -6.27074E-01 -8.64006E+01 +2.43525E+01 -8.37794E+01 +4.77298E+01 -7.42245E+01
 +6.76320E+01 -5.84318E+01 +8.24482E+01 -3.75904E+01 +9.09560E+01 -1.32917E+01 +9.24184E+01 +1.25929E+01
 +8.66424E+01 +3.80567E+01 +7.39965E+01 +6.11128E+01 +5.53839E+01 +7.99480E+01 +3.21747E+01 +9.30642E+01
 +6.10174E+00 +9.93948E+01 -2.08714E+01 +9.83885E+01 -4.67013E+01 +9.00537E+01 -6.94210E+01 +7.49595E+01
 -8.72915E+01 +5.41933E+01 -9.89353E+01 +2.92796E+01 -1.03443E+02 +2.06377E+00 -1.00443E+02 -2.54281E+01
 -9.01307E+01 -5.11433E+01 -7.32566E+01 -7.31594E+01 -5.10662E+01 -8.98301E+01 -2.52076E+01 -9.99110E+01
 +2.39457E+00 -1.02654E+02 +2.96849E+01 -9.78648E+01 +5.46340E+01 -8.59148E+01 +7.53920E+01 -6.77148E+01
 +9.04289E+01 -4.46435E+01 +9.86498E+01 -1.84421E+01 +9.94768E+01 +8.91894E+00 +9.28913E+01 +3.53898E+01
 +7.94334E+01 +5.89975E+01 +6.01585E+01 +7.79953E+01 +3.65551E+01 +9.09945E+01 +1.04294E+01 +9.70682E+01
 -1.62339E+01 +9.58197E+01 -4.14234E+01 +8.74094E+01 -6.32546E+01 +7.25397E+01 -8.01132E+01 +5.23982E+01
 -9.07766E+01 +2.85634E+01 -9.45044E+01 +2.88173E+00 -9.10928E+01 -2.26759E+01 -8.08854E+01 -4.61662E+01
 -6.47436E+01 -6.58222E+01 -4.39766E+01 -8.01888E+01 -2.02365E+01 -8.82318E+01 +4.61113E+00 -8.94150E+01
 +2.86333E+01 -8.37383E+01 +4.99801E+01 -7.17330E+01 +6.70273E+01 -5.44176E+01 +7.85015E+01 -3.32144E+01
 +8.35766E+01 -9.83623E+00 +8.19351E+01 +1.38494E+01 +7.37900E+01 +3.59669E+01 +5.98643E+01 +5.47802E+01
 +4.13319E+01 +6.88274E+01 +1.97221E+01 +7.70345E+01 -3.20178E+00 +7.87978E+01 -2.55830E+01 +7.40291E+01
 -4.56178E+01 +6.31607E+01 -6.16979E+01 +4.71093E+01 -7.25371E+01 +2.72016E+01 -7.72716E+01 +5.06900E+00
 -7.55280E+01 -1.74829E+01 -6.74520E+01 -3.86171E+01 -5.36961E+01 -5.66109E+01 -3.53682E+01 -6.99919E+01
 -1.39433E+01 -7.76554E+01 +8.85234E+00 -7.89512E+01 +3.11779E+01 -7.37366E+01 +5.12233E+01 -6.23875E+01
 +6.73520E+01 -4.57710E+01 +7.82310E+01 -2.51772E+01 +8.29365E+01 -2.21973E+00 +8.10283E+01 +2.12906E+01
 +7.25862E+01 +4.34873E+01 +5.82056E+01 +6.25945E+01 +3.89537E+01 +7.70662E+01 +1.62876E+01 +8.57086E+01
 -8.05747E+00 +8.77747E+01 -3.22018E+01 +8.30246E+01 -5.42669E+01 +7.17469E+01 -7.25212E+01 +5.47383E+01
 -8.55148E+01 +3.32449E+01 -9.21931E+01 +8.86753E+00 -9.19797E+01 -1.65600E+01 -8.48230E+01 -4.11110E+01
 -7.12024E+01 -6.29140E+01 -5.20931E+01 -8.02962E+01 -2.88938E+01 -9.19126E+01 -3.32057E+00 -9.68497E+01
 +2.27232E+01 -9.46966E+01 +4.72914E+01 -8.55777E+01 +6.85434E+01 -7.01441E+01 +8.48844E+01 -4.95251E+01
 +9.50867E+01 -2.52427E+01 +9.83834E+01 +9.03515E-01 +9.45265E+01 +2.69727E+01 +8.38059E+01 +5.10303E+01
 +6.70266E+01 +7.12945E+01 +4.54475E+01 +8.62709E+01 +2.06853E+01 +9.48655E+01 -5.40903E+00 +9.64663E+01
 -3.08908E+01 +9.09887E+01 -5.38693E+01 +7.88804E+01 -7.26506E+01 +6.10852E+01 -8.58654E+01 +3.89696E+01
 -9.25716E+01 +1.42175E+01 -9.23232E+01 -1.12992E+01 -8.52022E+01 -3.56639E+01 -7.18088E+01 -5.70610E+01
 -5.32132E+01 -7.39138E+01 -3.08707E+01 -8.50028E+01 -6.50838E+00 -8.95563E+01 +1.80088E+01 -8.73068E+01
 +4.08215E+01 -7.85071E+01 +6.02185E+01 -6.39079E+01 +7.47669E+01 -4.46960E+01 +8.34201E+01 -2.23997E+01
 +8.55952E+01 +1.23109E+00 +8.12148E+01 +2.43619E+01 +7.07089E+01 +4.52159E+01 +5.49771E+01 +6.22115E+01
 +3.53163E+01 +7.40828E+01 +1.33159E+01 +7.99762E+01 -9.26776E+00 +7.95136E+01 -3.06494E+01 +7.28186E+01
 -4.91548E+01 +6.05032E+01 -6.33513E+01 +4.36168E+01 -7.21583E+01 +2.35613E+01 -7.49305E+01 +1.97858E+00
 -7.15061E+01 -1.93798E+01 -6.22171E+01 -3.87913E+01 -4.78613E+01 -5.46977E+01 -2.96371E+01 -6.58283E+01
