 Created: 19-Jan-2021
 $NMID
 ID='D:\BASISSIMULATI'
 FMTDAT='(8E13.5)'
 VOLUME=   1.00000E+00
 TRAMP=   1.00000E+00
 $END
 +3.24746E+01 +4.97086E+00 +3.07374E+01 +1.14225E+01 +2.75883E+01 +1.72855E+01 +2.32235E+01 +2.22341E+01
 +1.79156E+01 +2.60066E+01 +1.19927E+01 +2.84225E+01 +5.81499E+00 +2.93937E+01 -2.51267E-01 +2.89289E+01
 -5.85977E+00 +2.71310E+01 -1.07080E+01 +2.41871E+01 -1.45577E+01 +2.03527E+01 -1.72496E+01 +1.59321E+01
 -1.87129E+01 +1.12539E+01 -1.89669E+01 +6.64690E+00 -1.81167E+01 +2.41571E+00 -1.63423E+01 -1.18112E+00
 -1.38822E+01 -3.94881E+00 -1.10130E+01 -5.76884E+00 -8.02676E+00 -6.60538E+00 -5.20760E+00 -6.50508E+00
 -2.80957E+00 -5.59068E+00 -1.03721E+00 -4.04870E+00 -3.05257E-02 -2.11252E+00 +1.44711E-01 -4.21373E-02
 -4.99342E-01 +1.89778E+00 -1.87513E+00 +3.45983E+00 -3.82812E+00 +4.43406E+00 -6.15041E+00 +4.66489E+00
 -8.59836E+00 +4.06357E+00 -1.09128E+01 +2.61513E+00 -1.28404E+01 +3.79526E-01 -1.41540E+01 -2.51315E+00
 -1.46715E+01 -5.87293E+00 -1.42700E+01 -9.46478E+00 -1.28965E+01 -1.30269E+01 -1.05722E+01 -1.62907E+01
 -7.39121E+00 -1.90020E+01 -3.51442E+00 -2.09397E+01 +8.42586E-01 -2.19331E+01 +5.42508E+00 -2.18748E+01
 +9.95784E+00 -2.07285E+01 +1.41650E+01 -1.85320E+01 +1.77902E+01 -1.53943E+01 +2.06143E+01 -1.14876E+01
 +2.24711E+01 -7.03483E+00 +2.32585E+01 -2.29340E+00 +2.29450E+01 +2.46320E+00 +2.15704E+01 +6.96464E+00
 +1.92426E+01 +1.09626E+01 +1.61280E+01 +1.42476E+01 +1.24391E+01 +1.66625E+01 +8.41798E+00 +1.81124E+01
 +4.31906E+00 +1.85694E+01 +3.90546E-01 +1.80721E+01 -3.14283E+00 +1.67214E+01 -6.09490E+00 +1.46701E+01
 -8.32992E+00 +1.21111E+01 -9.77045E+00 +9.26089E+00 -1.04005E+01 +6.34344E+00 -1.02642E+01 +3.57310E+00
 -9.46006E+00 +1.13914E+00 -8.13087E+00 -8.07493E-01 -6.45128E+00 -2.16402E+00 -4.61282E+00 -2.88172E+00
 -2.80831E+00 -2.96757E+00 -1.21660E+00 -2.48144E+00 +1.11336E-02 -1.52946E+00 +7.62560E-01 -2.53838E-01
 +9.72060E-01 +1.17974E+00 +6.24716E-01 +2.59625E+00 -2.43739E-01 +3.82581E+00 -1.55094E+00 +4.71742E+00
 -3.17544E+00 +5.15099E+00 -4.96719E+00 +5.04656E+00 -6.76001E+00 +4.37035E+00 -8.38513E+00 +3.13701E+00
 -9.68461E+00 +1.40812E+00 -1.05238E+01 -7.12915E-01 -1.08019E+01 -3.08914E+00 -1.04592E+01 -5.56071E+00
 -9.48218E+00 -7.95722E+00 -7.90388E+00 -1.01105E+01 -5.80146E+00 -1.18674E+01 -3.29032E+00 -1.31006E+01
 -5.15413E-01 -1.37182E+01 +2.35943E+00 -1.36698E+01 +5.16336E+00 -1.29496E+01 +7.73071E+00 -1.15967E+01
 +9.91254E+00 -9.69144E+00 +1.15868E+01 -7.34910E+00 +1.26661E+01 -4.71135E+00 +1.31033E+01 -1.93582E+00
 +1.28935E+01 +8.15055E-01 +1.20732E+01 +3.38536E+00 +1.07166E+01 +5.63614E+00 +8.92947E+00 +7.45432E+00
 +6.84049E+00 +8.75958E+00 +4.59169E+00 +9.50851E+00 +2.32812E+00 +9.69617E+00 +1.87691E-01 +9.35466E+00
 -1.70804E+00 +8.54928E+00 -3.26157E+00 +7.37233E+00 -4.40511E+00 +5.93528E+00 -5.10381E+00 +4.35996E+00
 -5.35653E+00 +2.76923E+00 -5.19409E+00 +1.27819E+00 -4.67526E+00 -1.38112E-02 -3.88094E+00 -1.02955E+00
 -2.90692E+00 -1.71839E+00 -1.85595E+00 -2.05863E+00 -8.29619E-01 -2.05749E+00 +7.93034E-02 -1.74907E+00
 +7.93452E-01 -1.19033E+00 +1.25605E+00 -4.55516E-01 +1.43431E+00 +3.70358E-01 +1.32083E+00 +1.19864E+00
 +9.33064E-01 +1.94406E+00 +3.10952E-01 +2.53124E+00 -4.87083E-01 +2.90015E+00 -1.38932E+00 +3.01017E+00
 -2.31671E+00 +2.84262E+00 -3.18918E+00 +2.40139E+00 -3.93175E+00 +1.71205E+00 -4.47998E+00 +8.19263E-01
 -4.78456E+00 -2.17054E-01 -4.81446E+00 -1.32655E+00 -4.55878E+00 -2.43382E+00 -4.02696E+00 -3.46396E+00
 -3.24761E+00 -4.34785E+00 -2.26601E+00 -5.02684E+00 -1.14052E+00 -5.45652E+00 +6.17748E-02 -5.60930E+00
 +1.26978E+00 -5.47580E+00 +2.41325E+00 -5.06491E+00 +3.42737E+00 -4.40256E+00 +4.25670E+00 -3.52951E+00
 +4.85837E+00 -2.49820E+00 +5.20434E+00 -1.36898E+00 +5.28246E+00 -2.06091E-01 +5.09660E+00 +9.26496E-01
 +4.66567E+00 +1.96890E+00 +4.02180E+00 +2.86876E+00 +3.20777E+00 +3.58392E+00 +2.27401E+00 +4.08446E+00
 +1.27523E+00 +4.35370E+00 +2.67091E-01 +4.38851E+00 -6.96993E-01 +4.19869E+00 -1.56874E+00 +3.80573E+00
 -2.30734E+00 +3.24093E+00 -2.88130E+00 +2.54309E+00 -3.26955E+00 +1.75605E+00 -3.46200E+00 +9.25958E-01
 -3.45938E+00 +9.87809E-02 -3.27265E+00 -6.82144E-01 -2.92178E+00 -1.37818E+00 -2.43431E+00 -1.95711E+00
 -1.84348E+00 -2.39444E+00 -1.18631E+00 -2.67424E+00 -5.01573E-01 -2.78955E+00 +1.72229E-01 -2.74231E+00
 +7.98767E-01 -2.54294E+00 +1.34561E+00 -2.20949E+00 +1.78572E+00 -1.76654E+00 +2.09867E+00 -1.24377E+00
 +2.27156E+00 -6.74366E-01 +2.29950E+00 -9.32792E-02 +2.18588E+00 +4.64625E-01 +1.94203E+00 +9.66389E-01
 +1.58673E+00 +1.38273E+00 +1.14514E+00 +1.68967E+00 +6.47502E-01 +1.86992E+00 +1.27470E-01 +1.91395E+00
 -3.79772E-01 +1.82071E+00 -8.39570E-01 +1.59790E+00 -1.21992E+00 +1.26170E+00 -1.49354E+00 +8.36065E-01
 -1.63974E+00 +3.51449E-01 -1.64600E+00 -1.56891E-01 -1.50912E+00 -6.51017E-01 -1.23585E+00 -1.09271E+00
 -8.42843E-01 -1.44603E+00 -3.56026E-01 -1.67988E+00 +1.90737E-01 -1.77038E+00 +7.57593E-01 -1.70289E+00
 +1.30117E+00 -1.47353E+00 +1.77747E+00 -1.09006E+00 +2.14490E+00 -5.71920E-01 +2.36744E+00 +5.04467E-02
 +2.41748E+00 +7.37179E-01 +2.27828E+00 +1.44130E+00 +1.94581E+00 +2.11170E+00 +1.42976E+00 +2.69652E+00
 +7.53594E-01 +3.14689E+00 -4.63329E-02 +3.42054E+00 -9.22673E-01 +3.48525E+00 -1.81988E+00 +3.32164E+00
 -2.67773E+00 +2.92527E+00 -3.43537E+00 +2.30775E+00 -4.03565E+00 +1.49667E+00 -4.42931E+00 +5.34491E-01
 -4.57889E+00 -5.23819E-01 -4.46189E+00 -1.61408E+00 -4.07307E+00 -2.66702E+00 -3.42548E+00 -3.61301E+00
 -2.55034E+00 -4.38691E+00 -1.49547E+00 -4.93287E+00 -3.22553E-01 -5.20861E+00 +8.96746E-01 -5.18886E+00
 +2.08554E+00 -4.86771E+00 +3.16699E+00 -4.25962E+00 +4.06976E+00 -3.39898E+00 +4.73323E+00 -2.33819E+00
 +5.11206E+00 -1.14438E+00 +5.17983E+00 +1.05000E-01 +4.93132E+00 +1.32755E+00 +4.38330E+00 +2.44170E+00
 +3.57379E+00 +3.37265E+00 +2.55963E+00 +4.05789E+00 +1.41270E+00 +4.45194E+00 +2.14880E-01 +4.52998E+00
 -9.47821E-01 +4.28995E+00 -1.99154E+00 +3.75305E+00 -2.84081E+00 +2.96248E+00 -3.43434E+00 +1.98048E+00
 -3.72972E+00 +8.83963E-01 -3.70693E+00 -2.41097E-01 -3.37012E+00 -1.30607E+00 -2.74760E+00 -2.22635E+00
 -1.89003E+00 -2.92786E+00 -8.66861E-01 -3.35288E+00 +2.38757E-01 -3.46472E+00 +1.33614E+00 -3.25081E+00
 +2.33397E+00 -2.72415E+00 +3.14732E+00 -1.92261E+00 +3.70438E+00 -9.06507E-01 +3.95219E+00 +2.45737E-01
 +3.86115E+00 +1.44329E+00 +3.42771E+00 +2.58975E+00 +2.67514E+00 +3.59046E+00 +1.65231E+00 +4.35993E+00
 +4.30388E-01 +4.82853E+00 -9.02200E-01 +4.94826E+00 -2.24618E+00 +4.69685E+00 -3.49887E+00 +4.07997E+00
 -4.56193E+00 +3.13143E+00 -5.34899E+00 +1.91109E+00 -5.79247E+00 +5.00897E-01 -5.84904E+00 -1.00097E+00
 -5.50345E+00 -2.48720E+00 -4.77010E+00 -3.84931E+00 -3.69258E+00 -4.98579E+00 -2.34085E+00 -5.80988E+00
 -8.06399E-01 -6.25633E+00 +8.04216E-01 -6.28663E+00 +2.37717E+00 -5.89229E+00 +3.79978E+00 -5.09593E+00
 +4.96890E+00 -3.94997E+00 +5.79880E+00 -2.53312E+00 +6.22770E+00 -9.44773E-01 +6.22271E+00 +7.02128E-01
 +5.78251E+00 +2.28942E+00 +4.93778E+00 +3.70248E+00 +3.74918E+00 +4.83880E+00 +2.30303E+00 +5.61573E+00
 +7.05070E-01 +5.97683E+00 -9.27341E-01 +5.89621E+00 -2.47394E+00 +5.38069E+00 -3.82055E+00 +4.46943E+00
 -4.86771E+00 +3.23119E+00 -5.53817E+00 +1.75923E+00 -5.78282E+00 +1.64423E-01 -5.58450E+00 -1.43304E+00
 -4.95937E+00 -2.91270E+00 -3.95583E+00 -4.16297E+00 -2.65088E+00 -5.08955E+00 -1.14440E+00 -5.62270E+00
 +4.48382E-01 -5.72253E+00 +2.00568E+00 -5.38216E+00 +3.40836E+00 -4.62827E+00 +4.54906E+00 -3.51918E+00
 +5.34045E+00 -2.14046E+00 +5.72192E+00 -5.98398E-01 +5.66434E+00 +9.88044E-01 +5.17232E+00 +2.49636E+00
 +4.28400E+00 +3.80988E+00 +3.06818E+00 +4.82679E+00 +1.61912E+00 +5.46798E+00 +4.93774E-02 +5.68324E+00
 -1.51880E+00 +5.45523E+00 -2.96290E+00 +4.80089E+00 -4.16953E+00 +3.77037E+00 -5.04329E+00 +2.44322E+00
 -5.51412E+00 +9.22415E-01 -5.54291E+00 -6.73452E-01 -5.12460E+00 -2.21925E+00 -4.28881E+00 -3.59291E+00
 -3.09774E+00 -4.68485E+00 -1.64155E+00 -5.40644E+00 -3.16430E-02 -5.69696E+00 +1.60779E+00 -5.52844E+00
 +3.14916E+00 -4.90796E+00 +4.47125E+00 -3.87739E+00 +5.46848E+00 -2.51033E+00 +6.05905E+00 -9.06762E-01
 +6.19130E+00 +8.14412E-01 +5.84779E+00 +2.52429E+00 +5.04683E+00 +4.09367E+00 +3.84125E+00 +5.40279E+00
 +2.31457E+00 +6.35041E+00 +5.74895E-01 +6.86151E+00 -1.25318E+00 +6.89297E+00 -3.03781E+00 +6.43696E+00
 -4.64976E+00 +5.52154E+00 -5.97205E+00 +4.20864E+00 -6.90872E+00 +2.58947E+00 -7.39193E+00 +7.77699E-01
 -7.38700E+00 -1.09901E+00 -6.89495E+00 -2.90856E+00 -5.95229E+00 -4.52424E+00 -4.62817E+00 -5.83412E+00
 -3.01910E+00 -6.74939E+00 -1.24159E+00 -7.21077E+00 +5.76686E-01 -7.19282E+00 +2.30650E+00 -6.70555E+00
 +3.82677E+00 -5.79345E+00 +5.03361E+00 -4.53180E+00 +5.84799E+00 -3.02078E+00 +6.22148E+00 -1.37762E+00
 +6.13963E+00 +2.72421E-01 +5.62274E+00 +1.80566E+00 +4.72395E+00 +3.10946E+00 +3.52489E+00 +4.09069E+00
 +2.12909E+00 +4.68277E+00 +6.53824E-01 +4.85050E+00 -7.79106E-01 +4.59258E+00 -2.05286E+00 +3.94139E+00
 -3.06462E+00 +2.96027E+00 -3.73352E+00 +1.73835E+00 -4.00687E+00 +3.83465E-01 -3.86416E+00 -9.86384E-01
 -3.31853E+00 -2.25229E+00 -2.41571E+00 -3.30378E+00 -1.23038E+00 -4.04744E+00 +1.39678E-01 -4.41421E+00
 +1.58117E+00 -4.36484E+00 +2.97410E+00 -3.89297E+00 +4.20110E+00 -3.02568E+00 +5.15647E+00 -1.82155E+00
 +5.75441E+00 -3.66214E-01 +5.93566E+00 +1.23411E+00 +5.67212E+00 +2.86063E+00 +4.96912E+00 +4.39101E+00
 +3.86513E+00 +5.70856E+00 +2.42894E+00 +6.71110E+00 +7.54591E-01 +7.31860E+00 -1.04560E+00 +7.47923E+00
 -2.84937E+00 +7.17317E+00 -4.53358E+00 +6.41410E+00 -5.98327E+00 +5.24814E+00 -7.10010E+00 +3.75031E+00
 -7.80944E+00 +2.01896E+00 -8.06574E+00 +1.68408E-01 -7.85559E+00 -1.67953E+00 -7.19845E+00 -3.40446E+00
 -6.14483E+00 -4.89622E+00 -4.77228E+00 -6.06277E+00 -3.17930E+00 -6.83667E+00 -1.47787E+00 -7.17966E+00
 +2.15059E-01 -7.08498E+00 +1.78621E+00 -6.57729E+00 +3.13433E+00 -5.71031E+00 +4.17746E+00 -4.56218E+00
 +4.85865E+00 -3.22918E+00 +5.14973E+00 -1.81808E+00 +5.05281E+00 -4.37860E-01 +4.59943E+00 +8.08627E-01
