 Created: 19-Jan-2021
 $NMID
 ID='D:\BASISSIMULATI'
 FMTDAT='(8E13.5)'
 VOLUME=   1.00000E+00
 TRAMP=   1.00000E+00
 $END
 +7.47355E+01 +1.14411E+01 +6.94189E+01 +2.98050E+01 +5.96720E+01 +4.62344E+01 +4.61249E+01 +5.96818E+01
 +2.96499E+01 +6.92920E+01 +1.13049E+01 +7.44565E+01 -7.73407E+00 +7.48523E+01 -2.62487E+01 +7.04613E+01
 -4.30559E+01 +6.15719E+01 -5.70837E+01 +4.87596E+01 -6.74396E+01 +3.28497E+01 -7.34672E+01 +1.48644E+01
 -7.47878E+01 -4.04319E+00 -7.13243E+01 -2.26625E+01 -6.33059E+01 -3.98036E+01 -5.12522E+01 -5.43727E+01
 -3.59404E+01 -6.54424E+01 -1.83546E+01 -7.23103E+01 +3.77200E-01 -7.45439E+01 +1.90555E+01 -7.20077E+01
 +3.64860E+01 -6.48712E+01 +5.15563E+01 -5.35981E+01 +6.33064E+01 -3.89156E+01 +7.09903E+01 -2.17679E+01
 +7.41230E+01 -3.25531E+00 +7.25113E+01 +1.54364E+01 +6.62658E+01 +3.31118E+01 +5.57930E+01 +4.86422E+01
 +4.17693E+01 +6.10381E+01 +2.50969E+01 +6.95118E+01 +6.84591E+00 +7.35276E+01 -1.18141E+01 +7.28357E+01
 -2.96895E+01 +6.74878E+01 -4.56385E+01 +5.78331E+01 -5.86443E+01 +4.44957E+01 -6.78799E+01 +2.83342E+01
 -7.27609E+01 +1.03864E+01 -7.29818E+01 -8.19742E+00 -6.85359E+01 -2.62279E+01 -5.97148E+01 -4.25530E+01
 -4.70894E+01 -5.61317E+01 -3.14729E+01 -6.61000E+01 -1.38686E+01 -7.18262E+01 +4.59490E+00 -7.29509E+01
 +2.27356E+01 -6.94093E+01 +3.93941E+01 -6.14352E+01 +5.35076E+01 -4.95455E+01 +6.41777E+01 -3.45065E+01
 +7.07275E+01 -1.72848E+01 +7.27447E+01 +1.01511E+00 +7.01075E+01 +1.92214E+01 +6.29917E+01 +3.61701E+01
 +5.18594E+01 +5.07794E+01 +3.74286E+01 +6.21190E+01 +2.06273E+01 +6.94689E+01 +2.53354E+00 +7.23654E+01
 -1.56939E+01 +7.06304E+01 -3.28892E+01 +6.43819E+01 -4.79546E+01 +5.40267E+01 -5.99302E+01 +4.02332E+01
 -6.80550E+01 +2.38889E+01 -7.18156E+01 +6.04280E+00 -7.09784E+01 -1.21617E+01 -6.56042E+01 -2.95600E+01
 -5.60437E+01 -4.50409E+01 -4.29147E+01 -5.76176E+01 -2.70624E+01 -6.64905E+01 -9.50460E+00 -7.10981E+01
 +8.63337E+00 -7.11524E+01 +2.61908E+01 -6.66571E+01 +4.20461E+01 -5.79069E+01 +5.51881E+01 -4.54678E+01
 +6.47807E+01 -3.01410E+01 +7.02162E+01 -1.29111E+01 +7.11535E+01 +5.11737E+00 +6.75398E+01 +2.27903E+01
 +5.96132E+01 +3.89783E+01 +4.78875E+01 +5.26486E+01 +3.31182E+01 +6.29310E+01 +1.62545E+01 +6.91736E+01
 -1.62204E+00 +7.09834E+01 -1.93668E+01 +6.82516E+01 -3.58454E+01 +6.11601E+01 -5.00062E+01 +5.01692E+01
 -6.09473E+01 +3.59877E+01 -6.79743E+01 +1.95274E+01 -7.06440E+01 +1.84441E+00 -6.87925E+01 -1.59288E+01
 -6.25454E+01 -3.26556E+01 -5.23088E+01 -4.72682E+01 -3.87438E+01 -5.88355E+01 -2.27227E+01 -6.66227E+01
 -5.27390E+00 -7.01378E+01 +1.24847E+01 -6.91628E+01 +2.94172E+01 -6.37671E+01 +4.44422E+01 -5.43025E+01
 +5.66020E+01 -4.13807E+01 +6.51235E+01 -2.58333E+01 +6.94677E+01 -8.65852E+00 +6.93632E+01 +9.04293E+00
 +6.48239E+01 +2.61384E+01 +5.61468E+01 +4.15358E+01 +4.38934E+01 +5.42531E+01 +2.88526E+01 +6.34816E+01
 +1.19906E+01 +6.86366E+01 -5.61165E+00 +6.93948E+01 -2.28274E+01 +6.57148E+01 -3.85566E+01 +5.78387E+01
 -5.17958E+01 +4.62768E+01 -6.17024E+01 +3.17741E+01 -6.76481E+01 +1.52625E+01 -6.92591E+01 -2.19906E+00
 -6.64392E+01 -1.94926E+01 -5.93756E+01 -3.55126E+01 -4.85265E+01 -4.92369E+01 -3.45917E+01 -5.97913E+01
 -1.84670E+01 -6.65062E+01 -1.18682E+00 -6.89581E+01 +1.61421E+01 -6.69969E+01 +3.24118E+01 -6.07551E+01
 +4.65834E+01 -5.06384E+01 +5.77543E+01 -3.72997E+01 +6.52149E+01 -2.15970E+01 +6.84939E+01 -4.53808E+00
 +6.73882E+01 +1.27843E+01 +6.19755E+01 +2.92620E+01 +5.26085E+01 +4.38428E+01 +3.98925E+01 +5.55975E+01
 +2.46457E+01 +6.37788E+01 +7.84698E+00 +6.78692E+01 -9.42711E+00 +6.76137E+01 -2.60713E+01 +6.30353E+01
 -4.10224E+01 +5.44336E+01 -5.33270E+01 +4.23650E+01 -6.22026E+01 +2.76065E+01 -6.70871E+01 +1.11060E+01
 -6.76743E+01 -6.07877E+00 -6.39335E+01 -2.28478E+01 -5.61106E+01 -3.81297E+01 -4.47123E+01 -5.09496E+01
 -3.04730E+01 -6.04916E+01 -1.43076E+01 -6.61508E+01 +2.74721E+00 -6.75715E+01 +1.95996E+01 -6.46694E+01
 +3.51724E+01 -5.76369E+01 +4.84718E+01 -4.69301E+01 +5.86511E+01 -3.32394E+01 +6.50642E+01 -1.74449E+01
 +6.73070E+01 -5.59711E-01 +6.52427E+01 +1.63347E+01 +5.90101E+01 +3.21582E+01 +4.90141E+01 +4.59007E+01
 +3.58998E+01 +5.66867E+01 +2.05107E+01 +6.38312E+01 +3.83426E+00 +6.68831E+01 -1.30611E+01 +6.56537E+01
 -2.90949E+01 +6.02284E+01 -4.32432E+01 +5.09606E+01 -5.46043E+01 +3.84489E+01 -6.24561E+01 +2.34984E+01
 -6.63022E+01 +7.06887E+00 -6.59029E+01 -9.78684E+00 -6.12904E+01 -2.59903E+01 -5.27662E+01 -4.05065E+01
 -4.08815E+01 -5.24100E+01 -2.64015E+01 -6.09437E+01 -1.02561E+01 -6.55672E+01 +6.51969E+00 -6.59911E+01
 +2.28523E+01 -6.21949E+01 +3.76981E+01 -5.44279E+01 +5.01102E+01 -4.31929E+01 +5.92987E+01 -2.92139E+01
 +6.46813E+01 -1.33888E+01 +6.59197E+01 +3.26750E+00 +6.29412E+01 +1.96887E+01 +5.59430E+01 +3.48253E+01
 +4.53787E+01 +4.77114E+01 +3.19295E+01 +5.75266E+01 +1.64599E+01 +6.36481E+01 -3.79611E-02 +6.56903E+01
 -1.65075E+01 +6.35291E+01 -3.18956E+01 +5.73093E+01 -4.52202E+01 +4.74348E+01 -5.56326E+01 +3.45429E+01
 -6.24714E+01 +1.94625E+01 -6.53050E+01 +3.16138E+00 -6.39587E+01 -1.33163E+01 -5.85249E+01 -2.89167E+01
 -4.93575E+01 -4.26437E+01 -3.70486E+01 -5.36225E+01 -2.23902E+01 -6.11554E+01 -6.32310E+00 -6.47662E+01
 +1.01231E+01 -6.42302E+01 +2.58961E+01 -5.95882E+01 +3.99886E+01 -5.11434E+01 +5.15022E+01 -3.94417E+01
 +5.97046E+01 -2.52365E+01 +6.40766E+01 -9.43995E+00 +6.43447E+01 +6.93539E+00 +6.04981E+01 +2.28416E+01
 +5.27894E+01 +3.72623E+01 +4.17174E+01 +4.92778E+01 +2.79954E+01 +5.81237E+01 +1.25048E+01 +6.32392E+01
 -3.76093E+00 +6.43032E+01 -1.97607E+01 +6.12540E+01 -3.44718E+01 +5.42930E+01 -4.69558E+01 +4.38714E+01
 -5.64178E+01 +3.06610E+01 -6.22575E+01 +1.55109E+01 -6.41074E+01 -6.07202E-01 -6.18553E+01 -1.66612E+01
 -5.56518E+01 -3.16246E+01 -4.58996E+01 -4.45425E+01 -3.32278E+01 -5.45921E+01 -1.84514E+01 -6.11352E+01
 -2.51840E+00 -6.37592E+01 +1.35506E+01 -6.23022E+01 +2.87280E+01 -5.68639E+01 +4.20447E+01 -4.77983E+01
 +5.26521E+01 -3.56906E+01 +5.98764E+01 -2.13200E+01 +6.32607E+01 -5.60863E+00 +6.25949E+01 +1.04367E+01
 +5.79278E+01 +2.57894E+01 +4.95641E+01 +3.94691E+01 +3.80445E+01 +5.06037E+01 +2.41103E+01 +5.84852E+01
 +8.65637E+00 +6.26148E+01 -7.32677E+00 +6.27343E+01 -2.28164E+01 +5.88424E+01 -3.68228E+01 +5.11942E+01
 -4.84527E+01 +4.02846E+01 -5.69664E+01 +2.68164E+01 -6.18242E+01 +1.16547E+01 -6.27214E+01 -4.22844E+00
 -5.96067E+01 -1.98163E+01 -5.26857E+01 -3.41126E+01 -4.24069E+01 -4.62053E+01 -2.94326E+01 -5.53247E+01
 -1.45968E+01 -6.08923E+01 +1.14899E+00 -6.25577E+01 +1.67966E+01 -6.02205E+01 +3.13458E+01 -5.40365E+01
 +4.38678E+01 -4.44071E+01 +5.35652E+01 -3.19535E+01 +5.98225E+01 -1.74763E+01 +6.22449E+01 -1.90434E+00
 +6.06836E+01 +1.37649E+01 +5.52446E+01 +2.85294E+01 +4.62818E+01 +4.14466E+01 +3.43738E+01 +5.16934E+01
 +2.02866E+01 +5.86189E+01 +4.92444E+00 +6.17854E+01 -1.07285E+01 +6.09963E+01 -2.56709E+01 +5.63084E+01
 -3.89484E+01 +4.80275E+01 -4.97148E+01 +3.66887E+01 -5.72854E+01 +2.30218E+01 -6.11814E+01 +7.90436E+00
 -6.11593E+01 -7.69476E+00 -5.72267E+01 -2.27774E+01 -4.96412E+01 -3.63800E+01 -3.88936E+01 -4.76350E+01
 -2.56759E+01 -5.58267E+01 -1.08373E+01 -6.04359E+01 +4.67095E+00 -6.11736E+01 +1.98562E+01 -5.79987E+01
 +3.37480E+01 -5.11204E+01 +4.54602E+01 -4.09842E+01 +5.42472E+01 -2.82434E+01 +5.95519E+01 -1.37167E+01
 +6.10406E+01 +1.66427E+00 +5.86239E+01 +1.69147E+01 +5.24626E+01 +3.10596E+01 +4.29565E+01 +4.31963E+01
 +3.07187E+01 +5.25521E+01 +1.65360E+01 +5.85330E+01 +1.31821E+00 +6.07619E+01 -1.39600E+01 +5.91021E+01
 -2.83216E+01 +5.36660E+01 -4.08498E+01 +4.48070E+01 -5.07464E+01 +3.30970E+01 -5.73827E+01 +1.92891E+01
 -6.03396E+01 +4.26954E+00 -5.94337E+01 -1.09994E+01 -5.47290E+01 -2.55412E+01 -4.65324E+01 -3.84269E+01
 -3.53733E+01 -4.88355E+01 -2.19700E+01 -5.61051E+01 -7.18291E+00 -5.97760E+01 +8.04020E+00 -5.96191E+01
 +2.27253E+01 -5.56503E+01 +3.59344E+01 -4.81295E+01 +4.68250E+01 -3.75431E+01 +5.47046E+01 -2.45728E+01
 +5.90739E+01 -1.00517E+01 +5.96593E+01 +5.08937E+00 +5.64291E+01 +1.98812E+01 +4.95959E+01 +3.33787E+01
 +3.96022E+01 +4.47207E+01 +2.70921E+01 +5.31855E+01 +1.28693E+01 +5.82363E+01 -2.15398E+00 +5.95555E+01
 -1.70160E+01 +5.70647E+01 -3.07666E+01 +5.09291E+01 -4.25285E+01 +4.15467E+01 -5.15526E+01 +2.95225E+01
 -5.72663E+01 +1.56296E+01 -5.93094E+01 +7.59070E-01 -5.75571E+01 -1.41366E+01 -5.21273E+01 -2.81051E+01
 -4.33730E+01 -4.02545E+01 -3.18592E+01 -4.98111E+01 -1.83263E+01 -5.61677E+01 -3.64296E+00 -5.89229E+01
 +1.12503E+01 -5.79063E+01 +2.54008E+01 -5.31888E+01 +3.79050E+01 -4.50778E+01 +4.79660E+01 -3.40972E+01
 +5.49442E+01 -2.09537E+01 +5.83983E+01 -6.49104E+00 +5.81129E+01 +8.36396E+00 +5.41123E+01 +2.26608E+01
 +4.66581E+01 +3.54864E+01 +3.62322E+01 +4.60227E+01 +2.35060E+01 +5.35999E+01 +9.29677E+00 +5.77380E+01
 -5.48457E+00 +5.81778E+01 -1.98920E+01 +5.48970E+01 -3.30050E+01 +4.81113E+01 -4.39870E+01 +3.82600E+01
 -5.21393E+01 +2.59778E+01 -5.69449E+01 +1.20538E+01 -5.81020E+01 -2.61899E+00 -5.55422E+01 -1.71013E+01
 -4.94351E+01 -3.04674E+01 -4.01766E+01 -4.18645E+01 -2.83638E+01 -5.05669E+01 -1.47560E+01 -5.60223E+01
 -2.26010E-01 -5.78871E+01 +1.42956E+01 -5.60477E+01 +2.78804E+01 -5.06275E+01 +3.96612E+01 -4.19787E+01
 +4.88875E+01 -3.06593E+01 +5.49735E+01 -1.73973E+01 +5.75350E+01 -3.04378E+00 +5.64136E+01 +1.14819E+01
 +5.16869E+01 +2.52505E+01 +4.36628E+01 +3.73831E+01 +3.28594E+01 +4.71063E+01 +1.99720E+01 +5.38023E+01
 +5.82779E+00 +5.70477E+01 -8.66684E+00 +5.66403E+01 -2.25846E+01 +5.26120E+01 -3.50364E+01 +4.52260E+01
 -4.52284E+01 +3.49598E+01 -5.25126E+01 +2.24745E+01 -5.64276E+01 +8.57166E+00 -5.67286E+01 -5.85739E+00
 -5.34018E+01 -1.98893E+01 -4.66657E+01 -3.26274E+01 -3.69564E+01 -4.32593E+01 -2.48994E+01 -5.11086E+01
 -1.12692E+01 -5.56777E+01 +3.06019E+00 -5.66795E+01 +1.71714E+01 -5.40557E+01 +3.01625E+01 -4.79797E+01
 +4.12046E+01 -3.88454E+01 +4.95948E+01 -2.72416E+01 +5.48007E+01 -1.39143E+01 +5.64945E+01 +2.81863E-01
 +5.45734E+01 +1.44377E+01 +4.91658E+01 +2.76481E+01 +4.06231E+01 +3.90700E+01 +2.94963E+01 +4.79758E+01
