 Created: 19-Jan-2021
 $NMID
 ID='D:\BASISSIMULATI'
 FMTDAT='(8E13.5)'
 VOLUME=   1.00000E+00
 TRAMP=   1.00000E+00
 $END
 +4.65149E+01 +7.12155E+00 +4.31927E+01 +1.86124E+01 +3.70701E+01 +2.88784E+01 +2.85537E+01 +3.72479E+01
 +1.82082E+01 +4.31766E+01 +6.71777E+00 +4.62834E+01 -5.15999E+00 +4.63755E+01 -1.66449E+01 +4.34605E+01
 -2.69867E+01 +3.77450E+01 -3.55147E+01 +2.96201E+01 -4.16827E+01 +1.96335E+01 -4.51042E+01 +8.45247E+00
 -4.55772E+01 -3.18176E+00 -4.30965E+01 -1.45042E+01 -3.78520E+01 -2.47774E+01 -3.02144E+01 -3.33401E+01
 -2.07088E+01 -3.96510E+01 -9.97786E+00 -4.33237E+01 +1.26239E+00 -4.41502E+01 +1.22711E+01 -4.21133E+01
 +2.23324E+01 -3.73848E+01 +3.08028E+01 -3.03121E+01 +3.71533E+01 -2.13922E+01 +4.10026E+01 -1.12364E+01
 +4.21407E+01 -5.27896E-01 +4.05400E+01 +1.00249E+01 +3.63540E+01 +1.97362E+01 +2.99041E+01 +2.79882E+01
 +2.16551E+01 +3.42708E+01 +1.21814E+01 +3.82140E+01 +2.12659E+00 +3.96095E+01 -7.84088E+00 +3.84217E+01
 -1.70729E+01 +3.47861E+01 -2.49845E+01 +2.89969E+01 -3.10915E+01 +2.14835E+01 -3.50406E+01 +1.27787E+01
 -3.66295E+01 +3.48100E+00 -3.58174E+01 -5.78754E+00 -3.27230E+01 -1.44231E+01 -2.76125E+01 -2.18804E+01
 -2.08780E+01 -2.77070E+01 -1.30075E+01 -3.15718E+01 -4.54982E+00 -3.32832E+01 +3.92446E+00 -3.27979E+01
 +1.18616E+01 -3.02195E+01 +1.87614E+01 -2.57867E+01 +2.42093E+01 -1.98534E+01 +2.79009E+01 -1.28607E+01
 +2.96595E+01 -5.30426E+00 +2.94429E+01 +2.30063E+00 +2.73416E+01 +9.45473E+00 +2.35683E+01 +1.57079E+01
 +1.84383E+01 +2.06877E+01 +1.23448E+01 +2.41214E+01 +5.72856E+00 +2.58509E+01 -9.53141E-01 +2.58384E+01
 -7.25886E+00 +2.41643E+01 -1.27921E+01 +2.10165E+01 -1.72263E+01 +1.66731E+01 -2.03243E+01 +1.14791E+01
 -2.19502E+01 +5.82004E+00 -2.20739E+01 +9.34921E-02 -2.07683E+01 -5.31878E+00 -1.81990E+01 -1.00764E+01
 -1.46085E+01 -1.39016E+01 -1.02948E+01 -1.65956E+01 -5.58856E+00 -1.80478E+01 -8.27535E-01 -1.82390E+01
 +3.66697E+00 -1.72374E+01 +7.61190E+00 -1.51893E+01 +1.07802E+01 -1.23034E+01 +1.30134E+01 -8.83322E+00
 +1.42289E+01 -5.05558E+00 +1.44209E+01 -1.24970E+00 +1.36561E+01 +2.32318E+00 +1.20639E+01 +5.43749E+00
 +9.82271E+00 +7.91739E+00 +7.14373E+00 +9.64624E+00 +4.25275E+00 +1.05710E+01 +1.37234E+00 +1.07018E+01
 -1.29468E+00 +1.01063E+01 -3.57923E+00 +8.90008E+00 -5.35633E+00 +7.23456E+00 -6.55145E+00 +5.28196E+00
 -7.14231E+00 +3.22022E+00 -7.15646E+00 +1.21829E+00 -6.66500E+00 -5.76865E-01 -5.77305E+00 -2.05054E+00
 -4.60813E+00 -3.12730E+00 -3.30735E+00 -3.77409E+00 -2.00468E+00 -3.99964E+00 -8.19247E-01 -3.85024E+00
 +1.54315E-01 -3.40246E+00 +8.52729E-01 -2.75365E+00 +1.24774E+00 -2.01109E+00 +1.34638E+00 -1.28086E+00
 +1.18789E+00 -6.57270E-01 +8.37831E-01 -2.14063E-01 +3.79887E-01 +2.20797E-03 -9.37552E-02 -2.41281E-02
 -4.92547E-01 -2.77255E-01 -7.37302E-01 -7.12345E-01 -7.68625E-01 -1.26083E+00 -5.53286E-01 -1.83795E+00
 -8.79801E-02 -2.35177E+00 +5.99845E-01 -2.71300E+00 +1.45415E+00 -2.84451E+00 +2.39528E+00 -2.68977E+00
 +3.32724E+00 -2.21949E+00 +4.14672E+00 -1.43574E+00 +4.75294E+00 -3.73192E-01 +5.05761E+00 +9.02579E-01
 +4.99395E+00 +2.29975E+00 +4.52402E+00 +3.70738E+00 +3.64378E+00 +5.00457E+00 +2.38522E+00 +6.07068E+00
 +8.15497E-01 +6.79600E+00 -9.67051E-01 +7.09179E+00 -2.83966E+00 +6.89886E+00 -4.66421E+00 +6.19404E+00
 -6.29783E+00 +4.99376E+00 -7.60435E+00 +3.35463E+00 -8.46549E+00 +1.37065E+00 -8.79104E+00 -8.32636E-01
 -8.52710E+00 -3.10666E+00 -7.66168E+00 -5.29050E+00 -6.22723E+00 -7.22275E+00 -4.29973E+00 -8.75387E+00
 -1.99445E+00 -9.75783E+00 +5.41417E-01 -1.01424E+01 +3.13879E+00 -9.85703E+00 +5.61854E+00 -8.89776E+00
 +7.80442E+00 -7.30885E+00 +9.53600E+00 -5.18074E+00 +1.06808E+01 -2.64460E+00 +1.11442E+01 +1.36250E-01
 +1.08778E+01 +2.97743E+00 +9.88266E+00 +5.68631E+00 +8.21123E+00 +8.07559E+00 +5.96380E+00 +9.97674E+00
 +3.28234E+00 +1.12522E+01 +3.41069E-01 +1.18056E+01 -2.66542E+00 +1.15889E+01 -5.53559E+00 +1.06066E+01
 -8.07496E+00 +8.91561E+00 -1.01098E+01 +6.62197E+00 -1.14992E+01 +3.87384E+00 -1.21453E+01 +8.51459E-01
 -1.20003E+01 -2.24519E+00 -1.10696E+01 -5.21005E+00 -9.41211E+00 -7.84524E+00 -7.13599E+00 -9.97462E+00
 -4.39135E+00 -1.14560E+01 -1.36000E+00 -1.21907E+01 +1.75706E+00 -1.21305E+01 +4.75339E+00 -1.12807E+01
 +7.43121E+00 -9.69972E+00 +9.61482E+00 -7.49462E+00 +1.11625E+01 -4.81391E+00 +1.19758E+01 -1.83706E+00
 +1.20061E+01 +1.23782E+00 +1.12575E+01 +4.20760E+00 +9.78576E+00 +6.87785E+00 +7.69460E+00 +9.07593E+00
 +5.12779E+00 +1.06624E+01 +2.25916E+00 +1.15401E+01 -7.19478E-01 +1.16601E+01 -3.61148E+00 +1.10243E+01
 -6.22863E+00 +9.68505E+00 -8.40366E+00 +7.74023E+00 -1.00012E+01 +5.32653E+00 -1.09261E+01 +2.60941E+00
 -1.11297E+01 -2.28379E-01 -1.06115E+01 -2.99934E+00 -9.41881E+00 -5.52386E+00 -7.64263E+00 -7.64206E+00
 -5.41056E+00 -9.22403E+00 -2.87761E+00 -1.01779E+01 -2.15318E-01 -1.04552E+01 +2.40009E+00 -1.00530E+01
 +4.79951E+00 -9.01323E+00 +6.83200E+00 -7.41867E+00 +8.37441E+00 -5.38659E+00 +9.33884E+00 -3.06008E+00
 +9.67760E+00 -5.97849E-01 +9.38527E+00 +1.83663E+00 +8.49793E+00 +4.08611E+00 +7.08970E+00 +6.00982E+00
 +5.26665E+00 +7.49227E+00 +3.15899E+00 +8.45017E+00 +9.11679E-01 +8.83701E+00 -1.32555E+00 +8.64497E+00
 -3.40819E+00 +7.90429E+00 -5.20636E+00 +6.68007E+00 -6.61283E+00 +5.06689E+00 -7.54939E+00 +3.18163E+00
 -7.97100E+00 +1.15504E+00 -7.86765E+00 -8.77284E-01 -7.26381E+00 -2.78396E+00 -6.21566E+00 -4.44630E+00
 -4.80628E+00 -5.76564E+00 -3.13924E+00 -6.66904E+00 -1.33115E+00 -7.11317E+00 +4.96487E-01 -7.08603E+00
 +2.22535E+00 -6.60657E+00 +3.74789E+00 -5.72233E+00 +4.97392E+00 -4.50521E+00 +5.83582E+00 -3.04592E+00
 +6.29205E+00 -1.44731E+00 +6.32880E+00 +1.82714E-01 +5.95985E+00 +1.73842E+00 +5.22453E+00 +3.12298E+00
 +4.18416E+00 +4.25438E+00 +2.91726E+00 +5.07009E+00 +1.51374E+00 +5.53032E+00 +6.86705E-02 +5.61964E+00
 -1.32400E+00 +5.34698E+00 -2.57747E+00 +4.74406E+00 -3.61729E+00 +3.86239E+00 -4.38566E+00 +2.76918E+00
 -4.84439E+00 +1.54243E+00 -4.97652E+00 +2.65457E-01 -4.78651E+00 -9.78565E-01 -4.29908E+00 -2.11190E+00
 -3.55682E+00 -3.06694E+00 -2.61672E+00 -3.79004E+00 -1.54600E+00 -4.24436E+00 -4.17476E-01 -4.41144E+00
 +6.95238E-01 -4.29165E+00 +1.72240E+00 -3.90339E+00 +2.60231E+00 -3.28121E+00 +3.28488E+00 -2.47302E+00
 +3.73424E+00 -1.53657E+00 +3.93045E+00 -5.35487E-01 +3.87012E+00 +4.64895E-01 +3.56597E+00 +1.40164E+00
 +3.04547E+00 +2.21801E+00 +2.34858E+00 +2.86673E+00 +1.52487E+00 +3.31256E+00 +6.30137E-01 +3.53401E+00
 -2.77248E-01 +3.52423E+00 -1.13998E+00 +3.29091E+00 -1.90529E+00 +2.85531E+00 -2.52801E+00 +2.25060E+00
 -2.97313E+00 +1.51943E+00 -3.21757E+00 +7.11044E-01 -3.25129E+00 -1.21873E-01 -3.07752E+00 -9.26508E-01
 -2.71221E+00 -1.65313E+00 -2.18276E+00 -2.25803E+00 -1.52607E+00 -2.70602E+00 -7.86056E-01 -2.97240E+00
 -1.08803E-02 -3.04422E+00 +7.50110E-01 -2.92079E+00 +1.44939E+00 -2.61354E+00 +2.04410E+00 -2.14506E+00
 +2.49862E+00 -1.54756E+00 +2.78660E+00 -8.60711E-01 +2.89242E+00 -1.29149E-01 +2.81203E+00 +6.00352E-01
 +2.55303E+00 +1.28177E+00 +2.13408E+00 +1.87267E+00 +1.58358E+00 +2.33677E+00 +9.37908E-01 +2.64610E+00
 +2.39001E-01 +2.78270E+00 -4.68242E-01 +2.73965E+00 -1.13879E+00 +2.52136E+00 -1.73031E+00 +2.14328E+00
 -2.20577E+00 +1.63085E+00 -2.53577E+00 +1.01782E+00 -2.70031E+00 +3.44097E-01 -2.69007E+00 -3.46790E-01
 -2.50689E+00 -1.01049E+00 -2.16367E+00 -1.60462E+00 -1.68347E+00 -2.09149E+00 -1.09799E+00 -2.44048E+00
 -4.45567E-01 -2.62998E+00 +2.31363E-01 -2.64875E+00 +8.88990E-01 -2.49662E+00 +1.48496E+00 -2.18446E+00
 +1.98115E+00 -1.73345E+00 +2.34606E+00 -1.17367E+00 +2.55694E+00 -5.42088E-01 +2.60115E+00 +1.19833E-01
 +2.47702E+00 +7.68912E-01 +2.19388E+00 +1.36307E+00 +1.77140E+00 +1.86409E+00 +1.23826E+00 +2.24014E+00
 +6.30162E-01 +2.46782E+00 -1.25166E-02 +2.53367E+00 -6.47481E-01 +2.43503E+00 -1.23333E+00 +2.18007E+00
 -1.73232E+00 +1.78726E+00 -2.11283E+00 +1.28396E+00 -2.35149E+00 +7.04556E-01 -2.43458E+00 +8.80738E-02
 -2.35893E+00 -5.24503E-01 -2.13197E+00 -1.09301E+00 -1.77113E+00 -1.58083E+00 -1.30248E+00 -1.95729E+00
 -7.58887E-01 -2.19969E+00 -1.77647E-01 -2.29472E+00 +4.02119E-01 -2.23920E+00 +9.42175E-01 -2.04015E+00
 +1.40777E+00 -1.71411E+00 +1.76998E+00 -1.28581E+00 +2.00753E+00 -7.86300E-01 +2.10815E+00 -2.50693E-01
 +2.06919E+00 +2.84401E-01 +1.89758E+00 +7.83427E-01 +1.60909E+00 +1.21435E+00 +1.22699E+00 +1.55079E+00
 +7.80215E-01 +1.77371E+00 +3.01140E-01 +1.87255E+00 -1.76801E-01 +1.84571E+00 -6.21533E-01 +1.70032E+00
 -1.00458E+00 +1.45149E+00 -1.30296E+00 +1.12093E+00 -1.50066E+00 +7.35083E-01 -1.58949E+00 +3.23086E-01
 -1.56937E+00 -8.54935E-02 -1.44799E+00 -4.62837E-01 -1.23988E+00 -7.84848E-01 -9.65033E-01 -1.03277E+00
 -6.47123E-01 -1.19434E+00 -3.11537E-01 -1.26436E+00 +1.66503E-02 -1.24478E+00 +3.14591E-01 -1.14409E+00
 +5.63324E-01 -9.76371E-01 +7.49040E-01 -7.59794E-01 +8.63888E-01 -5.14973E-01 +9.06245E-01 -2.63129E-01
 +8.80465E-01 -2.43098E-02 +7.96139E-01 +1.84212E-01 +6.66945E-01 +3.49231E-01 +5.09194E-01 +4.62489E-01
 +3.40225E-01 +5.21093E-01 +1.76769E-01 +5.27424E-01 +3.34433E-02 +4.88592E-01 -7.85002E-02 +4.15475E-01
 -1.52065E-01 +3.21442E-01 -1.84970E-01 +2.20904E-01 -1.79647E-01 +1.27794E-01 -1.42782E-01 +5.41555E-02
 -8.44517E-02 +8.93424E-03 -1.69474E-02 -2.88986E-03 +4.66102E-02 +1.92310E-02 +9.37236E-02 +7.13959E-02
 +1.13905E-01 +1.45687E-01 +9.98620E-02 +2.31007E-01 +4.83742E-02 +3.14250E-01 -3.92352E-02 +3.81685E-01
 -1.57072E-01 +4.20433E-01 -2.95103E-01 +4.19896E-01 -4.40012E-01 +3.72998E-01 -5.76405E-01 +2.77114E-01
 -6.88270E-01 +1.34607E-01 -7.60538E-01 -4.71066E-02 -7.80637E-01 -2.55965E-01 -7.39856E-01 -4.76133E-01
 -6.34421E-01 -6.89258E-01 -4.66158E-01 -8.76018E-01 -2.42673E-01 -1.01783E+00 +2.29769E-02 -1.09855E+00
 +3.13120E-01 -1.10606E+00 +6.06743E-01 -1.03356E+00 +8.81114E-01 -8.80409E-01 +1.11362E+00 -6.52548E-01
 +1.28367E+00 -3.62300E-01 +1.37451E+00 -2.76661E-02 +1.37475E+00 +3.28900E-01 +1.27953E+00 +6.82131E-01
 +1.09118E+00 +1.00587E+00 +8.19314E-01 +1.27514E+00 +4.80274E-01 +1.46817E+00 +9.60958E-02 +1.56821E+00
