 Created: 19-Jan-2021
 $NMID
 ID='D:\BASISSIMULATI'
 FMTDAT='(8E13.5)'
 VOLUME=   1.00000E+00
 TRAMP=   1.00000E+00
 $END
 +4.95801E+01 +7.43699E+00 +3.93398E+01 +2.84927E+01 +1.95215E+01 +3.98830E+01 -2.27969E+00 +3.79799E+01
 -1.78619E+01 +2.44188E+01 -2.16921E+01 +5.38703E+00 -1.30873E+01 -1.09064E+01 +3.56792E+00 -1.75540E+01
 +2.06420E+01 -1.17259E+01 +3.03720E+01 +4.21427E+00 +2.80141E+01 +2.36913E+01 +1.37625E+01 +3.85928E+01
 -7.32835E+00 +4.25511E+01 -2.73769E+01 +3.35116E+01 -3.88356E+01 +1.45584E+01 -3.75054E+01 -7.32538E+00
 -2.41943E+01 -2.40520E+01 -4.36217E+00 -2.96513E+01 +1.40931E+01 -2.26227E+01 +2.40082E+01 -6.48192E+00
 +2.18079E+01 +1.17070E+01 +8.89452E+00 +2.42099E+01 -8.97194E+00 +2.57466E+01 -2.40422E+01 +1.56043E+01
 -2.97299E+01 -2.10250E+00 -2.32771E+01 -2.01172E+01 -6.86384E+00 -3.09823E+01 +1.32736E+01 -3.00480E+01
 +2.93506E+01 -1.73384E+01 +3.51506E+01 +2.46601E+00 +2.84974E+01 +2.19117E+01 +1.20944E+01 +3.37535E+01
 -7.59390E+00 +3.38314E+01 -2.29559E+01 +2.26896E+01 -2.82828E+01 +5.29880E+00 -2.20281E+01 -1.09926E+01
 -7.37658E+00 -1.94426E+01 +9.09243E+00 -1.66303E+01 +2.00969E+01 -3.81162E+00 +2.06070E+01 +1.36154E+01
 +9.87402E+00 +2.83107E+01 -8.27358E+00 +3.39597E+01 -2.69762E+01 +2.78132E+01 -3.90961E+01 +1.17819E+01
 -4.00656E+01 -8.34269E+00 -2.96870E+01 -2.52151E+01 -1.21714E+01 -3.28658E+01 +5.58547E+00 -2.90555E+01
 +1.67845E+01 -1.61154E+01 +1.74381E+01 +5.14747E-02 +7.92954E+00 +1.23895E+01 -7.19650E+00 +1.55494E+01
 -2.11153E+01 +8.03368E+00 -2.75041E+01 -7.22462E+00 -2.31006E+01 -2.40715E+01 -9.01328E+00 -3.56277E+01
 +9.73362E+00 -3.70603E+01 +2.62234E+01 -2.75143E+01 +3.44140E+01 -1.04379E+01 +3.15350E+01 +7.81711E+00
 +1.91552E+01 +2.05432E+01 +2.50736E+00 +2.33432E+01 -1.16451E+01 +1.58447E+01 -1.77299E+01 +1.78656E+00
 -1.35801E+01 -1.25431E+01 -1.25802E+00 -2.08732E+01 +1.38287E+01 -1.94826E+01 +2.51463E+01 -8.68249E+00
 +2.76875E+01 +7.33640E+00 +1.99879E+01 +2.22145E+01 +4.70423E+00 +2.99925E+01 -1.24666E+01 +2.75003E+01
 -2.50767E+01 +1.56094E+01 -2.84980E+01 -1.14186E+00 -2.17420E+01 -1.63857E+01 -7.80629E+00 -2.44733E+01
 +7.57431E+00 -2.27076E+01 +1.82561E+01 -1.23696E+01 +2.01495E+01 +1.85950E+00 +1.28282E+01 +1.38318E+01
 -3.49866E-01 +1.84312E+01 -1.36438E+01 +1.36287E+01 -2.12731E+01 +1.27619E+00 -1.97546E+01 -1.36679E+01
 -9.29503E+00 -2.51532E+01 +6.30921E+00 -2.84722E+01 +2.12093E+01 -2.21356E+01 +2.98481E+01 -8.44183E+00
 +2.91634E+01 +7.47238E+00 +1.97704E+01 +1.97041E+01 +5.66138E+00 +2.39365E+01 -7.43834E+00 +1.91274E+01
 -1.43856E+01 +7.86523E+00 -1.26691E+01 -4.73187E+00 -3.37687E+00 -1.31168E+01 +9.29328E+00 -1.35586E+01
 +1.97662E+01 -5.63098E+00 +2.33556E+01 +7.64362E+00 +1.81485E+01 +2.10365E+01 +5.75846E+00 +2.92274E+01
 -9.34246E+00 +2.89336E+01 -2.16274E+01 +2.02018E+01 -2.67193E+01 +6.35504E+00 -2.31092E+01 -7.36734E+00
 -1.27074E+01 -1.59153E+01 -2.28288E-02 -1.64280E+01 +9.68344E+00 -9.33004E+00 +1.25162E+01 +1.90359E+00
 +7.48549E+00 +1.21992E+01 -3.14152E+00 +1.69563E+01 -1.48008E+01 +1.38996E+01 -2.25009E+01 +3.97392E+00
 -2.28405E+01 -9.06515E+00 -1.53639E+01 -2.01827E+01 -2.72068E+00 -2.50896E+01 +1.04182E+01 -2.19452E+01
 +1.92376E+01 -1.20596E+01 +2.06869E+01 +6.69599E-01 +1.46567E+01 +1.13443E+01 +3.96462E+00 +1.60258E+01
 -6.82615E+00 +1.32798E+01 -1.32651E+01 +4.69450E+00 -1.27956E+01 -5.81825E+00 -5.74779E+00 -1.36409E+01
 +4.84179E+00 -1.53246E+01 +1.44933E+01 -9.96567E+00 +1.91067E+01 +4.58752E-01 +1.66076E+01 +1.19143E+01
 +7.75813E+00 +1.99456E+01 -4.17666E+00 +2.14569E+01 -1.47568E+01 +1.59249E+01 -2.01432E+01 +5.56618E+00
 -1.86044E+01 -5.58864E+00 -1.11572E+01 -1.33272E+01 -1.10122E+00 -1.49297E+01 +7.34912E+00 -1.02151E+01
 +1.07699E+01 -1.55439E+00 +7.88501E+00 +7.13769E+00 +3.75633E-02 +1.20097E+01 -9.39632E+00 +1.08261E+01
 -1.63985E+01 +3.84577E+00 -1.79337E+01 -6.31375E+00 -1.31547E+01 -1.57533E+01 -3.71287E+00 -2.08638E+01
 +6.93245E+00 -1.97553E+01 +1.49135E+01 -1.29759E+01 +1.74889E+01 -3.24714E+00 +1.41003E+01 +5.66025E+00
 +6.53790E+00 +1.04439E+01 -1.83278E+00 +9.56802E+00 -7.45449E+00 +3.82801E+00 -8.00808E+00 -4.02768E+00
 -3.31577E+00 -1.04487E+01 +4.63164E+00 -1.25301E+01 +1.25163E+01 -9.17177E+00 +1.70491E+01 -1.49230E+00
 +1.62881E+01 +7.65225E+00 +1.03925E+01 +1.48340E+01 +1.52464E+00 +1.74236E+01 -7.04331E+00 +1.46145E+01
 -1.22444E+01 +7.69983E+00 -1.24202E+01 -4.90604E-01 -7.93470E+00 -6.75046E+00 -9.69928E-01 -8.77727E+00
 +5.39779E+00 -6.06001E+00 +8.45318E+00 -2.96033E-02 +6.92114E+00 +6.56953E+00 +1.44295E+00 +1.08168E+01
 -5.72531E+00 +1.07951E+01 -1.16526E+01 +6.34108E+00 -1.39202E+01 -9.22781E-01 -1.15765E+01 -8.26932E+00
 -5.48503E+00 -1.29713E+01 +2.05807E+00 -1.33786E+01 +8.26530E+00 -9.54024E+00 +1.09681E+01 -3.13512E+00
 +9.45002E+00 +3.24138E+00 +4.67912E+00 +7.13298E+00 -1.13596E+00 +7.19058E+00 -5.46920E+00 +3.66980E+00
 -6.49806E+00 -1.72598E+00 -3.81238E+00 -6.57505E+00 +1.46180E+00 -8.73140E+00 +7.15530E+00 -7.17910E+00
 +1.09503E+01 -2.41091E+00 +1.13080E+01 +3.80520E+00 +8.05889E+00 +9.15972E+00 +2.43112E+00 +1.17278E+01
 -3.47532E+00 +1.07135E+01 -7.54247E+00 +6.72222E+00 -8.46521E+00 +1.46953E+00 -6.23014E+00 -2.93906E+00
 -2.06484E+00 -4.85517E+00 +2.10309E+00 -3.72091E+00 +4.44392E+00 -2.44347E-01 +3.95372E+00 +3.93545E+00
 +8.25421E-01 +6.94107E+00 -3.67110E+00 +7.41785E+00 -7.73304E+00 +5.05802E+00 -9.75992E+00 +6.88532E-01
 -8.98004E+00 -4.09486E+00 -5.72380E+00 -7.58346E+00 -1.25000E+00 -8.62911E+00 +2.78679E+00 -7.06718E+00
 +5.00085E+00 -3.73255E+00 +4.80234E+00 -8.05824E-02 +2.58429E+00 +2.41818E+00 -4.88430E-01 +2.85863E+00
 -2.98480E+00 +1.22785E+00 -3.79257E+00 -1.63902E+00 -2.54584E+00 -4.43738E+00 +2.66236E-01 -5.93836E+00
 +3.53617E+00 -5.47521E+00 +6.00747E+00 -3.18073E+00 +6.77743E+00 +1.04773E-01 +5.63191E+00 +3.19995E+00
 +3.08904E+00 +5.06175E+00 +1.52106E-01 +5.18095E+00 -2.11229E+00 +3.74223E+00 -2.99228E+00 +1.50062E+00
 -2.37943E+00 -5.57647E-01 -7.61289E-01 -1.62019E+00 +1.02094E+00 -1.35398E+00 +2.13559E+00 +3.03008E-03
 +2.09081E+00 +1.78401E+00 +9.02779E-01 +3.19406E+00 -9.51967E-01 +3.63667E+00 -2.76293E+00 +2.93319E+00
 -3.88449E+00 +1.35702E+00 -3.98099E+00 -5.14389E-01 -3.12508E+00 -2.05293E+00 -1.72436E+00 -2.82648E+00
 -3.24103E-01 -2.74024E+00 +6.20689E-01 -2.02740E+00 +9.07779E-01 -1.11061E+00 +6.26586E-01 -4.06781E-01
 +7.35795E-02 -1.62884E-01 -4.03658E-01 -3.86696E-01 -5.57776E-01 -8.87902E-01 -3.24471E-01 -1.39516E+00
 +1.88313E-01 -1.68607E+00 +7.84332E-01 -1.66996E+00 +1.28490E+00 -1.39378E+00 +1.60232E+00 -9.81955E-01
 +1.75009E+00 -5.52293E-01 +1.79545E+00 -1.56388E-01 +1.79000E+00 +2.25254E-01 +1.72346E+00 +6.36798E-01
 +1.52938E+00 +1.08247E+00 +1.14039E+00 +1.48755E+00 +5.59570E-01 +1.71475E+00 -9.77736E-02 +1.63403E+00
 -6.25294E-01 +1.21115E+00 -8.10442E-01 +5.64352E-01 -5.47090E-01 -5.12497E-02 +8.12402E-02 -3.38213E-01
 +7.98242E-01 -9.52639E-02 +1.22861E+00 +6.63784E-01 +1.05866E+00 +1.67420E+00 +1.95854E-01 +2.49908E+00
 -1.14994E+00 +2.70257E+00 -2.51336E+00 +2.04942E+00 -3.34462E+00 +6.41243E-01 -3.24191E+00 -1.08140E+00
 -2.14709E+00 -2.48868E+00 -4.11916E-01 -3.01314E+00 +1.30890E+00 -2.40193E+00 +2.30858E+00 -8.58084E-01
 +2.12699E+00 +1.00274E+00 +7.70711E-01 +2.37840E+00 -1.24836E+00 +2.60751E+00 -3.08853E+00 +1.46446E+00
 -3.90981E+00 -7.07674E-01 -3.23140E+00 -3.09672E+00 -1.16370E+00 -4.72837E+00 +1.59334E+00 -4.86490E+00
 +4.00169E+00 -3.33225E+00 +5.09662E+00 -6.31490E-01 +4.39440E+00 +2.22668E+00 +2.12361E+00 +4.11219E+00
 -8.28480E-01 +4.23984E+00 -3.24880E+00 +2.51635E+00 -4.08692E+00 -3.82526E-01 -2.90273E+00 -3.25233E+00
 -8.33660E-02 -4.83435E+00 +3.27362E+00 -4.33805E+00 +5.77946E+00 -1.79551E+00 +6.31592E+00 +1.90851E+00
 +4.51240E+00 +5.35942E+00 +9.35899E-01 +7.17104E+00 -3.09883E+00 +6.55804E+00 -6.03693E+00 +3.68544E+00
 -6.71255E+00 -3.59573E-01 -4.84355E+00 -3.97813E+00 -1.18138E+00 -5.69833E+00 +2.76004E+00 -4.78687E+00
 +5.30108E+00 -1.57964E+00 +5.28471E+00 +2.61662E+00 +2.57540E+00 +6.02737E+00 -1.84465E+00 +7.12544E+00
 -6.23655E+00 +5.27115E+00 -8.79091E+00 +1.01044E+00 -8.36773E+00 -4.10392E+00 -4.98743E+00 -8.11109E+00
 +1.37668E-01 -9.42887E+00 +5.05955E+00 -7.51101E+00 +7.86679E+00 -3.10087E+00 +7.46563E+00 +2.03564E+00
 +4.04927E+00 +5.80427E+00 -9.46643E-01 +6.63170E+00 -5.39963E+00 +4.12589E+00 -7.35390E+00 -7.29156E-01
 -5.83035E+00 -5.93767E+00 -1.25937E+00 -9.28215E+00 +4.65173E+00 -9.22720E+00 +9.57813E+00 -5.56999E+00
 +1.15083E+01 +4.36155E-01 +9.57238E+00 +6.54991E+00 +4.42658E+00 +1.04259E+01 -1.97509E+00 +1.05639E+01
 -7.14407E+00 +6.93686E+00 -9.05661E+00 +1.03301E+00 -6.98680E+00 -4.71899E+00 -1.82877E+00 -7.92212E+00
 +4.23551E+00 -7.19200E+00 +8.60235E+00 -2.74649E+00 +9.30466E+00 +3.64637E+00 +5.83468E+00 +9.35517E+00
 -6.10469E-01 +1.19409E+01 -7.57355E+00 +1.01585E+01 -1.23061E+01 +4.49517E+00 -1.28780E+01 -2.98590E+00
 -8.97763E+00 -9.44556E+00 -2.07144E+00 -1.24016E+01 +5.15681E+00 -1.07391E+01 +9.87191E+00 -5.18408E+00
 +1.02346E+01 +1.96195E+00 +6.16439E+00 +7.73411E+00 -5.99671E-01 +9.70237E+00 -7.17911E+00 +6.97385E+00
 -1.07130E+01 +5.86933E-01 -9.52960E+00 -6.87478E+00 -3.85623E+00 -1.23058E+01 +4.23149E+00 -1.33345E+01
 +1.16130E+01 -9.30468E+00 +1.53665E+01 -1.57771E+00 +1.39546E+01 +6.97836E+00 +7.86861E+00 +1.31205E+01
 -5.38296E-01 +1.45329E+01 -7.97651E+00 +1.07741E+01 -1.15387E+01 +3.47773E+00 -9.88299E+00 -4.28581E+00
 -3.79738E+00 -9.24105E+00 +4.09358E+00 -9.24052E+00 +1.03739E+01 -4.15924E+00 +1.22199E+01 +4.02020E+00
 +8.56485E+00 +1.19789E+01 +5.68154E-01 +1.63891E+01 -8.81224E+00 +1.52671E+01 -1.59848E+01 +8.80210E+00
 -1.81644E+01 -6.82479E-01 -1.45067E+01 -9.63345E+00 -6.47317E+00 -1.46825E+01 +2.73254E+00 -1.40046E+01
 +9.44095E+00 -8.06917E+00 +1.09970E+01 +5.30252E-01 +6.84685E+00 +8.10904E+00 -1.21541E+00 +1.13804E+01
 -9.75154E+00 +8.80084E+00 -1.50606E+01 +1.22528E+00 -1.46858E+01 -8.40476E+00 -8.43665E+00 -1.62245E+01
 +1.49436E+00 -1.90004E+01 +1.13799E+01 -1.54507E+01 +1.74389E+01 -6.79288E+00 +1.73588E+01 +3.71313E+00
