 Created: 19-Jan-2021
 $NMID
 ID='D:\BASISSIMULATI'
 FMTDAT='(8E13.5)'
 VOLUME=   1.00000E+00
 TRAMP=   1.00000E+00
 $END
 +6.78802E+01 +1.13488E+01 +6.35015E+01 -1.06835E+01 +4.56789E+01 -2.79010E+01 +1.90130E+01 -3.47660E+01
 -9.59207E+00 -2.88288E+01 -3.28783E+01 -1.14228E+01 -4.52552E+01 +1.27433E+01 -4.43112E+01 +3.69620E+01
 -3.13900E+01 +5.44599E+01 -1.10882E+01 +6.03200E+01 +1.01551E+01 +5.28394E+01 +2.59452E+01 +3.39469E+01
 +3.17419E+01 +8.58641E+00 +2.60759E+01 -1.67267E+01 +1.08463E+01 -3.57392E+01 -9.34937E+00 -4.41487E+01
 -2.86210E+01 -4.06777E+01 -4.14964E+01 -2.72595E+01 -4.44355E+01 -8.32701E+00 -3.67320E+01 +1.05468E+01
 -2.05802E+01 +2.42392E+01 -3.35649E-01 +2.94403E+01 +1.87746E+01 +2.54227E+01 +3.20986E+01 +1.40458E+01
 +3.67531E+01 -9.50577E-01 +3.22527E+01 -1.51130E+01 +2.04493E+01 -2.45416E+01 +4.85487E+00 -2.69006E+01
 -1.04129E+01 -2.19182E+01 -2.17413E+01 -1.12874E+01 -2.68868E+01 +1.94718E+00 -2.53889E+01 +1.42968E+01
 -1.84768E+01 +2.27587E+01 -8.55443E+00 +2.55184E+01 +1.54586E+00 +2.22715E+01 +9.31667E+00 +1.41305E+01
 +1.31423E+01 +3.19906E+00 +1.25649E+01 -8.02948E+00 +8.23285E+00 -1.72756E+01 +1.60050E+00 -2.29337E+01
 -5.50571E+00 -2.43105E+01 -1.13285E+01 -2.16311E+01 -1.45319E+01 -1.58623E+01 -1.44128E+01 -8.42894E+00
 -1.09644E+01 -9.00253E-01 -4.81551E+00 +5.29575E+00 +2.91782E+00 +9.09744E+00 +1.08358E+01 +9.96083E+00
 +1.74889E+01 +7.93235E+00 +2.16212E+01 +3.63806E+00 +2.24007E+01 -1.81746E+00 +1.96012E+01 -7.04449E+00
 +1.36940E+01 -1.06394E+01 +5.81037E+00 -1.14947E+01 -2.44528E+00 -9.08491E+00 -9.31735E+00 -3.65090E+00
 -1.32969E+01 +3.78216E+00 -1.35040E+01 +1.15870E+01 -9.94927E+00 +1.78959E+01 -3.58685E+00 +2.10648E+01
 +3.87798E+00 +2.01227E+01 +1.03983E+01 +1.50787E+01 +1.41156E+01 +6.98497E+00 +1.38700E+01 -2.28045E+00
 +9.54480E+00 -1.04708E+01 +2.13894E+00 -1.55535E+01 -6.46919E+00 -1.62604E+01 -1.40113E+01 -1.24488E+01
 -1.84436E+01 -5.16371E+00 -1.85150E+01 +3.62545E+00 -1.41277E+01 +1.15477E+01 -6.38284E+00 +1.64707E+01
 +2.70582E+00 +1.70801E+01 +1.07534E+01 +1.32346E+01 +1.56497E+01 +5.99832E+00 +1.61296E+01 -2.66036E+00
 +1.21083E+01 -1.04150E+01 +4.69157E+00 -1.52190E+01 -4.13790E+00 -1.58575E+01 -1.20665E+01 -1.22604E+01
 -1.70724E+01 -5.49817E+00 -1.79533E+01 +2.53241E+00 -1.46190E+01 +9.63671E+00 -8.07703E+00 +1.39149E+01
 -1.27197E-01 +1.42565E+01 +7.14182E+00 +1.06078E+01 +1.19104E+01 +3.95131E+00 +1.30909E+01 -3.98607E+00
 +1.05778E+01 -1.12046E+01 +5.23196E+00 -1.59526E+01 -1.38439E+00 -1.71586E+01 -7.43817E+00 -1.46703E+01
 -1.13040E+01 -9.24910E+00 -1.19667E+01 -2.33779E+00 -9.25187E+00 +4.32869E+00 -3.83814E+00 +9.16380E+00
 +2.94033E+00 +1.11111E+01 +9.44115E+00 +9.87839E+00 +1.41204E+01 +5.97690E+00 +1.59000E+01 +5.65933E-01
 +1.44119E+01 -4.85110E+00 +1.00668E+01 -8.80263E+00 +3.93942E+00 -1.02072E+01 -2.49976E+00 -8.63235E+00
 -7.74105E+00 -4.39563E+00 -1.05971E+01 +1.51267E+00 -1.04861E+01 +7.66795E+00 -7.57104E+00 +1.25555E+01
 -2.71925E+00 +1.49412E+01 +2.70990E+00 +1.41811E+01 +7.20355E+00 +1.03930E+01 +9.48006E+00 +4.44426E+00
 +8.82615E+00 -2.24934E+00 +5.29874E+00 -8.06919E+00 -2.66068E-01 -1.16034E+01 -6.44845E+00 -1.20165E+01
 -1.16028E+01 -9.28001E+00 -1.42910E+01 -4.19799E+00 -1.36773E+01 +1.79068E+00 -9.77708E+00 +6.98800E+00
 -3.48258E+00 +9.89625E+00 +3.64981E+00 +9.63736E+00 +9.80311E+00 +6.21389E+00 +1.33889E+01 +5.32051E-01
 +1.34886E+01 -5.82890E+00 +1.01199E+01 -1.10447E+01 +4.24835E+00 -1.35570E+01 -2.46789E+00 -1.25234E+01
 -8.13493E+00 -8.07594E+00 -1.11554E+01 -1.30945E+00 -1.06856E+01 +6.00629E+00 -6.88404E+00 +1.19123E+01
 -8.75619E-01 +1.48095E+01 +5.56281E+00 +1.39137E+01 +1.05090E+01 +9.48436E+00 +1.24496E+01 +2.75732E+00
 +1.07216E+01 -4.40160E+00 +5.71248E+00 -1.00246E+01 -1.24123E+00 -1.25999E+01 -8.22945E+00 -1.14994E+01
 -1.33099E+01 -7.15096E+00 -1.50594E+01 -9.07841E-01 -1.29766E+01 +5.34742E+00 -7.61964E+00 +9.74828E+00
 -4.42458E-01 +1.09804E+01 +6.62220E+00 +8.65486E+00 +1.17099E+01 +3.41201E+00 +1.35443E+01 -3.26897E+00
 +1.17818E+01 -9.49734E+00 +7.08657E+00 -1.35085E+01 +9.19877E-01 -1.41575E+01 -4.88926E+00 -1.12294E+01
 -8.66646E+00 -5.48339E+00 -9.35726E+00 +1.57486E+00 -6.80678E+00 +8.12195E+00 -1.78123E+00 +1.25208E+01
 +4.26640E+00 +1.37584E+01 +9.61304E+00 +1.16982E+01 +1.27435E+01 +7.08630E+00 +1.27570E+01 +1.31717E+00
 +9.59387E+00 -3.96567E+00 +4.02969E+00 -7.32081E+00 -2.55298E+00 -7.88785E+00 -8.54426E+00 -5.59687E+00
 -1.25314E+01 -1.16037E+00 -1.36551E+01 +4.13995E+00 -1.18083E+01 +8.80682E+00 -7.63415E+00 +1.15237E+01
 -2.33292E+00 +1.14905E+01 +2.66413E+00 +8.61696E+00 +6.06643E+00 +3.53030E+00 +7.04665E+00 -2.59552E+00
 +5.43684E+00 -8.34122E+00 +1.75473E+00 -1.23953E+01 -2.94038E+00 -1.38722E+01 -7.32238E+00 -1.25195E+01
 -1.01348E+01 -8.76870E+00 -1.05072E+01 -3.61875E+00 -8.17558E+00 +1.61572E+00 -3.55520E+00 +5.63156E+00
 +2.35236E+00 +7.46060E+00 +8.19709E+00 +6.71164E+00 +1.26077E+01 +3.67141E+00 +1.45304E+01 -7.62725E-01
 +1.34964E+01 -5.30557E+00 +9.74995E+00 -8.61117E+00 +4.20059E+00 -9.62493E+00 -1.79447E+00 -7.87200E+00
 -6.76832E+00 -3.60485E+00 -9.52001E+00 +2.23409E+00 -9.43122E+00 +8.23327E+00 -6.63825E+00 +1.28660E+01
 -2.00788E+00 +1.48894E+01 +3.08400E+00 +1.36831E+01 +7.11837E+00 +9.43487E+00 +8.84928E+00 +3.11499E+00
 +7.65756E+00 -3.75945E+00 +3.74196E+00 -9.51501E+00 -1.91100E+00 -1.27641E+01 -7.77749E+00 -1.27788E+01
 -1.22040E+01 -9.69095E+00 -1.38626E+01 -4.45886E+00 -1.21279E+01 +1.39423E+00 -7.26745E+00 +6.20148E+00
 -3.88845E-01 +8.61688E+00 +6.84572E+00 +7.99277E+00 +1.26616E+01 +4.56290E+00 +1.56479E+01 -6.22334E-01
 +1.51349E+01 -5.99156E+00 +1.13673E+01 -9.89615E+00 +5.42595E+00 -1.10767E+01 -1.07975E+00 -9.02020E+00
 -6.45911E+00 -4.10834E+00 -9.40114E+00 +2.48458E+00 -9.32018E+00 +9.11186E+00 -6.49215E+00 +1.41014E+01
 -1.94850E+00 +1.62032E+01 +2.83580E+00 +1.49132E+01 +6.36744E+00 +1.05893E+01 +7.55125E+00 +4.33250E+00
 +5.98325E+00 -2.32470E+00 +2.04412E+00 -7.83066E+00 -3.22422E+00 -1.10127E+01 -8.41586E+00 -1.13544E+01
 -1.21437E+01 -9.08609E+00 -1.34014E+01 -5.07472E+00 -1.18099E+01 -5.57016E-01 -7.69156E+00 +3.20473E+00
 -1.96392E+00 +5.24853E+00 +4.10759E+00 +5.13841E+00 +9.22569E+00 +3.04059E+00 +1.23635E+01 -3.56141E-01
 +1.29820E+01 -4.04316E+00 +1.11188E+01 -6.95814E+00 +7.34106E+00 -8.24644E+00 +2.58461E+00 -7.45829E+00
 -2.07361E+00 -4.64333E+00 -5.65675E+00 -3.30546E-01 -7.49170E+00 +4.59400E+00 -7.33795E+00 +9.08058E+00
 -5.42123E+00 +1.21393E+01 -2.36989E+00 +1.30503E+01 +9.31702E-01 +1.15212E+01 +3.54472E+00 +7.76177E+00
 +4.69418E+00 +2.45798E+00 +3.96038E+00 -3.35477E+00 +1.40061E+00 -8.50074E+00 -2.43227E+00 -1.19180E+01
 -6.58964E+00 -1.29051E+01 -9.93470E+00 -1.13012E+01 -1.14189E+01 -7.55087E+00 -1.03645E+01 -2.62272E+00
 -6.68059E+00 +2.21058E+00 -9.45404E-01 +5.68787E+00 +5.68061E+00 +6.89472E+00 +1.17073E+01 +5.52850E+00
 +1.56791E+01 +2.01300E+00 +1.65612E+01 -2.58263E+00 +1.40402E+01 -6.81364E+00 +8.64900E+00 -9.25537E+00
 +1.66577E+00 -8.91980E+00 -5.19869E+00 -5.57305E+00 -1.02497E+01 +1.45771E-01 -1.22723E+01 +6.85212E+00
 -1.08764E+01 +1.27676E+01 -6.61930E+00 +1.62053E+01 -8.59057E-01 +1.60537E+01 +4.62591E+00 +1.21173E+01
 +8.14885E+00 +5.20940E+00 +8.61041E+00 -3.04090E+00 +5.83163E+00 -1.06185E+01 +6.21914E-01 -1.56710E+01
 -5.44371E+00 -1.70194E+01 -1.04770E+01 -1.44809E+01 -1.28283E+01 -8.90900E+00 -1.15750E+01 -1.93836E+00
 -6.80285E+00 +4.49207E+00 +4.04947E-01 +8.69575E+00 +8.26650E+00 +9.71213E+00 +1.48003E+01 +7.55905E+00
 +1.83766E+01 +3.19358E+00 +1.81595E+01 -1.80084E+00 +1.43150E+01 -5.70226E+00 +7.92856E+00 -7.16386E+00
 +6.68815E-01 -5.60116E+00 -5.69833E+00 -1.34265E+00 -9.79570E+00 +4.49136E+00 -1.09811E+01 +1.03344E+01
 -9.46143E+00 +1.46322E+01 -6.15675E+00 +1.62734E+01 -2.37202E+00 +1.48695E+01 +6.12412E-01 +1.08127E+01
 +1.90449E+00 +5.11271E+00 +1.21546E+00 -9.22392E-01 -1.12225E+00 -6.05270E+00 -4.31855E+00 -9.41134E+00
 -7.40081E+00 -1.06666E+01 -9.50490E+00 -1.00144E+01 -1.00934E+01 -8.02983E+00 -9.04747E+00 -5.44494E+00
 -6.62634E+00 -2.93380E+00 -3.33373E+00 -9.68126E-01 +2.47952E-01 +2.28786E-01 +3.59447E+00 +6.42498E-01
 +6.31152E+00 +3.84065E-01 +8.13971E+00 -3.87692E-01 +8.92058E+00 -1.50340E+00 +8.56478E+00 -2.77370E+00
 +7.05508E+00 -3.95641E+00 +4.49131E+00 -4.73973E+00 +1.15407E+00 -4.77645E+00 -2.45676E+00 -3.77983E+00
 -5.65362E+00 -1.65759E+00 -7.68493E+00 +1.36826E+00 -7.93471E+00 +4.71812E+00 -6.14236E+00 +7.53330E+00
 -2.56286E+00 +8.88165E+00 +2.00759E+00 +8.04517E+00 +6.38029E+00 +4.80233E+00 +9.27959E+00 -3.97241E-01
 +9.72809E+00 -6.44781E+00 +7.39318E+00 -1.18200E+01 +2.77290E+00 -1.49663E+01 -2.86268E+00 -1.47904E+01
 -7.78554E+00 -1.10325E+01 -1.03060E+01 -4.43791E+00 -9.30900E+00 +3.37237E+00 -4.66106E+00 +1.03152E+01
 +2.65566E+00 +1.44386E+01 +1.07485E+01 +1.45214E+01 +1.73214E+01 +1.04901E+01 +2.03458E+01 +3.50872E+00
 +1.86960E+01 -4.30881E+00 +1.25459E+01 -1.04966E+01 +3.38991E+00 -1.29754E+01 -6.34039E+00 -1.07091E+01
 -1.39644E+01 -4.06987E+00 -1.73468E+01 +5.21452E+00 -1.55559E+01 +1.45321E+01 -9.17906E+00 +2.11473E+01
 -1.84075E-01 +2.30253E+01 +8.64239E+00 +1.94668E+01 +1.45197E+01 +1.13540E+01 +1.55138E+01 +9.20172E-01
 +1.11354E+01 -8.89587E+00 +2.50850E+00 -1.53199E+01 -7.94868E+00 -1.65750E+01 -1.72394E+01 -1.24208E+01
 -2.26848E+01 -4.23190E+00 -2.27284E+01 +5.41257E+00 -1.74032E+01 +1.35040E+01 -8.31679E+00 +1.75096E+01
 +1.83834E+00 +1.61306E+01 +1.01005E+01 +9.68414E+00 +1.41282E+01 -6.15564E-03 +1.28922E+01 -1.01730E+01
 +6.96215E+00 -1.79452E+01 -1.69488E+00 -2.12053E+01 -1.03345E+01 -1.92048E+01 -1.62768E+01 -1.27531E+01
 -1.77104E+01 -3.93388E+00 -1.42130E+01 +4.55551E+00 -6.83946E+00 +1.02288E+01 +2.23906E+00 +1.15458E+01
 +1.04206E+01 +8.33580E+00 +1.54637E+01 +1.79198E+00 +1.61402E+01 -5.94645E+00 +1.25565E+01 -1.24803E+01
 +6.05940E+00 -1.58844E+01 -1.22743E+00 -1.52641E+01 -7.07623E+00 -1.09710E+01 -9.82360E+00 -4.43087E+00
 -8.83023E+00 +2.34649E+00 -4.60382E+00 +7.40559E+00 +1.43242E+00 +9.42999E+00 +7.43264E+00 +8.09652E+00
