 Created: 19-Jan-2021
 $NMID
 ID='D:\BASISSIMULATI'
 FMTDAT='(8E13.5)'
 VOLUME=   1.00000E+00
 TRAMP=   1.00000E+00
 $END
 +6.80409E+01 +1.04247E+01 +6.45529E+01 -2.25103E+00 +5.10015E+01 -1.29785E+01 +2.98170E+01 -1.87122E+01
 +4.86920E+00 -1.76417E+01 -1.93203E+01 -9.61840E+00 -3.84935E+01 +3.79825E+00 -4.95021E+01 +1.96824E+01
 -5.09092E+01 +3.43955E+01 -4.32191E+01 +4.44049E+01 -2.86991E+01 +4.70836E+01 -1.08367E+01 +4.13141E+01
 +6.43982E+00 +2.77629E+01 +1.96036E+01 +8.76477E+00 +2.62527E+01 -1.21548E+01 +2.55609E+01 -3.10143E+01
 +1.83689E+01 -4.42058E+01 +6.90756E+00 -4.92413E+01 -5.77140E+00 -4.52543E+01 -1.65218E+01 -3.31563E+01
 -2.28196E+01 -1.54196E+01 -2.33114E+01 +4.45780E+00 -1.80774E+01 +2.26840E+01 -8.56150E+00 +3.59411E+01
 +2.80602E+00 +4.20257E+01 +1.31964E+01 +4.02327E+01 +2.00439E+01 +3.14123E+01 +2.16283E+01 +1.77032E+01
 +1.74524E+01 +2.01515E+00 +8.33457E+00 -1.26157E+01 -3.79349E+00 -2.36532E+01 -1.63303E+01 -2.95374E+01
 -2.65822E+01 -2.99166E+01 -3.23441E+01 -2.56015E+01 -3.23547E+01 -1.82724E+01 -2.65325E+01 -1.00196E+01
 -1.59515E+01 -2.83378E+00 -2.57309E+00 +1.83557E+00 +1.11942E+01 +3.35979E+00 +2.30025E+01 +1.99519E+00
 +3.10263E+01 -1.26610E+00 +3.42821E+01 -5.00838E+00 +3.27457E+01 -7.78235E+00 +2.72595E+01 -8.47490E+00
 +1.92663E+01 -6.57185E+00 +1.04450E+01 -2.25782E+00 +2.33717E+00 +3.66034E+00 -3.94849E+00 +9.97679E+00
 -7.89665E+00 +1.53935E+01 -9.58706E+00 +1.88316E+01 -9.55620E+00 +1.96705E+01 -8.56889E+00 +1.78640E+01
 -7.36781E+00 +1.39099E+01 -6.46850E+00 +8.69481E+00 -6.04929E+00 +3.25715E+00 -5.95678E+00 -1.46341E+00
 -5.81467E+00 -4.82882E+00 -5.19608E+00 -6.60906E+00 -3.80435E+00 -6.97294E+00 -1.60698E+00 -6.37506E+00
 +1.11716E+00 -5.37767E+00 +3.83156E+00 -4.46162E+00 +5.88199E+00 -3.88089E+00 +6.68304E+00 -3.60103E+00
 +5.89805E+00 -3.33665E+00 +3.56018E+00 -2.67479E+00 +9.74777E-02 -1.24609E+00 -3.74962E+00 +1.10811E+00
 -7.10079E+00 +4.22470E+00 -9.15588E+00 +7.60074E+00 -9.40563E+00 +1.04806E+01 -7.77680E+00 +1.20313E+01
 -4.67054E+00 +1.15635E+01 -8.79165E-01 +8.74113E+00 +2.60234E+00 +3.72110E+00 +4.82600E+00 -2.81849E+00
 +5.14053E+00 -9.77887E+00 +3.37714E+00 -1.58535E+01 -7.84372E-02 -1.98085E+01 -4.35088E+00 -2.07662E+01
 -8.26734E+00 -1.84239E+01 -1.06346E+01 -1.31516E+01 -1.05368E+01 -5.94029E+00 -7.58192E+00 +1.79363E+00
 -2.03529E+00 +8.50771E+00 +5.19764E+00 +1.28709E+01 +1.27405E+01 +1.40621E+01 +1.90337E+01 +1.19602E+01
 +2.26778E+01 +7.17959E+00 +2.27545E+01 +9.39352E-01 +1.90507E+01 -5.20675E+00 +1.21317E+01 -9.72018E+00
 +3.24279E+00 -1.14290E+01 -5.94112E+00 -9.80076E+00 -1.36664E+01 -5.07333E+00 -1.84734E+01 +1.78651E+00
 -1.95089E+01 +9.29014E+00 -1.67081E+01 +1.57540E+01 -1.08064E+01 +1.96738E+01 -3.17521E+00 +2.00621E+01
 +4.47898E+00 +1.66743E+01 +1.04871E+01 +1.00717E+01 +1.35791E+01 +1.50697E+00 +1.31536E+01 -7.34045E+00
 +9.39910E+00 -1.47231E+01 +3.23923E+00 -1.91970E+01 -3.88241E+00 -1.99253E+01 -1.03285E+01 -1.68483E+01
 -1.46324E+01 -1.06846E+01 -1.58186E+01 -2.76580E+00 -1.36111E+01 +5.25669E+00 -8.48414E+00 +1.17664E+01
 -1.54801E+00 +1.55195E+01 +5.70192E+00 +1.58936E+01 +1.17155E+01 +1.29948E+01 +1.52229E+01 +7.60618E+00
 +1.55024E+01 +9.92117E-01 +1.25234E+01 -5.39296E+00 +6.93734E+00 -1.02249E+01 -7.59937E-02 -1.25882E+01
 -7.07083E+00 -1.21541E+01 -1.26447E+01 -9.22208E+00 -1.57275E+01 -4.62321E+00 -1.57891E+01 +4.89004E-01
 -1.29243E+01 +4.90865E+00 -7.80309E+00 +7.64673E+00 -1.50325E+00 +8.14040E+00 +4.73311E+00 +6.35912E+00
 +9.76277E+00 +2.78891E+00 +1.27671E+01 -1.69583E+00 +1.33947E+01 -6.03980E+00 +1.17950E+01 -9.24414E+00
 +8.54427E+00 -1.05807E+01 +4.48664E+00 -9.73747E+00 +5.31061E-01 -6.86822E+00 -2.54826E+00 -2.53980E+00
 -4.26478E+00 +2.40446E+00 -4.49608E+00 +7.03156E+00 -3.47300E+00 +1.05127E+01 -1.69130E+00 +1.22823E+01
 +2.28442E-01 +1.21319E+01 +1.69677E+00 +1.02228E+01 +2.29102E+00 +7.02303E+00 +1.84162E+00 +3.18748E+00
 +4.53737E-01 -5.88007E-01 -1.53555E+00 -3.70543E+00 -3.64957E+00 -5.76772E+00 -5.38929E+00 -6.62848E+00
 -6.34700E+00 -6.38388E+00 -6.29170E+00 -5.31561E+00 -5.20953E+00 -3.80337E+00 -3.29435E+00 -2.22989E+00
 -8.95003E-01 -9.00465E-01 +1.56524E+00 +7.46735E-03 +3.67722E+00 +4.57663E-01 +5.12287E+00 +5.33977E-01
 +5.72583E+00 +3.94959E-01 +5.46860E+00 +2.18510E-01 +4.47704E+00 +1.51215E-01 +2.97993E+00 +2.73698E-01
 +1.25551E+00 +5.87847E-01 -4.22336E-01 +1.02560E+00 -1.82780E+00 +1.47391E+00 -2.81024E+00 +1.80742E+00
 -3.30327E+00 +1.92013E+00 -3.31815E+00 +1.74875E+00 -2.92679E+00 +1.28427E+00 -2.24003E+00 +5.71145E-01
 -1.38626E+00 -3.03172E-01 -4.93090E-01 -1.22438E+00 +3.26629E-01 -2.06902E+00 +9.85034E-01 -2.72074E+00
 +1.42645E+00 -3.08377E+00 +1.63199E+00 -3.09333E+00 +1.62092E+00 -2.72383E+00 +1.44763E+00 -1.99462E+00
 +1.19276E+00 -9.73046E-01 +9.48190E-01 +2.27240E-01 +7.97118E-01 +1.45471E+00 +7.92854E-01 +2.53668E+00
 +9.41254E-01 +3.30427E+00 +1.19235E+00 +3.62264E+00 +1.44539E+00 +3.42132E+00 +1.56876E+00 +2.71748E+00
 +1.43213E+00 +1.62469E+00 +9.44436E-01 +3.42187E-01 +8.83244E-02 -8.76842E-01 -1.05900E+00 -1.77399E+00
 -2.32648E+00 -2.14249E+00 -3.47479E+00 -1.87964E+00 -4.24424E+00 -1.02157E+00 -4.41559E+00 +2.50607E-01
 -3.87017E+00 +1.63823E+00 -2.63360E+00 +2.78368E+00 -8.89884E-01 +3.34943E+00 +1.04166E+00 +3.10074E+00
 +2.76534E+00 +1.97235E+00 +3.89366E+00 +1.01526E-01 +4.13946E+00 -2.18370E+00 +3.39394E+00 -4.42267E+00
 +1.77005E+00 -6.11665E+00 -4.02737E-01 -6.84063E+00 -2.63582E+00 -6.34708E+00 -4.38193E+00 -4.63665E+00
 -5.15865E+00 -1.97653E+00 -4.66757E+00 +1.14151E+00 -2.88046E+00 +4.09763E+00 -6.95295E-02 +6.27608E+00
 +3.22969E+00 +7.20406E+00 +6.31910E+00 +6.66547E+00 +8.48375E+00 +4.76142E+00 +9.15174E+00 +1.90072E+00
 +8.03268E+00 -1.28119E+00 +5.20157E+00 -4.05935E+00 +1.10600E+00 -5.78324E+00 -3.50916E+00 -6.03042E+00
 -7.74676E+00 -4.71372E+00 -1.07428E+01 -2.11486E+00 -1.18525E+01 +1.16651E+00 -1.07954E+01 +4.34010E+00
 -7.72609E+00 +6.60212E+00 -3.21218E+00 +7.32317E+00 +1.87764E+00 +6.20400E+00 +6.55327E+00 +3.36165E+00
 +9.91172E+00 -6.76355E-01 +1.13288E+01 -5.07191E+00 +1.05913E+01 -8.85097E+00 +7.93944E+00 -1.11158E+01
 +4.00979E+00 -1.12480E+01 -3.09460E-01 -9.05653E+00 -4.07824E+00 -4.83630E+00 -6.51458E+00 +6.78555E-01
 -7.16716E+00 +6.45765E+00 -6.01146E+00 +1.13844E+01 -3.44751E+00 +1.44875E+01 -2.00130E-01 +1.51444E+01
 +2.85526E+00 +1.32105E+01 +4.90087E+00 +9.04852E+00 +5.37075E+00 +3.44903E+00 +4.08595E+00 -2.53673E+00
 +1.29954E+00 -7.81668E+00 -2.35900E+00 -1.14806E+01 -6.02707E+00 -1.29775E+01 -8.80685E+00 -1.22108E+01
 -9.97222E+00 -9.53189E+00 -9.13738E+00 -5.63900E+00 -6.34865E+00 -1.40554E+00 -2.07932E+00 +2.31904E+00
 +2.87078E+00 +4.89066E+00 +7.54700E+00 +5.99362E+00 +1.10436E+01 +5.67997E+00 +1.26932E+01 +4.32073E+00
 +1.22000E+01 +2.48503E+00 +9.68948E+00 +7.80275E-01 +5.66582E+00 -3.06109E-01 +8.90627E-01 -5.24428E-01
 -3.78609E+00 +8.73028E-02 -7.60260E+00 +1.23067E+00 -1.00294E+01 +2.44140E+00 -1.08505E+01 +3.22444E+00
 -1.01673E+01 +3.19357E+00 -8.33212E+00 +2.17918E+00 -5.83208E+00 +2.77250E-01 -3.15774E+00 -2.17228E+00
 -6.90296E-01 -4.67045E+00 +1.36461E+00 -6.68466E+00 +2.98346E+00 -7.78112E+00 +4.27532E+00 -7.72990E+00
 +5.39558E+00 -6.55592E+00 +6.45212E+00 -4.52340E+00 +7.43431E+00 -2.05964E+00 +8.18868E+00 +3.60556E-01
 +8.45066E+00 +2.33778E+00 +7.92533E+00 +3.64463E+00 +6.39476E+00 +4.26972E+00 +3.82007E+00 +4.39737E+00
 +4.05875E-01 +4.32913E+00 -3.39715E+00 +4.36984E+00 -6.95977E+00 +4.71150E+00 -9.60121E+00 +5.35028E+00
 -1.07476E+01 +6.06364E+00 -1.00827E+01 +6.45875E+00 -7.65092E+00 +6.08395E+00 -3.88107E+00 +4.57570E+00
 +4.81804E-01 +1.80176E+00 +4.52702E+00 -2.04140E+00 +7.38009E+00 -6.41013E+00 +8.40936E+00 -1.04889E+01
 +7.38685E+00 -1.33503E+01 +4.56088E+00 -1.41687E+01 +6.17161E-01 -1.24367E+01 -3.46852E+00 -8.13281E+00
 -6.65615E+00 -1.79088E+00 -8.09508E+00 +5.55360E+00 -7.34465E+00 +1.25400E+01 -4.50606E+00 +1.77503E+01
 -2.28231E-01 +2.00139E+01 +4.42091E+00 +1.86799E+01 +8.19424E+00 +1.37940E+01 +9.96432E+00 +6.13201E+00
 +9.01272E+00 -2.92550E+00 +5.23924E+00 -1.16585E+01 -7.63859E-01 -1.83594E+01 -7.79831E+00 -2.16973E+01
 -1.42961E+01 -2.10132E+01 -1.86589E+01 -1.64781E+01 -1.96262E+01 -9.07299E+00 -1.65905E+01 -3.91035E-01
 -9.78083E+00 +7.70096E+00 -2.69064E-01 +1.34680E+01 +1.02139E+01 +1.56913E+01 +1.96181E+01 +1.39444E+01
 +2.60015E+01 +8.69658E+00 +2.79525E+01 +1.21721E+00 +2.49147E+01 -6.70187E+00 +1.73366E+01 -1.31465E+01
 +6.61025E+00 -1.65144E+01 -5.19531E+00 -1.58868E+01 -1.57529E+01 -1.12509E+01 -2.29600E+01 -3.52179E+00
 -2.53819E+01 +5.64668E+00 -2.25592E+01 +1.42208E+01 -1.51102E+01 +2.02396E+01 -4.60509E+00 +2.22596E+01
 +6.76396E+00 +1.96923E+01 +1.66450E+01 +1.29557E+01 +2.30220E+01 +3.40526E+00 +2.46368E+01 -6.94639E+00
 +2.12458E+01 -1.58592E+01 +1.36561E+01 -2.13527E+01 +3.53577E+00 -2.21431E+01 -6.95881E+00 -1.79335E+01
 -1.56562E+01 -9.49226E+00 -2.08377E+01 +1.49837E+00 -2.15979E+01 +1.27922E+01 -1.80204E+01 +2.20513E+01
 -1.11325E+01 +2.73380E+01 -2.65310E+00 +2.75213E+01 +5.40776E+00 +2.25096E+01 +1.12048E+01 +1.32614E+01
 +1.34673E+01 +1.57506E+00 +1.17727E+01 -1.02952E+01 +6.62298E+00 -2.01115E+01 -6.85864E-01 -2.61091E+01
 -8.37194E+00 -2.73423E+01 -1.45782E+01 -2.38471E+01 -1.77935E+01 -1.65917E+01 -1.71880E+01 -7.23398E+00
 -1.27917E+01 +2.25648E+00 -5.47754E+00 +1.00233E+01 +3.24212E+00 +1.47022E+01 +1.15562E+01 +1.56734E+01
 +1.77538E+01 +1.31386E+01 +2.05921E+01 +8.01583E+00 +1.95526E+01 +1.68406E+00 +1.49321E+01 -4.35539E+00
 +7.75584E+00 -8.82099E+00 -4.63921E-01 -1.09185E+01 -8.06277E+00 -1.04775E+01 -1.35764E+01 -7.93383E+00
 -1.60321E+01 -4.17162E+00 -1.51185E+01 -2.71000E-01 -1.12047E+01 +2.77308E+00 -5.21300E+00 +4.29170E+00
 +1.61562E+00 +4.08667E+00 +8.00402E+00 +2.44942E+00 +1.29017E+01 +5.60080E-02 +1.56709E+01 -2.22917E+00
 +1.61601E+01 -3.58806E+00 +1.46594E+01 -3.46157E+00 +1.17612E+01 -1.68815E+00 +8.16911E+00 +1.46325E+00
 +4.51107E+00 +5.36960E+00 +1.20224E+00 +9.21592E+00 -1.60888E+00 +1.21986E+01 -4.00579E+00 +1.37169E+01
