 Created: 19-Jan-2021
 $NMID
 ID='D:\BASISSIMULATI'
 FMTDAT='(8E13.5)'
 VOLUME=   1.00000E+00
 TRAMP=   1.00000E+00
 $END
 +7.90047E+01 +1.19933E+01 +5.66841E+01 +5.42211E+01 +1.37733E+01 +7.32615E+01 -3.02789E+01 +6.16974E+01
 -5.59856E+01 +2.62755E+01 -5.29036E+01 -1.54977E+01 -2.43230E+01 -4.37721E+01 +1.45967E+01 -4.57332E+01
 +4.42689E+01 -2.14884E+01 +5.00833E+01 +1.62831E+01 +2.92703E+01 +4.86526E+01 -8.00593E+00 +5.96350E+01
 -4.37619E+01 +4.38178E+01 -6.09796E+01 +8.80034E+00 -5.18033E+01 -2.86566E+01 -2.12204E+01 -5.08441E+01
 +1.54911E+01 -4.76854E+01 +4.02576E+01 -2.15529E+01 +4.09999E+01 +1.39624E+01 +1.74767E+01 +4.06904E+01
 -1.86047E+01 +4.47031E+01 -4.92344E+01 +2.30685E+01 -5.87626E+01 -1.46918E+01 -4.14196E+01 -5.11122E+01
 -4.10596E+00 -6.90768E+01 +3.68498E+01 -5.99229E+01 +6.33861E+01 -2.75042E+01 +6.41708E+01 +1.36852E+01
 +3.98152E+01 +4.53810E+01 +2.40985E+00 +5.41123E+01 -3.03299E+01 +3.73887E+01 -4.34665E+01 +4.62048E+00
 -3.17807E+01 -2.75814E+01 -1.98995E+00 -4.34114E+01 +3.07236E+01 -3.53308E+01 +5.01266E+01 -7.45597E+00
 +4.66970E+01 +2.66631E+01 +2.20327E+01 +5.07141E+01 -1.21336E+01 +5.34850E+01 -3.97504E+01 +3.41411E+01
 -4.82325E+01 +2.43718E+00 -3.44555E+01 -2.61569E+01 -6.11367E+00 -3.80054E+01 +2.21453E+01 -2.78723E+01
 +3.58885E+01 -1.36603E+00 +2.78903E+01 +2.78604E+01 +1.59864E+00 +4.47551E+01 -3.05487E+01 +4.01370E+01
 -5.31032E+01 +1.51051E+01 -5.49844E+01 -1.94877E+01 -3.47290E+01 -4.81997E+01 -1.13663E+00 -5.82984E+01
 +3.09404E+01 -4.57051E+01 +4.76100E+01 -1.67884E+01 +4.23983E+01 +1.47848E+01 +1.91113E+01 +3.45748E+01
 -1.01911E+01 +3.41346E+01 -3.10619E+01 +1.48135E+01 -3.35290E+01 -1.31382E+01 -1.66875E+01 -3.56459E+01
 +1.11043E+01 -4.15775E+01 +3.64222E+01 -2.79564E+01 +4.72808E+01 -1.18199E+00 +3.88031E+01 +2.62375E+01
 +1.53761E+01 +4.17862E+01 -1.16609E+01 +3.89100E+01 -2.95986E+01 +2.00086E+01 -3.04806E+01 -4.91841E+00
 -1.48277E+01 -2.32409E+01 +8.77061E+00 -2.58379E+01 +2.79312E+01 -1.14514E+01 +3.25082E+01 +1.27984E+01
 +1.94690E+01 +3.49214E+01 -5.69440E+00 +4.38517E+01 -3.16387E+01 +3.47301E+01 -4.65932E+01 +1.11693E+01
 -4.39138E+01 -1.65275E+01 -2.51321E+01 -3.62828E+01 +8.99690E-01 -3.99145E+01 +2.22910E+01 -2.68651E+01
 +2.97314E+01 -4.26973E+00 +2.07668E+01 +1.65917E+01 +7.45857E-01 +2.57021E+01 -1.99294E+01 +1.89800E+01
 -3.08611E+01 +2.80554E-02 -2.65726E+01 -2.17911E+01 -8.96306E+00 -3.59493E+01 +1.37946E+01 -3.57703E+01
 +3.12981E+01 -2.14840E+01 +3.59031E+01 +8.09086E-02 +2.62627E+01 +1.89265E+01 +7.77369E+00 +2.67271E+01
 -1.01989E+01 +2.07409E+01 -1.89159E+01 +4.95378E+00 -1.44395E+01 -1.20194E+01 +5.87972E-01 -2.11945E+01
 +1.83535E+01 -1.75576E+01 +2.97243E+01 -2.41251E+00 +2.86507E+01 +1.73343E+01 +1.50141E+01 +3.25433E+01
 -5.39735E+00 +3.62050E+01 -2.37077E+01 +2.67058E+01 -3.21666E+01 +8.47708E+00 -2.77328E+01 -1.02158E+01
 -1.33535E+01 -2.12259E+01 +3.60200E+00 -2.03108E+01 +1.49341E+01 -8.97267E+00 +1.54810E+01 +6.45496E+00
 +5.43258E+00 +1.79607E+01 -9.95104E+00 +1.96915E+01 -2.29983E+01 +1.06421E+01 -2.73306E+01 -5.03186E+00
 -2.08294E+01 -2.01467E+01 -6.48882E+00 -2.79762E+01 +9.17416E+00 -2.53993E+01 +1.93167E+01 -1.42298E+01
 +2.00041E+01 -1.66115E-01 +1.19476E+01 +1.00602E+01 -2.44502E-02 +1.19210E+01 -9.43250E+00 +5.16453E+00
 -1.13111E+01 -6.21954E+00 -4.54650E+00 -1.60529E+01 +7.69511E+00 -1.89983E+01 +1.95879E+01 -1.30948E+01
 +2.54797E+01 -6.14482E-01 +2.25568E+01 +1.31089E+01 +1.20877E+01 +2.22580E+01 -1.29188E+00 +2.32511E+01
 -1.18452E+01 +1.63187E+01 -1.54291E+01 +5.23875E+00 -1.13355E+01 -4.57411E+00 -2.45040E+00 -8.66091E+00
 +6.27409E+00 -5.54938E+00 +1.02447E+01 +2.70586E+00 +7.37132E+00 +1.16612E+01 -1.06313E+00 +1.66896E+01
 -1.11580E+01 +1.51689E+01 -1.83432E+01 +7.62471E+00 -1.95481E+01 -2.65967E+00 -1.45595E+01 -1.13078E+01
 -5.97062E+00 -1.49437E+01 +2.18610E+00 -1.27061E+01 +6.40871E+00 -6.50015E+00 +5.33979E+00 +6.81337E-02
 +2.80434E-01 +3.50228E+00 -5.58104E+00 +2.07766E+00 -8.79427E+00 -3.42269E+00 -7.31366E+00 -1.01978E+01
 -1.41774E+00 -1.48489E+01 +6.51300E+00 -1.50117E+01 +1.31944E+01 -1.04212E+01 +1.59967E+01 -2.94016E+00
 +1.41136E+01 +4.40276E+00 +8.81689E+00 +8.85890E+00 +2.73669E+00 +9.18420E+00 -1.43722E+00 +6.08725E+00
 -2.18831E+00 +1.74394E+00 +2.28318E-01 -1.33014E+00 +4.05491E+00 -1.47806E+00 +6.97745E+00 +1.39335E+00
 +7.25562E+00 +5.89266E+00 +4.49438E+00 +9.90844E+00 -2.74731E-01 +1.16464E+01 -5.18286E+00 +1.04312E+01
 -8.45029E+00 +6.91772E+00 -9.18607E+00 +2.66516E+00 -7.69730E+00 -6.67396E-01 -5.20928E+00 -2.09066E+00
 -3.18576E+00 -1.66063E+00 -2.61041E+00 -3.22346E-01 -3.57340E+00 +6.49364E-01 -5.32692E+00 +3.04588E-01
 -6.73270E+00 -1.55254E+00 -6.84555E+00 -4.33886E+00 -5.34076E+00 -7.03674E+00 -2.60193E+00 -8.70055E+00
 +5.28607E-01 -8.86557E+00 +3.17323E+00 -7.68028E+00 +4.79139E+00 -5.74090E+00 +5.33387E+00 -3.75433E+00
 +5.14457E+00 -2.21945E+00 +4.70587E+00 -1.27568E+00 +4.38482E+00 -7.57105E-01 +4.30702E+00 -3.77336E-01
 +4.39182E+00 +8.40573E-02 +4.48586E+00 +6.96657E-01 +4.48766E+00 +1.41810E+00 +4.38247E+00 +2.19684E+00
 +4.18102E+00 +3.04507E+00 +3.82743E+00 +4.02027E+00 +3.16431E+00 +5.12670E+00 +2.00328E+00 +6.21381E+00
 +2.71912E-01 +6.96262E+00 -1.85602E+00 +7.00115E+00 -3.94827E+00 +6.10540E+00 -5.46150E+00 +4.37385E+00
 -5.99429E+00 +2.25820E+00 -5.51520E+00 +4.00627E-01 -4.42771E+00 -6.63509E-01 -3.40788E+00 -7.90002E-01
 -3.07224E+00 -3.35417E-01 -3.63750E+00 -7.53672E-03 -4.75852E+00 -5.06460E-01 -5.65449E+00 -2.12789E+00
 -5.48754E+00 -4.54009E+00 -3.81725E+00 -6.87413E+00 -8.95407E-01 -8.11259E+00 +2.37203E+00 -7.60089E+00
 +4.80874E+00 -5.42394E+00 +5.52967E+00 -2.43855E+00 +4.40529E+00 +8.56375E-02 +2.18165E+00 +1.06538E+00
 +1.67387E-01 +1.55777E-01 -3.85660E-01 -2.02890E+00 +1.08321E+00 -4.16052E+00 +4.11231E+00 -4.81640E+00
 +7.37453E+00 -3.18605E+00 +9.27323E+00 +4.81780E-01 +8.70577E+00 +4.92803E+00 +5.62600E+00 +8.42981E+00
 +1.11899E+00 +9.59875E+00 -3.06951E+00 +8.05022E+00 -5.33972E+00 +4.61045E+00 -4.99733E+00 +9.43975E-01
 -2.59272E+00 -1.23430E+00 +3.38402E-01 -9.88364E-01 +2.02147E+00 +1.37428E+00 +1.32170E+00 +4.44029E+00
 -1.67474E+00 +6.37719E+00 -5.67109E+00 +5.84358E+00 -8.77120E+00 +2.67846E+00 -9.40415E+00 -1.97651E+00
 -7.11309E+00 -6.19623E+00 -2.81543E+00 -8.19237E+00 +1.60707E+00 -7.19046E+00 +4.20230E+00 -3.83080E+00
 +3.89773E+00 +1.14971E-01 +1.04122E+00 +2.58824E+00 -2.74142E+00 +2.24702E+00 -5.31668E+00 -8.58688E-01
 -5.07832E+00 -5.27601E+00 -1.74779E+00 -8.82094E+00 +3.45271E+00 -9.61845E+00 +8.34877E+00 -7.01286E+00
 +1.08288E+01 -1.90681E+00 +9.84207E+00 +3.64160E+00 +5.89887E+00 +7.37637E+00 +8.29746E-01 +7.89965E+00
 -3.08408E+00 +5.31943E+00 -4.19214E+00 +1.17711E+00 -2.24803E+00 -2.30961E+00 +1.49693E+00 -3.32260E+00
 +4.92260E+00 -1.31774E+00 +6.08430E+00 +2.72398E+00 +4.16476E+00 +6.78766E+00 -1.28066E-01 +8.81613E+00
 -4.90838E+00 +7.71794E+00 -8.03334E+00 +3.90092E+00 -8.14666E+00 -9.27051E-01 -5.33605E+00 -4.59070E+00
 -1.08527E+00 -5.50590E+00 +2.45414E+00 -3.44773E+00 +3.51513E+00 +3.45306E-01 +1.57846E+00 +3.77999E+00
 -2.37192E+00 +4.93248E+00 -6.32383E+00 +2.98963E+00 -8.20988E+00 -1.34798E+00 -6.90616E+00 -6.19415E+00
 -2.77542E+00 -9.37410E+00 +2.50348E+00 -9.45548E+00 +6.73153E+00 -6.41763E+00 +8.22284E+00 -1.64320E+00
 +6.57837E+00 +2.75437E+00 +2.83523E+00 +4.93495E+00 -1.06718E+00 +4.18188E+00 -3.23386E+00 +1.19548E+00
 -2.71082E+00 -2.29646E+00 +9.68245E-02 -4.40654E+00 +3.67274E+00 -4.00336E+00 +6.16443E+00 -1.23254E+00
 +6.29546E+00 +2.59711E+00 +3.96873E+00 +5.68812E+00 +2.76979E-01 +6.64536E+00 -3.06726E+00 +5.14310E+00
 -4.58690E+00 +2.04942E+00 -3.75484E+00 -1.03735E+00 -1.22185E+00 -2.59645E+00 +1.53992E+00 -1.93165E+00
 +2.98725E+00 +5.07107E-01 +2.27143E+00 +3.37334E+00 -3.56059E-01 +5.10694E+00 -3.68605E+00 +4.70458E+00
 -6.15720E+00 +2.19908E+00 -6.61553E+00 -1.37691E+00 -4.85412E+00 -4.50843E+00 -1.67911E+00 -5.92918E+00
 +1.51164E+00 -5.20386E+00 +3.41264E+00 -2.88673E+00 +3.41463E+00 -1.99582E-01 +1.83989E+00 +1.59067E+00
 -2.85113E-01 +1.77586E+00 -1.78179E+00 +4.98657E-01 -1.90553E+00 -1.39124E+00 -6.74409E-01 -2.81793E+00
 +1.20622E+00 -3.03586E+00 +2.75850E+00 -1.97802E+00 +3.25386E+00 -2.33140E-01 +2.56796E+00 +1.31200E+00
 +1.19655E+00 +1.95926E+00 -5.55113E-02 +1.55334E+00 -5.29273E-01 +5.24801E-01 -6.15565E-02 -3.84050E-01
 +9.52604E-01 -5.48037E-01 +1.80580E+00 +1.95654E-01 +1.88670E+00 +1.47009E+00 +1.02239E+00 +2.58218E+00
 -4.31328E-01 +2.91553E+00 -1.79509E+00 +2.27181E+00 -2.44658E+00 +9.72743E-01 -2.16182E+00 -3.29571E-01
 -1.22708E+00 -1.02367E+00 -2.60810E-01 -8.80538E-01 +1.51786E-01 -1.72668E-01 -1.97142E-01 +4.97874E-01
 -1.01378E+00 +5.65868E-01 -1.67459E+00 -1.45433E-01 -1.60279E+00 -1.29363E+00 -6.36645E-01 -2.19354E+00
 +8.27669E-01 -2.21322E+00 +2.01711E+00 -1.17100E+00 +2.20480E+00 +4.98731E-01 +1.14867E+00 +1.92645E+00
 -7.05875E-01 +2.26081E+00 -2.39657E+00 +1.16023E+00 -2.92633E+00 -9.51857E-01 -1.81596E+00 -3.03317E+00
 +5.72479E-01 -3.92664E+00 +3.14049E+00 -2.97822E+00 +4.56764E+00 -4.42278E-01 +3.99390E+00 +2.56336E+00
 +1.51799E+00 +4.56703E+00 -1.76913E+00 +4.48453E+00 -4.27078E+00 +2.21774E+00 -4.67491E+00 -1.21619E+00
 -2.65633E+00 -4.12834E+00 +8.83151E-01 -4.98410E+00 +4.19464E+00 -3.20854E+00 +5.52788E+00 +4.49305E-01
 +4.03604E+00 +4.21185E+00 +2.75456E-01 +6.11975E+00 -3.98412E+00 +5.02910E+00 -6.58562E+00 +1.25567E+00
 -6.06363E+00 -3.48718E+00 -2.43912E+00 -6.86937E+00 +2.69339E+00 -7.08898E+00 +6.87374E+00 -3.81946E+00
 +7.96589E+00 +1.53429E+00 +5.25387E+00 +6.44103E+00 -1.16664E-01 +8.45197E+00 -5.61081E+00 +6.43559E+00
 -8.50220E+00 +1.21671E+00 -7.23124E+00 -4.73426E+00 -2.24844E+00 -8.45530E+00 +4.10749E+00 -7.95345E+00
 +8.68494E+00 -3.25435E+00 +9.05651E+00 +3.50617E+00 +4.77108E+00 +9.04193E+00 -2.31934E+00 +1.04987E+01
 -8.86571E+00 +6.89856E+00 -1.16125E+01 -2.79999E-01 -9.01729E+00 -7.71620E+00 -2.09502E+00 -1.18034E+01
 +5.96625E+00 -1.04181E+01 +1.12817E+01 -4.03237E+00 +1.11536E+01 +4.40672E+00 +5.44788E+00 +1.08250E+01
