 Created: 16-Jan-2021
 $NMID
 ID='D:\BASISSIMULATI'
 FMTDAT='(8E13.5)'
 VOLUME=   1.00000E+00
 TRAMP=   1.00000E+00
 $END
 +2.91130E+01 +7.01881E-01 +2.17840E+01 +1.82622E+01 +4.35343E+00 +2.53704E+01 -1.22508E+01 +1.79169E+01
 -1.75721E+01 +1.30225E+00 -8.62097E+00 -1.30439E+01 +8.08335E+00 -1.52550E+01 +2.08538E+01 -3.60573E+00
 +2.06291E+01 +1.43770E+01 +6.94615E+00 +2.69850E+01 -1.18920E+01 +2.60966E+01 -2.44457E+01 +1.23965E+01
 -2.36620E+01 -5.35647E+00 -1.12373E+01 -1.63209E+01 +3.92504E+00 -1.46482E+01 +1.18598E+01 -2.93410E+00
 +7.99782E+00 +1.00107E+01 -4.30063E+00 +1.52520E+01 -1.65062E+01 +9.44584E+00 -2.07683E+01 -3.50197E+00
 -1.48036E+01 -1.55523E+01 -2.76899E+00 -1.99667E+01 +8.02522E+00 -1.53355E+01 +1.19959E+01 -5.78403E+00
 +8.45969E+00 +2.30542E+00 +1.31310E+00 +4.51609E+00 -4.07446E+00 +7.59575E-01 -4.36465E+00 -5.41883E+00
 +1.15422E-01 -9.63987E+00 +6.28806E+00 -9.45761E+00 +1.07094E+01 -5.37510E+00 +1.16193E+01 +1.40541E-01
 +9.46474E+00 +4.55026E+00 +5.97944E+00 +6.62459E+00 +2.82802E+00 +6.60567E+00 +8.19133E-01 +5.46262E+00
 -2.31497E-02 +4.07990E+00 +2.81059E-02 +2.97157E+00 +6.93882E-01 +2.46662E+00 +1.58112E+00 +2.88533E+00
 +1.99052E+00 +4.35939E+00 +1.07931E+00 +6.44129E+00 -1.55405E+00 +7.99374E+00 -5.30239E+00 +7.69509E+00
 -8.58544E+00 +4.95176E+00 -9.67729E+00 +5.48931E-01 -7.86270E+00 -3.57049E+00 -4.09085E+00 -5.41373E+00
 -5.52516E-01 -4.25166E+00 +6.52513E-01 -1.20996E+00 -1.09720E+00 +1.35392E+00 -4.46509E+00 +1.34578E+00
 -6.96339E+00 -1.67686E+00 -6.54728E+00 -6.16650E+00 -2.94631E+00 -9.54599E+00 +2.14928E+00 -9.84023E+00
 +6.16091E+00 -6.90662E+00 +7.23268E+00 -2.47501E+00 +5.32938E+00 +9.89317E-01 +2.14640E+00 +1.82385E+00
 -4.45748E-02 +1.15559E-01 +1.79995E-01 -2.49616E+00 +2.60613E+00 -3.94828E+00 +5.65766E+00 -3.03716E+00
 +7.46254E+00 -5.74164E-02 +6.97890E+00 +3.51871E+00 +4.50008E+00 +6.01373E+00 +1.32276E+00 +6.50758E+00
 -1.10617E+00 +5.23041E+00 -1.98993E+00 +3.25036E+00 -1.48518E+00 +1.75623E+00 -4.33809E-01 +1.41141E+00
 +2.12182E-01 +2.11711E+00 -1.02601E-01 +3.21900E+00 -1.34367E+00 +3.94219E+00 -3.01919E+00 +3.77832E+00
 -4.48207E+00 +2.65756E+00 -5.21865E+00 +8.98583E-01 -5.01790E+00 -9.71130E-01 -4.00690E+00 -2.42452E+00
 -2.58111E+00 -3.11416E+00 -1.25786E+00 -2.99022E+00 -4.80148E-01 -2.32555E+00 -4.24108E-01 -1.61682E+00
 -8.95954E-01 -1.36769E+00 -1.39728E+00 -1.83175E+00 -1.36450E+00 -2.84816E+00 -4.80169E-01 -3.88503E+00
 +1.11533E+00 -4.30129E+00 +2.85279E+00 -3.70252E+00 +4.01532E+00 -2.18909E+00 +4.12863E+00 -3.38087E-01
 +3.23686E+00 +1.09155E+00 +1.89360E+00 +1.57322E+00 +8.59801E-01 +1.10774E+00 +6.75744E-01 +2.22014E-01
 +1.35424E+00 -3.34642E-01 +2.37511E+00 -2.44447E-02 +2.98639E+00 +1.16513E+00 +2.63911E+00 +2.70878E+00
 +1.30593E+00 +3.83857E+00 -4.97719E-01 +3.97628E+00 -1.99911E+00 +3.05614E+00 -2.59513E+00 +1.55660E+00
 -2.17791E+00 +2.27887E-01 -1.17838E+00 -3.26266E-01 -3.08890E-01 +2.42650E-02 -1.55189E-01 +8.81268E-01
 -8.49383E-01 +1.56080E+00 -2.00576E+00 +1.49084E+00 -2.95024E+00 +5.37216E-01 -3.10812E+00 -9.24731E-01
 -2.32758E+00 -2.22763E+00 -9.57482E-01 -2.78934E+00 +3.58583E-01 -2.43211E+00 +1.04705E+00 -1.46441E+00
 +9.15580E-01 -4.86602E-01 +2.35857E-01 -4.18249E-02 -4.38872E-01 -3.17523E-01 -6.03639E-01 -1.06481E+00
 -8.29406E-02 -1.76809E+00 +8.92213E-01 -1.95168E+00 +1.83850E+00 -1.44070E+00 +2.29951E+00 -4.35375E-01
 +2.08446E+00 +6.23195E-01 +1.34264E+00 +1.29998E+00 +4.55345E-01 +1.38165E+00 -1.73912E-01 +9.55623E-01
 -3.12595E-01 +3.34830E-01 +1.14209E-02 -1.11646E-01 +5.46303E-01 -1.32511E-01 +9.44754E-01 +2.98833E-01
 +9.24798E-01 +9.77350E-01 +4.02164E-01 +1.55633E+00 -4.55950E-01 +1.70334E+00 -1.28677E+00 +1.26643E+00
 -1.69257E+00 +3.76651E-01 -1.44826E+00 -5.80105E-01 -6.51966E-01 -1.13821E+00 +2.83649E-01 -1.00632E+00
 +8.29966E-01 -2.62282E-01 +6.45138E-01 +6.45782E-01 -1.93157E-01 +1.12940E+00 -1.18722E+00 +8.10909E-01
 -1.68672E+00 -2.13986E-01 -1.28616E+00 -1.38588E+00 -1.08662E-01 -1.99065E+00 +1.22170E+00 -1.59904E+00
 +1.93167E+00 -3.63441E-01 +1.57460E+00 +1.03325E+00 +3.32738E-01 +1.77030E+00 -1.06012E+00 +1.39435E+00
 -1.74851E+00 +1.21031E-01 -1.28317E+00 -1.26914E+00 +8.21503E-02 -1.89338E+00 +1.52053E+00 -1.31160E+00
 +2.12248E+00 +1.83391E-01 +1.45460E+00 +1.71876E+00 -1.56469E-01 +2.35614E+00 -1.79604E+00 +1.66228E+00
 -2.49653E+00 -1.07348E-02 -1.82016E+00 -1.71287E+00 -1.38546E-01 -2.44985E+00 +1.56712E+00 -1.77940E+00
 +2.27816E+00 -9.28926E-02 +1.55037E+00 +1.59551E+00 -2.00135E-01 +2.24102E+00 -1.91960E+00 +1.39862E+00
 -2.53176E+00 -4.86150E-01 -1.58905E+00 -2.31393E+00 +4.32491E-01 -2.97305E+00 +2.38765E+00 -2.01238E+00
 +3.13237E+00 +6.27006E-02 +2.21669E+00 +2.06649E+00 +1.76656E-01 +2.83324E+00 -1.76817E+00 +1.92587E+00
 -2.44400E+00 -8.33718E-02 -1.44026E+00 -1.94582E+00 +6.29444E-01 -2.49109E+00 +2.49273E+00 -1.34359E+00
 +2.99174E+00 +8.44043E-01 +1.78729E+00 +2.78814E+00 -4.41970E-01 +3.35515E+00 -2.42355E+00 +2.24062E+00
 -3.06595E+00 +1.29742E-01 -2.09906E+00 -1.74447E+00 -1.94722E-01 -2.35226E+00 +1.47939E+00 -1.45659E+00
 +1.96812E+00 +3.03338E-01 +1.05759E+00 +1.84468E+00 -6.69583E-01 +2.28730E+00 -2.23175E+00 +1.41672E+00
 -2.81443E+00 -2.74162E-01 -2.16805E+00 -1.92280E+00 -6.56780E-01 -2.76750E+00 +9.93327E-01 -2.48681E+00
 +2.05813E+00 -1.28129E+00 +2.11046E+00 +2.67392E-01 +1.16406E+00 +1.44911E+00 -3.34410E-01 +1.69739E+00
 -1.65097E+00 +8.26939E-01 -2.04189E+00 -8.25172E-01 -1.11620E+00 -2.45116E+00 +8.64870E-01 -3.08980E+00
 +2.96800E+00 -2.14271E+00 +3.98204E+00 +1.68088E-01 +3.11131E+00 +2.73916E+00 +5.80601E-01 +4.09473E+00
 -2.30011E+00 +3.27142E+00 -3.79453E+00 +5.49003E-01 -2.82015E+00 -2.52347E+00 +2.27482E-01 -3.96610E+00
 +3.53197E+00 -2.63563E+00 +4.89509E+00 +8.98122E-01 +3.17153E+00 +4.53534E+00 -8.49588E-01 +5.89602E+00
 -4.79080E+00 +3.88990E+00 -6.14363E+00 -4.46646E-01 -3.93135E+00 -4.48768E+00 +5.47646E-01 -5.66544E+00
 +4.46438E+00 -3.17572E+00 +5.26703E+00 +1.41686E+00 +2.37433E+00 +5.13382E+00 -2.39323E+00 +5.50879E+00
 -5.96747E+00 +2.21434E+00 -6.02601E+00 -2.70488E+00 -2.50260E+00 -6.15943E+00 +2.38767E+00 -6.02022E+00
 +5.61009E+00 -2.47029E+00 +5.26974E+00 +2.17268E+00 +1.77362E+00 +5.00351E+00 -2.52952E+00 +4.38850E+00
 -4.92614E+00 +9.20589E-01 -4.04920E+00 -3.09006E+00 -6.24054E-01 -5.16520E+00 +3.14565E+00 -4.18538E+00
 +5.04339E+00 -9.40003E-01 +4.15902E+00 +2.53928E+00 +1.27011E+00 +4.30997E+00 -1.82074E+00 +3.62140E+00
 -3.44221E+00 +1.16636E+00 -2.94616E+00 -1.52175E+00 -8.77172E-01 -3.02116E+00 +1.51932E+00 -2.72286E+00
 +3.03018E+00 -9.70331E-01 +3.01714E+00 +1.27820E+00 +1.58005E+00 +2.96325E+00 -5.94248E-01 +3.34972E+00
 -2.53872E+00 +2.26413E+00 -3.36241E+00 +1.50590E-01 -2.60615E+00 -2.05460E+00 -5.12366E-01 -3.25957E+00
 +1.95370E+00 -2.72609E+00 +3.46915E+00 -5.46803E-01 +3.03980E+00 +2.22851E+00 +6.66498E-01 +4.02984E+00
 -2.46835E+00 +3.64217E+00 -4.54548E+00 +1.03279E+00 -4.17259E+00 -2.44678E+00 -1.33736E+00 -4.74019E+00
 +2.41717E+00 -4.32693E+00 +4.82253E+00 -1.26181E+00 +4.28138E+00 +2.71220E+00 +9.52870E-01 +5.14937E+00
 -3.22486E+00 +4.42523E+00 -5.67031E+00 +8.29343E-01 -4.77728E+00 -3.52168E+00 -9.80426E-01 -5.95619E+00
 +3.45135E+00 -4.92587E+00 +5.80262E+00 -1.01512E+00 +4.61486E+00 +3.38650E+00 +6.18244E-01 +5.56225E+00
 -3.71058E+00 +4.16524E+00 -5.68905E+00 +5.87308E-02 -4.09253E+00 -4.22831E+00 +1.03905E-01 -6.07675E+00
 +4.35551E+00 -4.38589E+00 +6.13202E+00 -2.15943E-01 +4.45435E+00 +3.90875E+00 +4.41541E-01 +5.56873E+00
 -3.43322E+00 +3.90284E+00 -4.87653E+00 +6.67310E-02 -3.13808E+00 -3.53960E+00 +6.09924E-01 -4.75471E+00
 +4.05687E+00 -2.92573E+00 +5.17272E+00 +7.81410E-01 +3.38358E+00 +4.16209E+00 -1.76787E-01 +5.31747E+00
 -3.42930E+00 +3.73593E+00 -4.61041E+00 +4.95432E-01 -3.26019E+00 -2.46827E+00 -3.84767E-01 -3.53120E+00
 +2.23348E+00 -2.27713E+00 +3.10719E+00 +3.70877E-01 +1.84979E+00 +2.78674E+00 -7.13619E-01 +3.60782E+00
 -3.11680E+00 +2.45387E+00 -4.10807E+00 +2.90394E-02 -3.28727E+00 -2.36996E+00 -1.21249E+00 -3.59357E+00
 +9.99946E-01 -3.20146E+00 +2.29597E+00 -1.58890E+00 +2.18080E+00 +3.08999E-01 +8.81517E-01 +1.51854E+00
 -8.33823E-01 +1.47316E+00 -2.04261E+00 +2.29829E-01 -2.07939E+00 -1.58881E+00 -8.24264E-01 -3.07489E+00
 +1.22727E+00 -3.43329E+00 +3.15181E+00 -2.35891E+00 +4.00414E+00 -2.34466E-01 +3.29710E+00 +1.98130E+00
 +1.32194E+00 +3.18980E+00 -9.09161E-01 +2.74421E+00 -2.15022E+00 +8.80833E-01 -1.62880E+00 -1.30857E+00
 +4.28747E-01 -2.43351E+00 +2.82063E+00 -1.62639E+00 +4.01098E+00 +8.59317E-01 +3.05855E+00 +3.69270E+00
 +2.64317E-01 +5.20070E+00 -2.91410E+00 +4.39100E+00 -4.69433E+00 +1.62380E+00 -4.06793E+00 -1.53303E+00
 -1.47114E+00 -3.22882E+00 +1.43192E+00 -2.48237E+00 +2.75793E+00 +1.71442E-01 +1.58701E+00 +2.97777E+00
 -1.43410E+00 +4.04067E+00 -4.46820E+00 +2.51378E+00 -5.61976E+00 -8.53530E-01 -4.11314E+00 -4.16654E+00
 -7.74554E-01 -5.55120E+00 +2.48158E+00 -4.30264E+00 +3.83270E+00 -1.30140E+00 +2.65427E+00 +1.54958E+00
 -1.26640E-01 +2.50135E+00 -2.62829E+00 +1.01576E+00 -3.17389E+00 -1.93539E+00 -1.29855E+00 -4.48653E+00
 +1.99393E+00 -5.01291E+00 +4.85312E+00 -3.09324E+00 +5.68845E+00 +2.61813E-01 +4.09712E+00 +3.22720E+00
 +1.07767E+00 +4.24388E+00 -1.57786E+00 +2.92374E+00 -2.34529E+00 +2.58326E-01 -8.62695E-01 -1.98030E+00
 +1.85994E+00 -2.29381E+00 +4.03851E+00 -3.53552E-01 +4.17701E+00 +2.78803E+00 +1.97465E+00 +5.30607E+00
 -1.46536E+00 +5.68855E+00 -4.27059E+00 +3.65957E+00 -4.92038E+00 +3.75012E-01 -3.18310E+00 -2.25532E+00
 -2.82406E-01 -2.73262E+00 +1.84130E+00 -9.10941E-01 +1.74256E+00 +1.88710E+00 -5.98491E-01 +3.68518E+00
 -3.73380E+00 +3.10841E+00 -5.64944E+00 +2.81798E-01 -5.05317E+00 -3.22211E+00 -2.21600E+00 -5.37579E+00
 +1.19264E+00 -4.99731E+00 +3.18240E+00 -2.50774E+00 +2.72883E+00 +3.58915E-01 +4.19029E-01 +1.70387E+00
 -1.96943E+00 +7.05204E-01 -2.66536E+00 -1.87257E+00 -1.06732E+00 -4.22735E+00 +1.90008E+00 -4.73585E+00
 +4.44904E+00 -3.00684E+00 +5.12947E+00 -7.58338E-02 +3.74288E+00 +2.34759E+00 +1.37712E+00 +3.02593E+00
