 Created: 16-Jan-2021
 $NMID
 ID='D:\BASISSIMULATI'
 FMTDAT='(8E13.5)'
 VOLUME=   1.00000E+00
 TRAMP=   1.00000E+00
 $END
 +2.88540E+01 +1.14017E-01 +1.79314E+01 +2.12949E+01 -4.98374E+00 +2.40137E+01 -1.87541E+01 +7.11071E+00
 -1.14420E+01 -1.21506E+01 +8.48526E+00 -1.47565E+01 +2.05012E+01 +1.88361E+00 +1.17932E+01 +2.15977E+01
 -1.04880E+01 +2.50400E+01 -2.61151E+01 +8.19566E+00 -2.10841E+01 -1.38599E+01 -8.33145E-01 -2.13983E+01
 +1.51482E+01 -8.75922E+00 +1.20068E+01 +1.05060E+01 -6.41265E+00 +1.68274E+01 -2.14757E+01 +3.39402E+00
 -1.77273E+01 -1.74267E+01 +2.33702E+00 -2.60186E+01 +2.07349E+01 -1.42473E+01 +2.11750E+01 +6.90828E+00
 +4.44587E+00 +1.79698E+01 -1.26001E+01 +9.51815E+00 -1.33133E+01 -9.04512E+00 +2.89344E+00 -1.87524E+01
 +2.01772E+01 -9.31793E+00 +2.15566E+01 +1.10952E+01 +5.12211E+00 +2.37859E+01 -1.42671E+01 +1.73656E+01
 -1.92394E+01 -1.54628E+00 -6.36613E+00 -1.48598E+01 +1.08502E+01 -1.03452E+01 +1.51124E+01 +6.85877E+00
 +1.88089E+00 +1.94192E+01 -1.64432E+01 +1.45159E+01 -2.25129E+01 -3.96375E+00 -1.05824E+01 -1.92746E+01
 +8.18298E+00 -1.78264E+01 +1.65173E+01 -1.97572E+00 +7.48156E+00 +1.25022E+01 -9.17439E+00 +1.16280E+01
 -1.65993E+01 -3.52721E+00 -7.02076E+00 -1.81033E+01 +1.09568E+01 -1.78037E+01 +2.07279E+01 -2.49793E+00
 +1.35338E+01 +1.38307E+01 -3.38153E+00 +1.65214E+01 -1.39165E+01 +4.08583E+00 -8.51934E+00 -1.06715E+01
 +6.90190E+00 -1.31027E+01 +1.69037E+01 -6.81642E-01 +1.13767E+01 +1.47927E+01 -4.90943E+00 +1.86327E+01
 -1.70448E+01 +7.24284E+00 -1.42460E+01 -8.66256E+00 +5.28051E-02 -1.44503E+01 +1.17639E+01 -5.46090E+00
 +9.71995E+00 +8.82853E+00 -3.80672E+00 +1.41196E+01 -1.55437E+01 +4.98210E+00 -1.40391E+01 -1.01447E+01
 -4.99391E-01 -1.71993E+01 +1.25816E+01 -9.90288E+00 +1.34435E+01 +4.47992E+00 +2.12129E+00 +1.23111E+01
 -9.89781E+00 +6.60651E+00 -1.08371E+01 -6.53948E+00 +2.00858E-01 -1.40569E+01 +1.26288E+01 -8.46247E+00
 +1.46553E+01 +5.16032E+00 +4.46518E+00 +1.42325E+01 -8.29555E+00 +1.07150E+01 -1.18935E+01 -1.44177E+00
 -3.60849E+00 -1.03559E+01 +7.97063E+00 -7.64880E+00 +1.13914E+01 +3.74123E+00 +3.25692E+00 +1.26503E+01
 -8.76285E+00 +1.04694E+01 -1.34558E+01 -7.80616E-01 -6.72944E+00 -1.06277E+01 +4.74146E+00 -1.02350E+01
 +1.01188E+01 -6.50665E-01 +4.72516E+00 +8.50504E+00 -5.75853E+00 +8.38646E+00 -1.09914E+01 -7.56047E-01
 -5.88351E+00 -1.00940E+01 +4.75658E+00 -1.08085E+01 +1.10480E+01 -2.39547E+00 +7.48013E+00 +7.12675E+00
 -2.07233E+00 +9.02957E+00 -8.32994E+00 +2.08111E+00 -5.52349E+00 -6.58731E+00 +3.31803E+00 -8.50658E+00
 +9.54755E+00 -1.89165E+00 +7.24263E+00 +6.92035E+00 -1.32675E+00 +9.71839E+00 -8.13187E+00 +4.18510E+00
 -7.12363E+00 -4.17032E+00 +2.00745E-01 -7.49213E+00 +6.53473E+00 -3.02408E+00 +5.86477E+00 +4.54437E+00
 -9.53194E-01 +7.81011E+00 -7.30200E+00 +3.71790E+00 -7.25562E+00 -3.77016E+00 -1.08612E+00 -7.69376E+00
 +5.28334E+00 -4.72424E+00 +6.07364E+00 +1.92158E+00 +1.01519E+00 +5.82082E+00 -4.70538E+00 +3.49707E+00
 -5.58147E+00 -2.50624E+00 -9.37189E-01 -6.33264E+00 +4.71231E+00 -4.45324E+00 +6.15286E+00 +1.18408E+00
 +2.34670E+00 +5.28310E+00 -2.86794E+00 +4.30501E+00 -4.64201E+00 -3.80894E-01 -1.66039E+00 -4.10082E+00
 +2.89644E+00 -3.42819E+00 +4.61745E+00 +7.41426E-01 +2.02484E+00 +4.33531E+00 -2.28423E+00 +4.09564E+00
 -4.34104E+00 +5.08622E-01 -2.55037E+00 -2.94857E+00 +1.06222E+00 -3.24217E+00 +3.03183E+00 -5.02767E-01
 +1.74753E+00 +2.40355E+00 -1.27169E+00 +2.76045E+00 -3.08660E+00 +4.53050E-01 -2.15559E+00 -2.21233E+00
 +4.35642E-01 -2.86546E+00 +2.26835E+00 -1.20408E+00 +1.92020E+00 +1.00996E+00 +8.12832E-02 +1.80589E+00
 -1.38199E+00 +7.71958E-01 -1.26057E+00 -8.45426E-01 +6.21688E-02 -1.52868E+00 +1.25428E+00 -8.54631E-01
 +1.37679E+00 +3.79388E-01 +5.77158E-01 +1.11768E+00 -3.29748E-01 +9.81963E-01 -7.22995E-01 +3.54437E-01
 -5.74211E-01 -2.06077E-01 -1.85609E-01 -4.48959E-01 +2.09609E-01 -4.01751E-01 +5.00984E-01 -1.10665E-01
 +5.22818E-01 +3.80402E-01 +8.76913E-02 +8.18897E-01 -6.81631E-01 +7.48629E-01 -1.18726E+00 -4.50631E-02
 -7.87781E-01 -1.08285E+00 +4.51028E-01 -1.39962E+00 +1.53417E+00 -4.51933E-01 +1.32618E+00 +1.12969E+00
 -2.51618E-01 +1.88552E+00 -1.87052E+00 +8.83447E-01 -1.89080E+00 -1.17619E+00 -2.25834E-02 -2.37244E+00
 +2.12823E+00 -1.34742E+00 +2.41017E+00 +1.19218E+00 +2.60173E-01 +2.88546E+00 -2.49143E+00 +1.90008E+00
 -3.16709E+00 -1.12946E+00 -8.52223E-01 -3.43934E+00 +2.47843E+00 -2.68179E+00 +3.63831E+00 +6.67520E-01
 +1.30705E+00 +3.50298E+00 -2.46701E+00 +2.95214E+00 -4.00971E+00 -7.25549E-01 -1.55188E+00 -4.12074E+00
 +2.84208E+00 -3.80745E+00 +5.01475E+00 +2.48779E-01 +2.67817E+00 +4.39333E+00 -2.18508E+00 +4.62980E+00
 -4.98701E+00 +5.45597E-01 -2.89506E+00 -4.04584E+00 +2.25839E+00 -4.60443E+00 +5.49588E+00 -3.04249E-01
 +3.41687E+00 +4.92186E+00 -2.35348E+00 +5.97225E+00 -6.46891E+00 +1.52702E+00 -4.90189E+00 -4.44677E+00
 +1.04273E+00 -6.30551E+00 +5.74352E+00 -2.17124E+00 +4.56482E+00 +4.05182E+00 -1.55257E+00 +6.23645E+00
 -6.75360E+00 +1.93995E+00 -5.77944E+00 -5.02643E+00 +8.55719E-01 -8.03710E+00 +7.10759E+00 -3.99686E+00
 +7.05887E+00 +3.49454E+00 +6.82877E-01 +7.38468E+00 -5.91462E+00 +3.90677E+00 -6.22763E+00 -3.63145E+00
 +3.13207E-01 -7.82051E+00 +7.56216E+00 -4.23416E+00 +8.40104E+00 +4.13572E+00 +1.63628E+00 +9.51400E+00
 -6.63066E+00 +6.72540E+00 -8.68110E+00 -1.70336E+00 -2.61043E+00 -7.76304E+00 +5.66086E+00 -5.57731E+00
 +7.92127E+00 +2.82511E+00 +1.59586E+00 +9.25111E+00 -7.56868E+00 +7.12994E+00 -1.08261E+01 -2.04410E+00
 -4.82095E+00 -9.91073E+00 +5.01268E+00 -9.13569E+00 +9.47841E+00 -5.20366E-01 +4.41807E+00 +7.58772E+00
 -5.15153E+00 +7.21074E+00 -9.69497E+00 -1.50783E+00 -4.31200E+00 -1.02363E+01 +6.37519E+00 -1.03268E+01
 +1.24415E+01 -1.18941E+00 +8.11383E+00 +8.93235E+00 -2.57190E+00 +1.07098E+01 -9.47097E+00 +2.69414E+00
 -6.01016E+00 -7.14925E+00 +4.39045E+00 -8.97933E+00 +1.14352E+01 -5.85660E-01 +7.79068E+00 +1.02940E+01
 -3.73577E+00 +1.32337E+01 -1.26717E+01 +5.12950E+00 -1.08062E+01 -6.66144E+00 -1.20064E-01 -1.12150E+01
 +8.97613E+00 -4.49464E+00 +7.56577E+00 +6.66583E+00 -3.12751E+00 +1.10096E+01 -1.27445E+01 +3.68851E+00
 -1.16411E+01 -8.90756E+00 -2.25280E-01 -1.50879E+01 +1.12414E+01 -9.01571E+00 +1.23391E+01 +3.59645E+00
 +2.48221E+00 +1.08266E+01 -8.41958E+00 +5.93699E+00 -9.40583E+00 -6.07536E+00 +9.46362E-01 -1.31566E+01
 +1.29850E+01 -7.75316E+00 +1.51092E+01 +5.79834E+00 +4.91247E+00 +1.52321E+01 -8.36696E+00 +1.20045E+01
 -1.25625E+01 -4.82318E-01 -4.21332E+00 -1.00467E+01 +8.04930E+00 -7.37250E+00 +1.17223E+01 +4.97703E+00
 +2.47812E+00 +1.48906E+01 -1.15188E+01 +1.22742E+01 -1.72760E+01 -1.17747E+00 -9.37967E+00 -1.34305E+01
 +4.74025E+00 -1.35143E+01 +1.18250E+01 -2.01732E+00 +5.46221E+00 +9.42539E+00 -7.71234E+00 +9.26745E+00
 -1.43150E+01 -2.79968E+00 -7.07543E+00 -1.54100E+01 +8.05134E+00 -1.63238E+01 +1.74177E+01 -4.18677E+00
 +1.26625E+01 +1.00488E+01 -1.26883E+00 +1.34980E+01 -1.08084E+01 +3.64718E+00 -6.75487E+00 -9.21635E+00
 +6.84865E+00 -1.18578E+01 +1.65106E+01 -8.56251E-01 +1.22116E+01 +1.39700E+01 -2.89670E+00 +1.88399E+01
 -1.53577E+01 +9.17357E+00 -1.41807E+01 -5.96624E+00 -1.32745E+00 -1.24786E+01 +1.01626E+01 -4.69850E+00
 +8.68199E+00 +9.16111E+00 -4.74853E+00 +1.48706E+01 -1.73558E+01 +5.87737E+00 -1.67950E+01 -1.02830E+01
 -3.00960E+00 -1.90584E+01 +1.16129E+01 -1.27271E+01 +1.40011E+01 +2.22361E+00 +2.85838E+00 +1.12927E+01
 -1.01220E+01 +5.85359E+00 -1.14962E+01 -8.55193E+00 +9.66580E-01 -1.74941E+01 +1.60296E+01 -1.15018E+01
 +1.96524E+01 +4.77223E+00 +8.40386E+00 +1.68780E+01 -7.22243E+00 +1.42942E+01 -1.28021E+01 +4.36163E-01
 -3.74927E+00 -1.06530E+01 +1.03215E+01 -7.79124E+00 +1.48431E+01 +6.57536E+00 +4.32501E+00 +1.86573E+01
 -1.22755E+01 +1.65047E+01 -2.00134E+01 +1.48436E+00 -1.21802E+01 -1.29516E+01 +3.31561E+00 -1.40536E+01
 +1.15324E+01 -1.89901E+00 +4.80113E+00 +1.07534E+01 -9.93691E+00 +1.07518E+01 -1.77973E+01 -2.77570E+00
 -1.02530E+01 -1.75046E+01 +6.62050E+00 -1.96493E+01 +1.78601E+01 -7.12942E+00 +1.38358E+01 +8.43312E+00
 -6.23085E-01 +1.28029E+01 -1.09243E+01 +2.69922E+00 -6.73388E+00 -1.11360E+01 +8.09995E+00 -1.43017E+01
 +1.92191E+01 -2.60701E+00 +1.55071E+01 +1.38329E+01 -2.43464E-01 +2.01948E+01 -1.39521E+01 +1.10550E+01
 -1.36468E+01 -4.48551E+00 -8.18451E-01 -1.15468E+01 +1.11163E+01 -3.70437E+00 +9.74893E+00 +1.09067E+01
 -4.38200E+00 +1.74422E+01 -1.82668E+01 +8.61870E+00 -1.88436E+01 -8.25604E+00 -5.46532E+00 -1.82069E+01
 +9.49928E+00 -1.28264E+01 +1.24799E+01 +1.79410E+00 +1.61382E+00 +1.09937E+01 -1.15837E+01 +5.62429E+00
 -1.33472E+01 -9.19865E+00 -9.08359E-01 -1.90243E+01 +1.48076E+01 -1.39229E+01 +1.95854E+01 +2.00036E+00
 +9.44415E+00 +1.45104E+01 -5.64120E+00 +1.27920E+01 -1.13355E+01 -3.26748E-01 -2.63766E+00 -1.12198E+01
 +1.14186E+01 -8.60076E+00 +1.65063E+01 +5.64442E+00 +6.77696E+00 +1.82673E+01 -9.51525E+00 +1.73271E+01
 -1.78731E+01 +3.57486E+00 -1.13368E+01 -1.03083E+01 +2.99113E+00 -1.18310E+01 +1.08587E+01 -5.45533E-01
 +4.54124E+00 +1.16685E+01 -9.81107E+00 +1.20917E+01 -1.81294E+01 -6.13238E-01 -1.19235E+01 -1.51178E+01
 +3.60601E+00 -1.82449E+01 +1.45495E+01 -7.49665E+00 +1.15312E+01 +6.66382E+00 -1.46483E+00 +1.08820E+01
 -1.10654E+01 +1.64595E+00 -7.39479E+00 -1.14750E+01 +6.48116E+00 -1.51043E+01 +1.75365E+01 -4.90592E+00
 +1.52586E+01 +1.02773E+01 +1.65088E+00 +1.68759E+01 -1.07511E+01 +9.48866E+00 -1.08642E+01 -4.10120E+00
 +4.56761E-01 -1.04976E+01 +1.14058E+01 -3.52796E+00 +1.06415E+01 +9.93441E+00 -1.84341E+00 +1.66483E+01
 -1.47544E+01 +9.70630E+00 -1.63037E+01 -4.89708E+00 -5.40250E+00 -1.40345E+01 +7.42344E+00 -9.94381E+00
 +1.01655E+01 +2.50634E+00 +7.55185E-01 +1.06433E+01 -1.11090E+01 +6.18841E+00 -1.33674E+01 -6.86866E+00
 -3.16240E+00 -1.61721E+01 +1.04779E+01 -1.28408E+01 +1.52963E+01 +1.09789E-01 +7.44557E+00 +1.07420E+01
 -4.99602E+00 +9.60994E+00 -9.87914E+00 -1.33951E+00 -2.60160E+00 -1.08135E+01 +9.60842E+00 -9.08594E+00
 +1.47293E+01 +2.71706E+00 +7.46821E+00 +1.37747E+01 -5.74846E+00 +1.39440E+01 -1.29825E+01 +3.36856E+00
