 Created: 16-Jan-2021
 $NMID
 ID='D:\BASISSIMULATI'
 FMTDAT='(8E13.5)'
 VOLUME=   1.00000E+00
 TRAMP=   1.00000E+00
 $END
 +3.11650E+01 +9.40622E-02 +3.04716E+01 +6.59463E+00 +2.81272E+01 +1.27134E+01 +2.42950E+01 +1.80126E+01
 +1.92544E+01 +2.21169E+01 +1.33783E+01 +2.47439E+01 +7.10344E+00 +2.57263E+01 +8.94744E-01 +2.50254E+01
 -4.79176E+00 +2.27333E+01 -9.54559E+00 +1.90652E+01 -1.30343E+01 +1.43403E+01 -1.50294E+01 +8.95603E+00
 -1.54234E+01 +3.35455E+00 -1.42368E+01 -2.01305E+00 -1.16148E+01 -6.72328E+00 -7.81284E+00 -1.04140E+01
 -3.17471E+00 -1.28123E+01 +1.89754E+00 -1.37552E+01 +6.97732E+00 -1.32003E+01 +1.16488E+01 -1.12266E+01
 +1.55405E+01 -8.02498E+00 +1.83550E+01 -3.87998E+00 +1.98907E+01 +8.56327E-01 +2.00568E+01 +5.79520E+00
 +1.88765E+01 +1.05446E+01 +1.64825E+01 +1.47417E+01 +1.31020E+01 +1.80828E+01 +9.03474E+00 +2.03465E+01
 +4.62496E+00 +2.14103E+01 +2.30846E-01 +2.12568E+01 -3.80684E+00 +1.99725E+01 -7.19353E+00 +1.77363E+01
 -9.70486E+00 +1.48003E+01 -1.12039E+01 +1.14658E+01 -1.16500E+01 +8.05448E+00 -1.10993E+01 +4.87926E+00
 -9.69638E+00 +2.21639E+00 -7.65802E+00 +2.81764E-01 -5.25143E+00 -7.86897E-01 -2.76808E+00 -9.40293E-01
 -4.96118E-01 -2.19613E-01 +1.30629E+00 +1.24966E+00 +2.43437E+00 +3.27150E+00 +2.75476E+00 +5.59917E+00
 +2.21669E+00 +7.95945E+00 +8.55425E-01 +1.00787E+01 -1.21225E+00 +1.17087E+01 -3.79995E+00 +1.26498E+01
 -6.66981E+00 +1.27689E+01 -9.55511E+00 +1.20122E+01 -1.21854E+01 +1.04090E+01 -1.43115E+01 +8.06948E+00
 -1.57288E+01 +5.17397E+00 -1.62960E+01 +1.95658E+00 -1.59479E+01 -1.31623E+00 -1.47021E+01 -4.36984E+00
 -1.26570E+01 -6.94623E+00 -9.98383E+00 -8.82729E+00 -6.91120E+00 -9.85443E+00 -3.70532E+00 -9.94292E+00
 -6.46592E-01 -9.08967E+00 +1.99490E+00 -7.37380E+00 +3.98295E+00 -4.95016E+00 +5.13580E+00 -2.03610E+00
 +5.34195E+00 +1.10697E+00 +4.56988E+00 +4.19585E+00 +2.87090E+00 +6.94954E+00 +3.74895E-01 +9.11305E+00
 -2.72051E+00 +1.04788E+01 -6.16652E+00 +1.09040E+01 -9.68392E+00 +1.03223E+01 -1.29862E+01 +8.74934E+00
 -1.58033E+01 +6.28082E+00 -1.79032E+01 +3.08454E+00 -1.91114E+01 -6.13880E-01 -1.93237E+01 -4.54970E+00
 -1.85145E+01 -8.44086E+00 -1.67381E+01 -1.20109E+01 -1.41227E+01 -1.50110E+01 -1.08599E+01 -1.72398E+01
 -7.18774E+00 -1.85583E+01 -3.37101E+00 -1.89002E+01 +3.20218E-01 -1.82756E+01 +3.63238E+00 -1.67687E+01
 +6.34821E+00 -1.45292E+01 +8.30317E+00 -1.17590E+01 +9.39722E+00 -8.69440E+00 +9.60102E+00 -5.58665E+00
 +8.95624E+00 -2.68113E+00 +7.57007E+00 -1.97962E-01 +5.60450E+00 +1.68489E+00 +3.26156E+00 +2.84461E+00
 +7.65587E-01 +3.22154E+00 -1.65569E+00 +2.82185E+00 -3.78974E+00 +1.71471E+00 -5.45598E+00 +2.43048E-02
 -6.51933E+00 -2.08228E+00 -6.89952E+00 -4.41037E+00 -6.57558E+00 -6.75475E+00 -5.58521E+00 -8.91690E+00
 -4.01938E+00 -1.07212E+01 -2.01262E+00 -1.20282E+01 +2.69848E-01 -1.27452E+01 +2.64716E+00 -1.28315E+01
 +4.93845E+00 -1.22998E+01 +6.97800E+00 -1.12131E+01 +8.62838E+00 -9.67678E+00 +9.79081E+00 -7.82826E+00
 +1.04117E+01 -5.82401E+00 +1.04853E+01 -3.82540E+00 +1.00520E+01 -1.98489E+00 +9.19276E+00 -4.33471E-01
 +8.02058E+00 +7.29566E-01 +6.66939E+00 +1.44371E+00 +5.28164E+00 +1.69073E+00 +3.99569E+00 +1.49443E+00
 +2.93411E+00 +9.16818E-01 +2.19370E+00 +5.11628E-02 +1.83826E+00 -9.87301E-01 +1.89434E+00 -2.07220E+00
 +2.35040E+00 -3.07736E+00 +3.15924E+00 -3.88766E+00 +4.24337E+00 -4.40848E+00 +5.50273E+00 -4.57313E+00
 +6.82400E+00 -4.34751E+00 +8.09067E+00 -3.73189E+00 +9.19303E+00 -2.75968E+00 +1.00371E+01 -1.49355E+00
 +1.05518E+01 -1.91418E-02 +1.06945E+01 +1.56277E+00 +1.04527E+01 +3.14512E+00 +9.84486E+00 +4.62349E+00
 +8.91716E+00 +5.90452E+00 +7.73896E+00 +6.91295E+00 +6.39630E+00 +7.59698E+00 +4.98439E+00 +7.93140E+00
 +3.59969E+00 +7.91847E+00 +2.33229E+00 +7.58657E+00 +1.25916E+00 +6.98680E+00 +4.38776E-01 +6.18795E+00
 -9.25222E-02 +5.27033E+00 -3.22222E-01 +4.31909E+00 -2.61399E-01 +3.41741E+00 +5.73458E-02 +2.64030E+00
 +5.83484E-01 +2.04943E+00 +1.25331E+00 +1.68916E+00 +1.99540E+00 +1.58424E+00 +2.73632E+00 +1.73910E+00
 +3.40606E+00 +2.13867E+00 +3.94293E+00 +2.75063E+00 +4.29742E+00 +3.52873E+00 +4.43499E+00 +4.41687E+00
 +4.33749E+00 +5.35366E+00 +4.00341E+00 +6.27690E+00 +3.44689E+00 +7.12781E+00 +2.69579E+00 +7.85474E+00
 +1.78896E+00 +8.41600E+00 +7.73027E-01 +8.78186E+00 -3.00992E-01 +8.93560E+00 -1.38113E+00 +8.87365E+00
 -2.41760E+00 +8.60493E+00 -3.36559E+00 +8.14948E+00 -4.18745E+00 +7.53663E+00 -4.85435E+00 +6.80278E+00
 -5.34734E+00 +5.98899E+00 -5.65783E+00 +5.13855E+00 -5.78748E+00 +4.29460E+00 -5.74772E+00 +3.49792E+00
 -5.55881E+00 +2.78489E+00 -5.24855E+00 +2.18579E+00 -4.85068E+00 +1.72334E+00 -4.40317E+00 +1.41161E+00
 -3.94612E+00 +1.25529E+00 -3.51968E+00 +1.24932E+00 -3.16182E+00 +1.37901E+00 -2.90610E+00 +1.62062E+00
 -2.77952E+00 +1.94244E+00 -2.80061E+00 +2.30637E+00 -2.97787E+00 +2.67006E+00 -3.30860E+00 +2.98939E+00
 -3.77850E+00 +3.22138E+00 -4.36188E+00 +3.32720E+00 -5.02274E+00 +3.27523E+00 -5.71669E+00 +3.04384E+00
 -6.39366E+00 +2.62370E+00 -7.00124E+00 +2.01938E+00 -7.48859E+00 +1.24997E+00 -7.81047E+00 +3.48678E-01
 -7.93124E+00 -6.38770E-01 -7.82841E+00 -1.65690E+00 -7.49535E+00 -2.64428E+00 -6.94297E+00 -3.53805E+00
 -6.20005E+00 -4.27906E+00 -5.31203E+00 -4.81697E+00 -4.33839E+00 -5.11505E+00 -3.34853E+00 -5.15418E+00
 -2.41657E+00 -4.93559E+00 -1.61535E+00 -4.48207E+00 -1.01010E+00 -3.83737E+00 -6.52338E-01 -3.06376E+00
 -5.74634E-01 -2.23778E+00 -7.86563E-01 -1.44452E+00 -1.27250E+00 -7.70663E-01 -1.99144E+00 -2.97122E-01
 -2.87907E+00 -9.15567E-02 -3.85197E+00 -2.01706E-01 -4.81378E+00 -6.50022E-01 -5.66282E+00 -1.43022E+00
 -6.30069E+00 -2.50616E+00 -6.64097E+00 -3.81324E+00 -6.61744E+00 -5.26242E+00 -6.19091E+00 -6.74652E+00
 -5.35410E+00 -8.14852E+00 -4.13398E+00 -9.35106E+00 -2.59125E+00 -1.02465E+01 -8.16849E-01 -1.07466E+01
 +1.07428E+00 -1.07910E+01 +2.95181E+00 -1.03537E+01 +4.68038E+00 -9.44678E+00 +6.13079E+00 -8.12129E+00
 +7.19118E+00 -6.46429E+00 +7.77718E+00 -4.59324E+00 +7.84006E+00 -2.64723E+00 +7.37224E+00 -7.76187E-01
 +6.40937E+00 +8.71362E-01 +5.02894E+00 +2.16077E+00 +3.34514E+00 +2.98304E+00 +1.50055E+00 +3.26476E+00
 -3.44914E-01 +2.97542E+00 -2.02688E+00 +2.13122E+00 -3.39012E+00 +7.95112E-01 -4.30176E+00 -9.27165E-01
 -4.66302E+00 -2.89475E+00 -4.41831E+00 -4.94251E+00 -3.56099E+00 -6.89419E+00 -2.13503E+00 -8.57687E+00
 -2.32558E-01 -9.83539E+00 +2.01280E+00 -1.05457E+01 +4.43618E+00 -1.06257E+01 +6.85454E+00 -1.00431E+01
 +9.08156E+00 -8.81854E+00 +1.09430E+01 -7.02533E+00 +1.22914E+01 -4.78373E+00 +1.30187E+01 -2.25182E+00
 +1.30654E+01 +3.87146E-01 +1.24266E+01 +2.93971E+00 +1.11525E+01 +5.21814E+00 +9.34467E+00 +7.05612E+00
 +7.14837E+00 +8.32273E+00 +4.74030E+00 +8.93363E+00 +2.31416E+00 +8.85832E+00 +6.44389E-02 +8.12288E+00
 -1.82998E+00 +6.80801E+00 -3.22090E+00 +5.04225E+00 -4.00338E+00 +2.99123E+00 -4.12471E+00 +8.43563E-01
 -3.58886E+00 -1.20517E+00 -2.45611E+00 -2.96919E+00 -8.37845E-01 -4.28843E+00 +1.11314E+00 -5.04229E+00
 +3.21589E+00 -5.15997E+00 +5.27700E+00 -4.62657E+00 +7.10749E+00 -3.48420E+00 +8.53930E+00 -1.82828E+00
 +9.43991E+00 +2.00958E-01 +9.72394E+00 +2.43087E+00 +9.36059E+00 +4.67166E+00 +8.37623E+00 +6.73313E+00
 +6.85204E+00 +8.44160E+00 +4.91666E+00 +9.65526E+00 +2.73476E+00 +1.02768E+01 +4.92231E-01 +1.02621E+01
 -1.62041E+00 +9.62414E+00 -3.42518E+00 +8.43186E+00 -4.77268E+00 +6.80408E+00 -5.55562E+00 +4.89877E+00
 -5.71867E+00 +2.89891E+00 -5.26369E+00 +9.95936E-01 -4.24977E+00 -6.27606E-01 -2.78825E+00 -1.81474E+00
 -1.03285E+00 -2.44856E+00 +8.33906E-01 -2.46320E+00 +2.61716E+00 -1.85035E+00 +4.12732E+00 -6.60589E-01
 +5.19737E+00 +1.00047E+00 +5.69839E+00 +2.98110E+00 +5.55181E+00 +5.09658E+00 +4.73722E+00 +7.14540E+00
 +3.29521E+00 +8.92718E+00 +1.32474E+00 +1.02607E+01 -1.02475E+00 +1.10005E+01 -3.56572E+00 +1.10504E+01
 -6.08851E+00 +1.03732E+01 -8.37946E+00 +8.99457E+00 -1.02396E+01 +7.00252E+00 -1.15026E+01 +4.54045E+00
 -1.20494E+01 +1.79580E+00 -1.18197E+01 -1.01545E+00 -1.08185E+01 -3.66697E+00 -9.11604E+00 -5.94135E+00
 -6.84353E+00 -7.64896E+00 -4.18259E+00 -8.64453E+00 -1.35066E+00 -8.84020E+00 +1.41693E+00 -8.21386E+00
 +3.88658E+00 -6.81190E+00 +5.84618E+00 -4.74626E+00 +7.12311E+00 -2.18578E+00 +7.59926E+00 +6.57200E-01
 +7.22141E+00 +3.54412E+00 +6.00641E+00 +6.22980E+00 +4.04034E+00 +8.48278E+00 +1.47204E+00 +1.01045E+01
 -1.49874E+00 +1.09463E+01 -4.63751E+00 +1.09214E+01 -7.69413E+00 +1.00130E+01 -1.04233E+01 +8.27569E+00
 -1.26046E+01 +5.83131E+00 -1.40609E+01 +2.85903E+00 -1.46726E+01 -4.19147E-01 -1.43873E+01 -3.75655E+00
 -1.32247E+01 -6.90201E+00 -1.12738E+01 -9.62037E+00 -8.68644E+00 -1.17117E+01 -5.66377E+00 -1.30273E+01
 -2.44002E+00 -1.34817E+01 +7.37091E-01 -1.30592E+01 +3.62674E+00 -1.18145E+01 +6.01468E+00 -9.86780E+00
 +7.73061E+00 -7.39377E+00 +8.66171E+00 -4.60701E+00 +8.76129E+00 -1.74362E+00 +8.05181E+00 +9.58657E-01
 +6.62205E+00 +3.28022E+00 +4.61878E+00 +5.03770E+00 +2.23358E+00 +6.09875E+00 -3.13968E-01 +6.39246E+00
 -2.79523E+00 +5.91435E+00 -4.99210E+00 +4.72569E+00 -6.71534E+00 +2.94726E+00 -7.82034E+00 +7.48033E-01
 -8.21882E+00 -1.67008E+00 -7.88549E+00 -4.09020E+00 -6.85926E+00 -6.29942E+00 -5.23891E+00 -8.10732E+00
 -3.17348E+00 -9.36217E+00 -8.48563E-01 -9.96369E+00 +1.53061E+00 -9.87112E+00 +3.75746E+00 -9.10600E+00
 +5.64246E+00 -7.74945E+00 +7.02968E+00 -5.93427E+00 +7.81035E+00 -3.83251E+00 +7.93213E+00 -1.63967E+00
 +7.40319E+00 +4.43046E-01 +6.29110E+00 +2.22683E+00 +4.71622E+00 +3.55222E+00 +2.84062E+00 +4.30333E+00
 +8.53225E-01 +4.41810E+00 -1.04737E+00 +3.89379E+00 -2.67088E+00 +2.78711E+00 -3.85253E+00 +1.20906E+00
 -4.46801E+00 -6.84995E-01 -4.44481E+00 -2.70933E+00 -3.76892E+00 -4.66444E+00 -2.48643E+00 -6.35495E+00
 -6.99670E-01 -7.60722E+00 +1.44149E+00 -8.28495E+00 +3.75268E+00 -8.30171E+00 +6.03114E+00 -7.62900E+00
 +8.07349E+00 -6.29927E+00 +9.69363E+00 -4.40363E+00 +1.07393E+01 -2.08444E+00 +1.11056E+01 +4.76707E-01
 +1.07447E+01 +3.07436E+00 +9.67034E+00 +5.49683E+00 +7.95740E+00 +7.54433E+00 +5.73582E+00 +9.04631E+00
