 Created: 16-Jan-2021
 $NMID
 ID='D:\BASISSIMULATI'
 FMTDAT='(8E13.5)'
 VOLUME=   1.00000E+00
 TRAMP=   1.00000E+00
 $END
 +1.80031E+01 +6.34620E-01 +1.54060E+01 +8.99577E+00 +8.85364E+00 +1.46395E+01 +5.67172E-01 +1.58535E+01
 -6.66448E+00 +1.25169E+01 -1.05165E+01 +6.12925E+00 -9.98040E+00 -7.68719E-01 -5.71423E+00 -5.56220E+00
 +2.40369E-01 -6.54636E+00 +5.26072E+00 -3.55398E+00 +7.15568E+00 +2.00859E+00 +5.00062E+00 +7.72400E+00
 -5.20161E-01 +1.11037E+01 -7.38695E+00 +1.05426E+01 -1.30208E+01 +5.92626E+00 -1.52600E+01 -1.33347E+00
 -1.31646E+01 -8.83717E+00 -7.34902E+00 -1.40963E+01 +2.71102E-01 -1.54450E+01 +7.20778E+00 -1.26243E+01
 +1.13188E+01 -6.82774E+00 +1.15666E+01 -2.11167E-01 +8.34031E+00 +4.93352E+00 +3.23767E+00 +7.01905E+00
 -1.58915E+00 +5.70440E+00 -4.26208E+00 +1.94841E+00 -3.86254E+00 -2.42238E+00 -7.24949E-01 -5.44778E+00
 +3.75213E+00 -5.78128E+00 +7.68311E+00 -3.17136E+00 +9.42595E+00 +1.48915E+00 +8.18657E+00 +6.54184E+00
 +4.27928E+00 +1.02063E+01 -1.03441E+00 +1.12358E+01 -6.04516E+00 +9.34204E+00 -9.22967E+00 +5.24724E+00
 -9.77821E+00 +3.66205E-01 -7.82968E+00 -3.74010E+00 -4.34845E+00 -5.92508E+00 -7.13224E-01 -5.82568E+00
 +1.81097E+00 -3.92000E+00 +2.51650E+00 -1.27612E+00 +1.45779E+00 +8.91997E-01 -6.38582E-01 +1.68465E+00
 -2.70173E+00 +8.23620E-01 -3.74362E+00 -1.29270E+00 -3.22237E+00 -3.78590E+00 -1.21516E+00 -5.65409E+00
 +1.64613E+00 -6.14674E+00 +4.43436E+00 -5.02155E+00 +6.27283E+00 -2.60119E+00 +6.63747E+00 +3.73848E-01
 +5.51243E+00 +3.02740E+00 +3.35685E+00 +4.65446E+00 +9.10635E-01 +4.94354E+00 -1.07951E+00 +4.04494E+00
 -2.11223E+00 +2.47473E+00 -2.07698E+00 +9.01969E-01 -1.25239E+00 -9.77354E-02 -1.70342E-01 -2.35189E-01
 +5.96575E-01 +4.14540E-01 +6.45889E-01 +1.46698E+00 -1.17403E-01 +2.38760E+00 -1.45893E+00 +2.69467E+00
 -2.90925E+00 +2.13413E+00 -3.93668E+00 +7.68622E-01 -4.13679E+00 -1.04585E+00 -3.37410E+00 -2.78404E+00
 -1.82940E+00 -3.93164E+00 +6.14152E-02 -4.15986E+00 +1.75478E+00 -3.43536E+00 +2.78258E+00 -2.02905E+00
 +2.90861E+00 -4.21099E-01 +2.20488E+00 +8.65460E-01 +1.02123E+00 +1.44541E+00 -1.42043E-01 +1.20386E+00
 -8.15004E-01 +3.33579E-01 -7.29111E-01 -7.37455E-01 +8.26803E-02 -1.50431E+00 +1.29439E+00 -1.57409E+00
 +2.40368E+00 -8.17730E-01 +2.91697E+00 +5.71957E-01 +2.53707E+00 +2.14011E+00 +1.28416E+00 +3.32918E+00
 -4.96923E-01 +3.68211E+00 -2.24935E+00 +3.01554E+00 -3.39900E+00 +1.49779E+00 -3.56172E+00 -3.99795E-01
 -2.68660E+00 -2.06400E+00 -1.08114E+00 -2.95635E+00 +6.93792E-01 -2.80667E+00 +2.02269E+00 -1.71191E+00
 +2.45615E+00 -1.02523E-01 +1.87282E+00 +1.41283E+00 +5.22546E-01 +2.26802E+00 -1.06562E+00 +2.14519E+00
 -2.27716E+00 +1.08997E+00 -2.63678E+00 -5.05876E-01 -1.98174E+00 -2.04773E+00 -5.21262E-01 -2.95446E+00
 +1.23899E+00 -2.86891E+00 +2.67849E+00 -1.78642E+00 +3.28309E+00 -5.62708E-02 +2.82616E+00 +1.74239E+00
 +1.44622E+00 +3.00402E+00 -4.04100E-01 +3.30606E+00 -2.11664E+00 +2.55101E+00 -3.13596E+00 +9.94010E-01
 -3.14424E+00 -8.49805E-01 -2.16100E+00 -2.38261E+00 -5.27398E-01 -3.12293E+00 +1.21496E+00 -2.85946E+00
 +2.50626E+00 -1.71108E+00 +2.94977E+00 -7.76364E-02 +2.43413E+00 +1.49754E+00 +1.16020E+00 +2.50597E+00
 -4.31597E-01 +2.63518E+00 -1.80698E+00 +1.86363E+00 -2.50905E+00 +4.62320E-01 -2.30223E+00 -1.09423E+00
 -1.24612E+00 -2.27890E+00 +3.21885E-01 -2.67841E+00 +1.88954E+00 -2.12564E+00 +2.92807E+00 -7.57960E-01
 +3.05931E+00 +1.01716E+00 +2.18156E+00 +2.64163E+00 +5.13964E-01 +3.57829E+00 -1.45833E+00 +3.48405E+00
 -3.12691E+00 +2.33048E+00 -3.95105E+00 +4.29912E-01 -3.63845E+00 -1.64837E+00 -2.25528E+00 -3.25227E+00
 -2.23332E-01 -3.86024E+00 +1.80384E+00 -3.26436E+00 +3.15249E+00 -1.65748E+00 +3.36095E+00 +4.13290E-01
 +2.35214E+00 +2.22081E+00 +4.80032E-01 +3.10702E+00 -1.57571E+00 +2.72263E+00 -3.03952E+00 +1.16949E+00
 -3.31843E+00 -1.01316E+00 -2.22973E+00 -3.02402E+00 -9.01342E-02 -4.08173E+00 +2.37523E+00 -3.71509E+00
 +4.28054E+00 -1.95338E+00 +4.89939E+00 +6.60244E-01 +3.94051E+00 +3.24633E+00 +1.67312E+00 +4.90029E+00
 -1.15233E+00 +5.02534E+00 -3.56641E+00 +3.56228E+00 -4.73365E+00 +1.02505E+00 -4.26493E+00 -1.67804E+00
 -2.36956E+00 -3.57606E+00 +2.15561E-01 -3.99784E+00 +2.49785E+00 -2.82738E+00 +3.60250E+00 -5.52329E-01
 +3.10609E+00 +1.91701E+00 +1.20170E+00 +3.59241E+00 -1.37046E+00 +3.78595E+00 -3.60298E+00 +2.37648E+00
 -4.60604E+00 -1.39559E-01 -3.94932E+00 -2.83419E+00 -1.82904E+00 -4.70062E+00 +1.00528E+00 -5.03686E+00
 +3.53608E+00 -3.71235E+00 +4.86496E+00 -1.21466E+00 +4.55164E+00 +1.54087E+00 +2.77426E+00 +3.56358E+00
 +2.50552E-01 +4.16439E+00 -2.04684E+00 +3.21104E+00 -3.26788E+00 +1.16473E+00 -3.00787E+00 -1.11271E+00
 -1.45107E+00 -2.70208E+00 +7.16934E-01 -2.98438E+00 +2.58917E+00 -1.87339E+00 +3.39631E+00 +1.64385E-01
 +2.80327E+00 +2.30508E+00 +1.02933E+00 +3.69675E+00 -1.25012E+00 +3.79076E+00 -3.17608E+00 +2.54651E+00
 -4.04155E+00 +4.33461E-01 -3.55797E+00 -1.76400E+00 -1.95146E+00 -3.25653E+00 +1.42595E-01 -3.55063E+00
 +1.93823E+00 -2.62403E+00 +2.80472E+00 -9.12836E-01 +2.49949E+00 +8.76920E-01 +1.24117E+00 +2.05274E+00
 -3.98077E-01 +2.20051E+00 -1.73091E+00 +1.32946E+00 -2.22570E+00 -1.52889E-01 -1.70409E+00 -1.61753E+00
 -3.93094E-01 -2.46695E+00 +1.18055E+00 -2.36329E+00 +2.40499E+00 -1.34601E+00 +2.81909E+00 +1.99741E-01
 +2.27907E+00 +1.70342E+00 +9.97196E-01 +2.63021E+00 -5.54122E-01 +2.67635E+00 -1.82858E+00 +1.86778E+00
 -2.40779E+00 +5.31922E-01 -2.14360E+00 -8.38180E-01 -1.19337E+00 -1.77020E+00 +5.63890E-02 -1.97838E+00
 +1.14214E+00 -1.45112E+00 +1.69118E+00 -4.35754E-01 +1.54529E+00 +6.65916E-01 +8.00969E-01 +1.44750E+00
 -2.40283E-01 +1.63845E+00 -1.18748E+00 +1.18856E+00 -1.69767E+00 +2.73131E-01 -1.58901E+00 -7.76473E-01
 -8.95026E-01 -1.58910E+00 +1.52864E-01 -1.87715E+00 +1.20484E+00 -1.52849E+00 +1.90692E+00 -6.40650E-01
 +2.01438E+00 +5.10875E-01 +1.47063E+00 +1.55924E+00 +4.28166E-01 +2.16172E+00 -7.95154E-01 +2.10983E+00
 -1.81325E+00 +1.40045E+00 -2.29464E+00 +2.44455E-01 -2.07375E+00 -9.93696E-01 -1.21384E+00 -1.91053E+00
 +3.09688E-03 -2.19871E+00 +1.16246E+00 -1.75852E+00 +1.85597E+00 -7.44560E-01 +1.82899E+00 +4.74957E-01
 +1.08333E+00 +1.44002E+00 -1.06570E-01 +1.76439E+00 -1.27882E+00 +1.28693E+00 -1.94741E+00 +1.49772E-01
 -1.78848E+00 -1.23373E+00 -7.78956E-01 -2.31868E+00 +7.70643E-01 -2.63105E+00 +2.31150E+00 -1.95850E+00
 +3.25267E+00 -4.53116E-01 +3.18841E+00 +1.40158E+00 +2.06854E+00 +2.95661E+00 +2.39587E-01 +3.63988E+00
 -1.66837E+00 +3.18311E+00 -2.97407E+00 +1.74126E+00 -3.21022E+00 -1.50166E-01 -2.31638E+00 -1.77232E+00
 -6.77410E-01 -2.50317E+00 +1.01638E+00 -2.07133E+00 +2.03946E+00 -6.78613E-01 +1.92752E+00 +1.06541E+00
 +6.79925E-01 +2.37902E+00 -1.21986E+00 +2.62534E+00 -2.98244E+00 +1.58388E+00 -3.82507E+00 -4.37572E-01
 -3.29544E+00 -2.70384E+00 -1.47371E+00 -4.33383E+00 +1.03608E+00 -4.65393E+00 +3.32981E+00 -3.48040E+00
 +4.55873E+00 -1.21151E+00 +4.27456E+00 +1.31555E+00 +2.62156E+00 +3.15255E+00 +2.91006E-01 +3.62356E+00
 -1.75084E+00 +2.60717E+00 -2.65611E+00 +5.97650E-01 -2.05057E+00 -1.48747E+00 -2.02331E-01 -2.68130E+00
 +2.07210E+00 -2.37337E+00 +3.73356E+00 -5.79710E-01 +3.94973E+00 +2.03955E+00 +2.45337E+00 +4.43024E+00
 -3.21732E-01 +5.56678E+00 -3.39041E+00 +4.87766E+00 -5.59825E+00 +2.49809E+00 -6.08553E+00 -7.59805E-01
 -4.64435E+00 -3.71483E+00 -1.81928E+00 -5.28382E+00 +1.29647E+00 -4.92043E+00 +3.49313E+00 -2.84514E+00
 +3.93325E+00 +3.25161E-02 +2.49860E+00 +2.47456E+00 -1.49897E-01 +3.41665E+00 -2.82951E+00 +2.40931E+00
 -4.31197E+00 -1.82871E-01 -3.82873E+00 -3.31050E+00 -1.40014E+00 -5.65080E+00 +2.14870E+00 -6.13960E+00
 +5.49765E+00 -4.41051E+00 +7.34751E+00 -9.62173E-01 +6.93751E+00 +3.01838E+00 +4.35672E+00 +6.11020E+00
 +5.21751E-01 +7.21230E+00 -3.17368E+00 +5.97685E+00 -5.40071E+00 +2.94785E+00 -5.41431E+00 -6.51741E-01
 -3.34316E+00 -3.40139E+00 -1.34719E-01 -4.24289E+00 +2.82313E+00 -2.89685E+00 +4.25419E+00 +2.90293E-02
 +3.50129E+00 +3.28241E+00 +7.88533E-01 +5.46301E+00 -2.86401E+00 +5.57701E+00 -6.03830E+00 +3.43085E+00
 -7.47112E+00 -2.89190E-01 -6.54430E+00 -4.28064E+00 -3.52172E+00 -7.12577E+00 +5.56335E-01 -7.83248E+00
 +4.27591E+00 -6.20487E+00 +6.38884E+00 -2.90281E+00 +6.27820E+00 +8.26648E-01 +4.17206E+00 +3.63575E+00
 +1.02925E+00 +4.58824E+00 -1.85058E+00 +3.49974E+00 -3.33523E+00 +9.80520E-01 -2.88815E+00 -1.82706E+00
 -7.54896E-01 -3.70632E+00 +2.15568E+00 -3.83764E+00 +4.63993E+00 -2.10297E+00 +5.66831E+00 +8.87203E-01
 +4.77250E+00 +4.04437E+00 +2.20701E+00 +6.22462E+00 -1.16690E+00 +6.65656E+00 -4.21970E+00 +5.21306E+00
 -5.97719E+00 +2.43155E+00 -5.96663E+00 -7.12627E-01 -4.36007E+00 -3.18295E+00 -1.87217E+00 -4.25993E+00
 +5.35463E-01 -3.78019E+00 +2.02241E+00 -2.15590E+00 +2.16884E+00 -1.80724E-01 +1.09978E+00 +1.29212E+00
 -6.00467E-01 +1.67226E+00 -2.13814E+00 +8.35795E-01 -2.82079E+00 -8.56998E-01 -2.31059E+00 -2.72369E+00
 -7.31186E-01 -4.02965E+00 +1.40069E+00 -4.25988E+00 +3.38143E+00 -3.29377E+00 +4.58028E+00 -1.42693E+00
 +4.65538E+00 +7.56476E-01 +3.65247E+00 +2.60392E+00 +1.96070E+00 +3.62186E+00 +1.52580E-01 +3.62980E+00
 -1.22602E+00 +2.79321E+00 -1.83863E+00 +1.53425E+00 -1.65257E+00 +3.61857E-01 -9.20251E-01 -3.13119E-01
 -6.34260E-02 -3.12910E-01 +4.91557E-01 +2.64097E-01 +4.67455E-01 +1.09937E+00 -1.72637E-01 +1.78263E+00
 -1.22277E+00 +1.96404E+00 -2.31532E+00 +1.47749E+00 -3.05374E+00 +3.95590E-01 -3.15020E+00 -9.98288E-01
 -2.52246E+00 -2.30787E+00 -1.31981E+00 -3.15701E+00 +1.28263E-01 -3.31325E+00 +1.42185E+00 -2.76175E+00
 +2.22213E+00 -1.70628E+00 +2.36086E+00 -4.97860E-01 +1.89200E+00 +4.85157E-01 +1.06786E+00 +9.65349E-01
 +2.47615E-01 +8.59726E-01 -2.31756E-01 +3.05930E-01 -1.77875E-01 -3.89267E-01 +3.84403E-01 -8.63085E-01
 +1.21761E+00 -8.33155E-01 +1.95481E+00 -2.08957E-01 +2.23427E+00 +8.63393E-01 +1.83878E+00 +2.04257E+00
 +7.88198E-01 +2.90873E+00 -6.51503E-01 +3.11607E+00 -2.05054E+00 +2.52637E+00 -2.96316E+00 +1.27258E+00
 -3.08914E+00 -2.74792E-01 -2.38932E+00 -1.63100E+00 -1.10966E+00 -2.36816E+00 +2.99198E-01 -2.27214E+00
