 Created: 16-Jan-2021
 $NMID
 ID='D:\BASISSIMULATI'
 FMTDAT='(8E13.5)'
 VOLUME=   1.00000E+00
 TRAMP=   1.00000E+00
 $END
 +4.59811E+01 +3.12492E-01 +2.83904E+01 +3.28908E+01 -6.73806E+00 +3.63919E+01 -2.68474E+01 +1.10642E+01
 -1.66685E+01 -1.58783E+01 +8.33574E+00 -1.94602E+01 +2.09823E+01 -1.57479E+00 +1.17888E+01 +1.45776E+01
 -3.34847E+00 +1.22228E+01 -4.16513E+00 -8.22373E-01 +9.32370E+00 -3.36584E+00 +1.69026E+01 +1.23610E+01
 +2.76219E+00 +2.96715E+01 -2.37565E+01 +2.55266E+01 -3.58214E+01 -2.13557E+00 -1.79745E+01 -2.89889E+01
 +1.53324E+01 -2.83262E+01 +3.27096E+01 +6.36753E-01 +1.74449E+01 +3.07974E+01 -1.55950E+01 +3.42042E+01
 -3.55701E+01 +9.68668E+00 -2.68851E+01 -1.77132E+01 -3.01873E+00 -2.38193E+01 +1.04673E+01 -9.26464E+00
 +3.81977E+00 +4.65837E+00 -8.70777E+00 +1.78635E+00 -7.96513E+00 -1.11436E+01 +6.58306E+00 -1.42138E+01
 +1.60625E+01 +4.99974E-01 +4.94913E+00 +1.77552E+01 -1.88277E+01 +1.54515E+01 -3.01186E+01 -9.43938E+00
 -1.34235E+01 -3.47537E+01 +1.88687E+01 -3.49134E+01 +3.75241E+01 -7.84462E+00 +2.58383E+01 +2.19934E+01
 -3.63927E+00 +2.80947E+01 -2.25471E+01 +8.09853E+00 -1.56113E+01 -1.56119E+01 +5.64579E+00 -2.04368E+01
 +1.77877E+01 -6.20429E+00 +1.13060E+01 +7.77767E+00 -1.04213E+00 +6.25426E+00 -1.34696E+00 -5.01274E+00
 +1.14447E+01 -7.52642E+00 +2.00176E+01 +6.69463E+00 +9.36383E+00 +2.40422E+01 -1.40838E+01 +2.36768E+01
 -2.72397E+01 +1.65171E+00 -1.48196E+01 -2.24333E+01 +1.31024E+01 -2.46641E+01 +3.01190E+01 -1.81533E+00
 +2.00963E+01 +2.47596E+01 -6.73854E+00 +3.07083E+01 -2.50115E+01 +1.28564E+01 -2.02665E+01 -9.26189E+00
 -2.11018E+00 -1.50671E+01 +8.50663E+00 -3.77392E+00 +2.64224E+00 +7.53602E+00 -8.49511E+00 +4.89859E+00
 -8.54870E+00 -6.77896E+00 +3.87393E+00 -1.06194E+01 +1.31781E+01 +1.23029E+00 +5.14907E+00 +1.69461E+01
 -1.52817E+01 +1.73650E+01 -2.74965E+01 -2.10161E+00 -1.69138E+01 -2.45831E+01 +8.56629E+00 -2.82966E+01
 +2.56521E+01 -9.18771E+00 +1.91502E+01 +1.46038E+01 -2.99135E+00 +2.12504E+01 -1.87122E+01 +6.97255E+00
 -1.47206E+01 -1.17243E+01 +1.27053E+00 -1.66418E+01 +1.10633E+01 -6.53267E+00 +6.47334E+00 +3.93685E+00
 -3.00057E+00 +2.34487E+00 -2.93058E+00 -7.31943E+00 +8.23862E+00 -1.02261E+01 +1.69026E+01 +9.15851E-01
 +1.01555E+01 +1.60302E+01 -8.27128E+00 +1.80157E+01 -2.03904E+01 +2.06387E+00 -1.27460E+01 -1.76276E+01
 +8.68469E+00 -2.17410E+01 +2.38707E+01 -5.77151E+00 +1.89172E+01 +1.52685E+01 -2.88578E-01 +2.22751E+01
 -1.50501E+01 +1.10542E+01 -1.33573E+01 -4.94947E+00 -9.51408E-01 -1.00649E+01 +6.98283E+00 -2.55371E+00
 +3.16923E+00 +5.64124E+00 -4.80048E+00 +3.98278E+00 -4.85286E+00 -4.43802E+00 +4.47904E+00 -7.21336E+00
 +1.17858E+01 +1.94702E+00 +5.98685E+00 +1.46419E+01 -1.00073E+01 +1.62304E+01 -2.09267E+01 +2.22845E+00
 -1.48940E+01 -1.55878E+01 +3.62356E+00 -2.05460E+01 +1.77842E+01 -8.04550E+00 +1.51946E+01 +9.84964E+00
 -1.41119E-01 +1.68483E+01 -1.29258E+01 +8.49361E+00 -1.25683E+01 -4.83913E+00 -2.84583E+00 -1.01450E+01
 +4.23883E+00 -5.22955E+00 +2.44197E+00 +8.92020E-01 -2.70868E+00 -1.52979E-01 -1.88845E+00 -6.13449E+00
 +5.97878E+00 -7.39973E+00 +1.17649E+01 +8.74731E-01 +6.63819E+00 +1.17575E+01 -6.92181E+00 +1.32895E+01
 -1.63410E+01 +1.73162E+00 -1.16479E+01 -1.33394E+01 +3.86049E+00 -1.80505E+01 +1.64853E+01 -8.04724E+00
 +1.55674E+01 +7.36130E+00 +3.45799E+00 +1.47837E+01 -7.93975E+00 +9.68930E+00 -9.61030E+00 -5.81845E-01
 -3.43487E+00 -5.85560E+00 +1.92292E+00 -3.63272E+00 +1.49232E+00 +7.56804E-02 -1.20319E+00 -6.74393E-01
 +2.07510E-01 -4.32713E+00 +6.14516E+00 -4.07822E+00 +9.72123E+00 +3.14323E+00 +4.59232E+00 +1.16942E+01
 -6.90905E+00 +1.24152E+01 -1.48599E+01 +2.61159E+00 -1.14202E+01 -1.01610E+01 +1.03982E+00 -1.49420E+01
 +1.19693E+01 -7.88175E+00 +1.26916E+01 +4.36444E+00 +4.12165E+00 +1.14976E+01 -5.29697E+00 +9.22016E+00
 -8.43290E+00 +1.94563E+00 -5.52884E+00 -3.18643E+00 -1.87200E+00 -3.69037E+00 -8.79262E-01 -2.69961E+00
 -7.90907E-01 -3.55994E+00 +1.78998E+00 -5.11336E+00 +6.40392E+00 -3.28947E+00 +8.21987E+00 +3.11425E+00
 +3.39982E+00 +9.57427E+00 -5.74550E+00 +9.70825E+00 -1.19214E+01 +1.98137E+00 -9.56515E+00 -8.02029E+00
 -2.62089E-01 -1.24048E+01 +8.66797E+00 -8.08095E+00 +1.08370E+01 +8.72425E-01 +5.98777E+00 +7.49105E+00
 -9.54526E-01 +8.09957E+00 -5.12200E+00 +4.37144E+00 -5.50815E+00 +2.02209E-01 -4.08692E+00 -2.37934E+00
 -2.41310E+00 -3.93831E+00 -8.70039E-02 -5.16811E+00 +3.49159E+00 -4.99410E+00 +6.85985E+00 -1.80507E+00
 +7.01681E+00 +3.77701E+00 +2.52252E+00 +8.23356E+00 -4.30061E+00 +7.88435E+00 -8.76751E+00 +2.38973E+00
 -7.69102E+00 -4.61575E+00 -1.97951E+00 -8.45120E+00 +4.36256E+00 -7.02718E+00 +7.55218E+00 -1.94163E+00
 +6.47672E+00 +3.40785E+00 +2.55214E+00 +6.40819E+00 -1.98413E+00 +6.28745E+00 -5.34617E+00 +3.58179E+00
 -6.38531E+00 -5.77520E-01 -4.56581E+00 -4.58770E+00 -4.23319E-01 -6.54141E+00 +4.10730E+00 -5.16974E+00
 +6.49977E+00 -1.00340E+00 +5.35239E+00 +3.61540E+00 +1.47663E+00 +6.07681E+00 -2.77479E+00 +5.30875E+00
 -5.28583E+00 +2.20175E+00 -5.33522E+00 -1.49489E+00 -3.32220E+00 -4.40012E+00 +4.10231E-02 -5.68753E+00
 +3.82501E+00 -4.68294E+00 +6.42504E+00 -1.12479E+00 +5.90019E+00 +3.81903E+00 +1.62543E+00 +7.29886E+00
 -4.27508E+00 +6.52108E+00 -7.80771E+00 +1.38619E+00 -6.24305E+00 -4.73150E+00 -7.04426E-01 -7.45252E+00
 +4.59616E+00 -5.12499E+00 +6.04516E+00 -1.62182E-01 +3.65263E+00 +3.44416E+00 +3.90418E-01 +3.87135E+00
 -1.25665E+00 +2.56423E+00 -1.61530E+00 +1.74884E+00 -2.50290E+00 +1.49160E+00 -4.07747E+00 -8.99117E-02
 -3.96099E+00 -3.68217E+00 -1.17819E-01 -6.68433E+00 +5.73171E+00 -5.28575E+00 +8.60592E+00 +1.04716E+00
 +4.98708E+00 +7.79197E+00 -2.99906E+00 +9.02129E+00 -8.83618E+00 +3.24748E+00 -7.63618E+00 -4.69734E+00
 -8.96647E-01 -8.11795E+00 +5.07935E+00 -4.87814E+00 +5.55661E+00 +8.92568E-01 +1.79972E+00 +3.54331E+00
 -1.08176E+00 +1.85520E+00 -2.60229E-01 -3.18082E-01 +1.73513E+00 +7.57839E-01 +5.18942E-01 +3.81792E+00
 -4.17875E+00 +3.90601E+00 -7.27711E+00 -1.37966E+00 -3.83309E+00 -7.96652E+00 +4.66022E+00 -8.80721E+00
 +1.06219E+01 -1.56875E+00 +7.80331E+00 +7.94572E+00 -1.87698E+00 +1.09934E+01 -9.70403E+00 +4.69777E+00
 -8.76204E+00 -4.87349E+00 -8.16212E-01 -8.86522E+00 +5.86118E+00 -4.60589E+00 +5.35512E+00 +2.16752E+00
 +2.42539E-02 +4.07965E+00 -2.88491E+00 +2.69421E-01 +7.64613E-02 -3.15977E+00 +4.52187E+00 -7.85080E-01
 +3.54975E+00 +5.24077E+00 -3.58769E+00 +7.21361E+00 -9.60995E+00 +9.01068E-01 -6.86844E+00 -8.63679E+00
 +3.64327E+00 -1.15530E+01 +1.22321E+01 -3.74261E+00 +1.01918E+01 +8.06164E+00 -8.88695E-01 +1.26704E+01
 -1.04076E+01 +5.89496E+00 -9.58956E+00 -5.14279E+00 -3.90967E-01 -9.58542E+00 +7.06561E+00 -4.17927E+00
 +5.62189E+00 +3.85970E+00 -1.47065E+00 +5.38479E+00 -4.89003E+00 -3.81801E-01 -3.10467E-01 -5.32871E+00
 +6.42435E+00 -2.24695E+00 +6.05392E+00 +6.25363E+00 -2.93399E+00 +1.01183E+01 -1.15658E+01 +3.27035E+00
 -9.76151E+00 -8.67112E+00 +2.18175E+00 -1.35138E+01 +1.29183E+01 -5.46313E+00 +1.15729E+01 +8.13011E+00
 -6.97429E-01 +1.39872E+01 -1.17107E+01 +6.67426E+00 -1.09844E+01 -5.84268E+00 -5.35418E-01 -1.08834E+01
 +7.86104E+00 -4.53191E+00 +5.77803E+00 +4.74683E+00 -2.89736E+00 +6.10064E+00 -6.96073E+00 -1.40214E+00
 -1.07246E+00 -7.96035E+00 +7.84754E+00 -4.62032E+00 +8.42860E+00 +5.88021E+00 -1.76237E+00 +1.15377E+01
 -1.24869E+01 +4.51091E+00 -1.15187E+01 -9.33867E+00 +1.66512E+00 -1.58613E+01 +1.44427E+01 -7.64531E+00
 +1.39918E+01 +7.62579E+00 +8.83664E-01 +1.48935E+01 -1.14554E+01 +7.47165E+00 -1.09697E+01 -6.13198E+00
 +4.81250E-01 -1.16617E+01 +9.78821E+00 -4.44366E+00 +7.30695E+00 +6.14812E+00 -2.73501E+00 +7.76336E+00
 -7.58740E+00 -8.52756E-01 -9.15798E-01 -8.59392E+00 +9.60458E+00 -4.96803E+00 +1.08157E+01 +7.33216E+00
 -6.41289E-01 +1.46994E+01 -1.35610E+01 +7.66309E+00 -1.38082E+01 -7.88489E+00 +5.81824E-02 -1.61401E+01
 +1.44614E+01 -8.11038E+00 +1.48035E+01 +8.47116E+00 +8.77089E-01 +1.70496E+01 -1.30059E+01 +9.62808E+00
 -1.33340E+01 -5.11965E+00 -1.51393E+00 -1.16708E+01 +8.45389E+00 -4.49233E+00 +5.86035E+00 +6.57261E+00
 -5.01373E+00 +8.03369E+00 -1.03060E+01 -1.74398E+00 -2.84171E+00 -1.07268E+01 +9.18984E+00 -7.17598E+00
 +1.11867E+01 +6.33626E+00 -1.05696E+00 +1.49136E+01 -1.55965E+01 +7.64187E+00 -1.66187E+01 -9.68593E+00
 -1.71081E+00 -1.98558E+01 +1.48651E+01 -1.23132E+01 +1.68697E+01 +5.44650E+00 +3.08782E+00 +1.56655E+01
 -1.16973E+01 +8.98095E+00 -1.26994E+01 -6.17579E+00 -6.10118E-01 -1.33926E+01 +1.01422E+01 -6.24316E+00
 +7.98809E+00 +5.38098E+00 -2.99739E+00 +7.24065E+00 -8.30258E+00 -2.69576E+00 -1.32255E-01 -1.18497E+01
 +1.30038E+01 -7.58598E+00 +1.54056E+01 +7.64782E+00 +2.13303E+00 +1.79396E+01 -1.43371E+01 +1.11068E+01
 -1.67513E+01 -7.30348E+00 -1.67536E+00 -1.89682E+01 +1.62565E+01 -1.18618E+01 +1.93940E+01 +7.00954E+00
 +5.38293E+00 +1.90145E+01 -1.08996E+01 +1.34514E+01 -1.36089E+01 -1.83919E+00 -2.51671E+00 -9.94455E+00
 +7.97216E+00 -3.57934E+00 +5.69223E+00 +7.67089E+00 -5.64510E+00 +9.19794E+00 -1.12514E+01 -1.39522E+00
 -2.87804E+00 -1.12913E+01 +1.08598E+01 -7.22999E+00 +1.35119E+01 +8.54789E+00 -5.07091E-01 +1.94690E+01
 -1.84584E+01 +1.23227E+01 -2.19737E+01 -7.72415E+00 -6.60674E+00 -2.15916E+01 +1.29702E+01 -1.59465E+01
 +1.80206E+01 +2.93112E+00 +5.01273E+00 +1.59588E+01 -1.14573E+01 +1.12902E+01 -1.48261E+01 -4.02639E+00
 -3.93326E+00 -1.29278E+01 +7.12756E+00 -7.38510E+00 +5.79191E+00 +3.54026E+00 -4.72676E+00 +5.14101E+00
 -9.67708E+00 -5.35543E+00 -4.85470E-01 -1.51841E+01 +1.43423E+01 -1.06945E+01 +1.79178E+01 +6.19644E+00
 +4.02861E+00 +1.86288E+01 -1.46965E+01 +1.25867E+01 -1.92085E+01 -7.36251E+00 -4.11931E+00 -2.18926E+01
 +1.62373E+01 -1.67102E+01 +2.25071E+01 +2.74342E+00 +1.01155E+01 +1.73529E+01 -6.89562E+00 +1.44185E+01
 -1.15998E+01 +1.00980E-01 -1.98774E+00 -8.71381E+00 +8.37008E+00 -3.45678E+00 +6.72614E+00 +7.41228E+00
 -4.22434E+00 +9.25130E+00 -9.92994E+00 -1.12264E+00 -1.49009E+00 -1.12432E+01 +1.30008E+01 -7.22706E+00
 +1.65798E+01 +9.53431E+00 +2.45115E+00 +2.23560E+01 -1.72475E+01 +1.67228E+01 -2.32623E+01 -3.56453E+00
