 Created: 16-Jan-2021
 $NMID
 ID='D:\BASISSIMULATI'
 FMTDAT='(8E13.5)'
 VOLUME=   1.00000E+00
 TRAMP=   1.00000E+00
 $END
 +1.01704E+02 +5.09990E-01 +9.19276E+01 +4.18712E+01 +6.55133E+01 +7.48230E+01 +2.79012E+01 +9.29902E+01
 -1.32349E+01 +9.30903E+01 -4.96069E+01 +7.55939E+01 -7.40512E+01 +4.45871E+01 -8.20161E+01 +6.87277E+00
 -7.24831E+01 -2.94959E+01 -4.81295E+01 -5.69313E+01 -1.47054E+01 -6.99102E+01 +2.02360E+01 -6.61140E+01
 +4.89783E+01 -4.68733E+01 +6.52956E+01 -1.68256E+01 +6.57671E+01 +1.71300E+01 +5.04735E+01 +4.73514E+01
 +2.29312E+01 +6.71137E+01 -1.07128E+01 +7.20511E+01 -4.30443E+01 +6.10732E+01 -6.70042E+01 +3.65627E+01
 -7.74150E+01 +3.81824E+00 -7.20829E+01 -3.01280E+01 -5.22399E+01 -5.80567E+01 -2.22368E+01 -7.41311E+01
 +1.14390E+01 -7.51503E+01 +4.16020E+01 -6.12141E+01 +6.19437E+01 -3.56611E+01 +6.84013E+01 -4.29892E+00
 +6.00212E+01 +2.58987E+01 +3.91320E+01 +4.83396E+01 +1.07944E+01 +5.82637E+01 -1.83464E+01 +5.37790E+01
 -4.15514E+01 +3.62576E+01 -5.34905E+01 +1.00077E+01 -5.14270E+01 -1.87033E+01 -3.58234E+01 -4.30574E+01
 -1.02371E+01 -5.72141E+01 +1.94716E+01 -5.76217E+01 +4.64424E+01 -4.38215E+01 +6.43432E+01 -1.85692E+01
 +6.87861E+01 +1.27560E+01 +5.83199E+01 +4.33248E+01 +3.47793E+01 +6.63565E+01 +2.91213E+00 +7.66161E+01
 -3.06348E+01 +7.15802E+01 -5.87537E+01 +5.20153E+01 -7.54220E+01 +2.18406E+01 -7.70216E+01 -1.26988E+01
 -6.31413E+01 -4.43697E+01 -3.66862E+01 -6.65100E+01 -3.26816E+00 -7.44718E+01 +2.99940E+01 -6.66338E+01
 +5.60038E+01 -4.47625E+01 +6.92178E+01 -1.36411E+01 +6.68442E+01 +1.99531E+01 +4.94510E+01 +4.87057E+01
 +2.08497E+01 +6.63407E+01 -1.27196E+01 +6.89750E+01 -4.39292E+01 +5.59590E+01 -6.59396E+01 +3.00218E+01
 -7.38719E+01 -3.31039E+00 -6.58597E+01 -3.68986E+01 -4.34534E+01 -6.35218E+01 -1.12900E+01 -7.74258E+01
 +2.38981E+01 -7.55553E+01 +5.47244E+01 -5.82066E+01 +7.47262E+01 -2.89609E+01 +7.97418E+01 +6.08721E+00
 +6.87909E+01 +3.96359E+01 +4.42705E+01 +6.47375E+01 +1.14270E+01 +7.62769E+01 -2.27791E+01 +7.20510E+01
 -5.11705E+01 +5.32180E+01 -6.78877E+01 +2.40240E+01 -6.96305E+01 -9.13155E+00 -5.63428E+01 -3.90865E+01
 -3.11937E+01 -5.94606E+01 +1.34217E-01 -6.60211E+01 +3.06941E+01 -5.75746E+01 +5.37871E+01 -3.61974E+01
 +6.44105E+01 -6.75709E+00 +6.03281E+01 +2.41666E+01 +4.25342E+01 +4.97238E+01 +1.50140E+01 +6.42854E+01
 -1.61431E+01 +6.46605E+01 -4.40825E+01 +5.07758E+01 -6.26814E+01 +2.56749E+01 -6.78793E+01 -5.16099E+00
 -5.85527E+01 -3.50188E+01 -3.67467E+01 -5.74210E+01 -7.21675E+00 -6.75359E+01 +2.36188E+01 -6.32233E+01
 +4.90825E+01 -4.54897E+01 +6.36933E+01 -1.82570E+01 +6.43558E+01 +1.25024E+01 +5.10256E+01 +4.00749E+01
 +2.67082E+01 +5.84706E+01 -3.20689E+00 +6.37269E+01 -3.21284E+01 +5.47654E+01 -5.37052E+01 +3.36190E+01
 -6.32105E+01 +4.97943E+00 -5.85698E+01 -2.48327E+01 -4.08078E+01 -4.92507E+01 -1.38188E+01 -6.28951E+01
 +1.64866E+01 -6.27457E+01 +4.34738E+01 -4.87968E+01 +6.12309E+01 -2.40562E+01 +6.58569E+01 +6.11364E+00
 +5.63096E+01 +3.51648E+01 +3.46305E+01 +5.67900E+01 +5.49881E+00 +6.62949E+01 -2.47878E+01 +6.16174E+01
 -4.96832E+01 +4.37735E+01 -6.38147E+01 +1.66344E+01 -6.41485E+01 -1.39176E+01 -5.06452E+01 -4.12677E+01
 -2.62648E+01 -5.95054E+01 +3.68003E+00 -6.47055E+01 +3.26805E+01 -5.57768E+01 +5.44453E+01 -3.46940E+01
 +6.42652E+01 -6.06373E+00 +6.00319E+01 +2.38797E+01 +4.26901E+01 +4.86299E+01 +1.60269E+01 +6.28208E+01
 -1.41559E+01 +6.33885E+01 -4.13050E+01 +5.02320E+01 -5.95392E+01 +2.62287E+01 -6.49253E+01 -3.39580E+00
 -5.63276E+01 -3.22075E+01 -3.56496E+01 -5.39632E+01 -7.41439E+00 -6.39662E+01 +2.22224E+01 -6.00841E+01
 +4.68132E+01 -4.32078E+01 +6.10197E+01 -1.70532E+01 +6.17725E+01 +1.26503E+01 +4.89351E+01 +3.94074E+01
 +2.53314E+01 +5.73697E+01 -3.87034E+00 +6.26066E+01 -3.22818E+01 +5.39586E+01 -5.36824E+01 +3.32884E+01
 -6.33705E+01 +5.07683E+00 -5.91837E+01 -2.45499E+01 -4.19683E+01 -4.91481E+01 -1.53969E+01 -6.33529E+01
 +1.48265E+01 -6.40402E+01 +4.22002E+01 -5.10026E+01 +6.08301E+01 -2.69941E+01 +6.67025E+01 +2.86617E+00
 +5.85486E+01 +3.21997E+01 +3.81159E+01 +5.47456E+01 +9.78682E+00 +6.57101E+01 -2.03700E+01 +6.27966E+01
 -4.59107E+01 +4.66946E+01 -6.14047E+01 +2.09241E+01 -6.36021E+01 -8.93088E+00 -5.21260E+01 -3.64318E+01
 -2.95446E+01 -5.56756E+01 -8.06788E-01 -6.25650E+01 +2.78333E+01 -5.56847E+01 +5.01700E+01 -3.65967E+01
 +6.13837E+01 -9.49116E+00 +5.90752E+01 +1.97274E+01 +4.37728E+01 +4.47207E+01 +1.88061E+01 +6.00851E+01
 -1.04242E+01 +6.25131E+01 -3.76197E+01 +5.14961E+01 -5.69467E+01 +2.94212E+01 -6.42907E+01 +1.04140E+00
 -5.81338E+01 -2.75617E+01 -3.98660E+01 -5.02964E+01 -1.34675E+01 -6.23742E+01 +1.53677E+01 -6.13336E+01
 +4.04728E+01 -4.75544E+01 +5.65445E+01 -2.41545E+01 +6.02827E+01 +3.70675E+00 +5.10891E+01 +2.99620E+01
 +3.11753E+01 +4.89598E+01 +5.05895E+00 +5.66890E+01 -2.14373E+01 +5.16395E+01 -4.24660E+01 +3.51126E+01
 -5.34319E+01 +1.09169E+01 -5.19901E+01 -1.54805E+01 -3.85471E+01 -3.81616E+01 -1.61582E+01 -5.20577E+01
 +1.01536E+01 -5.40590E+01 +3.45069E+01 -4.36912E+01 +5.14562E+01 -2.32140E+01 +5.71874E+01 +2.87957E+00
 +5.03537E+01 +2.88522E+01 +3.23704E+01 +4.89816E+01 +7.10468E+00 +5.88153E+01 -1.99708E+01 +5.61474E+01
 -4.29751E+01 +4.15023E+01 -5.69057E+01 +1.80229E+01 -5.87325E+01 -9.21510E+00 -4.80624E+01 -3.43096E+01
 -2.72270E+01 -5.18208E+01 -7.77564E-01 -5.79596E+01 +2.55069E+01 -5.14159E+01 +4.58783E+01 -3.36487E+01
 +5.58744E+01 -8.57135E+00 +5.32938E+01 +1.82974E+01 +3.86815E+01 +4.10334E+01 +1.52162E+01 +5.45974E+01
 -1.19743E+01 +5.59354E+01 -3.69236E+01 +4.46490E+01 -5.41202E+01 +2.30912E+01 -5.97063E+01 -4.13514E+00
 -5.23198E+01 -3.11667E+01 -3.33975E+01 -5.21442E+01 -6.87433E+00 -6.24784E+01 +2.16578E+01 -5.98430E+01
 +4.61496E+01 -4.46813E+01 +6.13928E+01 -2.01156E+01 +6.41390E+01 +8.71875E+00 +5.37959E+01 +3.57736E+01
 +3.25529E+01 +5.53824E+01 +4.90837E+00 +6.34719E+01 -2.32967E+01 +5.84284E+01 -4.61317E+01 +4.14353E+01
 -5.88446E+01 +1.62087E+01 -5.88724E+01 -1.18097E+01 -4.63779E+01 -3.66259E+01 -2.41986E+01 -5.29812E+01
 +2.77812E+00 -5.74749E+01 +2.86780E+01 -4.92821E+01 +4.79087E+01 -3.03134E+01 +5.63606E+01 -4.78496E+00
 +5.22816E+01 +2.17048E+01 +3.66383E+01 +4.33915E+01 +1.28891E+01 +5.55891E+01 -1.37796E+01 +5.56932E+01
 -3.75845E+01 +4.37300E+01 -5.33988E+01 +2.23317E+01 -5.78556E+01 -3.84958E+00 -5.00634E+01 -2.91622E+01
 -3.17810E+01 -4.81840E+01 -7.01791E+00 -5.68945E+01 +1.88510E+01 -5.35347E+01 +4.02608E+01 -3.89716E+01
 +5.26653E+01 -1.64895E+01 +5.35172E+01 +8.94178E+00 +4.28066E+01 +3.17609E+01 +2.30443E+01 +4.70312E+01
 -1.30393E+00 +5.15135E+01 -2.48064E+01 +4.43621E+01 -4.22606E+01 +2.72957E+01 -4.98322E+01 +4.20633E+00
 -4.58896E+01 -1.97052E+01 -3.13543E+01 -3.90767E+01 -9.49023E+00 -4.95635E+01 +1.48190E+01 -4.87924E+01
 +3.61460E+01 -3.68800E+01 +4.97132E+01 -1.64068E+01 +5.24425E+01 +8.14980E+00 +4.36331E+01 +3.13967E+01
 +2.51179E+01 +4.82067E+01 +8.66634E-01 +5.48424E+01 -2.38786E+01 +4.97765E+01 -4.37463E+01 +3.40305E+01
 -5.44073E+01 +1.09569E+01 -5.35210E+01 -1.44865E+01 -4.12491E+01 -3.68129E+01 -2.02245E+01 -5.11996E+01
 +5.01634E+00 -5.45370E+01 +2.90163E+01 -4.61068E+01 +4.65811E+01 -2.77410E+01 +5.39063E+01 -3.42716E+00
 +4.94041E+01 +2.15538E+01 +3.40493E+01 +4.17716E+01 +1.11707E+01 +5.28227E+01 -1.42686E+01 +5.22851E+01
 -3.67440E+01 +4.02441E+01 -5.13644E+01 +1.92750E+01 -5.49298E+01 -6.11191E+00 -4.66236E+01 -3.04453E+01
 -2.81893E+01 -4.84739E+01 -3.55386E+00 -5.62987E+01 +2.20189E+01 -5.22138E+01 +4.30634E+01 -3.70716E+01
 +5.50892E+01 -1.40965E+01 +5.55448E+01 +1.18120E+01 +4.43628E+01 +3.51370E+01 +2.39679E+01 +5.09312E+01
 -1.25226E+00 +5.58787E+01 -2.58969E+01 +4.90019E+01 -4.47176E+01 +3.18621E+01 -5.37462E+01 +8.21243E+00
 -5.11428E+01 -1.68206E+01 -3.75806E+01 -3.78480E+01 -1.60876E+01 -5.03807E+01 +8.61965E+00 -5.17933E+01
 +3.11636E+01 -4.18799E+01 +4.66713E+01 -2.28850E+01 +5.18252E+01 +9.95600E-01 +4.55724E+01 +2.45334E+01
 +2.93406E+01 +4.26053E+01 +6.71552E+00 +5.13026E+01 -1.73472E+01 +4.87731E+01 -3.76038E+01 +3.56123E+01
 -4.96617E+01 +1.47228E+01 -5.09289E+01 -9.32613E+00 -4.11694E+01 -3.12982E+01 -2.25439E+01 -4.64298E+01
 +8.68870E-01 -5.14634E+01 +2.39663E+01 -4.53486E+01 +4.17345E+01 -2.94626E+01 +5.03380E+01 -7.30130E+00
 +4.79490E+01 +1.62884E+01 +3.51380E+01 +3.61672E+01 +1.47412E+01 +4.80220E+01 -8.76340E+00 +4.93017E+01
 -3.02357E+01 +3.97663E+01 -4.49938E+01 +2.15329E+01 -4.98316E+01 -1.39194E+00 -4.37129E+01 -2.39890E+01
 -2.79915E+01 -4.13211E+01 -6.11152E+00 -4.96079E+01 +1.71466E+01 -4.70456E+01 +3.67089E+01 -3.41961E+01
 +4.83120E+01 -1.38605E+01 +4.94292E+01 +9.53404E+00 +3.98171E+01 +3.08993E+01 +2.15652E+01 +4.55929E+01
 -1.36217E+00 +5.04271E+01 -2.39891E+01 +4.43580E+01 -4.14106E+01 +2.87102E+01 -4.98576E+01 +6.88470E+00
 -4.75127E+01 -1.63822E+01 -3.49014E+01 -3.60489E+01 -1.47743E+01 -4.78629E+01 +8.49378E+00 -4.92817E+01
 +2.98560E+01 -4.00210E+01 +4.46889E+01 -2.21117E+01 +4.97944E+01 +5.44924E-01 +4.40901E+01 +2.30277E+01
 +2.88394E+01 +4.04645E+01 +7.37199E+00 +4.90890E+01 -1.56425E+01 +4.70547E+01 -3.52110E+01 +3.48309E+01
 -4.71003E+01 +1.50954E+01 -4.87538E+01 -7.85141E+00 -3.98417E+01 -2.90238E+01 -2.23280E+01 -4.38337E+01
 -3.80745E-02 -4.90856E+01 +2.21753E+01 -4.36666E+01 +3.94878E+01 -2.87833E+01 +4.81505E+01 -7.69507E+00
 +4.63017E+01 +1.49985E+01 +3.43672E+01 +3.43586E+01 +1.49629E+01 +4.61801E+01 -7.67669E+00 +4.79033E+01
 -2.86209E+01 +3.91668E+01 -4.33146E+01 +2.18822E+01 -4.85664E+01 -1.84815E-01 -4.32389E+01 -2.22342E+01
 -2.84929E+01 -3.94748E+01 -7.53186E+00 -4.81641E+01 +1.50954E+01 -4.64178E+01 +3.44831E+01 -3.46167E+01
 +4.64328E+01 -1.53201E+01 +4.83614E+01 +7.29123E+00 +3.98595E+01 +2.83237E+01 +2.27757E+01 +4.32318E+01
 +8.13483E-01 +4.88017E+01 -2.12742E+01 +4.38450E+01 -3.87154E+01 +2.94521E+01 -4.77518E+01 +8.75218E+00
 -4.64499E+01 -1.37682E+01 -3.51156E+01 -3.32381E+01 -1.62230E+01 -4.54569E+01 +6.12564E+00 -4.78013E+01
 +2.70906E+01 -3.97883E+01 +4.21435E+01 -2.31752E+01 +4.80447E+01 -1.57286E+00 +4.35411E+01 +2.03391E+01
