 Created: 16-Jan-2021
 $NMID
 ID='D:\BASISSIMULATI'
 FMTDAT='(8E13.5)'
 VOLUME=   1.00000E+00
 TRAMP=   1.00000E+00
 $END
 +1.68547E+01 +8.58168E-02 +1.63445E+01 +4.02903E+00 +1.49260E+01 +7.73813E+00 +1.26805E+01 +1.10073E+01
 +9.73490E+00 +1.36557E+01 +6.25499E+00 +1.55376E+01 +2.43574E+00 +1.65501E+01 -1.50948E+00 +1.66390E+01
 -5.36079E+00 +1.58018E+01 -8.90411E+00 +1.40873E+01 -1.19430E+01 +1.15932E+01 -1.43097E+01 +8.46018E+00
 -1.58741E+01 +4.86424E+00 -1.65512E+01 +1.00664E+00 -1.63056E+01 -2.89729E+00 -1.51532E+01 -6.63020E+00
 -1.31604E+01 -9.98477E+00 -1.04403E+01 -1.27753E+01 -7.14595E+00 -1.48479E+01 -3.46225E+00 -1.60890E+01
 +4.04875E-01 -1.64316E+01 +4.23976E+00 -1.58590E+01 +7.82908E+00 -1.44053E+01 +1.09737E+01 -1.21536E+01
 +1.34998E+01 -9.23123E+00 +1.52682E+01 -5.80248E+00 +1.61826E+01 -2.05943E+00 +1.61942E+01 +1.78882E+00
 +1.53045E+01 +5.52787E+00 +1.35653E+01 +8.94992E+00 +1.10757E+01 +1.18653E+01 +7.97592E+00 +1.41131E+01
 +4.44009E+00 +1.55699E+01 +6.66051E-01 +1.61565E+01 -3.13558E+00 +1.58426E+01 -6.75318E+00 +1.46479E+01
 -9.98589E+00 +1.26410E+01 -1.26548E+01 +9.93572E+00 -1.46128E+01 +6.68430E+00 -1.57526E+01 +3.06906E+00
 -1.60130E+01 -7.07892E-01 -1.53816E+01 -4.43597E+00 -1.38959E+01 -7.90783E+00 -1.16406E+01 -1.09309E+01
 -8.74313E+00 -1.33381E+01 -5.36641E+00 -1.49970E+01 -1.69954E+00 -1.58172E+01 +2.05271E+00 -1.57551E+01
 +5.68131E+00 -1.48164E+01 +8.98464E+00 -1.30556E+01 +1.17797E+01 -1.05726E+01 +1.39122E+01 -7.50752E+00
 +1.52652E+01 -4.03235E+00 +1.57652E+01 -3.41497E-01 +1.53867E+01 +3.35909E+00 +1.41529E+01 +6.86346E+00
 +1.21346E+01 +9.97709E+00 +9.44611E+00 +1.25277E+01 +6.23867E+00 +1.43747E+01 +2.69211E+00 +1.54172E+01
 -9.95355E-01 +1.55991E+01 -4.61818E+00 +1.49125E+01 -7.97491E+00 +1.33977E+01 -1.08794E+01 +1.11412E+01
 -1.31712E+01 +8.27031E+00 -1.47243E+01 +4.94642E+00 -1.54541E+01 +1.35561E+00 -1.53220E+01 -2.30163E+00
 -1.43377E+01 -5.82160E+00 -1.25579E+01 -9.00877E+00 -1.00837E+01 -1.16866E+01 -7.05466E+00 -1.37074E+01
 -3.64060E+00 -1.49603E+01 -3.25153E-02 -1.53775E+01 +3.56832E+00 -1.49380E+01 +6.96155E+00 -1.36682E+01
 +9.95886E+00 -1.16411E+01 +1.23944E+01 -8.97116E+00 +1.41342E+01 -5.80873E+00 +1.50830E+01 -2.33099E+00
 +1.51901E+01 +1.26774E+00 +1.44516E+01 +4.78689E+00 +1.29107E+01 +8.03082E+00 +1.06553E+01 +1.08197E+01
 +7.81250E+00 +1.29995E+01 +4.54213E+00 +1.44504E+01 +1.02720E+00 +1.50935E+01 -2.53607E+00 +1.48950E+01
 -5.94926E+00 +1.38682E+01 -9.02282E+00 +1.20722E+01 -1.15866E+01 +9.60888E+00 -1.34991E+01 +6.61703E+00
 -1.46556E+01 +3.26446E+00 -1.49936E+01 -2.61351E-01 -1.44964E+01 -3.76377E+00 -1.31938E+01 -7.04795E+00
 -1.11602E+01 -9.93168E+00 -8.51062E+00 -1.22555E+01 -5.39412E+00 -1.38914E+01 -1.98526E+00 -1.47503E+01
 +1.52552E+00 -1.47861E+01 +4.94259E+00 -1.39990E+01 +8.07604E+00 -1.24348E+01 +1.07522E+01 -1.01826E+01
 +1.28233E+01 -7.36941E+00 +1.41756E+01 -4.15316E+00 +1.47356E+01 -7.13872E-01 +1.44742E+01 +2.75651E+00
 +1.34080E+01 +6.06479E+00 +1.15984E+01 +9.02726E+00 +9.14779E+00 +1.14799E+01 +6.19431E+00 +1.32876E+01
 +2.90354E+00 +1.43513E+01 -5.40553E-01 +1.46137E+01 -3.94592E+00 +1.40622E+01 -7.12315E+00 +1.27295E+01
 -9.89601E+00 +1.06918E+01 -1.21112E+01 +8.06425E+00 -1.36469E+01 +4.99450E+00 -1.44192E+01 +1.65452E+00
 -1.43873E+01 -1.76916E+00 -1.35547E+01 -5.08578E+00 -1.19700E+01 -8.11107E+00 -9.72308E+00 -1.06774E+01
 -6.94075E+00 -1.26431E+01 -3.77916E+00 -1.39003E+01 -4.15201E-01 -1.43808E+01 +2.96342E+00 -1.40598E+01
 +6.16865E+00 -1.29572E+01 +9.02256E+00 -1.11363E+01 +1.13672E+01 -8.70027E+00 +1.30734E+01 -5.78619E+00
 +1.40478E+01 -2.55744E+00 +1.42380E+01 +8.05533E-01 +1.36354E+01 +4.11523E+00 +1.22755E+01 +7.18762E+00
 +1.02359E+01 +9.85231E+00 +7.63179E+00 +1.19620E+01 +4.60954E+00 +1.34008E+01 +1.33835E+00 +1.40902E+01
 -1.99910E+00 +1.39938E+01 -5.21692E+00 +1.31189E+01 -8.13636E+00 +1.15161E+01 -1.05957E+01 +9.27647E+00
 -1.24592E+01 +6.52625E+00 -1.36247E+01 +3.41976E+00 -1.40291E+01 +1.30761E-01 -1.36517E+01 -3.15726E+00
 -1.25156E+01 -6.26133E+00 -1.06859E+01 -9.00917E+00 -8.26608E+00 -1.12488E+01 -5.39236E+00 -1.28568E+01
 -2.22577E+00 -1.37452E+01 +1.05673E+00 -1.38666E+01 +4.27218E+00 -1.32160E+01 +7.24182E+00 -1.18315E+01
 +9.80101E+00 -9.79217E+00 +1.18084E+01 -7.21299E+00 +1.31535E+01 -4.23889E+00 +1.37634E+01 -1.03637E+00
 +1.36058E+01 +2.21579E+00 +1.26914E+01 +5.33648E+00 +1.10731E+01 +8.15237E+00 +8.84258E+00 +1.05075E+01
 +6.12562E+00 +1.22720E+01 +3.07460E+00 +1.33492E+01 -1.39864E-01 +1.36807E+01 -3.33847E+00 +1.32502E+01
 -6.34327E+00 +1.20833E+01 -8.98753E+00 +1.02470E+01 -1.11250E+01 +7.84501E+00 -1.26380E+01 +5.01251E+00
 -1.34440E+01 +1.90817E+00 -1.34997E+01 -1.29456E+00 -1.28041E+01 -4.41721E+00 -1.13977E+01 -7.28621E+00
 -9.36053E+00 -9.74254E+00 -6.80759E+00 -1.16505E+01 -3.88222E+00 -1.29054E+01 -7.48159E-01 -1.34390E+01
 +2.41967E+00 -1.32233E+01 +5.44490E+00 -1.22723E+01 +8.15953E+00 -1.06408E+01 +1.04133E+01 -8.42122E+00
 +1.20819E+01 -5.73857E+00 +1.30740E+01 -2.74332E+00 +1.33360E+01 +3.97084E-01 +1.28552E+01 +3.50750E+00
 +1.16603E+01 +6.41493E+00 +9.81947E+00 +8.95807E+00 +7.43683E+00 +1.09963E+01 +4.64632E+00 +1.24175E+01
 +1.60425E+00 +1.31441E+01 -1.51946E+00 +1.31375E+01 -4.55077E+00 +1.23997E+01 -7.32122E+00 +1.09738E+01
 -9.67731E+00 +8.94080E+00 -1.14889E+01 +6.41533E+00 -1.26567E+01 +3.53920E+00 -1.31172E+01 +4.73341E-01
 -1.28465E+01 -2.61117E+00 -1.18617E+01 -5.54262E+00 -1.02192E+01 -8.15828E+00 -8.01219E+00 -1.03134E+01
 -5.36483E+00 -1.18891E+01 -2.42556E+00 -1.27993E+01 +6.41302E-01 -1.29949E+01 +3.66478E+00 -1.24669E+01
 +6.47673E+00 -1.12465E+01 +8.92120E+00 -9.40321E+00 +1.08631E+01 -7.04131E+00 +1.21956E+01 -4.29349E+00
 +1.28460E+01 -1.31364E+00 +1.27800E+01 +1.73183E+00 +1.20029E+01 +4.67328E+00 +1.05599E+01 +7.34728E+00
 +8.53280E+00 +9.60571E+00 +6.03596E+00 +1.13239E+01 +3.20950E+00 +1.24076E+01 +2.11528E-01 +1.27982E+01
 -2.79069E+00 +1.24755E+01 -5.63008E+00 +1.14595E+01 -8.14903E+00 +9.80821E+00 -1.02082E+01 +7.61530E+00
 -1.16941E+01 +5.00410E+00 -1.25255E+01 +2.12099E+00 -1.26578E+01 -8.72913E-01 -1.20853E+01 -3.81073E+00
 -1.08418E+01 -6.52910E+00 -8.99806E+00 -8.87732E+00 -6.65821E+00 -1.07256E+01 -3.95372E+00 -1.19724E+01
 -1.03599E+00 -1.25498E+01 +1.93207E+00 -1.24274E+01 +4.78516E+00 -1.16137E+01 +7.36480E+00 -1.01558E+01
 +9.52812E+00 -8.13637E+00 +1.11558E+01 -5.66923E+00 +1.21585E+01 -2.89279E+00 +1.24822E+01 +3.76600E-02
 +1.21104E+01 +2.95866E+00 +1.10656E+01 +5.70768E+00 +9.40765E+00 +8.13217E+00 +7.23033E+00 +1.00980E+01
 +4.65612E+00 +1.14970E+01 +1.82925E+00 +1.22527E+01 -1.09231E+00 +1.23246E+01 -3.94575E+00 +1.17105E+01
 -6.57245E+00 +1.04463E+01 -8.82681E+00 +8.60388E+00 -1.05843E+01 +6.28732E+00 -1.17484E+01 +3.62669E+00
 -1.22558E+01 +7.70915E-01 -1.20798E+01 -2.12059E+00 -1.12321E+01 -4.88683E+00 -9.76150E+00 -7.37418E+00
 -7.75134E+00 -9.44492E+00 -5.31487E+00 -1.09849E+01 -2.58875E+00 -1.19096E+01 +2.74594E-01 -1.21693E+01
 +3.11547E+00 -1.17512E+01 +5.77583E+00 -1.06801E+01 +8.10810E+00 -9.01743E+00 +9.98331E+00 -6.85709E+00
 +1.12983E+01 -4.32058E+00 +1.19812E+01 -1.55001E+00 +1.19956E+01 +1.29987E+00 +1.13425E+01 +4.07025E+00
 +1.00598E+01 +6.60718E+00 +8.22052E+00 +8.77006E+00 +5.92839E+00 +1.04395E+01 +3.31211E+00 +1.15237E+01
 +5.18076E-01 +1.19640E+01 -2.29777E+00 +1.17374E+01 -4.97868E+00 +1.08581E+01 -7.37581E+00 +9.37687E+00
 -9.35646E+00 +7.37751E+00 -1.08115E+01 +4.97262E+00 -1.16612E+01 +2.29705E+00 -1.18598E+01 -4.99642E-01
 -1.13980E+01 -3.26151E+00 -1.03030E+01 -5.83494E+00 -8.63742E+00 -8.07720E+00 -6.49537E+00 -9.86435E+00
 -3.99723E+00 -1.10981E+01 -1.28292E+00 -1.17111E+01 +1.49597E+00 -1.16709E+01 +4.18463E+00 -1.09813E+01
 +6.63367E+00 -9.68233E+00 +8.70742E+00 -7.84783E+00 +1.02914E+01 -5.58120E+00 +1.12987E+01 -3.00968E+00
 +1.16747E+01 -2.77121E-01 +1.14001E+01 +2.46400E+00 +1.04917E+01 +5.06111E+00 +9.00184E+00 +7.37007E+00
 +7.01473E+00 +9.26309E+00 +4.64224E+00 +1.06359E+01 +2.01738E+00 +1.14133E+01 -7.13163E-01 +1.15537E+01
 -3.39716E+00 +1.10508E+01 -5.88538E+00 +9.93416E+00 -8.03983E+00 +8.26751E+00 -9.74147E+00 +6.14496E+00
 -1.08967E+01 +3.68578E+00 -1.14427E+01 +1.02766E+00 -1.13505E+01 -1.68097E+00 -1.06269E+01 -4.28926E+00
 -9.31380E+00 -6.65231E+00 -7.48565E+00 -8.63924E+00 -5.24551E+00 -1.01404E+01 -2.71909E+00 -1.10735E+01
 -4.77036E-02 -1.13880E+01 +2.61964E+00 -1.10681E+01 +5.13450E+00 -1.01329E+01 +7.35732E+00 -8.63629E+00
 +9.16514E+00 -6.66279E+00 +1.04584E+01 -4.32347E+00 +1.11664E+01 -1.74942E+00 +1.12512E+01 +9.15512E-01
 +1.07097E+01 +3.52281E+00 +9.57359E+00 +5.92753E+00 +7.90755E+00 +7.99635E+00 +5.80565E+00 +9.61498E+00
 +3.38595E+00 +1.06945E+01 +7.83897E-01 +1.11762E+01 -1.85525E+00 +1.10347E+01 -4.38453E+00 +1.02795E+01
 -6.66346E+00 +8.95413E+00 -8.56586E+00 +7.13382E+00 -9.98681E+00 +4.92110E+00 -1.08484E+01 +2.44007E+00
 -1.11042E+01 -1.70514E-01 -1.07414E+01 -2.76506E+00 -9.78171E+00 -5.19922E+00 -8.28012E+00 -7.33793E+00
 -6.32152E+00 -9.06293E+00 -4.01605E+00 -1.02793E+01 -1.49288E+00 -1.09205E+01 +1.10704E+00 -1.09524E+01
 +3.63882E+00 -1.03748E+01 +5.96175E+00 -9.22123E+00 +7.94709E+00 -7.55743E+00 +9.48519E+00 -5.47724E+00
 +1.04916E+01 -3.09748E+00 +1.09116E+01 -5.51308E-01 +1.07234E+01 +2.01915E+00 +9.93887E+00 +4.47079E+00
 +8.60324E+00 +6.66748E+00 +6.79219E+00 +8.48762E+00 +4.60772E+00 +9.83086E+00 +2.17231E+00 +1.06237E+01
 -3.77865E-01 +1.08233E+01 -2.90062E+00 +1.04201E+01 -5.25562E+00 +9.43803E+00 -7.31224E+00 +7.93323E+00
 -8.95678E+00 +5.99073E+00 -1.00988E+01 +3.71973E+00 -1.06759E+01 +1.24743E+00 -1.06575E+01 -1.28808E+00
 -1.00460E+01 -3.74554E+00 -8.87703E+00 -5.98840E+00 -7.21700E+00 -7.89239E+00 -5.15952E+00 -9.35239E+00
 -2.82008E+00 -1.02883E+01 -3.29577E-01 -1.06493E+01 +2.17301E+00 -1.04168E+01 +4.54840E+00 -9.60514E+00
 +6.66471E+00 -8.26104E+00 +8.40482E+00 -6.46060E+00 +9.67284E+00 -4.30515E+00 +1.03994E+01 -1.91554E+00
 +1.05454E+01 +5.74678E-01 +1.01042E+01 +3.02666E+00 +9.10186E+00 +5.30406E+00 +7.59550E+00 +7.28058E+00
