 Created: 16-Jan-2021
 $NMID
 ID='D:\BASISSIMULATI'
 FMTDAT='(8E13.5)'
 VOLUME=   1.00000E+00
 TRAMP=   1.00000E+00
 $END
 +4.55879E+01 +6.97800E-01 +3.82914E+01 +2.20299E+01 +2.11774E+01 +3.52471E+01 +1.16264E+00 +3.66531E+01
 -1.44147E+01 +2.76432E+01 -2.10642E+01 +1.35497E+01 -1.87187E+01 +7.44218E-01 -1.09959E+01 -6.36601E+00
 -2.80855E+00 -6.91550E+00 +2.21054E+00 -3.12686E+00 +3.08786E+00 +1.60192E+00 +1.16165E+00 +4.77127E+00
 -1.46395E+00 +5.81528E+00 -3.51018E+00 +5.68785E+00 -5.14656E+00 +5.53355E+00 -7.38074E+00 +5.48962E+00
 -1.07957E+01 +4.46614E+00 -1.46162E+01 +1.01896E+00 -1.68185E+01 -5.33516E+00 -1.52628E+01 -1.33149E+01
 -9.12419E+00 -2.01996E+01 +3.26523E-01 -2.31571E+01 +1.01437E+01 -2.07874E+01 +1.71298E+01 -1.39333E+01
 +1.94315E+01 -5.25208E+00 +1.73694E+01 +2.20423E+00 +1.30314E+01 +6.55211E+00 +8.91537E+00 +7.86533E+00
 +6.46808E+00 +7.76329E+00 +5.40579E+00 +8.11389E+00 +4.19205E+00 +9.69654E+00 +1.32307E+00 +1.16703E+01
 -3.42500E+00 +1.21706E+01 -8.59787E+00 +9.64698E+00 -1.17914E+01 +4.08940E+00 -1.10837E+01 -2.64628E+00
 -6.30976E+00 -7.65938E+00 +6.02663E-01 -8.52881E+00 +6.46944E+00 -4.67435E+00 +8.41611E+00 +2.22200E+00
 +5.31930E+00 +8.97544E+00 -1.64515E+00 +1.24207E+01 -9.60377E+00 +1.08802E+01 -1.53653E+01 +4.83342E+00
 -1.68253E+01 -3.48006E+00 -1.37028E+01 -1.12100E+01 -7.34443E+00 -1.61316E+01 +1.44324E-01 -1.73533E+01
 +6.87189E+00 -1.52632E+01 +1.17259E+01 -1.09367E+01 +1.43587E+01 -5.47967E+00 +1.48051E+01 +2.95572E-01
 +1.31320E+01 +5.77295E+00 +9.40853E+00 +1.02494E+01 +3.98740E+00 +1.28182E+01 -2.18567E+00 +1.26202E+01
 -7.57444E+00 +9.35965E+00 -1.05099E+01 +3.74013E+00 -9.92664E+00 -2.53456E+00 -5.97419E+00 -7.31420E+00
 -1.15284E-01 -8.88991E+00 +5.41028E+00 -6.76829E+00 +8.52472E+00 -1.91337E+00 +8.18865E+00 +3.68623E+00
 +4.77794E+00 +7.90689E+00 -2.04342E-01 +9.38149E+00 -4.89206E+00 +7.95895E+00 -7.87488E+00 +4.55400E+00
 -8.66417E+00 +5.44135E-01 -7.63356E+00 -2.91092E+00 -5.56804E+00 -5.26415E+00 -3.15007E+00 -6.54290E+00
 -6.92067E-01 -7.00365E+00 +1.77631E+00 -6.77104E+00 +4.20203E+00 -5.71822E+00 +6.25241E+00 -3.65133E+00
 +7.32374E+00 -6.40554E-01 +6.83545E+00 +2.76381E+00 +4.62657E+00 +5.61833E+00 +1.18920E+00 +6.96586E+00
 -2.43622E+00 +6.30265E+00 -5.07615E+00 +3.86103E+00 -5.93383E+00 +5.36335E-01 -4.91949E+00 -2.51004E+00
 -2.63084E+00 -4.35629E+00 -1.39240E-02 -4.66738E+00 +2.09168E+00 -3.72009E+00 +3.27293E+00 -2.13372E+00
 +3.57995E+00 -4.95408E-01 +3.31012E+00 +8.93243E-01 +2.71600E+00 +2.02233E+00 +1.83921E+00 +2.97465E+00
 +5.69520E-01 +3.69268E+00 -1.13094E+00 +3.89433E+00 -3.01332E+00 +3.21218E+00 -4.51039E+00 +1.47538E+00
 -4.94527E+00 -1.05143E+00 -3.88236E+00 -3.64520E+00 -1.42256E+00 -5.36909E+00 +1.73801E+00 -5.47818E+00
 +4.54171E+00 -3.78029E+00 +5.99334E+00 -7.62070E-01 +5.56991E+00 +2.58814E+00 +3.42208E+00 +5.17414E+00
 +2.84019E-01 +6.21226E+00 -2.84489E+00 +5.48898E+00 -5.08167E+00 +3.36324E+00 -5.93285E+00 +5.52299E-01
 -5.36712E+00 -2.16599E+00 -3.70821E+00 -4.19133E+00 -1.44803E+00 -5.20112E+00 +9.11799E-01 -5.12603E+00
 +2.93676E+00 -4.07478E+00 +4.27357E+00 -2.28099E+00 +4.66133E+00 -9.40164E-02 +3.98405E+00 +2.02330E+00
 +2.35451E+00 +3.54907E+00 +1.67000E-01 +4.03697E+00 -1.95255E+00 +3.29474E+00 -3.32406E+00 +1.51695E+00
 -3.46627E+00 -7.20098E-01 -2.31268E+00 -2.63533E+00 -2.75352E-01 -3.53614E+00 +1.89482E+00 -3.10142E+00
 +3.40365E+00 -1.51921E+00 +3.73534E+00 +5.93091E-01 +2.85214E+00 +2.45440E+00 +1.18027E+00 +3.44860E+00
 -6.06074E-01 +3.36327E+00 -1.89364E+00 +2.43234E+00 -2.38231E+00 +1.17482E+00 -2.16623E+00 +1.21496E-01
 -1.62016E+00 -4.30176E-01 -1.16488E+00 -5.16525E-01 -1.03937E+00 -4.28005E-01 -1.19402E+00 -5.06555E-01
 -1.34879E+00 -9.34328E-01 -1.17413E+00 -1.62362E+00 -4.93404E-01 -2.25903E+00 +5.98360E-01 -2.46311E+00
 +1.75672E+00 -1.99756E+00 +2.53635E+00 -8.99587E-01 +2.59198E+00 +5.09844E-01 +1.83844E+00 +1.74640E+00
 +5.01206E-01 +2.35466E+00 -9.59326E-01 +2.08976E+00 -2.01442E+00 +1.01740E+00 -2.25816E+00 -5.00932E-01
 -1.55498E+00 -1.92694E+00 -9.65300E-02 -2.72515E+00 +1.64796E+00 -2.54536E+00 +3.07342E+00 -1.35248E+00
 +3.63381E+00 +5.37440E-01 +3.03517E+00 +2.53384E+00 +1.36421E+00 +3.95024E+00 -9.00907E-01 +4.23953E+00
 -3.02215E+00 +3.21008E+00 -4.24994E+00 +1.13652E+00 -4.10903E+00 -1.29745E+00 -2.60943E+00 -3.22734E+00
 -2.82516E-01 -3.93532E+00 +1.99539E+00 -3.14840E+00 +3.33775E+00 -1.17494E+00 +3.20870E+00 +1.19396E+00
 +1.65459E+00 +2.99088E+00 -7.00618E-01 +3.46263E+00 -2.89999E+00 +2.37897E+00 -4.03564E+00 +1.27419E-01
 -3.60585E+00 -2.44212E+00 -1.70227E+00 -4.35009E+00 +1.03704E+00 -4.85481E+00 +3.67183E+00 -3.71187E+00
 +5.29241E+00 -1.24269E+00 +5.31760E+00 +1.78798E+00 +3.67036E+00 +4.42168E+00 +7.98867E-01 +5.79710E+00
 -2.44471E+00 +5.40699E+00 -5.03433E+00 +3.26787E+00 -6.06645E+00 -3.71950E-02 -5.06363E+00 -3.47394E+00
 -2.20037E+00 -5.83874E+00 +1.65056E+00 -6.16228E+00 +5.12709E+00 -4.11677E+00 +6.83178E+00 -2.55942E-01
 +5.89740E+00 +4.06616E+00 +2.43225E+00 +7.14059E+00 -2.39003E+00 +7.58507E+00 -6.70770E+00 +4.98392E+00
 -8.71260E+00 +1.73130E-01 -7.45167E+00 -5.01673E+00 -3.30916E+00 -8.50089E+00 +2.09502E+00 -8.85339E+00
 +6.58689E+00 -5.96440E+00 +8.40346E+00 -1.10777E+00 +6.98370E+00 +3.63771E+00 +3.19601E+00 +6.34641E+00
 -1.11270E+00 +6.11781E+00 -4.01887E+00 +3.43533E+00 -4.42038E+00 -1.51667E-01 -2.48688E+00 -2.83909E+00
 +5.36700E-01 -3.44306E+00 +3.03093E+00 -1.89790E+00 +3.81344E+00 +8.40259E-01 +2.64165E+00 +3.37585E+00
 +1.89609E-01 +4.58971E+00 -2.41556E+00 +4.10582E+00 -4.18753E+00 +2.31099E+00 -4.67158E+00 +4.08892E-03
 -3.97223E+00 -2.05426E+00 -2.50184E+00 -3.41663E+00 -6.89243E-01 -3.94342E+00 +1.14015E+00 -3.62747E+00
 +2.67876E+00 -2.46778E+00 +3.50209E+00 -5.39925E-01 +3.10047E+00 +1.78593E+00 +1.16706E+00 +3.70278E+00
 -1.99856E+00 +4.13274E+00 -5.28013E+00 +2.24555E+00 -7.00099E+00 -1.90350E+00 -5.66497E+00 -7.02610E+00
 -8.63774E-01 -1.08823E+01 +6.16838E+00 -1.12078E+01 +1.27783E+01 -6.90091E+00 +1.59409E+01 +1.15796E+00
 +1.37002E+01 +1.01826E+01 +6.28350E+00 +1.65546E+01 -3.74873E+00 +1.74551E+01 -1.24989E+01 +1.22620E+01
 -1.64577E+01 +2.97502E+00 -1.41296E+01 -6.60610E+00 -6.73935E+00 -1.25887E+01 +2.34812E+00 -1.27489E+01
 +9.20830E+00 -7.48028E+00 +1.11432E+01 +5.18049E-01 +7.79401E+00 +7.61112E+00 +1.07940E+00 +1.09257E+01
 -5.91554E+00 +9.52343E+00 -1.04513E+01 +4.53114E+00 -1.12556E+01 -1.70574E+00 -8.75693E+00 -6.88255E+00
 -4.46681E+00 -9.70136E+00 -1.27735E-03 -1.01031E+01 +3.64944E+00 -8.80840E+00 +6.24786E+00 -6.60560E+00
 +7.91696E+00 -3.90083E+00 +8.64477E+00 -7.80762E-01 +8.11881E+00 +2.56755E+00 +6.03197E+00 +5.50487E+00
 +2.60953E+00 +7.02974E+00 -1.10588E+00 +6.34615E+00 -3.55097E+00 +3.55251E+00 -3.46386E+00 -7.38209E-02
 -7.64843E-01 -2.52722E+00 +3.10891E+00 -2.12847E+00 +5.75969E+00 +1.38911E+00 +5.09076E+00 +6.45653E+00
 +6.03396E-01 +1.02878E+01 -6.05883E+00 +1.03207E+01 -1.17480E+01 +5.72576E+00 -1.33986E+01 -1.89716E+00
 -9.74430E+00 -9.12948E+00 -2.19219E+00 -1.24250E+01 +5.70918E+00 -1.00157E+01 +1.00116E+01 -2.98341E+00
 +8.42946E+00 +5.14398E+00 +1.61248E+00 +1.01211E+01 -7.08489E+00 +9.15236E+00 -1.32480E+01 +2.35105E+00
 -1.36039E+01 -7.28610E+00 -7.62676E+00 -1.53671E+01 +2.27238E+00 -1.82537E+01 +1.20146E+01 -1.47422E+01
 +1.78510E+01 -6.44533E+00 +1.80196E+01 +3.21983E+00 +1.32532E+01 +1.07867E+01 +6.02167E+00 +1.42539E+01
 -9.16839E-01 +1.36158E+01 -5.77494E+00 +1.03034E+01 -8.16135E+00 +6.05733E+00 -8.61934E+00 +2.00802E+00
 -7.78168E+00 -1.51972E+00 -5.82139E+00 -4.51545E+00 -2.58283E+00 -6.62957E+00 +1.76986E+00 -6.97118E+00
 +6.17175E+00 -4.61311E+00 +8.72858E+00 +4.99445E-01 +7.58951E+00 +6.91620E+00 +2.17682E+00 +1.19208E+01
 -6.02266E+00 +1.27157E+01 -1.37458E+01 +7.98438E+00 -1.73586E+01 -1.08601E+00 -1.47135E+01 -1.10331E+01
 -6.43032E+00 -1.76352E+01 +4.19073E+00 -1.79869E+01 +1.26886E+01 -1.20195E+01 +1.56383E+01 -2.59434E+00
 +1.23513E+01 +5.93733E+00 +5.14445E+00 +9.95517E+00 -1.97427E+00 +8.37037E+00 -5.47446E+00 +3.03151E+00
 -4.12605E+00 -2.45625E+00 +5.12839E-01 -4.80309E+00 +5.16191E+00 -2.82007E+00 +6.77834E+00 +2.06213E+00
 +4.27032E+00 +6.77169E+00 -9.88615E-01 +8.44391E+00 -6.07131E+00 +6.04616E+00 -8.23570E+00 +8.68947E-01
 -6.45005E+00 -4.32737E+00 -1.84949E+00 -6.93433E+00 +3.05811E+00 -5.90363E+00 +5.87968E+00 -2.15391E+00
 +5.59938E+00 +2.16471E+00 +2.90771E+00 +5.00384E+00 -4.88224E-01 +5.49549E+00 -3.03144E+00 +4.16018E+00
 -4.17215E+00 +2.23009E+00 -4.40021E+00 +6.41619E-01 -4.52718E+00 -5.74470E-01 -4.80378E+00 -2.09500E+00
 -4.55777E+00 -4.47580E+00 -2.66247E+00 -7.33136E+00 +1.45224E+00 -9.18622E+00 +6.95764E+00 -8.22351E+00
 +1.16205E+01 -3.53422E+00 +1.27998E+01 +3.92896E+00 +8.95563E+00 +1.13912E+01 +7.87646E-01 +1.54252E+01
 -8.74318E+00 +1.36942E+01 -1.56506E+01 +6.31145E+00 -1.68265E+01 -3.98823E+00 -1.16061E+01 -1.30329E+01
 -2.13975E+00 -1.71690E+01 +7.63950E+00 -1.49659E+01 +1.39031E+01 -7.78597E+00 +1.46690E+01 +1.03546E+00
 +1.05156E+01 +7.90467E+00 +3.98385E+00 +1.06346E+01 -1.89965E+00 +9.21391E+00 -5.11109E+00 +5.38973E+00
 -5.35183E+00 +1.44686E+00 -3.73867E+00 -1.04078E+00 -1.80964E+00 -1.79641E+00 -5.37023E-01 -1.55178E+00
 +6.37169E-02 -1.22024E+00 +5.89366E-01 -1.15199E+00 +1.51717E+00 -9.60004E-01 +2.65423E+00 +2.62118E-02
 +3.16737E+00 +2.05739E+00 +2.16757E+00 +4.54708E+00 -5.67754E-01 +6.26616E+00 -4.25289E+00 +6.04907E+00
 -7.40169E+00 +3.55542E+00 -8.62391E+00 -4.22843E-01 -7.41967E+00 -4.33537E+00 -4.46788E+00 -6.71937E+00
 -1.21628E+00 -7.00220E+00 +9.81132E-01 -5.76421E+00 +1.64728E+00 -4.29961E+00 +1.40090E+00 -3.75120E+00
 +1.47781E+00 -4.36137E+00 +2.85618E+00 -5.31046E+00 +5.53614E+00 -5.24876E+00 +8.43105E+00 -3.19730E+00
 +9.95370E+00 +7.38478E-01 +8.95458E+00 +5.28934E+00 +5.45240E+00 +8.64345E+00 +7.17962E-01 +9.41547E+00
 -3.34660E+00 +7.40553E+00 -5.18109E+00 +3.71669E+00 -4.34609E+00 +1.75004E-01 -1.68794E+00 -1.60804E+00
 +1.16737E+00 -1.00715E+00 +2.67344E+00 +1.41001E+00 +2.08837E+00 +4.29721E+00 -3.00575E-01 +6.27388E+00
