 Created: 16-Jan-2021
 $NMID
 ID='D:\BASISSIMULATI'
 FMTDAT='(8E13.5)'
 VOLUME=   1.00000E+00
 TRAMP=   1.00000E+00
 $END
 +2.53855E+01 +1.27829E-01 +2.30455E+01 +9.20006E+00 +1.74482E+01 +1.64059E+01 +9.74344E+00 +2.06224E+01
 +1.42439E+00 +2.13601E+01 -5.99697E+00 +1.88373E+01 -1.13074E+01 +1.38971E+01 -1.38322E+01 +7.79138E+00
 -1.35454E+01 +1.88354E+00 -1.10299E+01 -2.66012E+00 -7.30191E+00 -5.11976E+00 -3.54360E+00 -5.35707E+00
 -8.09250E-01 -3.80847E+00 +2.25721E-01 -1.34258E+00 -5.84457E-01 +9.80642E-01 -2.83839E+00 +2.18972E+00
 -5.70434E+00 +1.65294E+00 -8.14097E+00 -7.58108E-01 -9.16765E+00 -4.63040E+00 -8.11928E+00 -9.10437E+00
 -4.82510E+00 -1.30781E+01 +3.30460E-01 -1.54717E+01 +6.47888E+00 -1.54896E+01 +1.24535E+01 -1.28184E+01
 +1.70467E+01 -7.71579E+00 +1.92793E+01 -9.69388E-01 +1.86200E+01 +6.26484E+00 +1.51049E+01 +1.27061E+01
 +9.33204E+00 +1.72194E+01 +2.33288E+00 +1.90522E+01 -4.64878E+00 +1.79838E+01 -1.04191E+01 +1.43574E+01
 -1.40788E+01 +8.98885E+00 -1.51959E+01 +2.97631E+00 -1.38707E+01 -2.54415E+00 -1.06812E+01 -6.64055E+00
 -6.52642E+00 -8.77057E+00 -2.40624E+00 -8.87101E+00 +8.10200E-01 -7.33448E+00 +2.57330E+00 -4.88330E+00
 +2.75784E+00 -2.37366E+00 +1.66254E+00 -5.78368E-01 -9.13997E-02 +2.61302E-04 -1.73553E+00 -7.55803E-01
 -2.55890E+00 -2.56432E+00 -2.09292E+00 -4.82565E+00 -2.32489E-01 -6.78206E+00 +2.73410E+00 -7.71384E+00
 +6.19198E+00 -7.12448E+00 +9.34578E+00 -4.87107E+00 +1.14094E+01 -1.20974E+00 +1.17939E+01 +3.25376E+00
 +1.02499E+01 +7.69556E+00 +6.93154E+00 +1.12559E+01 +2.36837E+00 +1.32291E+01 -2.64743E+00 +1.32185E+01
 -7.23096E+00 +1.12198E+01 -1.05926E+01 +7.61813E+00 -1.22012E+01 +3.09817E+00 -1.18860E+01 -1.50752E+00
 -9.85749E+00 -5.39785E+00 -6.64349E+00 -7.96848E+00 -2.95936E+00 -8.92668E+00 +4.56617E-01 -8.33188E+00
 +3.00391E+00 -6.55613E+00 +4.34011E+00 -4.17685E+00 +4.43558E+00 -1.82969E+00 +3.55284E+00 -5.72355E-02
 +2.15927E+00 +8.11206E-01 +7.96647E-01 +7.22129E-01 -5.96278E-02 -1.09355E-01 -1.17792E-01 -1.27155E+00
 +6.63575E-01 -2.27309E+00 +2.07342E+00 -2.67484E+00 +3.70883E+00 -2.20453E+00 +5.08171E+00 -8.26915E-01
 +5.74443E+00 +1.24612E+00 +5.40352E+00 +3.60631E+00 +3.99461E+00 +5.74704E+00 +1.70141E+00 +7.18398E+00
 -1.08448E+00 +7.56926E+00 -3.85203E+00 +6.77230E+00 -6.08570E+00 +4.90914E+00 -7.37935E+00 +2.31464E+00
 -7.52256E+00 -5.34267E-01 -6.54057E+00 -3.12528E+00 -4.67985E+00 -5.02161E+00 -2.34490E+00 -5.95156E+00
 -2.62033E-03 -5.85704E+00 +1.92234E+00 -4.89167E+00 +3.13667E+00 -3.37134E+00 +3.53213E+00 -1.69097E+00
 +3.19338E+00 -2.28674E-01 +2.36042E+00 +7.39563E-01 +1.35720E+00 +1.09525E+00 +5.05216E-01 +8.91211E-01
 +4.36564E-02 +3.23003E-01 +7.50511E-02 -3.32888E-01 +5.48316E-01 -7.97163E-01 +1.28142E+00 -8.62135E-01
 +2.01618E+00 -4.44250E-01 +2.49001E+00 +3.97360E-01 +2.50622E+00 +1.47946E+00 +1.98515E+00 +2.54436E+00
 +9.84228E-01 +3.32704E+00 -3.17034E-01 +3.62253E+00 -1.66226E+00 +3.33656E+00 -2.78140E+00 +2.50765E+00
 -3.45564E+00 +1.29591E+00 -3.56810E+00 -5.75509E-02 -3.12803E+00 -1.28962E+00 -2.26373E+00 -2.17748E+00
 -1.18679E+00 -2.58867E+00 -1.37716E-01 -2.50715E+00 +6.72988E-01 -2.02966E+00 +1.11348E+00 -1.33464E+00
 +1.15729E+00 -6.32479E-01 +8.82184E-01 -1.10304E-01 +4.42770E-01 +1.14518E-01 +2.46444E-02 +2.07074E-02
 -2.07391E-01 -3.16718E-01 -1.53567E-01 -7.51489E-01 +1.95353E-01 -1.10908E+00 +7.57375E-01 -1.23599E+00
 +1.38290E+00 -1.04223E+00 +1.89595E+00 -5.26194E-01 +2.14187E+00 +2.24315E-01 +2.02890E+00 +1.05472E+00
 +1.55294E+00 +1.78372E+00 +7.99164E-01 +2.25002E+00 -7.95945E-02 +2.35364E+00 -9.01793E-01 +2.08091E+00
 -1.50326E+00 +1.50709E+00 -1.77833E+00 +7.75825E-01 -1.70535E+00 +6.12822E-02 -1.35019E+00 -4.77334E-01
 -8.46709E-01 -7.36815E-01 -3.59706E-01 -6.95938E-01 -3.97482E-02 -4.19601E-01 +1.80540E-02 -4.00213E-02
 -1.99389E-01 +2.80165E-01 -6.18359E-01 +3.93334E-01 -1.09679E+00 +2.09014E-01 -1.46150E+00 -2.78360E-01
 -1.55471E+00 -9.83561E-01 -1.27802E+00 -1.74850E+00 -6.22422E-01 -2.37987E+00 +3.23766E-01 -2.69722E+00
 +1.39143E+00 -2.57955E+00 +2.36812E+00 -1.99847E+00 +3.04740E+00 -1.02949E+00 +3.27809E+00 +1.61955E-01
 +3.00119E+00 +1.35658E+00 +2.26513E+00 +2.33094E+00 +1.21554E+00 +2.90859E+00 +6.17250E-02 +3.00040E+00
 -9.72126E-01 +2.62395E+00 -1.69899E+00 +1.89730E+00 -2.01171E+00 +1.00869E+00 -1.90591E+00 +1.69518E-01
 -1.47741E+00 -4.37651E-01 -8.95018E-01 -7.03397E-01 -3.55378E-01 -6.16933E-01 -3.11235E-02 -2.66539E-01
 -2.53628E-02 +1.85243E-01 -3.43861E-01 +5.45528E-01 -8.92072E-01 +6.43233E-01 -1.49801E+00 +3.76421E-01
 -1.95557E+00 -2.57089E-01 -2.07786E+00 -1.15381E+00 -1.74732E+00 -2.12527E+00 -9.50258E-01 -2.94084E+00
 +2.13039E-01 -3.38243E+00 +1.54571E+00 -3.29827E+00 +2.79552E+00 -2.64245E+00 +3.71050E+00 -1.49064E+00
 +4.09599E+00 -2.77099E-02 +3.85959E+00 +1.49019E+00 +3.03337E+00 +2.79042E+00 +1.76799E+00 +3.64297E+00
 +2.99845E-01 +3.90992E+00 -1.10091E+00 +3.57404E+00 -2.18945E+00 +2.73967E+00 -2.79860E+00 +1.60620E+00
 -2.87242E+00 +4.20402E-01 -2.47333E+00 -5.80771E-01 -1.76167E+00 -1.22347E+00 -9.52957E-01 -1.43373E+00
 -2.63484E-01 -1.24938E+00 +1.42550E-01 -8.04728E-01 +1.91703E-01 -2.92209E-01 -8.33840E-02 +8.93047E-02
 -5.55361E-01 +1.86796E-01 -1.03713E+00 -6.68133E-02 -1.33165E+00 -6.34471E-01 -1.28420E+00 -1.38303E+00
 -8.24501E-01 -2.11549E+00 +1.18922E-02 -2.61950E+00 +1.08786E+00 -2.72052E+00 +2.19395E+00 -2.32664E+00
 +3.09555E+00 -1.45435E+00 +3.58691E+00 -2.29032E-01 +3.53919E+00 +1.14005E+00 +2.93130E+00 +2.40451E+00
 +1.85635E+00 +3.33074E+00 +5.02228E-01 +3.75066E+00 -8.88941E-01 +3.59743E+00 -2.07300E+00 +2.91822E+00
 -2.85545E+00 +1.86144E+00 -3.13091E+00 +6.41780E-01 -2.90146E+00 -5.08362E-01 -2.27041E+00 -1.38962E+00
 -1.41357E+00 -1.87680E+00 -5.35481E-01 -1.94135E+00 +1.78749E-01 -1.65045E+00 +6.04469E-01 -1.14408E+00
 +7.02107E-01 -5.96166E-01 +5.20162E-01 -1.69772E-01 +1.76749E-01 +2.27534E-02 -1.75011E-01 -5.47742E-02
 -3.88728E-01 -3.56919E-01 -3.63203E-01 -7.71792E-01 -6.82622E-02 -1.15244E+00 +4.47965E-01 -1.35625E+00
 +1.07162E+00 -1.28250E+00 +1.65198E+00 -8.98839E-01 +2.03910E+00 -2.50465E-01 +2.12097E+00 +5.49800E-01
 +1.85110E+00 +1.34783E+00 +1.26011E+00 +1.98414E+00 +4.48857E-01 +2.33067E+00 -4.34752E-01 +2.31959E+00
 -1.22944E+00 +1.95749E+00 -1.79638E+00 +1.32205E+00 -2.04866E+00 +5.42508E-01 -1.96775E+00 -2.30832E-01
 -1.60357E+00 -8.60511E-01 -1.05886E+00 -1.25104E+00 -4.62437E-01 -1.36660E+00 +6.19255E-02 -1.23379E+00
 +4.23056E-01 -9.29485E-01 +5.80146E-01 -5.57767E-01 +5.46916E-01 -2.22188E-01 +3.82067E-01 -4.79808E-04
 +1.69336E-01 +7.20991E-02 -7.11426E-03 +7.18164E-03 -8.53329E-02 -1.44841E-01 -4.05061E-02 -3.12553E-01
 +1.11279E-01 -4.25564E-01 +3.20754E-01 -4.34715E-01 +5.21924E-01 -3.25088E-01 +6.52302E-01 -1.18640E-01
 +6.71149E-01 +1.33784E-01 +5.70716E-01 +3.68372E-01 +3.77588E-01 +5.27450E-01 +1.44037E-01 +5.76254E-01
 -6.78887E-02 +5.12676E-01 -2.04882E-01 +3.67316E-01 -2.38151E-01 +1.93948E-01 -1.71933E-01 +5.32096E-02
 -4.23032E-02 -5.79348E-03 +9.34240E-02 +3.93228E-02 +1.73761E-01 +1.76651E-01 +1.51766E-01 +3.62341E-01
 +1.00793E-02 +5.32403E-01 -2.32126E-01 +6.20835E-01 -5.22503E-01 +5.79081E-01 -7.88588E-01 +3.91344E-01
 -9.57207E-01 +8.12571E-02 -9.75004E-01 -2.92287E-01 -8.24379E-01 -6.49422E-01 -5.30161E-01 -9.10127E-01
 -1.54783E-01 -1.01605E+00 +2.17242E-01 -9.47296E-01 +5.01689E-01 -7.29287E-01 +6.37967E-01 -4.27279E-01
 +6.06972E-01 -1.29463E-01 +4.38227E-01 +7.72653E-02 +2.03687E-01 +1.32566E-01 -8.43845E-04 +2.19863E-02
 -8.23497E-02 -2.15346E-01 +2.15144E-02 -4.93576E-01 +3.20832E-01 -7.00664E-01 +7.64461E-01 -7.28036E-01
 +1.24708E+00 -5.02042E-01 +1.63154E+00 -8.96613E-03 +1.78195E+00 +6.93511E-01 +1.59946E+00 +1.48242E+00
 +1.05200E+00 +2.19297E+00 +1.89784E-01 +2.65458E+00 -8.58298E-01 +2.73151E+00 -1.90768E+00 +2.35800E+00
 -2.75619E+00 +1.55924E+00 -3.22873E+00 +4.52010E-01 -3.21807E+00 -7.76178E-01 -2.71187E+00 -1.90545E+00
 -1.79870E+00 -2.73104E+00 -6.50903E-01 -3.10896E+00 +5.12480E-01 -2.98873E+00 +1.47451E+00 -2.42517E+00
 +2.06947E+00 -1.56560E+00 +2.22060E+00 -6.15041E-01 +1.95694E+00 +2.12755E-01 +1.40481E+00 +7.46951E-01
 +7.55330E-01 +9.01316E-01 +2.15426E-01 +6.95494E-01 -4.60485E-02 +2.50068E-01 +5.62356E-02 -2.44123E-01
 +4.98613E-01 -5.75575E-01 +1.15002E+00 -5.68869E-01 +1.80131E+00 -1.34677E-01 +2.21607E+00 +6.99755E-01
 +2.19134E+00 +1.78811E+00 +1.61352E+00 +2.89240E+00 +4.95596E-01 +3.73495E+00 -1.01436E+00 +4.06354E+00
 -2.65691E+00 +3.71441E+00 -4.11299E+00 +2.65810E+00 -5.07257E+00 +1.01627E+00 -5.30492E+00 -9.55597E-01
 -4.71391E+00 -2.91705E+00 -3.36510E+00 -4.51269E+00 -1.47735E+00 -5.44800E+00 +6.20040E-01 -5.55367E+00
 +2.55574E+00 -4.82328E+00 +3.99508E+00 -3.41537E+00 +4.71125E+00 -1.61862E+00 +4.63248E+00 +2.12028E-01
 +3.85426E+00 +1.73421E+00 +2.61335E+00 +2.69350E+00 +1.22968E+00 +2.97796E+00 +2.93512E-02 +2.63890E+00
 -7.32928E-01 +1.87303E+00 -9.33714E-01 +9.69800E-01 -6.08553E-01 +2.36664E-01 +5.93842E-02 -8.01907E-02
 +7.87376E-01 +1.39689E-01 +1.26678E+00 +8.57138E-01 +1.24469E+00 +1.87890E+00 +5.93887E-01 +2.90205E+00
 -6.46286E-01 +3.58741E+00 -2.26881E+00 +3.64498E+00 -3.93917E+00 +2.91098E+00 -5.26834E+00 +1.39783E+00
 -5.90245E+00 -6.95862E-01 -5.60810E+00 -3.01883E+00 -4.33347E+00 -5.13779E+00 -2.23006E+00 -6.62978E+00
 +3.70991E-01 -7.17544E+00 +3.02362E+00 -6.63182E+00 +5.25872E+00 -5.06770E+00 +6.68280E+00 -2.75276E+00
 +7.06111E+00 -1.02362E-01 +6.36638E+00 +2.40991E+00 +4.78193E+00 +4.35242E+00 +2.65839E+00 +5.42573E+00
 +4.33886E-01 +5.52255E+00 -1.46398E+00 +4.74383E+00 -2.71189E+00 +3.36762E+00 -3.15869E+00 +1.77824E+00
 -2.85201E+00 +3.72552E-01 -2.01770E+00 -5.34645E-01 -9.97305E-01 -7.83812E-01 -1.58780E-01 -4.05274E-01
 +1.98348E-01 +3.92866E-01 -7.95349E-02 +1.28054E+00 -9.58616E-01 +1.89193E+00 -2.22237E+00 +1.92144E+00
 -3.52181E+00 +1.20642E+00 -4.45975E+00 -2.23686E-01 -4.68939E+00 -2.14382E+00 -4.00384E+00 -4.17739E+00
 -2.39519E+00 -5.87833E+00 -6.84306E-02 -6.83237E+00 +2.59383E+00 -6.75452E+00 +5.10876E+00 -5.55972E+00
