 Created: 16-Jan-2021
 $NMID
 ID='D:\BASISSIMULATI'
 FMTDAT='(8E13.5)'
 VOLUME=   1.00000E+00
 TRAMP=   1.00000E+00
 $END
 +3.21197E+01 +1.62192E+00 +2.31079E+01 +2.20059E+01 +2.97027E+00 +3.08204E+01 -1.71061E+01 +2.38638E+01
 -2.64838E+01 +6.06101E+00 -2.13862E+01 -1.18901E+01 -6.68271E+00 -2.02991E+01 +7.80254E+00 -1.62273E+01
 +1.38035E+01 -4.58018E+00 +9.58337E+00 +5.85110E+00 +2.60777E-01 +8.47358E+00 -6.36025E+00 +2.96877E+00
 -5.35318E+00 -5.16204E+00 +2.17921E+00 -8.92040E+00 +1.02812E+01 -4.81401E+00 +1.25361E+01 +4.85945E+00
 +6.50514E+00 +1.37751E+01 -4.73611E+00 +1.59249E+01 -1.47501E+01 +9.49601E+00 -1.78801E+01 -2.18388E+00
 -1.25653E+01 -1.29563E+01 -1.85431E+00 -1.75977E+01 +8.82564E+00 -1.45512E+01 +1.48803E+01 -6.14996E+00
 +1.46658E+01 +3.32888E+00 +9.52923E+00 +1.01693E+01 +2.30005E+00 +1.26908E+01 -4.40550E+00 +1.11763E+01
 -9.00728E+00 +6.89223E+00 -1.08212E+01 +1.23564E+00 -9.63387E+00 -4.46355E+00 -5.65609E+00 -8.76953E+00
 +1.24575E-01 -1.02445E+01 +5.77700E+00 -8.10873E+00 +9.00384E+00 -3.02166E+00 +8.36310E+00 +2.81254E+00
 +4.32060E+00 +6.63021E+00 -7.80516E-01 +6.72647E+00 -4.05370E+00 +3.60423E+00 -3.92427E+00 -2.79051E-01
 -1.20679E+00 -2.15088E+00 +1.45682E+00 -8.81075E-01 +1.51519E+00 +2.15196E+00 -1.53256E+00 +3.99988E+00
 -5.57585E+00 +2.32125E+00 -7.24262E+00 -2.71809E+00 -4.31210E+00 -8.23159E+00 +2.47692E+00 -1.03642E+01
 +9.55296E+00 -6.90285E+00 +1.26118E+01 +1.02225E+00 +9.36376E+00 +9.35914E+00 +1.11878E+00 +1.34892E+01
 -7.86305E+00 +1.10277E+01 -1.28644E+01 +3.27720E+00 -1.14646E+01 -5.57669E+00 -4.83656E+00 -1.09732E+01
 +3.14742E+00 -1.05786E+01 +8.32700E+00 -5.39534E+00 +8.60898E+00 +1.17483E+00 +4.85665E+00 +5.55727E+00
 -5.88299E-02 +6.04158E+00 -3.24422E+00 +3.42775E+00 -3.46392E+00 +8.34892E-02 -1.53780E+00 -1.77591E+00
 +5.83286E-01 -1.40660E+00 +1.27276E+00 +2.96051E-01 +2.15302E-01 +1.68934E+00 -1.61322E+00 +1.59058E+00
 -2.78303E+00 -1.57602E-02 -2.39304E+00 -2.12486E+00 -5.62446E-01 -3.46281E+00 +1.77148E+00 -3.26632E+00
 +3.48095E+00 -1.62333E+00 +3.84030E+00 +7.13790E-01 +2.77162E+00 +2.79397E+00 +7.33379E-01 +3.88268E+00
 -1.55225E+00 +3.65461E+00 -3.34388E+00 +2.19972E+00 -4.04747E+00 -3.89733E-02 -3.36032E+00 -2.34697E+00
 -1.41919E+00 -3.89307E+00 +1.13199E+00 -4.01154E+00 +3.29164E+00 -2.54195E+00 +4.10494E+00 -2.41283E-02
 +3.16157E+00 +2.44955E+00 +8.87235E-01 +3.73544E+00 -1.60682E+00 +3.25046E+00 -3.09330E+00 +1.32324E+00
 -2.90767E+00 -9.66280E-01 -1.32029E+00 -2.39812E+00 +6.43703E-01 -2.31401E+00 +1.83580E+00 -9.74713E-01
 +1.67261E+00 +6.49647E-01 +4.50037E-01 +1.51514E+00 -9.02955E-01 +1.15339E+00 -1.45281E+00 -7.54336E-02
 -8.55872E-01 -1.26715E+00 +4.56560E-01 -1.58601E+00 +1.59603E+00 -7.97240E-01 +1.80469E+00 +6.12504E-01
 +9.24652E-01 +1.77451E+00 -5.35384E-01 +1.99121E+00 -1.74410E+00 +1.14421E+00 -2.05489E+00 -2.77899E-01
 -1.35543E+00 -1.50850E+00 -7.28133E-02 -1.95253E+00 +1.12133E+00 -1.48042E+00 +1.69175E+00 -4.25050E-01
 +1.48050E+00 +6.62992E-01 +7.07001E-01 +1.31980E+00 -2.15524E-01 +1.35852E+00 -9.04202E-01 +8.80378E-01
 -1.14966E+00 +1.57397E-01 -9.42335E-01 -5.12563E-01 -4.21314E-01 -9.06204E-01 +1.96867E-01 -9.18343E-01
 +6.81749E-01 -5.72551E-01 +8.50324E-01 -1.50735E-02 +6.32752E-01 +5.18865E-01 +1.21077E-01 +7.84271E-01
 -4.42016E-01 +6.39758E-01 -7.60225E-01 +1.40856E-01 -6.37916E-01 -4.55485E-01 -1.09602E-01 -8.05672E-01
 +5.44708E-01 -6.69609E-01 +9.31804E-01 -7.08822E-02 +7.68306E-01 +6.79373E-01 +6.95390E-02 +1.13157E+00
 -8.17617E-01 +9.52563E-01 -1.37915E+00 +1.44212E-01 -1.22080E+00 -9.11908E-01 -3.19126E-01 -1.63180E+00
 +9.17532E-01 -1.54794E+00 +1.83561E+00 -5.95957E-01 +1.88609E+00 +8.03577E-01 +9.48153E-01 +1.93632E+00
 -5.64393E-01 +2.17138E+00 -1.89382E+00 +1.32084E+00 -2.33757E+00 -2.27870E-01 -1.63891E+00 -1.69748E+00
 -1.43678E-01 -2.33461E+00 +1.37708E+00 -1.82372E+00 +2.14787E+00 -4.63076E-01 +1.81603E+00 +1.00428E+00
 +6.38578E-01 +1.81172E+00 -6.81169E-01 +1.59924E+00 -1.41124E+00 +6.01345E-01 -1.21538E+00 -5.15923E-01
 -3.32822E-01 -1.06820E+00 +5.90255E-01 -7.66392E-01 +9.11668E-01 +1.17248E-01 +3.96448E-01 +9.27642E-01
 -6.30476E-01 +1.03972E+00 -1.47306E+00 +2.57061E-01 -1.48278E+00 -1.04122E+00 -4.62586E-01 -2.09350E+00
 +1.17732E+00 -2.18107E+00 +2.60339E+00 -1.04871E+00 +2.98633E+00 +9.10926E-01 +1.94781E+00 +2.81153E+00
 -2.05015E-01 +3.69168E+00 -2.57868E+00 +2.99204E+00 -4.08519E+00 +8.59848E-01 -3.94797E+00 -1.86907E+00
 -2.09032E+00 -4.01409E+00 +7.78910E-01 -4.57688E+00 +3.44121E+00 -3.22014E+00 +4.70599E+00 -4.70817E-01
 +3.97804E+00 +2.47481E+00 +1.58026E+00 +4.29008E+00 -1.35883E+00 +4.16675E+00 -3.44323E+00 +2.24679E+00
 -3.73047E+00 -4.20804E-01 -2.25228E+00 -2.42667E+00 -1.25016E-02 -2.78883E+00 +1.59082E+00 -1.53658E+00
 +1.62265E+00 +2.89569E-01 +2.33615E-01 +1.28281E+00 -1.38229E+00 +6.09893E-01 -1.74332E+00 -1.34545E+00
 -1.25092E-01 -3.10808E+00 +2.78284E+00 -3.02199E+00 +5.11664E+00 -4.28109E-01 +4.93911E+00 +3.66370E+00
 +1.57427E+00 +6.94325E+00 -3.69603E+00 +7.10966E+00 -8.12801E+00 +3.37481E+00 -9.02953E+00 -2.80681E+00
 -5.42452E+00 -8.34535E+00 +1.18349E+00 -1.02047E+01 +7.50689E+00 -7.19523E+00 +1.02900E+01 -7.56397E-01
 +8.17430E+00 +5.80517E+00 +2.46553E+00 +9.19858E+00 -3.68038E+00 +8.01191E+00 -7.14651E+00 +3.41385E+00
 -6.63538E+00 -1.71309E+00 -3.24397E+00 -4.61605E+00 +4.67911E-01 -4.29471E+00 +2.24001E+00 -1.89036E+00
 +1.52053E+00 +3.29570E-01 -3.74887E-01 +6.35281E-01 -1.37806E+00 -1.00014E+00 -2.29351E-01 -2.98871E+00
 +2.60095E+00 -3.34178E+00 +5.22970E+00 -1.12897E+00 +5.64781E+00 +2.81953E+00 +3.07126E+00 +6.40509E+00
 -1.53542E+00 +7.56165E+00 -6.04291E+00 +5.47667E+00 -8.38278E+00 +9.79159E-01 -7.59507E+00 -4.03533E+00
 -4.11541E+00 -7.64432E+00 +6.89967E-01 -8.70944E+00 +5.26054E+00 -7.08116E+00 +8.34274E+00 -3.33077E+00
 +9.11358E+00 +1.57767E+00 +7.17140E+00 +6.40981E+00 +2.69198E+00 +9.69451E+00 -3.26816E+00 +1.00063E+01
 -8.70805E+00 +6.64053E+00 -1.12646E+01 +3.52111E-01 -9.39768E+00 -6.49299E+00 -3.52633E+00 -1.07946E+01
 +3.77009E+00 -1.03648E+01 +8.91854E+00 -5.37696E+00 +9.38518E+00 +1.45836E+00 +5.31492E+00 +6.35749E+00
 -4.26535E-01 +6.79968E+00 -4.04259E+00 +3.21335E+00 -3.36879E+00 -1.24610E+00 +5.37094E-01 -2.85936E+00
 +4.01480E+00 -7.63297E-02 +3.39462E+00 +5.11169E+00 -2.13445E+00 +8.30274E+00 -9.45607E+00 +5.75645E+00
 -1.32410E+01 -2.62182E+00 -9.52019E+00 -1.25598E+01 +1.23106E+00 -1.77339E+01 +1.37257E+01 -1.38204E+01
 +2.07408E+01 -1.64966E+00 +1.75684E+01 +1.27613E+01 +5.18239E+00 +2.15528E+01 -1.00369E+01 +1.97399E+01
 -1.99874E+01 +8.30062E+00 -1.96559E+01 -6.39044E+00 -1.00010E+01 -1.64464E+01 +2.90254E+00 -1.71782E+01
 +1.18178E+01 -9.62683E+00 +1.27657E+01 +5.99615E-01 +7.06541E+00 +7.24364E+00 -1.65722E-01 +7.37052E+00
 -3.81674E+00 +2.80166E+00 -2.19929E+00 -1.74263E+00 +2.18948E+00 -2.28552E+00 +4.87522E+00 +1.59808E+00
 +2.84950E+00 +6.68685E+00 -3.22948E+00 +8.62044E+00 -9.53948E+00 +5.10236E+00 -1.17933E+01 -2.46918E+00
 -8.14060E+00 -9.97100E+00 -2.84052E-01 -1.32852E+01 +7.78919E+00 -1.08108E+01 +1.23695E+01 -4.11697E+00
 +1.20293E+01 +3.44236E+00 +7.85191E+00 +8.90888E+00 +2.09469E+00 +1.10882E+01 -3.40921E+00 +1.03698E+01
 -7.86207E+00 +7.57576E+00 -1.09184E+01 +3.09980E+00 -1.18114E+01 -2.85972E+00 -9.32434E+00 -9.32186E+00
 -2.89684E+00 -1.39820E+01 +6.03333E+00 -1.40388E+01 +1.38499E+01 -8.13386E+00 +1.64014E+01 +2.01535E+00
 +1.16584E+01 +1.18151E+01 +1.52006E+00 +1.61676E+01 -8.79633E+00 +1.26729E+01 -1.37448E+01 +3.44198E+00
 -1.09864E+01 -5.97283E+00 -3.01217E+00 -1.00731E+01 +4.45453E+00 -7.06561E+00 +6.36436E+00 -9.27964E-02
 +1.91184E+00 +4.97224E+00 -4.80600E+00 +3.77173E+00 -7.67128E+00 -3.20244E+00 -3.07878E+00 -1.06518E+01
 +7.06636E+00 -1.20645E+01 +1.61542E+01 -4.49177E+00 +1.71570E+01 +8.84291E+00 +7.59058E+00 +2.00973E+01
 -8.27776E+00 +2.17077E+01 -2.16508E+01 +1.14502E+01 -2.45588E+01 -5.74985E+00 -1.48988E+01 -2.05769E+01
 +2.15180E+00 -2.49420E+01 +1.72799E+01 -1.68420E+01 +2.26819E+01 -1.36594E+00 +1.65649E+01 +1.26845E+01
 +3.71649E+00 +1.82406E+01 -7.98034E+00 +1.39303E+01 -1.25937E+01 +4.17575E+00 -9.42020E+00 -4.30020E+00
 -2.57846E+00 -6.97298E+00 +2.42187E+00 -4.01056E+00 +2.54585E+00 +6.40556E-01 -1.08410E+00 +2.57226E+00
 -4.56871E+00 +1.18832E-01 -4.38470E+00 -4.72701E+00 +5.65050E-02 -8.06611E+00 +6.15033E+00 -7.01765E+00
 +1.00748E+01 -1.67418E+00 +9.39974E+00 +5.14423E+00 +4.48568E+00 +9.90199E+00 -2.09511E+00 +1.05320E+01
 -7.40224E+00 +7.31529E+00 -9.76410E+00 +2.13415E+00 -9.16063E+00 -3.00979E+00 -6.44541E+00 -6.96981E+00
 -2.38286E+00 -9.35091E+00 +2.57683E+00 -9.79991E+00 +7.71915E+00 -7.66393E+00 +1.14853E+01 -2.55301E+00
 +1.17913E+01 +4.63234E+00 +7.35637E+00 +1.12853E+01 -8.76525E-01 +1.40533E+01 -9.51058E+00 +1.08484E+01
 -1.42333E+01 +2.56743E+00 -1.23741E+01 -6.88785E+00 -4.79390E+00 -1.26388E+01 +4.34286E+00 -1.17666E+01
 +9.99249E+00 -5.21464E+00 +9.37149E+00 +2.73824E+00 +3.70914E+00 +7.21861E+00 -2.63911E+00 +5.93748E+00
 -5.18716E+00 +6.45926E-01 -2.40665E+00 -4.16799E+00 +3.22600E+00 -4.48505E+00 +6.98450E+00 +3.35967E-01
 +5.27449E+00 +6.98153E+00 -1.68497E+00 +1.03900E+01 -9.76153E+00 +7.27196E+00 -1.35235E+01 -1.45233E+00
 -9.84757E+00 -1.09872E+01 -1.11877E-01 -1.55942E+01 +1.04918E+01 -1.22130E+01 +1.60855E+01 -2.41546E+00
 +1.36435E+01 +8.53862E+00 +4.70586E+00 +1.48791E+01 -5.72537E+00 +1.36735E+01 -1.22692E+01 +6.28471E+00
 -1.22133E+01 -2.80674E+00 -6.69540E+00 -8.86633E+00 +4.86096E-01 -9.55909E+00 +5.42421E+00 -5.83438E+00
 +6.29953E+00 -7.65122E-01 +3.96001E+00 +2.63923E+00 +8.13662E-01 +3.14905E+00 -9.78183E-01 +1.60298E+00
 -7.57558E-01 -1.27327E-01 +5.91369E-01 -5.78287E-01 +1.58366E+00 +4.51381E-01 +1.24124E+00 +2.04219E+00
 -3.72403E-01 +2.96973E+00 -2.38384E+00 +2.51627E+00 -3.75743E+00 +7.79582E-01 -3.84356E+00 -1.54956E+00
 -2.55149E+00 -3.61722E+00 -2.30307E-01 -4.71473E+00 +2.49472E+00 -4.39003E+00 +4.80537E+00 -2.50870E+00
 +5.79381E+00 +6.06846E-01 +4.75301E+00 +4.04604E+00 +1.63484E+00 +6.43758E+00 -2.61785E+00 +6.48763E+00
