 Created: 16-Jan-2021
 $NMID
 ID='D:\BASISSIMULATI'
 FMTDAT='(8E13.5)'
 VOLUME=   1.00000E+00
 TRAMP=   1.00000E+00
 $END
 +5.04642E+01 +5.68991E-01 +4.79681E+01 +1.47331E+01 +4.03999E+01 +2.71804E+01 +2.87238E+01 +3.62524E+01
 +1.44555E+01 +4.07657E+01 -5.61050E-01 +4.01817E+01 -1.44237E+01 +3.46762E+01 -2.54460E+01 +2.50998E+01
 -3.23925E+01 +1.28366E+01 -3.46391E+01 -4.12996E-01 -3.22351E+01 -1.28908E+01 -2.58613E+01 -2.30381E+01
 -1.66951E+01 -2.97105E+01 -6.20553E+00 -3.23204E+01 +4.08238E+00 -3.08856E+01 +1.28186E+01 -2.59831E+01
 +1.90154E+01 -1.86193E+01 +2.21652E+01 -1.00439E+01 +2.22731E+01 -1.53883E+00 +1.98062E+01 +5.78014E+00
 +1.55725E+01 +1.11191E+01 +1.05545E+01 +1.40963E+01 +5.72978E+00 +1.47566E+01 +1.90704E+00 +1.35155E+01
 -3.93876E-01 +1.10445E+01 -1.00254E+00 +8.12571E+00 -9.29470E-02 +5.49938E+00 +1.88091E+00 +3.73315E+00
 +4.29339E+00 +3.13301E+00 +6.47734E+00 +3.70802E+00 +7.85224E+00 +5.19113E+00 +8.02827E+00 +7.10818E+00
 +6.87020E+00 +8.87993E+00 +4.51296E+00 +9.93725E+00 +1.32942E+00 +9.82903E+00 -2.14128E+00 +8.30503E+00
 -5.29026E+00 +5.36132E+00 -7.54333E+00 +1.24296E+00 -8.45570E+00 -3.59392E+00 -7.78290E+00 -8.55260E+00
 -5.51804E+00 -1.29859E+01 -1.89198E+00 -1.62915E+01 +2.66154E+00 -1.79976E+01 +7.56868E+00 -1.78281E+01
 +1.21957E+01 -1.57384E+01 +1.59346E+01 -1.19195E+01 +1.82825E+01 -6.77114E+00 +1.89050E+01 -8.49661E-01
 +1.76759E+01 +5.20164E+00 +1.46911E+01 +1.07304E+01 +1.02546E+01 +1.51515E+01 +4.84095E+00 +1.80135E+01
 -9.61830E-01 +1.90476E+01 -6.52059E+00 +1.81951E+01 -1.12301E+01 +1.56100E+01 -1.45821E+01 +1.16381E+01
 -1.62226E+01 +6.77385E+00 -1.59918E+01 +1.60159E+00 -1.39416E+01 -3.27428E+00 -1.03285E+01 -7.30079E+00
 -5.58249E+00 -1.00418E+01 -2.54853E-01 -1.12296E+01 +5.04886E+00 -1.07953E+01 +9.74289E+00 -8.87475E+00
 +1.33331E+01 -5.78799E+00 +1.54770E+01 -1.99435E+00 +1.60238E+01 +1.97081E+00 +1.50285E+01 +5.56971E+00
 +1.27380E+01 +8.33569E+00 +9.55077E+00 +9.93639E+00 +5.95567E+00 +1.02169E+01 +2.45866E+00 +9.21663E+00
 -4.90992E-01 +7.15722E+00 -2.56436E+00 +4.40306E+00 -3.59620E+00 +1.40086E+00 -3.60149E+00 -1.39230E+00
 -2.76268E+00 -3.58081E+00 -1.39009E+00 -4.89082E+00 +1.37715E-01 -5.20911E+00 +1.44331E+00 -4.59442E+00
 +2.21786E+00 -3.25976E+00 +2.27503E+00 -1.52891E+00 +1.58228E+00 +2.25017E-01 +2.64312E-01 +1.64819E+00
 -1.42169E+00 +2.46998E+00 -3.13453E+00 +2.55099E+00 -4.51254E+00 +1.90692E+00 -5.24099E+00 +7.04331E-01
 -5.11145E+00 -7.70911E-01 -4.06270E+00 -2.16678E+00 -2.19595E+00 -3.13047E+00 +2.38236E-01 -3.37452E+00
 +2.87936E+00 -2.73209E+00 +5.31582E+00 -1.19174E+00 +7.15324E+00 +1.09434E+00 +8.08084E+00 +3.83028E+00
 +7.92437E+00 +6.62124E+00 +6.67712E+00 +9.03561E+00 +4.50362E+00 +1.06742E+01 +1.71562E+00 +1.12354E+01
 -1.27561E+00 +1.05646E+01 -4.02285E+00 +8.68196E+00 -6.11197E+00 +5.78197E+00 -7.22555E+00 +2.20650E+00
 -7.19102E+00 -1.60451E+00 -6.00609E+00 -5.17688E+00 -3.83799E+00 -8.07037E+00 -9.97092E-01 -9.94085E+00
 +2.11039E+00 -1.05870E+01 +5.04304E+00 -9.97545E+00 +7.38858E+00 -8.24022E+00 +8.82238E+00 -5.65889E+00
 +9.15150E+00 -2.60844E+00 +8.33836E+00 +4.91271E-01 +6.50130E+00 +3.23774E+00 +3.89280E+00 +5.30099E+00
 +8.59508E-01 +6.46578E+00 -2.20941E+00 +6.65542E+00 -4.93774E+00 +5.93454E+00 -7.01327E+00 +4.49156E+00
 -8.22737E+00 +2.60422E+00 -8.49806E+00 +5.94196E-01 -7.87393E+00 -1.22241E+00 -6.51942E+00 -2.58105E+00
 -4.68442E+00 -3.30490E+00 -2.66327E+00 -3.32632E+00 -7.49637E-01 -2.69128E+00 +8.06131E-01 -1.54663E+00
 +1.83099E+00 -1.13048E-01 +2.25008E+00 +1.35206E+00 +2.09184E+00 +2.59573E+00 +1.47735E+00 +3.40858E+00
 +5.95947E-01 +3.65605E+00 -3.28835E-01 +3.29752E+00 -1.07749E+00 +2.39053E+00 -1.47119E+00 +1.07992E+00
 -1.40119E+00 -4.26321E-01 -8.46769E-01 -1.89055E+00 +1.21181E-01 -3.08326E+00 +1.35108E+00 -3.81936E+00
 +2.63460E+00 -3.98738E+00 +3.73986E+00 -3.56721E+00 +4.44875E+00 -2.63374E+00 +4.59275E+00 -1.34561E+00
 +4.08159E+00 +7.90475E-02 +2.92040E+00 +1.39637E+00 +1.21235E+00 +2.37495E+00 -8.53595E-01 +2.83246E+00
 -3.02837E+00 +2.66525E+00 -5.03813E+00 +1.86620E+00 -6.62400E+00 +5.27889E-01 -7.58038E+00 -1.16952E+00
 -7.78575E+00 -2.98410E+00 -7.22155E+00 -4.64787E+00 -5.97578E+00 -5.90716E+00 -4.23085E+00 -6.56148E+00
 -2.23722E+00 -6.49486E+00 -2.76653E-01 -5.69496E+00 +1.37933E+00 -4.25675E+00 +2.50975E+00 -2.36993E+00
 +2.97691E+00 -2.92033E-01 +2.74666E+00 +1.68915E+00 +1.89295E+00 +3.29807E+00 +5.85917E-01 +4.31252E+00
 -9.34917E-01 +4.59700E+00 -2.39822E+00 +4.12323E+00 -3.54361E+00 +2.97464E+00 -4.16295E+00 +1.33374E+00
 -4.13394E+00 -5.45580E-01 -3.44049E+00 -2.37694E+00 -2.17672E+00 -3.88555E+00 -5.33755E-01 -4.85084E+00
 +1.22911E+00 -5.14096E+00 +2.82429E+00 -4.73372E+00 +3.98104E+00 -3.72061E+00 +4.48876E+00 -2.29293E+00
 +4.23169E+00 -7.12042E-01 +3.20940E+00 +7.31839E-01 +1.53959E+00 +1.76604E+00 -5.57514E-01 +2.17975E+00
 -2.79113E+00 +1.85919E+00 -4.84349E+00 +8.07982E-01 -6.41833E+00 -8.50846E-01 -7.28679E+00 -2.89182E+00
 -7.32338E+00 -5.02057E+00 -6.52626E+00 -6.91892E+00 -5.01829E+00 -8.29451E+00 -3.02855E+00 -8.92699E+00
 -8.56978E-01 -8.70355E+00 +1.17227E+00 -7.63768E+00 +2.76152E+00 -5.86824E+00 +3.68602E+00 -3.63853E+00
 +3.82865E+00 -1.25880E+00 +3.19728E+00 +9.41971E-01 +1.92176E+00 +2.66714E+00 +2.31163E-01 +3.69801E+00
 -1.58498E+00 +3.92654E+00 -3.22501E+00 +3.36977E+00 -4.42488E+00 +2.16366E+00 -5.00103E+00 +5.37600E-01
 -4.87908E+00 -1.22613E+00 -4.10376E+00 -2.84070E+00 -2.82846E+00 -4.06284E+00 -1.28645E+00 -4.73227E+00
 +2.51059E-01 -4.79595E+00 +1.52262E+00 -4.31307E+00 +2.32150E+00 -3.44035E+00 +2.53027E+00 -2.40045E+00
 +2.13885E+00 -1.43951E+00 +1.24342E+00 -7.81397E-01 +2.64490E-02 -5.87099E-01 -1.27805E+00 -9.26253E-01
 -2.42758E+00 -1.76584E+00 -3.21463E+00 -2.97769E+00 -3.50274E+00 -4.36305E+00 -3.24880E+00 -5.68941E+00
 -2.50789E+00 -6.73265E+00 -1.42033E+00 -7.31662E+00 -1.83712E-01 -7.34312E+00 +9.84423E-01 -6.80705E+00
 +1.88612E+00 -5.79438E+00 +2.37747E+00 -4.46393E+00 +2.39170E+00 -3.01687E+00 +1.94715E+00 -1.66007E+00
 +1.13924E+00 -5.70275E-01 +1.18648E-01 +1.34101E-01 -9.39597E-01 +4.08846E-01 -1.86963E+00 +2.84940E-01
 -2.54448E+00 -1.44641E-01 -2.89627E+00 -7.48979E-01 -2.92364E+00 -1.38878E+00 -2.68539E+00 -1.94530E+00
 -2.28251E+00 -2.34279E+00 -1.83280E+00 -2.56028E+00 -1.44368E+00 -2.63078E+00 -1.18889E+00 -2.62875E+00
 -1.09378E+00 -2.64889E+00 -1.13201E+00 -2.78121E+00 -1.23384E+00 -3.08779E+00 -1.30396E+00 -3.58623E+00
 -1.24470E+00 -4.24304E+00 -9.79588E-01 -4.97836E+00 -4.72321E-01 -5.68064E+00 +2.62882E-01 -6.22820E+00
 +1.16140E+00 -6.51292E+00 +2.11858E+00 -6.46134E+00 +3.00803E+00 -6.04891E+00 +3.70384E+00 -5.30479E+00
 +4.10218E+00 -4.30657E+00 +4.13816E+00 -3.16668E+00 +3.79471E+00 -2.01327E+00 +3.10256E+00 -9.70081E-01
 +2.13192E+00 -1.39016E-01 +9.78389E-01 +4.11267E-01 -2.53421E-01 +6.49224E-01 -1.46475E+00 +5.77020E-01
 -2.57313E+00 +2.21768E-01 -3.51671E+00 -3.75536E-01 -4.25252E+00 -1.17005E+00 -4.75044E+00 -2.11929E+00
 -4.98570E+00 -3.18402E+00 -4.93310E+00 -4.32396E+00 -4.56569E+00 -5.49018E+00 -3.85936E+00 -6.61730E+00
 -2.80281E+00 -7.61877E+00 -1.41104E+00 -8.38848E+00 +2.61545E-01 -8.81014E+00 +2.11235E+00 -8.77420E+00
 +3.99002E+00 -8.19983E+00 +5.70443E+00 -7.05780E+00 +7.04752E+00 -5.38914E+00 +7.82262E+00 -3.31447E+00
 +7.87786E+00 -1.03032E+00 +7.13757E+00 +1.20908E+00 +5.62524E+00 +3.12320E+00 +3.47247E+00 +4.44559E+00
 +9.10655E-01 +4.96675E+00 -1.75507E+00 +4.57209E+00 -4.18653E+00 +3.26740E+00 -6.06181E+00 +1.18643E+00
 -7.12529E+00 -1.42209E+00 -7.22939E+00 -4.22712E+00 -6.36077E+00 -6.86290E+00 -4.64531E+00 -8.98407E+00
 -2.33072E+00 -1.03189E+01 +2.51276E-01 -1.07117E+01 +2.73685E+00 -1.01466E+01 +4.78744E+00 -8.74860E+00
 +6.14276E+00 -6.76110E+00 +6.66030E+00 -4.50453E+00 +6.33440E+00 -2.32225E+00 +5.29193E+00 -5.23989E-01
 +3.76542E+00 +6.63556E-01 +2.04884E+00 +1.13040E+00 +4.44250E-01 +8.95501E-01 -7.91137E-01 +9.59865E-02
 -1.48775E+00 -1.04426E+00 -1.58902E+00 -2.26023E+00 -1.15515E+00 -3.29703E+00 -3.45096E-01 -3.95711E+00
 +6.18958E-01 -4.13482E+00 +1.49784E+00 -3.83238E+00 +2.08315E+00 -3.15471E+00 +2.23758E+00 -2.28475E+00
 +1.92049E+00 -1.44446E+00 +1.19416E+00 -8.49301E-01 +2.10185E-01 -6.64893E-01 -8.21171E-01 -9.74001E-01
 -1.67223E+00 -1.75991E+00 -2.14205E+00 -2.90889E+00 -2.09493E+00 -4.23087E+00 -1.48655E+00 -5.49420E+00
 -3.72842E-01 -6.46759E+00 +1.09920E+00 -6.96165E+00 +2.71697E+00 -6.86227E+00 +4.23871E+00 -6.15034E+00
 +5.43427E+00 -4.90458E+00 +6.12287E+00 -3.28759E+00 +6.20128E+00 -1.51837E+00 +5.65822E+00 +1.63597E-01
 +4.57309E+00 +1.53597E+00 +3.10004E+00 +2.42658E+00 +1.44123E+00 +2.73659E+00 -1.85822E-01 +2.45059E+00
 -1.58078E+00 +1.63311E+00 -2.58771E+00 +4.13124E-01 -3.11306E+00 -1.03963E+00 -3.13234E+00 -2.54206E+00
 -2.68587E+00 -3.92388E+00 -1.86546E+00 -5.04854E+00 -7.95500E-01 -5.82637E+00 +3.87858E-01 -6.21890E+00
 +1.55570E+00 -6.23516E+00 +2.60089E+00 -5.92189E+00 +3.44665E+00 -5.35050E+00 +4.04907E+00 -4.60341E+00
 +4.39454E+00 -3.76231E+00 +4.49371E+00 -2.89957E+00 +4.37405E+00 -2.07362E+00 +4.07272E+00 -1.32764E+00
 +3.63075E+00 -6.90716E-01 +3.08925E+00 -1.80306E-01 +2.48738E+00 +1.95224E-01 +1.86142E+00 +4.34577E-01
 +1.24439E+00 +5.42298E-01 +6.65510E-01 +5.28087E-01 +1.49295E-01 +4.06183E-01 -2.85648E-01 +1.94323E-01
 -6.27566E-01 -8.80011E-02 -8.71757E-01 -4.21891E-01 -1.01954E+00 -7.91534E-01 -1.07590E+00 -1.18610E+00
 -1.04612E+00 -1.60029E+00 -9.32215E-01 -2.03295E+00 -7.30188E-01 -2.48377E+00 -4.29250E-01 -2.94849E+00
 -1.36720E-02 -3.41367E+00 +5.32474E-01 -3.85256E+00 +1.21827E+00 -4.22345E+00 +2.03791E+00 -4.47168E+00
 +2.96339E+00 -4.53582E+00 +3.94011E+00 -4.35758E+00 +4.88697E+00 -3.89404E+00 +5.70201E+00 -3.13010E+00
 +6.27371E+00 -2.08851E+00 +6.49662E+00 -8.35047E-01 +6.28915E+00 +5.23066E-01 +5.61045E+00 +1.84620E+00
 +4.47322E+00 +2.97835E+00 +2.94955E+00 +3.76805E+00 +1.16801E+00 +4.09125E+00 -6.98457E-01 +3.87221E+00
 -2.45264E+00 +3.09891E+00 -3.89850E+00 +1.82982E+00 -4.86817E+00 +1.90391E-01 -5.24618E+00 -1.64078E+00
