 Created: 16-Jan-2021
 $NMID
 ID='D:\BASISSIMULATI'
 FMTDAT='(8E13.5)'
 VOLUME=   1.00000E+00
 TRAMP=   1.00000E+00
 $END
 +4.73150E+01 +6.68008E-01 +3.51096E+01 +6.98494E+00 +5.52846E+00 +1.18786E+01 -2.41815E+01 +1.32241E+01
 -3.72599E+01 +9.59873E+00 -2.76294E+01 +2.00826E+00 -2.99977E+00 -5.54087E+00 +2.07266E+01 -7.88685E+00
 +2.96322E+01 -2.31002E+00 +1.97987E+01 +8.66001E+00 -1.58177E+00 +1.78247E+01 -2.18335E+01 +1.76689E+01
 -3.07654E+01 +5.86170E+00 -2.57783E+01 -1.21343E+01 -1.16127E+01 -2.57880E+01 +3.90046E+00 -2.62641E+01
 +1.45327E+01 -1.27209E+01 +1.79111E+01 +6.48630E+00 +1.49225E+01 +1.89808E+01 +7.91894E+00 +1.66461E+01
 -4.55274E-01 +1.29618E+00 -7.39955E+00 -1.63666E+01 -1.00392E+01 -2.39568E+01 -6.45163E+00 -1.58295E+01
 +2.66139E+00 +3.14056E+00 +1.32020E+01 +2.10165E+01 +1.91789E+01 +2.69750E+01 +1.61590E+01 +1.84206E+01
 +4.48396E+00 +2.17515E+00 -1.02667E+01 -1.07764E+01 -2.03530E+01 -1.29627E+01 -2.06643E+01 -5.03467E+00
 -1.19417E+01 +5.64663E+00 -1.17233E-01 +1.09101E+01 +7.78114E+00 +7.55066E+00 +8.20829E+00 -1.12575E+00
 +2.92153E+00 -8.63132E+00 -3.05588E+00 -1.04907E+01 -5.50117E+00 -7.20169E+00 -3.84605E+00 -2.96930E+00
 -7.46808E-01 -1.67704E+00 +9.32257E-01 -3.60621E+00 +9.23869E-01 -5.53400E+00 +1.63674E+00 -3.91213E+00
 +5.42385E+00 +1.70899E+00 +1.15076E+01 +7.96242E+00 +1.55280E+01 +1.02905E+01 +1.25965E+01 +6.75139E+00
 +1.69060E+00 -1.53837E-01 -1.22672E+01 -5.20417E+00 -2.08482E+01 -4.43248E+00 -1.78285E+01 +1.77086E+00
 -4.12218E+00 +8.87101E+00 +1.19605E+01 +1.15545E+01 +1.98173E+01 +7.63357E+00 +1.37233E+01 -4.84653E-01
 -2.97980E+00 -7.76866E+00 -1.97983E+01 -1.03003E+01 -2.59478E+01 -7.84446E+00 -1.74588E+01 -3.41355E+00
 +3.64203E-01 -4.68573E-01 +1.67161E+01 -2.16446E-01 +2.25062E+01 -1.17765E+00 +1.59579E+01 -1.13858E+00
 +2.93157E+00 +4.50923E-01 -7.77984E+00 +1.88587E+00 -1.04744E+01 +9.95016E-01 -5.61990E+00 -2.32583E+00
 +1.72346E+00 -5.28627E+00 +6.31658E+00 -4.16713E+00 +6.35367E+00 +2.29945E+00 +3.74387E+00 +1.09998E+01
 +1.44716E+00 +1.59518E+01 +5.40428E-01 +1.25613E+01 -4.10316E-01 +1.51583E+00 -3.32884E+00 -1.08831E+01
 -8.00852E+00 -1.66501E+01 -1.14721E+01 -1.17274E+01 -1.01409E+01 +8.16240E-01 -3.11538E+00 +1.25478E+01
 +6.28255E+00 +1.53636E+01 +1.23046E+01 +7.12749E+00 +1.08181E+01 -6.80317E+00 +2.55400E+00 -1.72879E+01
 -7.05621E+00 -1.76876E+01 -1.15333E+01 -8.23583E+00 -7.87490E+00 +4.51633E+00 +1.38741E+00 +1.25566E+01
 +1.01010E+01 +1.18920E+01 +1.28912E+01 +4.73831E+00 +8.74749E+00 -2.84879E+00 +1.23281E+00 -5.75237E+00
 -4.58785E+00 -3.24148E+00 -5.93205E+00 +1.31647E+00 -3.86499E+00 +3.81618E+00 -1.66067E+00 +2.85990E+00
 -1.60106E+00 +4.92621E-01 -3.02607E+00 -1.45717E-01 -3.25384E+00 +1.97718E+00 -4.67243E-01 +4.60880E+00
 +4.07150E+00 +4.15234E+00 +6.59782E+00 -8.97747E-01 +3.95886E+00 -8.02230E+00 -3.26289E+00 -1.21083E+01
 -1.03901E+01 -9.34754E+00 -1.17359E+01 -5.62831E-01 -4.99331E+00 +8.82607E+00 +6.48168E+00 +1.24455E+01
 +1.55059E+01 +7.61620E+00 +1.59458E+01 -2.50930E+00 +7.14597E+00 -1.10285E+01 -5.40170E+00 -1.21344E+01
 -1.37483E+01 -5.17267E+00 -1.29184E+01 +5.04563E+00 -4.17490E+00 +1.18151E+01 +6.16337E+00 +1.12565E+01
 +1.13397E+01 +4.71270E+00 +8.74624E+00 -2.76046E+00 +1.20957E+00 -6.39204E+00 -5.67383E+00 -5.00442E+00
 -7.84176E+00 -1.22202E+00 -5.36048E+00 +1.24706E+00 -1.54550E+00 +8.00711E-01 +3.08815E-01 -1.04042E+00
 -2.98782E-01 -1.46750E+00 -1.07321E+00 +6.93413E-01 +4.90748E-01 +3.62531E+00 +4.33222E+00 +4.00868E+00
 +7.41314E+00 +1.45391E-01 +6.19717E+00 -6.00105E+00 +1.06132E-02 -9.80127E+00 -7.63978E+00 -7.46778E+00
 -1.11949E+01 +6.33164E-01 -7.22439E+00 +9.63938E+00 +2.55377E+00 +1.33853E+01 +1.19476E+01 +8.89869E+00
 +1.44383E+01 -1.19262E+00 +7.86390E+00 -1.02857E+01 -3.84630E+00 -1.23868E+01 -1.32583E+01 -6.31932E+00
 -1.45232E+01 +3.53572E+00 -7.29874E+00 +1.04719E+01 +3.27349E+00 +1.02169E+01 +1.03732E+01 +3.70609E+00
 +1.01897E+01 -4.04252E+00 +4.10685E+00 -7.88069E+00 -2.95383E+00 -6.18610E+00 -6.45260E+00 -1.51810E+00
 -5.29345E+00 +1.95636E+00 -1.85653E+00 +1.97535E+00 +6.23770E-01 -2.46662E-01 +9.01885E-01 -1.52999E+00
 +3.94503E-01 +1.27917E-01 +1.29877E+00 +3.55341E+00 +4.00825E+00 +5.30823E+00 +6.27513E+00 +2.78902E+00
 +5.03028E+00 -3.12083E+00 -6.02832E-01 -8.22079E+00 -7.76556E+00 -8.09003E+00 -1.14131E+01 -1.75821E+00
 -8.05871E+00 +7.03837E+00 +1.14362E+00 +1.22315E+01 +1.05762E+01 +9.80709E+00 +1.38030E+01 +9.15846E-01
 +8.17152E+00 -8.72457E+00 -3.04409E+00 -1.27974E+01 -1.26752E+01 -8.82784E+00 -1.45180E+01 +1.71818E-01
 -7.55399E+00 +8.01466E+00 +3.48299E+00 +9.80574E+00 +1.15232E+01 +5.21654E+00 +1.20038E+01 -1.75539E+00
 +5.65500E+00 -6.12125E+00 -2.58365E+00 -5.60613E+00 -7.41477E+00 -1.89613E+00 -6.77645E+00 +1.30963E+00
 -2.61951E+00 +1.61723E+00 +1.33194E+00 -1.85593E-01 +2.72350E+00 -1.18018E+00 +2.03240E+00 +7.24428E-01
 +1.38887E+00 +4.55775E+00 +2.08569E+00 +6.80939E+00 +3.14483E+00 +4.40821E+00 +2.27649E+00 -2.28374E+00
 -1.62288E+00 -9.07956E+00 -6.75096E+00 -1.07905E+01 -9.23340E+00 -5.25298E+00 -6.13309E+00 +4.58198E+00
 +1.73251E+00 +1.23083E+01 +9.64910E+00 +1.24591E+01 +1.20406E+01 +4.46907E+00 +6.61123E+00 -6.74276E+00
 -3.56866E+00 -1.40670E+01 -1.18333E+01 -1.30191E+01 -1.24810E+01 -4.63555E+00 -4.86245E+00 +5.51818E+00
 +6.04007E+00 +1.13322E+01 +1.30473E+01 +1.01403E+01 +1.17699E+01 +3.94311E+00 +3.53923E+00 -2.67387E+00
 -5.78344E+00 -6.01600E+00 -1.01266E+01 -5.44853E+00 -7.40952E+00 -2.89348E+00 -5.98204E-01 -5.46261E-01
 +4.94005E+00 +9.90403E-01 +5.56823E+00 +2.59294E+00 +1.81121E+00 +4.88773E+00 -2.59873E+00 +6.78017E+00
 -4.04071E+00 +5.89315E+00 -1.89953E+00 +7.91524E-01 +1.24354E+00 -6.92401E+00 +2.10910E+00 -1.27713E+01
 -2.95332E-01 -1.22056E+01 -3.73804E+00 -4.22096E+00 -4.66132E+00 +7.12326E+00 -1.32823E+00 +1.48213E+01
 +4.43077E+00 +1.35379E+01 +8.40649E+00 +3.51435E+00 +7.27994E+00 -9.18612E+00 +1.38296E+00 -1.65081E+01
 -5.30622E+00 -1.37508E+01 -8.03438E+00 -2.69429E+00 -4.84179E+00 +9.68929E+00 +1.92638E+00 +1.59795E+01
 +7.34436E+00 +1.31200E+01 +7.54703E+00 +3.98365E+00 +2.50929E+00 -5.15788E+00 -4.10795E+00 -9.15404E+00
 -7.82290E+00 -7.12462E+00 -6.62544E+00 -2.17895E+00 -2.18422E+00 +1.63048E+00 +1.81293E+00 +2.45867E+00
 +2.69762E+00 +1.47663E+00 +7.53258E-01 +1.01128E+00 -1.41870E+00 +1.91909E+00 -1.40019E+00 +2.62569E+00
 +8.80865E-01 +7.16251E-01 +3.17172E+00 -4.33420E+00 +3.04288E+00 -9.80953E+00 +2.62994E-01 -1.12596E+01
 -2.73362E+00 -5.96103E+00 -2.82505E+00 +4.36183E+00 +9.56085E-01 +1.39336E+01 +6.16203E+00 +1.65332E+01
 +8.51870E+00 +9.87889E+00 +5.30075E+00 -2.42080E+00 -2.16947E+00 -1.29292E+01 -9.05884E+00 -1.51621E+01
 -1.04428E+01 -7.80966E+00 -5.10970E+00 +4.48974E+00 +3.23059E+00 +1.42630E+01 +8.45276E+00 +1.59583E+01
 +6.51320E+00 +9.11784E+00 -1.41452E+00 -1.92899E+00 -9.61263E+00 -1.12231E+01 -1.19245E+01 -1.47488E+01
 -6.29786E+00 -1.21090E+01 +3.62715E+00 -5.70859E+00 +1.11107E+01 +1.32203E+00 +1.11957E+01 +6.69609E+00
 +4.27265E+00 +9.21517E+00 -4.29484E+00 +8.27225E+00 -8.16377E+00 +3.74368E+00 -4.63482E+00 -3.33293E+00
 +3.49547E+00 -1.01189E+01 +1.01305E+01 -1.26287E+01 +1.03820E+01 -7.98894E+00 +4.02226E+00 +3.00881E+00
 -4.57872E+00 +1.52064E+01 -9.79804E+00 +2.14483E+01 -8.77459E+00 +1.70087E+01 -3.15168E+00 +3.18860E+00
 +2.52934E+00 -1.27032E+01 +4.33089E+00 -2.14888E+01 +1.59973E+00 -1.79259E+01 -3.02927E+00 -4.28712E+00
 -5.98998E+00 +1.08798E+01 -5.46114E+00 +1.81642E+01 -2.32412E+00 +1.33033E+01 +1.06076E+00 -2.43610E-01
 +2.95676E+00 -1.38240E+01 +3.39751E+00 -1.93669E+01 +3.57124E+00 -1.43933E+01 +4.24632E+00 -2.97757E+00
 +4.83192E+00 +7.63859E+00 +3.99210E+00 +1.20633E+01 +1.22890E+00 +9.80588E+00 -2.12790E+00 +4.52593E+00
 -3.64422E+00 +5.68354E-01 -1.81373E+00 -2.79912E-01 +2.30065E+00 +5.91323E-01 +5.40106E+00 +7.03052E-01
 +4.30818E+00 -8.16136E-01 -1.37705E+00 -2.34612E+00 -8.49210E+00 -1.43466E+00 -1.22858E+01 +2.51912E+00
 -9.85869E+00 +7.01519E+00 -2.48913E+00 +7.94956E+00 +5.05346E+00 +2.87016E+00 +7.86525E+00 -6.57606E+00
 +4.49610E+00 -1.51209E+01 -1.95783E+00 -1.72087E+01 -6.15903E+00 -1.08838E+01 -4.54670E+00 +6.11358E-01
 +1.96859E+00 +1.07681E+01 +8.70359E+00 +1.39747E+01 +1.07800E+01 +9.03002E+00 +6.84335E+00 -3.43969E-01
 +5.52343E-02 -8.15832E+00 -4.41474E+00 -9.98140E+00 -3.45688E+00 -5.33191E+00 +1.52297E+00 +2.68362E+00
 +5.70437E+00 +9.77635E+00 +4.69522E+00 +1.29780E+01 -1.85709E+00 +1.16596E+01 -9.73473E+00 +6.92230E+00
 -1.32037E+01 +4.34992E-01 -9.38598E+00 -6.16114E+00 -6.14741E-01 -1.11274E+01 +7.08668E+00 -1.25723E+01
 +8.34527E+00 -9.22233E+00 +2.40104E+00 -1.76898E+00 -6.25327E+00 +6.46329E+00 -1.10465E+01 +1.06981E+01
 -8.00464E+00 +7.56213E+00 +1.45165E+00 -2.16868E+00 +1.15392E+01 -1.31576E+01 +1.61257E+01 -1.83060E+01
 +1.27940E+01 -1.32992E+01 +4.15292E+00 +1.39836E-01 -4.29363E+00 +1.47822E+01 -7.95160E+00 +2.22138E+01
 -5.86602E+00 +1.82237E+01 -6.86583E-01 +5.60059E+00 +3.67513E+00 -7.66247E+00 +4.70640E+00 -1.36009E+01
 +2.41157E+00 -9.39002E+00 -1.49750E+00 +1.12306E+00 -5.22022E+00 +1.03804E+01 -7.83065E+00 +1.23421E+01
 -9.04461E+00 +6.28610E+00 -8.48539E+00 -3.31061E+00 -5.54887E+00 -1.03827E+01 -2.17733E-01 -1.15237E+01
 +5.98610E+00 -7.80906E+00 +1.01466E+01 -3.17665E+00 +9.61549E+00 -9.77012E-01 +4.17446E+00 -1.51882E+00
 -3.09697E+00 -2.40059E+00 -7.34524E+00 -1.07666E+00 -5.15402E+00 +2.64870E+00 +2.77091E+00 +6.31758E+00
 +1.15785E+01 +6.92779E+00 +1.52547E+01 +3.65167E+00 +1.07056E+01 -1.15646E+00 +5.51463E-02 -3.59676E+00
 -1.05919E+01 -1.27787E+00 -1.51693E+01 +4.62707E+00 -1.16586E+01 +1.00042E+01 -3.26585E+00 +1.07086E+01
 +4.01414E+00 +5.58609E+00 +5.62372E+00 -2.66082E+00 +1.39951E+00 -9.37859E+00 -4.76421E+00 -1.11712E+01
 -8.08319E+00 -8.02893E+00 -6.37610E+00 -2.92015E+00 -1.29654E+00 +6.35716E-01 +3.41374E+00 +1.03691E+00
 +5.05424E+00 -7.11695E-01 +3.92115E+00 -2.36174E+00 +2.61810E+00 -2.47511E+00 +3.45648E+00 -1.40030E+00
 +6.21826E+00 -4.81103E-01 +8.20595E+00 -3.98823E-01 +6.57755E+00 -2.89223E-01 +1.03121E+00 +1.45772E+00
