 Created: 16-Jan-2021
 $NMID
 ID='D:\BASISSIMULATI'
 FMTDAT='(8E13.5)'
 VOLUME=   1.00000E+00
 TRAMP=   1.00000E+00
 $END
 +3.28734E+01 +6.54749E-01 +2.47889E+01 +2.10607E+01 +5.18117E+00 +3.05053E+01 -1.50220E+01 +2.40879E+01
 -2.45998E+01 +6.07533E+00 -1.86670E+01 -1.25826E+01 -1.55960E+00 -2.07482E+01 +1.57823E+01 -1.37185E+01
 +2.23739E+01 +4.00343E+00 +1.37455E+01 +2.14448E+01 -5.42402E+00 +2.77373E+01 -2.41374E+01 +1.85688E+01
 -3.16176E+01 -1.32938E+00 -2.36079E+01 -2.10715E+01 -4.70919E+00 -3.00585E+01 +1.45256E+01 -2.40779E+01
 +2.38685E+01 -7.48247E+00 +1.92618E+01 +9.69383E+00 +4.82195E+00 +1.77884E+01 -9.99627E+00 +1.30486E+01
 -1.61808E+01 -5.54709E-01 -1.03567E+01 -1.40972E+01 +3.59864E+00 -1.91768E+01 +1.72406E+01 -1.27420E+01
 +2.26981E+01 +1.48758E+00 +1.71230E+01 +1.55913E+01 +3.92909E+00 +2.22239E+01 -9.63068E+00 +1.86697E+01
 -1.68397E+01 +7.91241E+00 -1.51589E+01 -3.61141E+00 -7.12979E+00 -9.95624E+00 +1.67821E+00 -8.87760E+00
 +6.16266E+00 -2.56551E+00 +4.45839E+00 +4.20840E+00 -1.49760E+00 +7.13483E+00 -7.61843E+00 +4.70342E+00
 -1.02668E+01 -1.39033E+00 -8.17476E+00 -7.69156E+00 -2.71092E+00 -1.11480E+01 +3.34919E+00 -1.06302E+01
 +7.55070E+00 -7.07814E+00 +8.89218E+00 -2.49768E+00 +7.86272E+00 +1.33517E+00 +5.66482E+00 +3.62824E+00
 +3.34008E+00 +4.50344E+00 +1.38141E+00 +4.43500E+00 -9.14107E-02 +3.77352E+00 -9.67849E-01 +2.70200E+00
 -1.03703E+00 +1.50988E+00 -2.55932E-01 +7.74781E-01 +8.92913E-01 +1.13816E+00 +1.39291E+00 +2.75845E+00
 +2.24566E-01 +4.88718E+00 -2.83684E+00 +6.02772E+00 -6.74348E+00 +4.75133E+00 -9.49112E+00 +7.24501E-01
 -9.19658E+00 -4.76321E+00 -5.33522E+00 -9.25456E+00 +6.80659E-01 -1.04327E+01 +6.07203E+00 -7.54417E+00
 +8.19420E+00 -2.02559E+00 +6.11380E+00 +3.15819E+00 +1.27375E+00 +5.16955E+00 -3.24289E+00 +2.99467E+00
 -4.49059E+00 -1.86696E+00 -1.44745E+00 -6.20297E+00 +4.28269E+00 -6.96294E+00 +9.32551E+00 -3.11208E+00
 +1.04869E+01 +3.65941E+00 +6.65725E+00 +9.83234E+00 -4.71737E-01 +1.20614E+01 -7.32464E+00 +9.11200E+00
 -1.04689E+01 +2.58473E+00 -8.56180E+00 -4.00472E+00 -3.07659E+00 -7.24602E+00 +2.60555E+00 -5.76532E+00
 +5.18497E+00 -9.42911E-01 +3.33579E+00 +3.97643E+00 -1.59623E+00 +5.82478E+00 -6.46189E+00 +3.34823E+00
 -8.19082E+00 -2.12154E+00 -5.56405E+00 -7.50957E+00 +1.41686E-01 -9.81061E+00 +5.96190E+00 -7.78953E+00
 +8.97495E+00 -2.59921E+00 +7.92000E+00 +2.98259E+00 +3.78674E+00 +6.18640E+00 -8.95718E-01 +5.77321E+00
 -3.58175E+00 +2.58971E+00 -3.12322E+00 -1.08948E+00 -2.81769E-01 -2.96811E+00 +2.87874E+00 -2.02671E+00
 +4.28196E+00 +1.01375E+00 +3.02058E+00 +4.25286E+00 -2.29262E-01 +5.78609E+00 -3.72275E+00 +4.77183E+00
 -5.70780E+00 +1.79917E+00 -5.37920E+00 -1.57771E+00 -3.20216E+00 -3.78505E+00 -4.98365E-01 -4.06974E+00
 +1.38189E+00 -2.77799E+00 +1.78419E+00 -9.91644E-01 +9.80689E-01 +1.84018E-01 -1.48924E-01 +2.30033E-01
 -7.20947E-01 -6.05967E-01 -3.48428E-01 -1.59091E+00 +7.27661E-01 -2.01104E+00 +1.88631E+00 -1.57305E+00
 +2.54159E+00 -4.91310E-01 +2.45414E+00 +7.28088E-01 +1.78064E+00 +1.61941E+00 +8.89808E-01 +1.98712E+00
 +1.08034E-01 +1.92187E+00 -4.34688E-01 +1.64657E+00 -7.88911E-01 +1.33311E+00 -1.05654E+00 +1.01793E+00
 -1.26915E+00 +6.49204E-01 -1.36454E+00 +1.98242E-01 -1.26300E+00 -2.68412E-01 -9.66950E-01 -6.15244E-01
 -5.95377E-01 -7.38008E-01 -3.19937E-01 -6.55061E-01 -2.47260E-01 -5.13833E-01 -3.34400E-01 -4.99656E-01
 -4.03043E-01 -7.05990E-01 -2.50415E-01 -1.05491E+00 +2.11583E-01 -1.32566E+00 +8.78390E-01 -1.27959E+00
 +1.48863E+00 -8.07796E-01 +1.75703E+00 -1.25680E-02 +1.52961E+00 +8.27323E-01 +8.73461E-01 +1.39030E+00
 +5.15665E-02 +1.47197E+00 -6.03654E-01 +1.08643E+00 -8.51203E-01 +4.57167E-01 -6.55081E-01 -9.52359E-02
 -1.95640E-01 -3.11099E-01 +2.24551E-01 -1.17355E-01 +3.33401E-01 +3.38738E-01 +2.72948E-02 +7.63386E-01
 -5.71415E-01 +8.63028E-01 -1.16648E+00 +4.95529E-01 -1.42835E+00 -2.46544E-01 -1.15984E+00 -1.06430E+00
 -4.07558E-01 -1.58590E+00 +5.39964E-01 -1.54712E+00 +1.27632E+00 -9.32793E-01 +1.47157E+00 -3.82131E-03
 +1.04372E+00 +8.14726E-01 +2.16024E-01 +1.13937E+00 -5.80603E-01 +8.28227E-01 -9.22044E-01 +6.84066E-02
 -6.17351E-01 -7.05954E-01 +1.74641E-01 -1.03486E+00 +1.01116E+00 -6.83492E-01 +1.39222E+00 +2.12635E-01
 +1.03539E+00 +1.19697E+00 +4.94948E-02 +1.72329E+00 -1.09723E+00 +1.45354E+00 -1.81170E+00 +4.60367E-01
 -1.69569E+00 -7.85914E-01 -7.77027E-01 -1.65274E+00 +4.83087E-01 -1.68480E+00 +1.42386E+00 -8.63108E-01
 +1.54162E+00 +3.66637E-01 +7.75056E-01 +1.32400E+00 -4.45258E-01 +1.46520E+00 -1.42170E+00 +6.92744E-01
 -1.57363E+00 -5.74515E-01 -7.69554E-01 -1.62013E+00 +5.82582E-01 -1.82486E+00 +1.74696E+00 -1.02000E+00
 +2.06335E+00 +4.02235E-01 +1.32013E+00 +1.69106E+00 -1.14737E-01 +2.14672E+00 -1.48459E+00 +1.51128E+00
 -2.05637E+00 +1.20537E-01 -1.52695E+00 -1.27271E+00 -1.95968E-01 -1.91009E+00 +1.19421E+00 -1.44691E+00
 +1.86542E+00 -1.45792E-01 +1.43324E+00 +1.26416E+00 +1.21690E-01 +1.98616E+00 -1.35546E+00 +1.59339E+00
 -2.18174E+00 +2.65613E-01 -1.88184E+00 -1.30391E+00 -5.81495E-01 -2.27961E+00 +1.05571E+00 -2.13191E+00
 +2.17946E+00 -9.22168E-01 +2.20345E+00 +7.26325E-01 +1.11723E+00 +1.95481E+00 -5.04244E-01 +2.12046E+00
 -1.79817E+00 +1.13694E+00 -2.06440E+00 -4.73237E-01 -1.13679E+00 -1.84335E+00 +5.17236E-01 -2.21105E+00
 +2.02466E+00 -1.32305E+00 +2.55284E+00 +4.13594E-01 +1.75023E+00 +2.11911E+00 -4.59889E-02 +2.88350E+00
 -1.95342E+00 +2.24591E+00 -2.98257E+00 +4.62875E-01 -2.55687E+00 -1.58758E+00 -8.45121E-01 -2.83869E+00
 +1.28394E+00 -2.59727E+00 +2.68824E+00 -9.43013E-01 +2.55830E+00 +1.26419E+00 +8.85785E-01 +2.80425E+00
 -1.47468E+00 +2.74768E+00 -3.21831E+00 +9.95508E-01 -3.28683E+00 -1.60239E+00 -1.48160E+00 -3.65194E+00
 +1.35944E+00 -3.95740E+00 +3.75642E+00 -2.20878E+00 +4.37463E+00 +7.80746E-01 +2.78598E+00 +3.45701E+00
 -2.32084E-01 +4.35410E+00 -3.06376E+00 +2.92812E+00 -4.12316E+00 -8.21899E-02 -2.75792E+00 -3.00550E+00
 +3.28718E-01 -4.14181E+00 +3.40866E+00 -2.73345E+00 +4.66495E+00 +5.51532E-01 +3.22750E+00 +3.92770E+00
 -2.81523E-01 +5.45578E+00 -4.02943E+00 +4.13986E+00 -5.95777E+00 +5.35387E-01 -4.93623E+00 -3.50058E+00
 -1.43314E+00 -5.80745E+00 +2.69683E+00 -5.12530E+00 +5.21563E+00 -1.82644E+00 +4.74884E+00 +2.25488E+00
 +1.57609E+00 +4.82203E+00 -2.49336E+00 +4.39866E+00 -5.10916E+00 +1.17589E+00 -4.69166E+00 -3.06201E+00
 -1.33481E+00 -5.90727E+00 +3.21259E+00 -5.66324E+00 +6.48854E+00 -2.30248E+00 +6.66789E+00 +2.48974E+00
 +3.57453E+00 +6.21866E+00 -1.20662E+00 +6.93632E+00 -5.18344E+00 +4.30487E+00 -6.30898E+00 -2.18335E-01
 -4.09113E+00 -4.17556E+00 +1.46688E-01 -5.44734E+00 +3.99363E+00 -3.40355E+00 +5.26844E+00 +7.58841E-01
 +3.20778E+00 +4.67093E+00 -1.11676E+00 +6.08042E+00 -5.37454E+00 +4.07457E+00 -7.22905E+00 -4.20958E-01
 -5.59185E+00 -5.13098E+00 -1.20589E+00 -7.64002E+00 +3.74886E+00 -6.67132E+00 +6.81004E+00 -2.75440E+00
 +6.52828E+00 +2.06842E+00 +3.21545E+00 +5.33196E+00 -1.24497E+00 +5.44968E+00 -4.41485E+00 +2.53650E+00
 -4.59971E+00 -1.67652E+00 -1.73981E+00 -4.78060E+00 +2.57148E+00 -4.97636E+00 +5.94210E+00 -2.02791E+00
 +6.44967E+00 +2.61415E+00 +3.65377E+00 +6.57603E+00 -1.17424E+00 +7.80043E+00 -5.71357E+00 +5.61045E+00
 -7.79165E+00 +1.04776E+00 -6.48949E+00 -3.67795E+00 -2.58709E+00 -6.32931E+00 +1.86687E+00 -5.77504E+00
 +4.62341E+00 -2.53775E+00 +4.38186E+00 +1.51079E+00 +1.43411E+00 +4.13418E+00 -2.51099E+00 +3.88376E+00
 -5.21893E+00 +8.35065E-01 -5.07719E+00 -3.45407E+00 -1.92266E+00 -6.73191E+00 +2.85931E+00 -7.18796E+00
 +7.00831E+00 -4.37101E+00 +8.50151E+00 +5.61971E-01 +6.56005E+00 +5.39050E+00 +2.05422E+00 +7.90787E+00
 -2.89953E+00 +7.00943E+00 -5.96737E+00 +3.25632E+00 -5.75954E+00 -1.37775E+00 -2.55040E+00 -4.47644E+00
 +1.82155E+00 -4.40783E+00 +4.85958E+00 -1.19763E+00 +4.69708E+00 +3.41698E+00 +1.12241E+00 +6.82686E+00
 -4.21221E+00 +6.89837E+00 -8.56022E+00 +3.14999E+00 -9.48401E+00 -2.88042E+00 -6.18155E+00 -8.32888E+00
 -1.49765E-02 -1.04561E+01 +6.09842E+00 -8.11771E+00 +9.17222E+00 -2.45208E+00 +7.75176E+00 +3.63804E+00
 +2.75389E+00 +6.99407E+00 -2.96053E+00 +5.91747E+00 -6.10731E+00 +1.14883E+00 -4.79496E+00 -4.47160E+00
 +3.68959E-01 -7.52996E+00 +6.53237E+00 -5.94277E+00 +1.01230E+01 -1.81487E-01 +8.82869E+00 +6.89625E+00
 +2.93330E+00 +1.15581E+01 -4.76209E+00 +1.12387E+01 -1.04213E+01 +5.97705E+00 -1.12549E+01 -1.56705E+00
 -7.04543E+00 -7.54783E+00 -2.58182E-01 -9.03084E+00 +5.32923E+00 -5.58650E+00 +6.71672E+00 +5.07740E-01
 +3.32484E+00 +5.56338E+00 -2.71721E+00 +6.54396E+00 -7.78395E+00 +2.74388E+00 -8.77571E+00 -3.83951E+00
 -4.82389E+00 -9.62381E+00 +2.24913E+00 -1.14080E+01 +8.93826E+00 -8.09643E+00 +1.19479E+01 -1.25188E+00
 +9.92307E+00 +5.78468E+00 +4.09945E+00 +9.69029E+00 -2.43413E+00 +8.88342E+00 -6.41512E+00 +4.26772E+00
 -6.10738E+00 -1.35273E+00 -2.13330E+00 -4.82279E+00 +2.95524E+00 -4.30211E+00 +6.08938E+00 -1.81967E-01
 +5.31121E+00 +5.18599E+00 +7.76692E-01 +8.76238E+00 -5.35281E+00 +8.41031E+00 -1.00386E+01 +3.98929E+00
 -1.09160E+01 -2.58247E+00 -7.48263E+00 -8.30392E+00 -1.33728E+00 -1.05982E+01 +4.63628E+00 -8.59205E+00
 +7.72413E+00 -3.53070E+00 +6.74437E+00 +1.87752E+00 +2.62867E+00 +4.85906E+00 -2.07940E+00 +4.01026E+00
 -4.56699E+00 +3.25595E-02 -3.25448E+00 -4.62823E+00 +1.32746E+00 -7.07638E+00 +6.77006E+00 -5.53469E+00
 +1.00396E+01 -3.55272E-01 +9.10985E+00 +6.09235E+00 +4.09928E+00 +1.06348E+01 -2.72671E+00 +1.09840E+01
 -8.12612E+00 +6.98752E+00 -9.61103E+00 +7.36909E-01 -6.79125E+00 -4.55570E+00 -1.57292E+00 -6.31164E+00
 +2.91861E+00 -3.99687E+00 +4.10054E+00 +6.09924E-01 +1.38668E+00 +4.45430E+00 -3.49563E+00 +4.96516E+00
 -7.50936E+00 +1.53256E+00 -8.05610E+00 -4.14175E+00 -4.46298E+00 -9.01697E+00 +1.64239E+00 -1.04394E+01
 +7.26815E+00 -7.62268E+00 +9.74424E+00 -2.04001E+00 +8.17528E+00 +3.46750E+00 +3.83863E+00 +6.31459E+00
 -6.56658E-01 +5.57189E+00 -2.91117E+00 +2.35408E+00 -2.05819E+00 -9.70612E-01 +8.74641E-01 -2.22551E+00
 +3.70805E+00 -6.54271E-01 +4.45219E+00 +2.75503E+00 +2.43136E+00 +5.96472E+00 -1.43230E+00 +7.11731E+00
