 Created: 16-Jan-2021
 $NMID
 ID='D:\BASISSIMULATI'
 FMTDAT='(8E13.5)'
 VOLUME=   1.00000E+00
 TRAMP=   1.00000E+00
 $END
 +1.44109E+02 +7.07961E-01 +1.33295E+02 +5.11182E+01 +1.03952E+02 +9.28917E+01 +6.13939E+01 +1.19319E+02
 +1.32127E+01 +1.26606E+02 -3.22079E+01 +1.14542E+02 -6.73120E+01 +8.64610E+01 -8.67988E+01 +4.84970E+01
 -8.85730E+01 +8.30381E+00 -7.40333E+01 -2.64965E+01 -4.76530E+01 -4.98182E+01 -1.59512E+01 -5.82628E+01
 +1.39222E+01 -5.16878E+01 +3.56880E+01 -3.30894E+01 +4.52130E+01 -7.83575E+00 +4.12986E+01 +1.75735E+01
 +2.58251E+01 +3.69538E+01 +3.23573E+00 +4.57774E+01 -2.05206E+01 +4.21291E+01 -3.93531E+01 +2.70760E+01
 -4.84033E+01 +4.38162E+00 -4.51341E+01 -2.03690E+01 -2.99008E+01 -4.10378E+01 -5.88388E+00 -5.23215E+01
 +2.16003E+01 -5.09563E+01 +4.62612E+01 -3.64802E+01 +6.22181E+01 -1.13867E+01 +6.53076E+01 +1.93648E+01
 +5.40345E+01 +4.93805E+01 +2.99567E+01 +7.21874E+01 -2.58050E+00 +8.26237E+01 -3.73098E+01 +7.79688E+01
 -6.73294E+01 +5.85695E+01 -8.65413E+01 +2.78255E+01 -9.09401E+01 -8.46909E+00 -7.94772E+01 -4.32946E+01
 -5.43170E+01 -6.98442E+01 -2.04261E+01 -8.29321E+01 +1.54249E+01 -8.00787E+01 +4.60401E+01 -6.20422E+01
 +6.52765E+01 -3.26842E+01 +6.93127E+01 +1.80628E+00 +5.74459E+01 +3.41736E+01 +3.22500E+01 +5.75815E+01
 -9.39960E-01 +6.70184E+01 -3.51117E+01 +6.03316E+01 -6.30067E+01 +3.86780E+01 -7.86025E+01 +6.29681E+00
 -7.83439E+01 -3.03482E+01 -6.18684E+01 -6.38797E+01 -3.20805E+01 -8.75021E+01 +5.44020E+00 -9.63739E+01
 +4.35720E+01 -8.85762E+01 +7.50907E+01 -6.54825E+01 +9.41186E+01 -3.14557E+01 +9.72874E+01 +7.05726E+00
 +8.43778E+01 +4.28455E+01 +5.83104E+01 +6.93918E+01 +2.44977E+01 +8.21679E+01 -1.03030E+01 +7.95025E+01
 -3.93922E+01 +6.28489E+01 -5.74924E+01 +3.64037E+01 -6.17918E+01 +6.16699E+00 -5.24546E+01 -2.13552E+01
 -3.24989E+01 -4.05271E+01 -7.07594E+00 -4.77505E+01 +1.76888E+01 -4.21784E+01 +3.60424E+01 -2.58308E+01
 +4.38519E+01 -3.09309E+00 +3.94862E+01 +2.02877E+01 +2.41482E+01 +3.84930E+01 +1.58877E+00 +4.69295E+01
 -2.27340E+01 +4.32548E+01 -4.28672E+01 +2.79114E+01 -5.36880E+01 +4.05597E+00 -5.20558E+01 -2.31037E+01
 -3.75436E+01 -4.74237E+01 -1.25902E+01 -6.31533E+01 +1.79632E+01 -6.61974E+01 +4.78582E+01 -5.50413E+01
 +7.07215E+01 -3.11396E+01 +8.14107E+01 +1.31854E+00 +7.71209E+01 +3.62236E+01 +5.80175E+01 +6.67730E+01
 +2.72590E+01 +8.68590E+01 -9.59984E+00 +9.23281E+01 -4.57045E+01 +8.18499E+01 -7.42721E+01 +5.72138E+01
 -8.99559E+01 +2.29889E+01 -8.99219E+01 -1.43841E+01 -7.44149E+01 -4.78834E+01 -4.66981E+01 -7.13127E+01
 -1.23796E+01 -8.05377E+01 +2.17351E+01 -7.42953E+01 +4.90265E+01 -5.44146E+01 +6.43959E+01 -2.54046E+01
 +6.52763E+01 +6.50097E+00 +5.21147E+01 +3.46435E+01 +2.82295E+01 +5.33109E+01 -9.22286E-01 +5.88991E+01
 -2.89115E+01 +5.06236E+01 -4.96912E+01 +3.06373E+01 -5.88563E+01 +3.53654E+00 -5.45464E+01 -2.46380E+01
 -3.78073E+01 -4.76925E+01 -1.23388E+01 -6.05908E+01 +1.63124E+01 -6.05109E+01 +4.19431E+01 -4.74266E+01
 +5.90138E+01 -2.40969E+01 +6.38214E+01 +4.53320E+00 +5.52782E+01 +3.23895E+01 +3.51355E+01 +5.35594E+01
 +7.60671E+00 +6.35445E+01 -2.15277E+01 +6.02098E+01 -4.61437E+01 +4.42326E+01 -6.10676E+01 +1.89571E+01
 -6.31663E+01 -1.03134E+01 -5.20067E+01 -3.74354E+01 -2.99449E+01 -5.67203E+01 -1.62886E+00 -6.41317E+01
 +2.69821E+01 -5.81341E+01 +4.98713E+01 -4.00145E+01 +6.22313E+01 -1.36107E+01 +6.14745E+01 +1.54975E+01
 +4.77773E+01 +4.11618E+01 +2.40434E+01 +5.79589E+01 -4.70647E+00 +6.23308E+01 -3.23880E+01 +5.33346E+01
 -5.31317E+01 +3.28421E+01 -6.25149E+01 +5.15039E+00 -5.84927E+01 -2.39169E+01 -4.18296E+01 -4.82280E+01
 -1.59443E+01 -6.26271E+01 +1.38013E+01 -6.40141E+01 +4.12192E+01 -5.19958E+01 +6.05854E+01 -2.89716E+01
 +6.78329E+01 +3.63335E-01 +6.13997E+01 +2.99935E+01 +4.25537E+01 +5.38330E+01 +1.51290E+01 +6.69892E+01
 -1.52721E+01 +6.67766E+01 -4.24427E+01 +5.32700E+01 -6.08590E+01 +2.92832E+01 -6.68229E+01 -2.22242E-01
 -5.92212E+01 -2.91722E+01 -3.97460E+01 -5.16436E+01 -1.25305E+01 -6.30921E+01 +1.67211E+01 -6.12880E+01
 +4.19273E+01 -4.67668E+01 +5.78964E+01 -2.27023E+01 +6.14023E+01 +5.76973E+00 +5.18459E+01 +3.26339E+01
 +3.13652E+01 +5.22560E+01 +4.37351E+00 +6.05584E+01 -2.33760E+01 +5.58658E+01 -4.60016E+01 +3.92445E+01
 -5.87266E+01 +1.42667E+01 -5.88773E+01 -1.37480E+01 -4.64363E+01 -3.88553E+01 -2.40388E+01 -5.57350E+01
 +3.58738E+00 -6.08064E+01 +3.06182E+01 -5.29751E+01 +5.13567E+01 -3.38583E+01 +6.14266E+01 -7.44064E+00
 +5.86868E+01 +2.07634E+01 +4.36757E+01 +4.48662E+01 +1.94941E+01 +5.98384E+01 -8.84664E+00 +6.25581E+01
 -3.54755E+01 +5.24591E+01 -5.48882E+01 +3.16423E+01 -6.30945E+01 +4.43118E+00 -5.84451E+01 -2.35368E+01
 -4.19680E+01 -4.64901E+01 -1.71430E+01 -5.97266E+01 +1.08334E+01 -6.05899E+01 +3.61408E+01 -4.90147E+01
 +5.35528E+01 -2.75276E+01 +5.95267E+01 -7.06677E-01 +5.29362E+01 +2.57867E+01 +3.52950E+01 +4.63991E+01
 +1.04272E+01 +5.68487E+01 -1.63465E+01 +5.50190E+01 -3.93335E+01 +4.13940E+01 -5.36685E+01 +1.89471E+01
 -5.63354E+01 -7.49372E+00 -4.67986E+01 -3.22682E+01 -2.71108E+01 -5.00792E+01 -1.47666E+00 -5.71101E+01
 +2.46356E+01 -5.18289E+01 +4.56478E+01 -3.53117E+01 +5.70477E+01 -1.10179E+01 +5.63412E+01 +1.59364E+01
 +4.35806E+01 +3.98514E+01 +2.13593E+01 +5.56415E+01 -5.72690E+00 +5.99036E+01 -3.20376E+01 +5.16351E+01
 -5.20659E+01 +3.24496E+01 -6.15883E+01 +6.24627E+00 -5.85489E+01 -2.15985E+01 -4.34906E+01 -4.53472E+01
 -1.94458E+01 -6.00933E+01 +8.69066E+00 -6.27797E+01 +3.51760E+01 -5.28324E+01 +5.46087E+01 -3.22776E+01
 +6.30445E+01 -5.31871E+00 +5.88084E+01 +2.25370E+01 +4.28334E+01 +4.56200E+01 +1.84575E+01 +5.92705E+01
 -9.27739E+00 +6.07955E+01 -3.46764E+01 +5.00146E+01 -5.25738E+01 +2.92821E+01 -5.93981E+01 +2.98209E+00
 -5.39012E+01 -2.33948E+01 -3.73988E+01 -4.43994E+01 -1.34770E+01 -5.57560E+01 +1.27730E+01 -5.52431E+01
 +3.58288E+01 -4.31402E+01 +5.08943E+01 -2.21486E+01 +5.48978E+01 +3.19252E+00 +4.71226E+01 +2.74717E+01
 +2.93416E+01 +4.55482E+01 +5.42696E+00 +5.36310E+01 -1.94770E+01 +5.00694E+01 -4.00462E+01 +3.56896E+01
 -5.19006E+01 +1.36088E+01 -5.25263E+01 -1.14326E+01 -4.18003E+01 -3.40776E+01 -2.20110E+01 -4.94874E+01
 +2.63102E+00 -5.43629E+01 +2.68847E+01 -4.76407E+01 +4.55875E+01 -3.07168E+01 +5.47462E+01 -7.15106E+00
 +5.23807E+01 +1.80834E+01 +3.89437E+01 +3.96484E+01 +1.72286E+01 +5.29659E+01 -8.21516E+00 +5.51839E+01
 -3.20362E+01 +4.57803E+01 -4.92046E+01 +2.66775E+01 -5.60693E+01 +1.84467E+00 -5.11270E+01 -2.35300E+01
 -3.53425E+01 -4.41228E+01 -1.19532E+01 -5.55880E+01 +1.42021E+01 -5.54680E+01 +3.76890E+01 -4.37099E+01
 +5.36079E+01 -2.26814E+01 +5.86145E+01 +3.31824E+00 +5.16158E+01 +2.89487E+01 +3.39978E+01 +4.89358E+01
 +9.33885E+00 +5.91642E+01 -1.73328E+01 +5.75275E+01 -4.05802E+01 +4.43617E+01 -5.56820E+01 +2.23692E+01
 -5.96049E+01 -3.94539E+00 -5.16229E+01 -2.92127E+01 -3.34566E+01 -4.83106E+01 -8.90413E+00 -5.74205E+01
 +1.69566E+01 -5.48081E+01 +3.88266E+01 -4.11671E+01 +5.22847E+01 -1.94572E+01 +5.46968E+01 +5.72777E+00
 +4.57476E+01 +2.91280E+01 +2.74856E+01 +4.59173E+01 +3.87547E+00 +5.27057E+01 -2.00475E+01 +4.82345E+01
 -3.92403E+01 +3.36215E+01 -4.97110E+01 +1.21068E+01 -4.93489E+01 -1.16451E+01 -3.83563E+01 -3.25380E+01
 -1.91909E+01 -4.61221E+01 +3.96625E+00 -4.95311E+01 +2.61032E+01 -4.20815E+01 +4.24419E+01 -2.54096E+01
 +4.94506E+01 -3.11862E+00 +4.55902E+01 +1.99879E+01 +3.16397E+01 +3.89253E+01 +1.05322E+01 +4.95838E+01
 -1.32644E+01 +4.95999E+01 -3.46884E+01 +3.88584E+01 -4.91527E+01 +1.95232E+01 -5.35122E+01 -4.41359E+00
 -4.67309E+01 -2.79658E+01 -3.01052E+01 -4.61976E+01 -6.99955E+00 -5.52587E+01 +1.78520E+01 -5.31929E+01
 +3.93315E+01 -4.03516E+01 +5.30036E+01 -1.93251E+01 +5.60404E+01 +5.59369E+00 +4.78113E+01 +2.93001E+01
 +3.00144E+01 +4.69386E+01 +6.32377E+00 +5.49105E+01 -1.83750E+01 +5.16200E+01 -3.90000E+01 +3.78019E+01
 -5.13272E+01 +1.63645E+01 -5.28645E+01 -8.21860E+00 -4.33635E+01 -3.08417E+01 -2.48637E+01 -4.68280E+01
 -1.26023E+00 -5.28992E+01 +2.25118E+01 -4.78502E+01 +4.15073E+01 -3.27906E+01 +5.17985E+01 -1.09044E+01
 +5.12872E+01 +1.32222E+01 +4.01324E+01 +3.45614E+01 +2.07058E+01 +4.86918E+01 -2.91293E+00 +5.27162E+01
 -2.57948E+01 +4.58572E+01 -4.31934E+01 +2.96074E+01 -5.15333E+01 +7.40654E+00 -4.91497E+01 -1.60877E+01
 -3.66251E+01 -3.59783E+01 -1.66550E+01 -4.81537E+01 +6.52800E+00 -5.01431E+01 +2.80484E+01 -4.16240E+01
 +4.34130E+01 -2.44780E+01 +4.94507E+01 -2.38406E+00 +4.49716E+01 +1.99628E+01 +3.10071E+01 +3.78431E+01
 +1.05828E+01 +4.75058E+01 -1.19265E+01 +4.69540E+01 -3.17235E+01 +3.63592E+01 -4.46012E+01 +1.80188E+01
 -4.78290E+01 -4.13386E+00 -4.07265E+01 -2.53626E+01 -2.48046E+01 -4.11287E+01 -3.44567E+00 -4.80492E+01
 +1.88100E+01 -4.46104E+01 +3.72206E+01 -3.14882E+01 +4.78416E+01 -1.14088E+01 +4.83572E+01 +1.14220E+01
 +3.85703E+01 +3.22004E+01 +2.04481E+01 +4.65311E+01 -2.28500E+00 +5.13497E+01 -2.49235E+01 +4.55666E+01
 -4.27616E+01 +3.02985E+01 -5.20744E+01 +8.63930E+00 -5.08954E+01 -1.49817E+01 -3.94263E+01 -3.57201E+01
 -1.99954E+01 -4.93220E+01 +3.42585E+00 -5.30066E+01 +2.60487E+01 -4.60405E+01 +4.32603E+01 -2.98861E+01
 +5.15785E+01 -7.89279E+00 +4.93691E+01 +1.54029E+01 +3.71773E+01 +3.52213E+01 +1.76044E+01 +4.75316E+01
 -5.24186E+00 +4.98833E+01 -2.66081E+01 +4.19062E+01 -4.20865E+01 +2.53751E+01 -4.85298E+01 +3.82769E+00
 -4.46982E+01 -1.81831E+01 -3.15066E+01 -3.60448E+01 -1.18203E+01 -4.60488E+01 +1.01559E+01 -4.61600E+01
 +2.97648E+01 -3.64333E+01 +4.28752E+01 -1.89910E+01 +4.67452E+01 +2.43279E+00 +4.05912E+01 +2.32828E+01
 +2.57441E+01 +3.91422E+01 +5.36219E+00 +4.66601E+01 -1.62390E+01 +4.42511E+01 -3.44963E+01 +3.24237E+01
 -4.55583E+01 +1.36670E+01 -4.70924E+01 -8.07652E+00 -3.87710E+01 -2.82423E+01 -2.23359E+01 -4.26033E+01
 -1.22868E+00 -4.81560E+01 +2.01349E+01 -4.37486E+01 +3.72928E+01 -3.03186E+01 +4.66730E+01 -1.06925E+01
 +4.63407E+01 +1.10109E+01 +3.64008E+01 +3.02464E+01 +1.89725E+01 +4.29966E+01 -2.25877E+00 +4.66135E+01
 -2.28171E+01 +4.03716E+01 -3.83762E+01 +2.56176E+01 -4.56669E+01 +5.48474E+00 -4.31619E+01 -1.57663E+01
