 Created: 16-Jan-2021
 $NMID
 ID='D:\BASISSIMULATI'
 FMTDAT='(8E13.5)'
 VOLUME=   1.00000E+00
 TRAMP=   1.00000E+00
 $END
 +8.40128E+01 +8.32054E-01 +6.67744E+01 +1.65501E+01 +2.70001E+01 +3.51240E+01 -9.64805E+00 +5.02930E+01
 -2.44563E+01 +5.01916E+01 -1.80325E+01 +3.03197E+01 -4.59154E+00 +1.62788E+00 +3.30537E+00 -1.65599E+01
 +3.62058E+00 -1.29645E+01 +9.59765E-01 +6.03175E+00 -2.07389E+00 +2.29180E+01 -7.15019E+00 +2.46828E+01
 -1.48846E+01 +1.21560E+01 -2.06324E+01 -4.36844E+00 -1.81856E+01 -1.61810E+01 -7.39011E+00 -2.17505E+01
 +4.17000E+00 -2.32502E+01 +8.67522E+00 -2.12141E+01 +6.69434E+00 -1.49390E+01 +6.66426E+00 -6.98673E+00
 +1.51454E+01 -3.68920E+00 +2.87266E+01 -8.52371E+00 +3.71007E+01 -1.55893E+01 +3.41919E+01 -1.26950E+01
 +2.46982E+01 +6.55677E+00 +1.83312E+01 +3.38277E+01 +1.81642E+01 +5.11696E+01 +1.66879E+01 +4.69039E+01
 +4.75219E+00 +2.67113E+01 -1.62982E+01 +8.23078E+00 -3.33672E+01 +4.20955E+00 -3.37333E+01 +1.12025E+01
 -1.81016E+01 +1.49837E+01 -5.13564E-01 +6.34666E+00 +5.11872E+00 -9.46124E+00 -2.13242E+00 -1.89343E+01
 -1.10424E+01 -1.46226E+01 -1.10039E+01 -2.21298E+00 -2.62492E+00 +6.14036E+00 +4.64175E+00 +3.87958E+00
 +4.03037E+00 -5.37777E+00 -1.10314E+00 -1.39286E+01 -1.58672E+00 -1.80779E+01 +7.30044E+00 -1.89707E+01
 +2.12339E+01 -1.70460E+01 +3.20157E+01 -8.95944E+00 +3.53505E+01 +7.96689E+00 +3.22872E+01 +2.92007E+01
 +2.43240E+01 +4.36889E+01 +1.02373E+01 +4.30571E+01 -1.01881E+01 +2.99071E+01 -3.04491E+01 +1.55565E+01
 -3.88693E+01 +8.91462E+00 -2.87621E+01 +8.38552E+00 -7.16261E+00 +5.66264E+00 +8.82116E+00 -3.07191E+00
 +6.67560E+00 -1.16219E+01 -9.78980E+00 -1.07119E+01 -2.39804E+01 +2.45009E-01 -2.24092E+01 +1.03323E+01
 -7.14156E+00 +7.53004E+00 +7.51919E+00 -8.31750E+00 +1.00530E+01 -2.41764E+01 +2.62057E+00 -2.62023E+01
 -2.83461E+00 -1.31610E+01 +2.04348E+00 +2.95342E+00 +1.38509E+01 +9.34213E+00 +2.23036E+01 +4.60433E+00
 +2.14824E+01 -1.51081E+00 +1.47584E+01 +7.19002E-01 +9.06109E+00 +1.14565E+01 +6.41071E+00 +2.27708E+01
 +2.77113E+00 +2.77133E+01 -5.31227E+00 +2.61225E+01 -1.51831E+01 +2.17313E+01 -2.06716E+01 +1.59953E+01
 -1.94685E+01 +7.16054E+00 -1.58808E+01 -4.65649E+00 -1.52494E+01 -1.40373E+01 -1.68191E+01 -1.44786E+01
 -1.42732E+01 -6.28458E+00 -4.07993E+00 +1.74307E+00 +8.19403E+00 +5.10408E-01 +1.20930E+01 -9.36529E+00
 +3.53993E+00 -1.72700E+01 -9.29163E+00 -1.35579E+01 -1.30416E+01 -4.68450E-01 -2.58670E+00 +9.25929E+00
 +1.33902E+01 +5.46746E+00 +2.10287E+01 -8.22080E+00 +1.52508E+01 -1.72481E+01 +4.31792E+00 -1.04738E+01
 +3.29872E-01 +8.73096E+00 +6.09691E+00 +2.59179E+01 +1.24559E+01 +2.94962E+01 +8.53173E+00 +2.06181E+01
 -6.43550E+00 +9.68487E+00 -2.22086E+01 +4.68560E+00 -2.78678E+01 +4.36122E+00 -2.18419E+01 +2.42296E+00
 -1.15714E+01 -3.63566E+00 -4.70699E+00 -9.75808E+00 -2.36944E+00 -1.09854E+01 -1.08625E+00 -7.80433E+00
 +7.75643E-01 -5.25646E+00 +8.98412E-01 -6.28366E+00 -2.45395E+00 -7.99643E+00 -5.97894E+00 -5.79650E+00
 -3.85801E+00 -2.29836E-01 +4.87725E+00 +2.46329E+00 +1.33320E+01 -2.27097E+00 +1.31191E+01 -1.04830E+01
 +3.94739E+00 -1.23833E+01 -4.71711E+00 -2.78982E+00 -3.07260E+00 +1.20307E+01 +8.01041E+00 +1.95878E+01
 +1.67118E+01 +1.38111E+01 +1.19897E+01 +1.66871E+00 -4.64787E+00 -3.83457E+00 -1.99567E+01 +2.74815E+00
 -2.18641E+01 +1.35349E+01 -1.11199E+01 +1.55951E+01 +2.66816E-01 +4.49888E+00 +1.69005E+00 -1.11496E+01
 -5.84991E+00 -1.86288E+01 -1.22154E+01 -1.36426E+01 -9.57824E+00 -3.44197E+00 -1.17394E-01 +1.77641E+00
 +7.56757E+00 -8.88170E-01 +8.10805E+00 -5.85856E+00 +4.01903E+00 -6.78327E+00 +1.14899E+00 -3.44456E+00
 +1.49672E+00 -4.22799E-01 +2.10052E+00 -4.37126E-01 +4.53182E-01 -1.17608E+00 -1.25239E+00 +7.24098E-01
 +1.08604E+00 +4.24745E+00 +7.10287E+00 +4.69224E+00 +1.05888E+01 +1.49684E-01 +5.98707E+00 -4.49686E+00
 -4.35202E+00 -2.12055E+00 -1.12872E+01 +7.80797E+00 -8.33910E+00 +1.65623E+01 +6.87105E-01 +1.41482E+01
 +5.04690E+00 +2.29040E-01 -1.38011E+00 -1.41184E+01 -1.27320E+01 -1.67400E+01 -1.65877E+01 -6.53649E+00
 -7.00011E+00 +5.44018E+00 +8.66799E+00 +7.31751E+00 +1.66610E+01 -1.66901E+00 +1.04533E+01 -1.10664E+01
 -3.07711E+00 -1.06319E+01 -1.10367E+01 -8.88979E-01 -7.28769E+00 +8.12844E+00 +2.65333E+00 +7.85610E+00
 +8.71910E+00 -2.65624E-01 +6.75759E+00 -7.34977E+00 +1.21512E+00 -6.89108E+00 -1.49466E+00 -7.51196E-01
 -2.66733E-01 +4.41555E+00 +9.29251E-01 +4.96029E+00 -7.05161E-01 +3.02608E+00 -2.96951E+00 +2.09073E+00
 -1.97118E+00 +1.90049E+00 +2.02233E+00 -4.95136E-01 +4.09655E+00 -5.24974E+00 +7.28400E-01 -7.57357E+00
 -5.03044E+00 -2.83024E+00 -6.24493E+00 +6.67914E+00 -3.32818E-01 +1.20883E+01 +6.81490E+00 +6.68367E+00
 +6.57053E+00 -6.04789E+00 -2.44854E+00 -1.46012E+01 -1.15164E+01 -1.07022E+01 -1.02720E+01 +1.94503E+00
 +1.92799E+00 +1.10717E+01 +1.42089E+01 +8.27430E+00 +1.46033E+01 -2.53719E+00 +2.17364E+00 -9.59723E+00
 -1.18555E+01 -5.79095E+00 -1.51764E+01 +4.14786E+00 -6.15205E+00 +9.14189E+00 +5.63239E+00 +3.64944E+00
 +9.77526E+00 -6.87504E+00 +4.96996E+00 -1.22426E+01 -1.47398E+00 -8.09922E+00 -2.59688E+00 +5.55178E-01
 +1.28228E+00 +5.74164E+00 +4.62594E+00 +4.80841E+00 +3.96245E+00 +1.62102E+00 +1.34746E+00 +5.72971E-01
 +5.63833E-01 +1.42421E+00 +1.69331E+00 +9.66701E-01 +1.23797E+00 -1.45279E+00 -2.49702E+00 -2.27738E+00
 -6.04752E+00 +1.49306E+00 -4.46658E+00 +7.14399E+00 +1.93834E+00 +7.93694E+00 +6.40810E+00 +7.66639E-01
 +2.74183E+00 -8.99159E+00 -6.85619E+00 -1.20000E+01 -1.26060E+01 -4.85401E+00 -7.03445E+00 +5.50921E+00
 +6.30173E+00 +8.47788E+00 +1.52251E+01 +9.21535E-01 +1.08571E+01 -9.23893E+00 -3.11934E+00 -1.13024E+01
 -1.37081E+01 -3.25454E+00 -1.11949E+01 +5.96074E+00 +1.82639E+00 +5.97898E+00 +1.39014E+01 -3.77478E+00
 +1.63141E+01 -1.31539E+01 +1.04746E+01 -1.15613E+01 +4.19285E+00 +1.43130E+00 +2.25034E+00 +1.58944E+01
 +2.11074E+00 +2.12346E+01 -1.23518E+00 +1.53014E+01 -7.94647E+00 +4.28866E+00 -1.24591E+01 -4.64948E+00
 -9.87193E+00 -9.12569E+00 -1.80673E+00 -1.03505E+01 +5.15250E+00 -8.73339E+00 +6.41302E+00 -3.09175E+00
 +3.50766E+00 +5.55304E+00 +9.39497E-01 +1.15915E+01 +1.87126E-01 +8.79983E+00 -1.43013E+00 -2.56869E+00
 -5.67266E+00 -1.40315E+01 -8.91903E+00 -1.60216E+01 -4.97186E+00 -7.34062E+00 +7.07598E+00 +3.30308E+00
 +1.92415E+01 +6.01767E+00 +2.09730E+01 -1.45688E-01 +9.90535E+00 -6.48363E+00 -4.49520E+00 -4.21756E+00
 -9.31630E+00 +5.94487E+00 -7.63864E-01 +1.45904E+01 +1.19548E+01 +1.37696E+01 +1.56433E+01 +5.40417E+00
 +5.92335E+00 -1.12413E+00 -9.03938E+00 +6.83690E-01 -1.70950E+01 +7.58977E+00 -1.35950E+01 +1.05225E+01
 -4.28686E+00 +4.58987E+00 +2.05302E+00 -5.82341E+00 +2.34139E+00 -1.20027E+01 +2.88123E-01 -9.91045E+00
 +3.16057E-01 -3.40108E+00 +2.38003E+00 +1.04789E+00 +3.37231E+00 +1.29632E+00 +2.19419E+00 +3.53512E-01
 +1.41469E+00 +1.12419E+00 +3.39976E+00 +2.28337E+00 +6.30399E+00 +4.75195E-01 +5.81024E+00 -4.24990E+00
 +1.14743E+00 -7.11703E+00 -2.23951E+00 -3.74438E+00 +2.10704E+00 +4.25106E+00 +1.34611E+01 +1.03592E+01
 +2.22882E+01 +1.04277E+01 +1.84521E+01 +7.70545E+00 +1.57789E+00 +9.13227E+00 -1.73808E+01 +1.63645E+01
 -2.56330E+01 +2.19048E+01 -1.97791E+01 +1.59228E+01 -7.59954E+00 -2.51813E+00 +7.65044E-01 -2.19543E+01
 +2.42809E+00 -2.75977E+01 +2.27435E+00 -1.47586E+01 +5.02681E+00 +6.56600E+00 +8.71774E+00 +2.04460E+01
 +7.17592E+00 +1.84506E+01 -1.62014E+00 +5.13828E+00 -1.13665E+01 -8.21403E+00 -1.27710E+01 -1.38703E+01
 -2.93935E+00 -1.18139E+01 +1.13001E+01 -5.92500E+00 +1.96551E+01 +1.26160E+00 +1.75104E+01 +9.01976E+00
 +8.72525E+00 +1.53739E+01 +3.26336E-01 +1.64796E+01 -4.12985E+00 +1.06596E+01 -5.60380E+00 +2.20280E+00
 -5.63958E+00 -1.03723E+00 -3.77321E+00 +4.78270E+00 +1.92998E-01 +1.47001E+01 +2.84867E+00 +1.89666E+01
 -1.18931E+00 +1.25050E+01 -1.28004E+01 -8.27796E-03 -2.44437E+01 -8.98113E+00 -2.50779E+01 -9.54428E+00
 -1.07164E+01 -5.61884E+00 +1.00131E+01 -4.26268E+00 +2.21748E+01 -6.99732E+00 +1.75959E+01 -8.11810E+00
 +2.08649E+00 -1.95646E+00 -1.03868E+01 +9.27720E+00 -1.07077E+01 +1.63645E+01 -1.93254E+00 +1.22943E+01
 +5.62142E+00 -2.23952E-02 +5.42302E+00 -1.00312E+01 +2.80603E-01 -9.57576E+00 -2.37182E+00 -2.15492E-01
 +8.52452E-01 +9.46526E+00 +6.21725E+00 +1.29945E+01 +7.70471E+00 +1.15904E+01 +3.31952E+00 +1.08631E+01
 -4.11799E+00 +1.33473E+01 -1.13028E+01 +1.55872E+01 -1.76041E+01 +1.25515E+01 -2.31883E+01 +3.65564E+00
 -2.54561E+01 -6.58130E+00 -1.98186E+01 -1.33717E+01 -5.33351E+00 -1.57405E+01 +1.13074E+01 -1.52407E+01
 +1.94841E+01 -1.19295E+01 +1.37887E+01 -3.83303E+00 -5.26750E-01 +8.59892E+00 -1.19731E+01 +1.88881E+01
 -1.31086E+01 +1.80692E+01 -6.36078E+00 +3.65581E+00 +1.87445E-01 -1.52855E+01 +1.87148E+00 -2.39367E+01
 +1.31845E+00 -1.44358E+01 +3.39554E+00 +6.52876E+00 +7.79840E+00 +2.31422E+01 +8.41337E+00 +2.41402E+01
 +5.52908E-01 +1.18210E+01 -1.22693E+01 -1.65213E+00 -2.03338E+01 -6.04237E+00 -1.71347E+01 -1.09063E+00
 -6.35379E+00 +5.86682E+00 +1.27168E+00 +8.30397E+00 -1.78129E+00 +5.53011E+00 -1.28192E+01 +4.37780E-01
 -2.19345E+01 -5.29170E+00 -2.13076E+01 -1.20195E+01 -1.12993E+01 -1.87562E+01 +1.66971E+00 -2.12298E+01
 +1.15074E+01 -1.53068E+01 +1.58908E+01 -2.44210E+00 +1.46741E+01 +9.71550E+00 +7.62516E+00 +1.34933E+01
 -4.34309E+00 +8.13693E+00 -1.63226E+01 +3.19442E-02 -2.04609E+01 -4.12718E+00 -1.23214E+01 -3.72153E+00
 +3.39762E+00 -3.21439E+00 +1.50313E+01 -5.36569E+00 +1.36443E+01 -6.97846E+00 +1.24588E+00 -2.56910E+00
 -1.11069E+01 +8.06445E+00 -1.39704E+01 +1.74578E+01 -8.34490E+00 +1.69347E+01 -3.73273E+00 +5.49282E+00
 -7.62768E+00 -8.57951E+00 -1.74786E+01 -1.55355E+01 -2.33197E+01 -1.34002E+01 -1.79396E+01 -8.93929E+00
 -3.88334E+00 -9.59177E+00 +9.45256E+00 -1.52357E+01 +1.47418E+01 -1.85632E+01 +1.21669E+01 -1.33213E+01
 +6.76612E+00 -1.32481E+00 +2.17520E+00 +9.08570E+00 -1.78299E+00 +1.10249E+01 -5.96129E+00 +4.87701E+00
 -8.47444E+00 -3.46296E+00 -6.11926E+00 -8.79175E+00 +9.43392E-01 -1.01035E+01 +7.53669E+00 -8.67301E+00
 +7.88608E+00 -4.79371E+00 +1.67268E+00 +1.89047E+00 -5.32227E+00 +9.20203E+00 -7.22976E+00 +1.17884E+01
