 Created: 16-Jan-2021
 $NMID
 ID='D:\BASISSIMULATI'
 FMTDAT='(8E13.5)'
 VOLUME=   1.00000E+00
 TRAMP=   1.00000E+00
 $END
 +6.58756E+01 +1.77243E+00 +4.91311E+01 +1.34112E+01 +1.25337E+01 +2.47725E+01 -2.04812E+01 +3.22048E+01
 -3.27275E+01 +2.93957E+01 -2.44110E+01 +1.47715E+01 -8.64196E+00 -4.27118E+00 +2.19719E+00 -1.63657E+01
 +5.54132E+00 -1.62107E+01 +6.26739E+00 -9.14735E+00 +8.32312E+00 -4.98059E+00 +1.06018E+01 -7.26157E+00
 +1.05145E+01 -9.51867E+00 +9.13118E+00 -2.79174E+00 +1.04573E+01 +1.33988E+01 +1.53491E+01 +2.86303E+01
 +1.79834E+01 +3.09256E+01 +1.06090E+01 +1.85512E+01 -7.35351E+00 +2.01199E+00 -2.58898E+01 -6.01290E+00
 -3.16835E+01 -2.57432E+00 -1.98949E+01 +3.83430E+00 +1.17172E+00 +3.09347E+00 +1.73689E+01 -5.70877E+00
 +2.08007E+01 -1.35627E+01 +1.49007E+01 -1.11679E+01 +8.33154E+00 +1.51008E+00 +5.18979E+00 +1.54691E+01
 +2.19557E+00 +2.16638E+01 -4.87703E+00 +1.88405E+01 -1.38014E+01 +1.25062E+01 -1.67690E+01 +7.52628E+00
 -9.13850E+00 +3.43238E+00 +3.77998E+00 -2.54565E+00 +1.03158E+01 -9.30201E+00 +3.69819E+00 -1.09760E+01
 -1.05152E+01 -3.43377E+00 -1.90290E+01 +9.13339E+00 -1.33362E+01 +1.60158E+01 +2.21827E+00 +9.87692E+00
 +1.47746E+01 -5.07086E+00 +1.50566E+01 -1.57410E+01 +5.08857E+00 -1.20192E+01 -5.47815E+00 +3.64757E+00
 -9.51336E+00 +1.84924E+01 -8.14571E+00 +2.12551E+01 -7.00983E+00 +1.18281E+01 -8.53622E+00 -3.82426E-01
 -9.48647E+00 -6.67051E+00 -6.09261E+00 -6.71959E+00 -1.09376E-02 -6.31536E+00 +2.62493E+00 -8.86630E+00
 -1.52568E+00 -1.09395E+01 -7.91409E+00 -6.85918E+00 -7.89671E+00 +3.25299E+00 +1.76826E+00 +1.17581E+01
 +1.39670E+01 +1.08266E+01 +1.70139E+01 +1.13394E+00 +6.05757E+00 -7.86070E+00 -1.14661E+01 -7.06423E+00
 -2.22595E+01 +2.91864E+00 -1.92816E+01 +1.20684E+01 -7.53256E+00 +1.07260E+01 +1.91363E+00 -1.10146E+00
 +2.99475E+00 -1.41860E+01 -5.73570E-01 -1.92470E+01 -1.04742E+00 -1.50301E+01 +4.10739E+00 -7.41536E+00
 +9.68135E+00 -1.77043E+00 +9.16453E+00 +2.26146E+00 +2.44760E+00 +7.94584E+00 -4.02537E+00 +1.47585E+01
 -4.69712E+00 +1.66279E+01 -1.30316E+00 +8.17484E+00 -7.49199E-01 -7.71709E+00 -6.64175E+00 -2.01814E+01
 -1.40628E+01 -1.96529E+01 -1.39357E+01 -7.22909E+00 -2.80507E+00 +5.78425E+00 +1.24331E+01 +8.31484E+00
 +2.03121E+01 -2.20506E-01 +1.54755E+01 -9.99288E+00 +3.39104E+00 -1.08133E+01 -5.53314E+00 -1.81398E+00
 -6.03987E+00 +8.70324E+00 -1.89984E+00 +1.22138E+01 -2.19226E-01 +7.87768E+00 -3.10078E+00 +1.57416E+00
 -5.92234E+00 -1.69855E+00 -3.64689E+00 -2.93335E+00 +2.53058E+00 -6.20223E+00 +6.11913E+00 -1.18134E+01
 +2.95878E+00 -1.42545E+01 -3.25066E+00 -8.03744E+00 -4.30867E+00 +4.90638E+00 +3.33654E+00 +1.51378E+01
 +1.36168E+01 +1.41521E+01 +1.60482E+01 +2.99582E+00 +6.28184E+00 -8.17776E+00 -8.87540E+00 -9.67170E+00
 -1.74210E+01 -1.40076E+00 -1.32515E+01 +7.58609E+00 -1.31303E+00 +8.47762E+00 +7.97455E+00 +1.16192E+00
 +8.78287E+00 -6.66145E+00 +4.11179E+00 -8.06405E+00 +7.13663E-01 -3.64034E+00 +1.20931E+00 +4.68515E-01
 +2.22577E+00 +3.03783E-01 -5.72907E-02 -1.52903E+00 -4.13143E+00 +2.90064E-01 -4.38865E+00 +6.44192E+00
 +1.79305E+00 +1.09789E+01 +9.47638E+00 +7.53997E+00 +1.01580E+01 -2.88844E+00 +8.26960E-01 -1.16072E+01
 -1.16394E+01 -1.04176E+01 -1.61591E+01 -1.14784E-01 -8.04558E+00 +9.81531E+00 +6.17316E+00 +1.03328E+01
 +1.47634E+01 +1.56154E+00 +1.16467E+01 -7.75898E+00 +1.32522E+00 -9.25226E+00 -6.54653E+00 -2.85404E+00
 -6.72066E+00 +4.21623E+00 -2.16309E+00 +5.65361E+00 +9.48307E-01 +2.26673E+00 +5.63300E-01 -1.96904E-01
 +9.17333E-02 +1.54543E+00 +2.81325E+00 +4.43552E+00 +6.55750E+00 +3.11920E+00 +5.46711E+00 -2.94643E+00
 -2.73361E+00 -7.84895E+00 -1.23884E+01 -5.45217E+00 -1.42578E+01 +3.19788E+00 -4.81408E+00 +9.84062E+00
 +9.24053E+00 +7.11949E+00 +1.65249E+01 -3.43311E+00 +1.14733E+01 -1.21914E+01 -6.75210E-01 -1.06378E+01
 -9.29459E+00 +2.86142E-01 -8.48884E+00 +1.11663E+01 -1.70363E+00 +1.32808E+01 +3.19519E+00 +6.49414E+00
 +2.39711E+00 -1.83070E+00 -9.41202E-01 -4.98008E+00 -1.73680E+00 -3.09273E+00 +5.02361E-01 -1.25474E+00
 +1.38101E+00 -2.54620E+00 -2.28263E+00 -4.39717E+00 -7.40113E+00 -2.32518E+00 -7.08448E+00 +3.64725E+00
 +1.47999E+00 +7.84066E+00 +1.24580E+01 +4.96653E+00 +1.58636E+01 -3.21482E+00 +7.21768E+00 -8.52854E+00
 -7.46527E+00 -4.49158E+00 -1.67800E+01 +6.38954E+00 -1.42529E+01 +1.41814E+01 -3.69638E+00 +1.09393E+01
 +5.35346E+00 -1.39934E+00 +6.92245E+00 -1.26916E+01 +3.07842E+00 -1.41367E+01 -1.75155E-01 -6.06621E+00
 -1.22024E-01 +3.50323E+00 +5.13273E-01 +7.31375E+00 -1.71652E+00 +5.19920E+00 -5.59836E+00 +2.23735E+00
 -6.01372E+00 +1.84395E+00 -2.65581E-01 +2.08414E+00 +7.45436E+00 -8.19110E-01 +9.28704E+00 -6.39928E+00
 +1.89022E+00 -9.00263E+00 -9.17313E+00 -3.78781E+00 -1.41332E+01 +6.80975E+00 -8.50468E+00 +1.38423E+01
 +2.33695E+00 +1.00044E+01 +8.39191E+00 -2.87397E+00 +4.84834E+00 -1.48884E+01 -3.52024E+00 -1.69383E+01
 -7.67645E+00 -8.67300E+00 -3.58412E+00 +2.15270E+00 +4.18541E+00 +7.63757E+00 +7.82175E+00 +6.51931E+00
 +4.46148E+00 +3.29857E+00 -1.51909E+00 +1.84078E+00 -4.03052E+00 +1.24021E+00 -2.06369E+00 -1.59994E+00
 -2.20119E-01 -6.41948E+00 -2.73445E+00 -8.43656E+00 -8.02811E+00 -3.73535E+00 -1.00779E+01 +4.74771E+00
 -5.09972E+00 +8.23943E+00 +3.98131E+00 +5.11670E-01 +1.03463E+01 -1.45313E+01 +1.02946E+01 -2.45196E+01
 +6.65072E+00 -1.90966E+01 +4.81048E+00 +3.58135E-01 +6.00298E+00 +2.11115E+01 +5.61350E+00 +2.93460E+01
 -1.18098E+00 +2.08244E+01 -1.26009E+01 +2.67999E+00 -2.02228E+01 -1.39413E+01 -1.65809E+01 -2.23950E+01
 -2.83255E+00 -2.27304E+01 +1.16546E+01 -1.77628E+01 +1.77288E+01 -9.20751E+00 +1.44608E+01 +1.75813E+00
 +8.72186E+00 +1.17138E+01 +7.14684E+00 +1.53302E+01 +9.15855E+00 +1.00707E+01 +8.33098E+00 +2.04523E-01
 +3.21663E-01 -5.56528E+00 -1.13679E+01 -1.98689E+00 -1.80797E+01 +6.96272E+00 -1.43284E+01 +1.10156E+01
 -3.05265E+00 +3.32871E+00 +7.49269E+00 -1.23057E+01 +1.16378E+01 -2.41429E+01 +1.07195E+01 -2.27888E+01
 +9.95541E+00 -9.25231E+00 +1.18996E+01 +6.78787E+00 +1.38178E+01 +1.61839E+01 +1.14135E+01 +1.75255E+01
 +4.14107E+00 +1.56871E+01 -4.05766E+00 +1.44693E+01 -9.10163E+00 +1.20054E+01 -1.07342E+01 +3.92971E+00
 -1.13011E+01 -9.62658E+00 -1.10466E+01 -2.15216E+01 -6.28150E+00 -2.30281E+01 +6.22370E+00 -1.19684E+01
 +2.29282E+01 +4.77182E+00 +3.31467E+01 +1.69558E+01 +2.71123E+01 +1.92297E+01 +5.73695E+00 +1.40651E+01
 -1.78496E+01 +7.54116E+00 -2.78526E+01 +3.33092E+00 -1.85755E+01 +1.09099E+00 +1.10415E+00 -3.80240E-01
 +1.55784E+01 -2.87697E-01 +1.53820E+01 +2.76083E+00 +3.65648E+00 +7.14966E+00 -8.53011E+00 +7.93748E+00
 -1.23227E+01 +1.72940E+00 -7.09510E+00 -8.10150E+00 +1.69527E+00 -1.25125E+01 +8.57684E+00 -4.81143E+00
 +1.13909E+01 +1.17391E+01 +1.00231E+01 +2.50011E+01 +4.29998E+00 +2.39889E+01 -5.24432E+00 +8.91518E+00
 -1.49823E+01 -8.44612E+00 -1.86711E+01 -1.48148E+01 -1.23453E+01 -6.65259E+00 +7.33233E-01 +7.64654E+00
 +1.10697E+01 +1.60319E+01 +1.04436E+01 +1.31870E+01 -6.50202E-01 +3.55137E+00 -1.30875E+01 -4.55064E+00
 -1.71408E+01 -6.72872E+00 -1.08807E+01 -4.72806E+00 -9.07253E-01 -2.32697E+00 +4.86204E+00 -6.69623E-01
 +4.62676E+00 +1.84452E+00 +2.80457E+00 +6.03790E+00 +3.34262E+00 +9.85584E+00 +4.13027E+00 +1.04533E+01
 -8.94899E-01 +7.69271E+00 -1.39300E+01 +4.35207E+00 -2.83942E+01 +2.42238E+00 -3.29962E+01 +6.61184E-02
 -2.16340E+01 -6.36443E+00 +3.23623E-01 -1.67377E+01 +1.96157E+01 -2.44697E+01 +2.53442E+01 -2.11282E+01
 +1.66355E+01 -4.92215E+00 +1.51358E+00 +1.54710E+01 -1.06580E+01 +2.66931E+01 -1.56090E+01 +2.16633E+01
 -1.46356E+01 +5.58918E+00 -1.09608E+01 -8.83526E+00 -6.99489E+00 -1.26333E+01 -4.54763E+00 -7.65048E+00
 -5.49088E+00 -3.26256E+00 -1.01204E+01 -6.54609E+00 -1.46432E+01 -1.56713E+01 -1.21404E+01 -2.23599E+01
 +1.52815E+00 -2.00425E+01 +2.16222E+01 -9.36399E+00 +3.52484E+01 +3.56256E+00 +3.04688E+01 +1.30254E+01
 +6.79414E+00 +1.71975E+01 -2.26646E+01 +1.66276E+01 -4.03122E+01 +1.11740E+01 -3.70854E+01 +2.08523E-02
 -1.82474E+01 -1.51691E+01 +2.51021E+00 -2.85008E+01 +1.45356E+01 -3.29458E+01 +1.68349E+01 -2.60665E+01
 +1.51421E+01 -1.24631E+01 +1.41675E+01 +5.78200E-02 +1.33873E+01 +6.99119E+00 +9.68152E+00 +9.72308E+00
 +2.51328E+00 +1.17820E+01 -4.67067E+00 +1.32971E+01 -8.07399E+00 +1.02482E+01 -7.54740E+00 -2.83122E-01
 -6.15215E+00 -1.47070E+01 -5.94708E+00 -2.40557E+01 -5.18052E+00 -2.16176E+01 -4.26763E-01 -9.71506E+00
 +8.66494E+00 +1.63970E+00 +1.76262E+01 +3.60788E+00 +2.08527E+01 -3.41653E+00 +1.69693E+01 -1.03829E+01
 +1.00002E+01 -8.26875E+00 +4.96153E+00 +3.46561E+00 +2.72457E+00 +1.64837E+01 -6.67383E-02 +2.10570E+01
 -5.86433E+00 +1.39986E+01 -1.17791E+01 +1.22954E-01 -1.13814E+01 -1.27520E+01 -1.52880E+00 -1.94701E+01
 +1.29245E+01 -1.90065E+01 +2.21261E+01 -1.24091E+01 +1.97238E+01 -1.30130E+00 +8.69674E+00 +1.11566E+01
 -1.34778E+00 +1.94118E+01 -2.89387E+00 +1.80818E+01 +3.16184E+00 +6.97101E+00 +9.39853E+00 -6.69561E+00
 +9.51094E+00 -1.26561E+01 +3.87080E+00 -5.95013E+00 -2.03303E+00 +8.31722E+00 -3.74453E+00 +1.88159E+01
 -1.78610E+00 +1.74537E+01 +2.36777E-01 +5.91405E+00 +3.96437E-01 -6.56968E+00 +3.72705E-01 -1.16413E+01
 +2.65718E+00 -8.24856E+00 +6.78161E+00 -1.52661E+00 +9.31974E+00 +3.53046E+00 +7.78323E+00 +6.48449E+00
 +3.75556E+00 +9.80183E+00 +1.30290E+00 +1.40241E+01 +2.18778E+00 +1.59460E+01 +3.41393E+00 +1.21407E+01
 +3.62279E-01 +3.72989E+00 -7.51420E+00 -3.43097E+00 -1.47934E+01 -4.01361E+00 -1.46924E+01 +1.39418E+00
 -5.89250E+00 +6.60431E+00 +5.50005E+00 +5.82230E+00 +1.12481E+01 -6.82409E-01 +8.46322E+00 -6.91715E+00
 +1.83365E+00 -6.97833E+00 -1.52597E+00 -3.28811E-01 +7.56450E-01 +8.47973E+00 +4.36228E+00 +1.45859E+01
 +3.21713E+00 +1.66157E+01 -4.08021E+00 +1.58523E+01 -1.29084E+01 +1.27929E+01 -1.72967E+01 +5.99798E+00
 -1.53538E+01 -4.98984E+00 -9.93117E+00 -1.63121E+01 -4.58260E+00 -2.09522E+01 +8.88925E-02 -1.45357E+01
 +5.57660E+00 -2.56665E-01 +1.15848E+01 +1.26500E+01 +1.43025E+01 +1.62906E+01 +9.58642E+00 +1.06129E+01
 -2.05048E+00 +2.78014E+00 -1.43491E+01 +7.82329E-02 -2.00089E+01 +3.31778E+00 -1.68626E+01 +6.95519E+00
