 Created: 16-Jan-2021
 $NMID
 ID='D:\BASISSIMULATI'
 FMTDAT='(8E13.5)'
 VOLUME=   1.00000E+00
 TRAMP=   1.00000E+00
 $END
 +2.97718E+01 +1.27564E-01 +1.74178E+01 +2.14933E+01 -6.43947E+00 +2.15754E+01 -1.73093E+01 +1.54066E+00
 -4.53124E+00 -1.66550E+01 +1.77684E+01 -1.32286E+01 +2.55321E+01 +8.88136E+00 +9.84002E+00 +2.71993E+01
 -1.39071E+01 +2.31609E+01 -2.21115E+01 +1.34018E+00 -7.49109E+00 -1.54719E+01 +1.35233E+01 -1.00511E+01
 +1.80524E+01 +1.14407E+01 +5.88442E-01 +2.60463E+01 -2.14027E+01 +1.79847E+01 -2.57630E+01 -5.01494E+00
 -8.64404E+00 -1.98977E+01 +1.16713E+01 -1.22939E+01 +1.39298E+01 +8.68769E+00 -4.02535E+00 +2.01468E+01
 -2.31949E+01 +9.29378E+00 -2.33269E+01 -1.33521E+01 -3.93808E+00 -2.50586E+01 +1.53546E+01 -1.45357E+01
 +1.53387E+01 +6.49474E+00 -2.91266E+00 +1.56924E+01 -1.93869E+01 +3.36832E+00 -1.60948E+01 -1.75993E+01
 +4.28053E+00 -2.53450E+01 +2.13544E+01 -1.17710E+01 +1.83212E+01 +9.20318E+00 -7.02196E-01 +1.62859E+01
 -1.51966E+01 +2.92958E+00 -9.69614E+00 -1.60786E+01 +1.02408E+01 -2.02025E+01 +2.40265E+01 -4.51601E+00
 +1.75363E+01 +1.53559E+01 -2.34607E+00 +1.96356E+01 -1.51073E+01 +4.89047E+00 -7.99712E+00 -1.26436E+01
 +1.08897E+01 -1.41387E+01 +2.12790E+01 +2.28858E+00 +1.18778E+01 +1.98371E+01 -8.03885E+00 +2.06439E+01
 -1.84780E+01 +4.27196E+00 -9.53341E+00 -1.20794E+01 +8.53404E+00 -1.16084E+01 +1.62181E+01 +4.72522E+00
 +5.09345E+00 +1.94606E+01 -1.36170E+01 +1.69465E+01 -2.09227E+01 -4.87071E-01 -9.80252E+00 -1.51903E+01
 +7.72985E+00 -1.26514E+01 +1.33428E+01 +3.57618E+00 +1.43089E+00 +1.58530E+01 -1.53016E+01 +1.09276E+01
 -1.92723E+01 -6.42429E+00 -6.27518E+00 -1.86149E+01 +1.03866E+01 -1.36103E+01 +1.39226E+01 +2.74838E+00
 +1.43677E+00 +1.30952E+01 -1.33452E+01 +6.67847E+00 -1.45612E+01 -9.65526E+00 -6.43930E-01 -1.88485E+01
 +1.43072E+01 -1.14299E+01 +1.53518E+01 +4.84582E+00 +2.12550E+00 +1.33160E+01 -1.10765E+01 +5.75908E+00
 -1.03413E+01 -9.30325E+00 +3.51293E+00 -1.57422E+01 +1.60734E+01 -6.62356E+00 +1.44701E+01 +8.81480E+00
 +6.13317E-01 +1.50061E+01 -1.10819E+01 +6.21862E+00 -8.81196E+00 -7.76108E+00 +4.51822E+00 -1.20608E+01
 +1.46235E+01 -2.16698E+00 +1.08204E+01 +1.16509E+01 -3.03873E+00 +1.52483E+01 -1.28552E+01 +5.25750E+00
 -9.02599E+00 -7.69785E+00 +3.79124E+00 -1.02695E+01 +1.18290E+01 -1.83408E-01 +6.61119E+00 +1.16991E+01
 -6.44988E+00 +1.28922E+01 -1.39664E+01 +2.17871E+00 -8.54310E+00 -9.41898E+00 +3.78026E+00 -1.02818E+01
 +1.00968E+01 -1.42417E-01 +4.08284E+00 +9.95877E+00 -7.68874E+00 +9.33998E+00 -1.28670E+01 -1.34959E+00
 -6.17816E+00 -1.11118E+01 +5.35780E+00 -1.01854E+01 +9.98854E+00 -2.43774E-02 +3.42375E+00 +8.53546E+00
 -7.00017E+00 +6.68285E+00 -1.02164E+01 -3.39331E+00 -2.90324E+00 -1.10987E+01 +7.35274E+00 -8.56870E+00
 +1.01835E+01 +1.35768E+00 +3.14877E+00 +8.39994E+00 -6.04017E+00 +5.61404E+00 -7.77370E+00 -3.62018E+00
 -4.50125E-01 -9.43200E+00 +8.17402E+00 -5.80231E+00 +9.26384E+00 +3.41472E+00 +1.98176E+00 +8.79792E+00
 -5.96145E+00 +5.19656E+00 -6.51721E+00 -3.18009E+00 +4.71155E-01 -7.44182E+00 +7.43670E+00 -3.28938E+00
 +7.13974E+00 +4.78776E+00 +4.41028E-02 +8.46559E+00 -6.48762E+00 +4.23961E+00 -6.00063E+00 -3.21946E+00
 +5.24364E-01 -6.19672E+00 +6.02352E+00 -1.92790E+00 +4.83426E+00 +4.82932E+00 -1.61226E+00 +7.00836E+00
 -6.60238E+00 +2.53630E+00 -5.23140E+00 -3.81623E+00 +7.15837E-01 -5.63808E+00 +4.94243E+00 -1.46599E+00
 +3.27564E+00 +4.01558E+00 -2.23153E+00 +5.07967E+00 -5.75230E+00 +8.18276E-01 -3.81280E+00 -4.23378E+00
 +1.34545E+00 -5.02381E+00 +4.40000E+00 -1.11289E+00 +2.51963E+00 +3.19586E+00 -1.96239E+00 +3.52476E+00
 -4.27469E+00 -1.68956E-01 -2.18923E+00 -3.87809E+00 +1.93945E+00 -3.88548E+00 +3.90497E+00 -4.66862E-01
 +2.01319E+00 +2.72212E+00 -1.44961E+00 +2.59504E+00 -2.86641E+00 -3.42569E-01 -1.01946E+00 -2.84749E+00
 +1.94457E+00 -2.44174E+00 +3.00326E+00 +2.11325E-01 +1.34623E+00 +2.31622E+00 -1.08982E+00 +1.95482E+00
 -1.87277E+00 -1.41504E-01 -5.23270E-01 -1.66910E+00 +1.30299E+00 -1.22971E+00 +1.76040E+00 +4.51652E-01
 +6.32752E-01 +1.58772E+00 -7.57905E-01 +1.24508E+00 -1.12636E+00 +6.41432E-02 -4.35402E-01 -7.03001E-01
 +3.86249E-01 -5.26912E-01 +5.92644E-01 +1.13942E-01 +2.52606E-01 +5.17723E-01 -1.40567E-01 +5.00369E-01
 -3.42859E-01 +3.13654E-01 -4.49476E-01 +1.12827E-01 -4.79825E-01 -1.89528E-01 -2.19268E-01 -5.47407E-01
 +3.74167E-01 -5.71009E-01 +8.12486E-01 +3.16255E-02 +4.67135E-01 +8.60169E-01 -5.79430E-01 +9.97272E-01
 -1.31471E+00 +2.18130E-02 -7.56444E-01 -1.25728E+00 +8.10024E-01 -1.41949E+00 +1.82938E+00 +7.70550E-03
 +1.02201E+00 +1.75631E+00 -1.05715E+00 +1.92984E+00 -2.30717E+00 +7.61516E-02 -1.21744E+00 -2.04262E+00
 +1.32143E+00 -2.09823E+00 +2.66756E+00 +2.59192E-01 +1.15101E+00 +2.73556E+00 -1.93714E+00 +2.61216E+00
 -3.42125E+00 -2.86926E-01 -1.53872E+00 -3.11363E+00 +1.96940E+00 -2.81256E+00 +3.42058E+00 +5.44350E-01
 +1.04092E+00 +3.53971E+00 -2.92240E+00 +2.84244E+00 -4.30205E+00 -1.15241E+00 -1.38362E+00 -4.44425E+00
 +3.04089E+00 -3.48280E+00 +4.35816E+00 +9.53992E-01 +9.91090E-01 +4.29100E+00 -3.68818E+00 +2.83559E+00
 -4.66590E+00 -2.17890E+00 -5.82983E-01 -5.60261E+00 +4.57404E+00 -3.66412E+00 +5.43330E+00 +1.89640E+00
 +9.19401E-01 +5.37685E+00 -4.35706E+00 +3.00508E+00 -4.73396E+00 -2.91726E+00 +4.94903E-01 -6.16134E+00
 +6.07042E+00 -3.03394E+00 +6.09043E+00 +3.54969E+00 +2.77203E-01 +6.85923E+00 -5.46750E+00 +3.34793E+00
 -5.07630E+00 -3.42769E+00 +1.22760E+00 -6.29018E+00 +6.90114E+00 -1.93269E+00 +5.78292E+00 +5.39808E+00
 -1.33747E+00 +8.10899E+00 -7.28258E+00 +3.19479E+00 -5.86246E+00 -4.39774E+00 +1.52189E+00 -6.72765E+00
 +7.09467E+00 -1.17896E+00 +4.73235E+00 +6.57544E+00 -3.48155E+00 +8.30186E+00 -9.18167E+00 +1.84607E+00
 -6.36923E+00 -6.38206E+00 +2.16552E+00 -7.91619E+00 +7.52492E+00 -1.12490E+00 +3.93384E+00 +6.85810E+00
 -5.05596E+00 +7.42227E+00 -1.00461E+01 -4.52468E-01 -5.55706E+00 -8.89281E+00 +4.07172E+00 -9.19388E+00
 +8.99310E+00 -9.83257E-01 +4.09807E+00 +7.16905E+00 -5.47227E+00 +6.56825E+00 -9.49512E+00 -2.42784E+00
 -3.33056E+00 -1.05548E+01 +7.03927E+00 -9.19078E+00 +1.10530E+01 +5.38279E-01 +4.58600E+00 +8.71527E+00
 -5.56359E+00 +6.87769E+00 -8.59865E+00 -3.03724E+00 -1.01582E+00 -1.05083E+01 +9.53986E+00 -7.33101E+00
 +1.20815E+01 +3.68650E+00 +3.77162E+00 +1.14408E+01 -6.92817E+00 +8.03881E+00 -8.93477E+00 -2.84435E+00
 -1.49800E-01 -9.61545E+00 +1.01645E+01 -4.81531E+00 +1.09167E+01 +6.94980E+00 +8.20830E-01 +1.36196E+01
 -1.00663E+01 +8.21420E+00 -1.07028E+01 -3.74677E+00 -6.34853E-01 -9.83156E+00 +9.35882E+00 -3.64107E+00
 +8.41475E+00 +8.36941E+00 -2.99502E+00 +1.34625E+01 -1.33652E+01 +5.89787E+00 -1.20518E+01 -6.92482E+00
 -4.47542E-01 -1.20221E+01 +9.30705E+00 -4.35761E+00 +6.91156E+00 +7.76860E+00 -5.25684E+00 +1.12501E+01
 -1.44565E+01 +1.86973E+00 -1.08035E+01 -1.11391E+01 +2.32045E+00 -1.45791E+01 +1.16312E+01 -5.06001E+00
 +7.73150E+00 +7.33169E+00 -5.00005E+00 +9.44602E+00 -1.28404E+01 -1.17699E+00 -7.00486E+00 -1.35926E+01
 +7.07280E+00 -1.47563E+01 +1.52506E+01 -3.16559E+00 +9.37686E+00 +9.43198E+00 -4.12126E+00 +1.01900E+01
 -1.08246E+01 -1.40329E+00 -3.35017E+00 -1.28682E+01 +1.08334E+01 -1.16790E+01 +1.70645E+01 +1.60717E+00
 +8.75828E+00 +1.37860E+01 -5.62508E+00 +1.26846E+01 -1.12911E+01 -1.07544E-01 -2.52949E+00 -1.07930E+01
 +1.12355E+01 -7.70984E+00 +1.51816E+01 +6.43173E+00 +4.56109E+00 +1.72462E+01 -1.02328E+01 +1.36096E+01
 -1.43932E+01 -6.89051E-01 -4.12904E+00 -1.07958E+01 +9.30547E+00 -6.23996E+00 +1.12839E+01 +8.08695E+00
 -9.05551E-01 +1.69370E+01 -1.51211E+01 +1.05797E+01 -1.69370E+01 -4.97632E+00 -4.68950E+00 -1.41409E+01
 +8.71215E+00 -7.95263E+00 +9.19010E+00 +6.53508E+00 -3.79575E+00 +1.35455E+01 -1.66012E+01 +5.03069E+00
 -1.55711E+01 -1.08541E+01 -1.30975E+00 -1.81560E+01 +1.18620E+01 -9.72322E+00 +1.07748E+01 +5.29782E+00
 -2.84897E+00 +1.09452E+01 -1.41408E+01 +1.08621E+00 -1.05693E+01 -1.41256E+01 +4.94397E+00 -1.87720E+01
 +1.69826E+01 -7.76174E+00 +1.36503E+01 +7.80570E+00 -1.02171E+00 +1.21498E+01 -1.12408E+01 +1.24603E+00
 -5.90665E+00 -1.29475E+01 +9.77498E+00 -1.49308E+01 +1.96584E+01 -1.84333E+00 +1.34593E+01 +1.34883E+01
 -2.50226E+00 +1.58580E+01 -1.18454E+01 +3.50892E+00 -5.17899E+00 -1.00226E+01 +1.00973E+01 -1.00081E+01
 +1.74849E+01 +4.09650E+00 +8.58756E+00 +1.80350E+01 -8.09714E+00 +1.75706E+01 -1.59822E+01 +3.31753E+00
 -7.64290E+00 -9.87993E+00 +7.45548E+00 -8.39985E+00 +1.28256E+01 +5.96124E+00 +2.15733E+00 +1.78500E+01
 -1.40732E+01 +1.43540E+01 -1.94842E+01 -1.52462E+00 -8.83571E+00 -1.39663E+01 +6.51843E+00 -1.07854E+01
 +1.04605E+01 +3.89824E+00 -1.09799E+00 +1.39722E+01 -1.59564E+01 +8.13948E+00 -1.83381E+01 -8.28965E+00
 -5.33094E+00 -1.89069E+01 +1.00709E+01 -1.32740E+01 +1.24880E+01 +2.23045E+00 +1.49499E-01 +1.10802E+01
 -1.32976E+01 +3.82746E+00 -1.30360E+01 -1.20604E+01 +1.47014E+00 -1.99900E+01 +1.59093E+01 -1.15268E+01
 +1.60134E+01 +4.83132E+00 +2.38279E+00 +1.25140E+01 -1.01858E+01 +4.12120E+00 -8.14188E+00 -1.09124E+01
 +6.70723E+00 -1.61898E+01 +1.90994E+01 -5.45087E+00 +1.62204E+01 +1.09135E+01 +1.02614E+00 +1.66858E+01
 -1.08706E+01 +6.67990E+00 -7.46652E+00 -7.92039E+00 +7.17115E+00 -1.12640E+01 +1.71998E+01 +6.48019E-01
 +1.15334E+01 +1.58253E+01 -4.62490E+00 +1.87964E+01 -1.52260E+01 +6.69724E+00 -1.00746E+01 -7.80286E+00
 +4.62044E+00 -9.73128E+00 +1.27909E+01 +2.61932E+00 +5.27529E+00 +1.59803E+01 -1.06674E+01 +1.59748E+01
 -1.89558E+01 +2.08011E+00 -1.14216E+01 -1.18736E+01 +3.75239E+00 -1.21201E+01 +1.06224E+01 +7.64465E-01
 +2.09046E+00 +1.25569E+01 -1.27692E+01 +1.02590E+01 -1.82289E+01 -4.38320E+00 -8.28988E+00 -1.67523E+01
 +7.12946E+00 -1.45940E+01 +1.25701E+01 -7.11916E-01 +3.09892E+00 +1.00482E+01 -1.06553E+01 +6.29782E+00
 -1.36589E+01 -8.08566E+00 -2.13337E+00 -1.80815E+01 +1.25738E+01 -1.31953E+01 +1.58484E+01 +1.67225E+00
 +4.97984E+00 +1.14085E+01 -8.12863E+00 +6.43243E+00 -9.43468E+00 -7.41969E+00 +2.64340E+00 -1.50842E+01
 +1.56719E+01 -7.99165E+00 +1.62066E+01 +7.07116E+00 +3.74740E+00 +1.51016E+01 -8.84422E+00 +8.48889E+00
