 Created: 16-Jan-2021
 $NMID
 ID='D:\BASISSIMULATI'
 FMTDAT='(8E13.5)'
 VOLUME=   1.00000E+00
 TRAMP=   1.00000E+00
 $END
 +4.23138E+01 +4.79306E-01 +3.99127E+01 +1.42890E+01 +3.29010E+01 +2.64560E+01 +2.21598E+01 +3.54390E+01
 +9.07609E+00 +4.01247E+01 -4.65455E+00 +3.99866E+01 -1.72701E+01 +3.51571E+01 -2.71930E+01 +2.64005E+01
 -3.32506E+01 +1.49941E+01 -3.48316E+01 +2.53547E+00 -3.19573E+01 -9.29323E+00 -2.52565E+01 -1.89657E+01
 -1.58540E+01 -2.53216E+01 -5.18979E+00 -2.77151E+01 +5.19924E+00 -2.60814E+01 +1.39011E+01 -2.09163E+01
 +1.98206E+01 -1.31753E+01 +2.23145E+01 -4.11201E+00 +2.12528E+01 +4.91528E+00 +1.70032E+01 +1.26396E+01
 +1.03460E+01 +1.80538E+01 +2.33690E+00 +2.05291E+01 -5.85609E+00 +1.98718E+01 -1.31177E+01 +1.63143E+01
 -1.85271E+01 +1.04495E+01 -2.14600E+01 +3.12341E+00 -2.16404E+01 -4.69404E+00 -1.91421E+01 -1.20394E+01
 -1.43464E+01 -1.80698E+01 -7.86718E+00 -2.21480E+01 -4.60023E-01 -2.38919E+01 +7.07292E+00 -2.31886E+01
 +1.39683E+01 -2.01784E+01 +1.95707E+01 -1.52154E+01 +2.33812E+01 -8.81546E+00 +2.50860E+01 -1.59776E+00
 +2.45677E+01 +5.77253E+00 +2.19021E+01 +1.26382E+01 +1.73448E+01 +1.83985E+01 +1.13086E+01 +2.25525E+01
 +4.33240E+00 +2.47366E+01 -2.95826E+00 +2.47563E+01 -9.89951E+00 +2.26079E+01 -1.58457E+01 +1.84893E+01
 -2.02311E+01 +1.27925E+01 -2.26307E+01 +6.07750E+00 -2.28142E+01 -9.76003E-01 -2.07835E+01 -7.63576E+00
 -1.67859E+01 -1.31979E+01 -1.12983E+01 -1.70720E+01 -4.97973E+00 -1.88596E+01 +1.40415E+00 -1.84122E+01
 +7.07605E+00 -1.58604E+01 +1.13499E+01 -1.16050E+01 +1.37258E+01 -6.27042E+00 +1.39632E+01 -6.22959E-01
 +1.21189E+01 +4.53360E+00 +8.54288E+00 +8.47185E+00 +3.83098E+00 +1.06462E+01 -1.25980E+00 +1.07734E+01
 -5.92175E+00 +8.87577E+00 -9.41563E+00 +5.27866E+00 -1.11806E+01 +5.62542E-01 -1.09180E+01 -4.52349E+00
 -8.63487E+00 -9.17374E+00 -4.64272E+00 -1.26462E+01 +4.90893E-01 -1.43723E+01 +6.02787E+00 -1.40401E+01
 +1.11697E+01 -1.16376E+01 +1.51748E+01 -7.45037E+00 +1.74648E+01 -2.01637E+00 +1.77042E+01 +3.95653E+00
 +1.58425E+01 +9.69474E+00 +1.21132E+01 +1.44694E+01 +6.99202E+00 +1.76960E+01 +1.12251E+00 +1.90095E+01
 -4.77900E+00 +1.83042E+01 -1.00233E+01 +1.57350E+01 -1.40386E+01 +1.16829E+01 -1.64390E+01 +6.69028E+00
 -1.70626E+01 +1.37915E+00 -1.59757E+01 -3.63532E+00 -1.34464E+01 -7.82372E+00 -9.89311E+00 -1.08028E+01
 -5.81769E+00 -1.23710E+01 -1.73400E+00 -1.25167E+01 +1.89783E+00 -1.14003E+01 +4.72338E+00 -9.31675E+00
 +6.52664E+00 -6.64429E+00 +7.24170E+00 -3.78867E+00 +6.94429E+00 -1.13029E+00 +5.82712E+00 +1.01935E+00
 +4.16402E+00 +2.44799E+00 +2.26868E+00 +3.05775E+00 +4.53525E-01 +2.86552E+00 -1.00682E+00 +1.99059E+00
 -1.90431E+00 +6.32476E-01 -2.11671E+00 -9.57582E-01 -1.61646E+00 -2.50809E+00 -4.69691E-01 -3.75865E+00
 +1.17378E+00 -4.48871E+00 +3.09824E+00 -4.54156E+00 +5.04590E+00 -3.84180E+00 +6.74491E+00 -2.40512E+00
 +7.93943E+00 -3.39102E-01 +8.41911E+00 +2.16519E+00 +8.04528E+00 +4.85091E+00 +6.77087E+00 +7.42128E+00
 +4.65140E+00 +9.57155E+00 +1.84494E+00 +1.10242E+01 -1.40003E+00 +1.15633E+01 -4.76845E+00 +1.10640E+01
 -7.91224E+00 +9.51289E+00 -1.04903E+01 +7.01593E+00 -1.22098E+01 +3.79177E+00 -1.28641E+01 +1.50601E-01
 -1.23613E+01 -3.53981E+00 -1.07394E+01 -6.89704E+00 -8.16529E+00 -9.57045E+00 -4.91742E+00 -1.12851E+01
 -1.35276E+00 -1.18773E+01 +2.13675E+00 -1.13157E+01 +5.17328E+00 -9.70612E+00 +7.44087E+00 -7.27824E+00
 +8.72541E+00 -4.35521E+00 +8.94109E+00 -1.31137E+00 +8.13983E+00 +1.47715E+00 +6.50215E+00 +3.68174E+00
 +4.31072E+00 +5.06397E+00 +1.91048E+00 +5.50565E+00 -3.39359E-01 +5.02220E+00 -2.11459E+00 +3.75773E+00
 -3.16992E+00 +1.96262E+00 -3.37152E+00 -4.31018E-02 -2.71385E+00 -1.91549E+00 -1.31879E+00 -3.33502E+00
 +5.82615E-01 -4.05111E+00 +2.68315E+00 -3.91668E+00 +4.64239E+00 -2.90847E+00 +6.13387E+00 -1.13033E+00
 +6.88999E+00 +1.20054E+00 +6.73886E+00 +3.78244E+00 +5.62829E+00 +6.26905E+00 +3.63390E+00 +8.31510E+00
 +9.50559E-01 +9.62174E+00 -2.13159E+00 +9.97578E+00 -5.26333E+00 +9.27787E+00 -8.07987E+00 +7.55603E+00
 -1.02463E+01 +4.96317E+00 -1.14991E+01 +1.75884E+00 -1.16785E+01 -1.72206E+00 -1.07475E+01 -5.10984E+00
 -8.79658E+00 -8.04439E+00 -6.03150E+00 -1.02180E+01 -2.74820E+00 -1.14112E+01 +7.03389E-01 -1.15176E+01
 +3.96128E+00 -1.05542E+01 +6.69408E+00 -8.65712E+00 +8.63895E+00 -6.06259E+00 +9.63043E+00 -3.07671E+00
 +9.61674E+00 -3.74550E-02 +8.66194E+00 +2.72591E+00 +6.93419E+00 +4.93108E+00 +4.68188E+00 +6.37397E+00
 +2.20116E+00 +6.94949E+00 -2.00915E-01 +6.65965E+00 -2.24310E+00 +5.60870E+00 -3.70193E+00 +3.98640E+00
 -4.43557E+00 +2.04200E+00 -4.39717E+00 +5.25330E-02 -3.63662E+00 -1.71075E+00 -2.29140E+00 -3.01377E+00
 -5.67963E-01 -3.68558E+00 +1.28373E+00 -3.63640E+00 +2.99939E+00 -2.86633E+00 +4.33031E+00 -1.46431E+00
 +5.07097E+00 +4.02012E-01 +5.08189E+00 +2.50418E+00 +4.30597E+00 +4.57688E+00 +2.77680E+00 +6.34556E+00
 +6.18490E-01 +7.55571E+00 -1.96336E+00 +8.00112E+00 -4.69901E+00 +7.54894E+00 -7.27948E+00 +6.15906E+00
 -9.38735E+00 +3.89562E+00 -1.07312E+01 +9.28706E-01 -1.10806E+01 -2.47519E+00 -1.02983E+01 -5.97436E+00
 -8.36542E+00 -9.18407E+00 -5.39527E+00 -1.17176E+01 -1.63334E+00 -1.32322E+01 +2.55932E+00 -1.34753E+01
 +6.73924E+00 -1.23245E+01 +1.04280E+01 -9.81524E+00 +1.31696E+01 -6.15133E+00 +1.45910E+01 -1.69350E+00
 +1.44576E+01 +3.07382E+00 +1.27149E+01 +7.59612E+00 +9.51021E+00 +1.13170E+01 +5.18668E+00 +1.37526E+01
 +2.50426E-01 +1.45618E+01 -4.68845E+00 +1.36022E+01 -8.99387E+00 +1.09605E+01 -1.20907E+01 +6.95389E+00
 -1.35486E+01 +2.09616E+00 -1.31489E+01 -2.96511E+00 -1.09251E+01 -7.53512E+00 -7.16798E+00 -1.09694E+01
 -2.39244E+00 -1.27681E+01 +2.72916E+00 -1.26532E+01 +7.46013E+00 -1.06151E+01 +1.11049E+01 -6.92139E+00
 +1.31114E+01 -2.08425E+00 +1.31550E+01 +3.20921E+00 +1.11895E+01 +8.19424E+00 +7.45848E+00 +1.21388E+01
 +2.46323E+00 +1.44510E+01 -3.10816E+00 +1.47656E+01 -8.47933E+00 +1.29991E+01 -1.28975E+01 +9.36114E+00
 -1.57413E+01 +4.32442E+00 -1.66085E+01 -1.44496E+00 -1.53706E+01 -7.18392E+00 -1.21858E+01 -1.21412E+01
 -7.47127E+00 -1.56820E+01 -1.83791E+00 -1.73721E+01 +3.99951E+00 -1.70310E+01 +9.32343E+00 -1.47458E+01
 +1.35098E+01 -1.08474E+01 +1.61058E+01 -5.85342E+00 +1.68784E+01 -3.88922E-01 +1.58294E+01 +4.90139E+00
 +1.31772E+01 +9.43668E+00 +9.31080E+00 +1.27670E+01 +4.72631E+00 +1.46162E+01 -4.35562E-02 +1.48965E+01
 -4.49554E+00 +1.36983E+01 -8.20897E+00 +1.12575E+01 -1.08805E+01 +7.91178E+00 -1.23391E+01 +4.05107E+00
 -1.25435E+01 +7.25211E-02 -1.15662E+01 -3.65623E+00 -9.57117E+00 -6.82249E+00 -6.78848E+00 -9.18317E+00
 -3.49228E+00 -1.05712E+01 +1.82537E-02 -1.08973E+01 +3.43438E+00 -1.01502E+01 +6.45226E+00 -8.39712E+00
 +8.78896E+00 -5.78507E+00 +1.02021E+01 -2.53966E+00 +1.05133E+01 +1.04073E+00 +9.63428E+00 +4.59963E+00
 +7.59007E+00 +7.74834E+00 +4.53538E+00 +1.01033E+01 +7.57018E-01 +1.13322E+01 -3.34167E+00 +1.12031E+01
 -7.27651E+00 +9.62928E+00 -1.05366E+01 +6.69988E+00 -1.26510E+01 +2.68959E+00 -1.32589E+01 -1.95856E+00
 -1.21724E+01 -6.67831E+00 -9.41929E+00 -1.08491E+01 -5.25832E+00 -1.38806E+01 -1.59550E-01 -1.53001E+01
 +5.24868E+00 -1.48297E+01 +1.02611E+01 -1.24384E+01 +1.41936E+01 -8.36030E+00 +1.64841E+01 -3.07347E+00
 +1.67785E+01 +2.75986E+00 +1.49898E+01 +8.38321E+00 +1.13175E+01 +1.30532E+01 +6.22401E+00 +1.61474E+01
 +3.71731E-01 +1.72563E+01 -5.47200E+00 +1.62437E+01 -1.05457E+01 +1.32661E+01 -1.42036E+01 +8.74851E+00
 -1.60075E+01 +3.31879E+00 -1.57853E+01 -2.28655E+00 -1.36490E+01 -7.33169E+00 -9.96888E+00 -1.11876E+01
 -5.30962E+00 -1.34182E+01 -3.39862E-01 -1.38347E+01 +4.27006E+00 -1.25092E+01 +7.94503E+00 -9.74842E+00
 +1.02819E+01 -6.03390E+00 +1.10953E+01 -1.93882E+00 +1.04263E+01 +1.96252E+00 +8.51641E+00 +5.17826E+00
 +5.75299E+00 +7.36254E+00 +2.59708E+00 +8.35051E+00 -4.92206E-01 +8.16158E+00 -3.12474E+00 +6.97370E+00
 -5.02721E+00 +5.07588E+00 -6.06620E+00 +2.80941E+00 -6.24548E+00 +5.09273E-01 -5.68149E+00 -1.54427E+00
 -4.56443E+00 -3.15673E+00 -3.11414E+00 -4.23014E+00 -1.53995E+00 -4.75477E+00 -1.15755E-02 -4.78674E+00
 +1.35506E+00 -4.41865E+00 +2.49678E+00 -3.75093E+00 +3.39019E+00 -2.87038E+00 +4.03235E+00 -1.84005E+00
 +4.42157E+00 -7.01012E-01 +4.54423E+00 +5.15994E-01 +4.37142E+00 +1.77414E+00 +3.86644E+00 +3.01503E+00
 +3.00091E+00 +4.14981E+00 +1.77522E+00 +5.06076E+00 +2.37126E-01 +5.61449E+00 -1.50725E+00 +5.68488E+00
 -3.29441E+00 +5.18127E+00 -4.91838E+00 +4.07557E+00 -6.15807E+00 +2.42166E+00 -6.81294E+00 +3.61670E-01
 -6.74030E+00 -1.88399E+00 -5.88673E+00 -4.04270E+00 -4.30706E+00 -5.82828E+00 -2.16573E+00 -6.98582E+00
 +2.80720E-01 -7.33490E+00 +2.71836E+00 -6.80298E+00 +4.82231E+00 -5.44243E+00 +6.30715E+00 -3.42734E+00
 +6.97266E+00 -1.02986E+00 +6.73664E+00 +1.42020E+00 +5.64884E+00 +3.58616E+00 +3.88343E+00 +5.17674E+00
 +1.71099E+00 +5.99107E+00 -5.44954E-01 +5.94860E+00 -2.55961E+00 +5.09901E+00 -4.05770E+00 +3.61066E+00
 -4.85483E+00 +1.73997E+00 -4.88266E+00 -2.12633E-01 -4.19409E+00 -1.95225E+00 -2.94829E+00 -3.23595E+00
 -1.37898E+00 -3.90828E+00 +2.47855E-01 -3.92040E+00 +1.67896E+00 -3.33022E+00 +2.71375E+00 -2.28488E+00
 +3.23243E+00 -9.89404E-01 +3.20836E+00 +3.31854E-01 +2.70356E+00 +1.47390E+00 +1.84945E+00 +2.28295E+00
 +8.17453E-01 +2.67647E+00 -2.14376E-01 +2.64878E+00 -1.09233E+00 +2.26247E+00 -1.71015E+00 +1.62869E+00
 -2.02082E+00 +8.80951E-01 -2.03586E+00 +1.48140E-01 -1.81381E+00 -4.68040E-01 -1.44118E+00 -9.07264E-01
 -1.01054E+00 -1.15453E+00 -6.00740E-01 -1.23424E+00 -2.62878E-01 -1.19672E+00 -1.46642E-02 -1.10105E+00
 +1.56642E-01 -9.98359E-01 +2.84212E-01 -9.19287E-01 +4.07560E-01 -8.68353E-01 +5.58134E-01 -8.25870E-01
 +7.48141E-01 -7.56511E-01 +9.65267E-01 -6.22058E-01 +1.17442E+00 -3.94949E-01 +1.32597E+00 -6.92197E-02
 +1.36841E+00 +3.33931E-01 +1.26237E+00 +7.67398E-01 +9.92627E-01 +1.16611E+00 +5.75101E-01 +1.45997E+00
 +5.71625E-02 +1.58896E+00 -4.89189E-01 +1.51700E+00 -9.79948E-01 +1.24155E+00 -1.33500E+00 +7.96564E-01
 -1.49401E+00 +2.48072E-01 -1.42890E+00 -3.16979E-01 -1.15039E+00 -8.06403E-01 -7.07016E-01 -1.13992E+00
