 Created: 16-Jan-2021
 $NMID
 ID='D:\BASISSIMULATI'
 FMTDAT='(8E13.5)'
 VOLUME=   1.00000E+00
 TRAMP=   1.00000E+00
 $END
 +5.17749E+01 +6.73632E-01 +3.64393E+01 +2.02573E+01 +1.66289E+00 +3.05022E+01 -2.85357E+01 +2.58972E+01
 -3.45258E+01 +7.82206E+00 -1.47042E+01 -1.45615E+01 +1.48991E+01 -2.80292E+01 +3.36790E+01 -2.31606E+01
 +3.12929E+01 -1.62399E+00 +1.31722E+01 +2.32914E+01 -6.01086E+00 +3.49897E+01 -1.41991E+01 +2.56131E+01
 -9.52858E+00 +2.52770E+00 +9.64300E-01 -1.66855E+01 +8.49186E+00 -1.76449E+01 +8.84448E+00 -5.45104E-01
 +3.64597E+00 +1.99598E+01 -2.61649E+00 +2.66817E+01 -6.09780E+00 +1.40561E+01 -5.14715E+00 -7.18956E+00
 -2.64537E-01 -1.88608E+01 +6.09194E+00 -1.03894E+01 +9.76561E+00 +1.22806E+01 +6.54456E+00 +3.13146E+01
 -4.48220E+00 +3.12269E+01 -1.82485E+01 +1.10968E+01 -2.52381E+01 -1.48859E+01 -1.79481E+01 -2.84776E+01
 +1.93617E+00 -2.08795E+01 +2.21961E+01 +1.66457E+00 +2.75237E+01 +2.35157E+01 +1.13068E+01 +3.10979E+01
 -1.75685E+01 +2.12793E+01 -3.95168E+01 +1.55350E+00 -3.82647E+01 -1.63165E+01 -1.36042E+01 -2.35517E+01
 +1.75201E+01 -1.80329E+01 +3.31650E+01 -3.80332E+00 +2.27002E+01 +1.16116E+01 -5.40515E+00 +2.03364E+01
 -3.03466E+01 +1.73444E+01 -3.48046E+01 +3.35403E+00 -1.73811E+01 -1.42845E+01 +7.62014E+00 -2.47404E+01
 +2.20122E+01 -2.04635E+01 +1.72558E+01 -3.36190E+00 -5.82939E-01 +1.50040E+01 -1.71077E+01 +2.09157E+01
 -2.09583E+01 +8.97174E+00 -1.12101E+01 -1.27375E+01 +3.81928E+00 -2.78349E+01 +1.38221E+01 -2.41188E+01
 +1.34698E+01 -3.63727E+00 +4.53952E+00 +1.81452E+01 -6.71259E+00 +2.41007E+01 -1.37619E+01 +9.03683E+00
 -1.28297E+01 -1.58565E+01 -4.09226E+00 -3.15281E+01 +8.35277E+00 -2.58780E+01 +1.77591E+01 -3.07569E+00
 +1.77951E+01 +1.98908E+01 +6.78307E+00 +2.64045E+01 -9.65333E+00 +1.25713E+01 -2.06943E+01 -1.06529E+01
 -1.73164E+01 -2.64452E+01 +2.68219E-01 -2.45631E+01 +2.10011E+01 -7.77574E+00 +2.98831E+01 +1.16051E+01
 +1.91921E+01 +2.12040E+01 -4.64565E+00 +1.65203E+01 -2.47380E+01 +2.31732E+00 -2.60456E+01 -1.19484E+01
 -7.07646E+00 -1.83094E+01 +1.84604E+01 -1.40910E+01 +3.17865E+01 -2.21994E+00 +2.32715E+01 +1.08204E+01
 -3.74169E-01 +1.80030E+01 -2.14985E+01 +1.50133E+01 -2.50659E+01 +2.91528E+00 -9.67815E+00 -1.14282E+01
 +1.22260E+01 -1.86257E+01 +2.44722E+01 -1.28359E+01 +1.91880E+01 +3.23607E+00 +1.65285E+00 +1.88727E+01
 -1.48519E+01 +2.23550E+01 -1.92547E+01 +9.97583E+00 -9.98394E+00 -1.00704E+01 +5.31577E+00 -2.29008E+01
 +1.61270E+01 -1.81011E+01 +1.60883E+01 +1.69244E+00 +6.11722E+00 +2.19986E+01 -7.27235E+00 +2.71966E+01
 -1.62529E+01 +1.26540E+01 -1.57781E+01 -1.13331E+01 -5.89408E+00 -2.71230E+01 +8.19241E+00 -2.30476E+01
 +1.83667E+01 -2.13634E+00 +1.78044E+01 +2.03833E+01 +5.46460E+00 +2.85923E+01 -1.20419E+01 +1.73752E+01
 -2.35245E+01 -4.60176E+00 -2.03798E+01 -2.19723E+01 -3.29002E+00 -2.38043E+01 +1.69666E+01 -1.04769E+01
 +2.63191E+01 +7.93773E+00 +1.75840E+01 +1.94567E+01 -3.61856E+00 +1.79683E+01 -2.23081E+01 +6.01797E+00
 -2.49794E+01 -8.10069E+00 -9.78334E+00 -1.59777E+01 +1.19223E+01 -1.37034E+01 +2.40872E+01 -3.37887E+00
 +1.80790E+01 +8.50922E+00 -9.58690E-01 +1.46974E+01 -1.83222E+01 +1.11721E+01 -2.10743E+01 -2.05380E-01
 -7.63706E+00 -1.21945E+01 +1.15172E+01 -1.62839E+01 +2.21335E+01 -8.50784E+00 +1.67299E+01 +6.91310E+00
 -4.32281E-01 +1.94261E+01 -1.70781E+01 +1.91981E+01 -2.19064E+01 +4.75070E+00 -1.20888E+01 -1.47990E+01
 +5.57293E+00 -2.54499E+01 +1.97577E+01 -1.84542E+01 +2.19248E+01 +2.61151E+00 +1.11122E+01 +2.36176E+01
 -6.10232E+00 +2.97354E+01 -1.97389E+01 +1.62600E+01 -2.20266E+01 -7.75442E+00 -1.16188E+01 -2.58937E+01
 +5.58332E+00 -2.60846E+01 +1.95231E+01 -8.93463E+00 +2.16866E+01 +1.32382E+01 +1.04240E+01 +2.55529E+01
 -7.49992E+00 +2.08789E+01 -2.07263E+01 +3.96861E+00 -2.06288E+01 -1.29060E+01 -7.38651E+00 -1.89285E+01
 +9.74698E+00 -1.16843E+01 +1.87219E+01 +2.32065E+00 +1.33394E+01 +1.30359E+01 -2.10070E+00 +1.37975E+01
 -1.58779E+01 +5.17395E+00 -1.76053E+01 -6.21068E+00 -6.11539E+00 -1.24536E+01 +9.60072E+00 -9.46264E+00
 +1.72252E+01 +6.23247E-01 +1.05405E+01 +1.08816E+01 -5.75570E+00 +1.39821E+01 -1.95082E+01 +6.98152E+00
 -2.01734E+01 -6.35135E+00 -6.65702E+00 -1.74101E+01 +1.18457E+01 -1.81332E+01 +2.24499E+01 -6.71769E+00
 +1.76689E+01 +1.03119E+01 +5.09191E-01 +2.17036E+01 -1.77554E+01 +1.89305E+01 -2.52445E+01 +2.54168E+00
 -1.71945E+01 -1.73737E+01 +1.24068E+00 -2.75445E+01 +1.85549E+01 -2.06379E+01 +2.42047E+01 -6.99365E-01
 +1.50129E+01 +1.92255E+01 -3.10716E+00 +2.58903E+01 -1.89221E+01 +1.49484E+01 -2.27621E+01 -6.09154E+00
 -1.24030E+01 -2.31257E+01 +5.57793E+00 -2.51394E+01 +1.98700E+01 -1.14955E+01 +2.15435E+01 +8.09226E+00
 +9.79613E+00 +2.05455E+01 -7.45275E+00 +1.82645E+01 -1.87190E+01 +3.78988E+00 -1.66093E+01 -1.25320E+01
 -2.83287E+00 -1.98449E+01 +1.29729E+01 -1.39058E+01 +1.99221E+01 +5.74179E-01 +1.34579E+01 +1.35467E+01
 -1.52531E+00 +1.64878E+01 -1.42495E+01 +7.91801E+00 -1.57552E+01 -5.89354E+00 -5.21577E+00 -1.53153E+01
 +9.62004E+00 -1.38599E+01 +1.80766E+01 -2.53320E+00 +1.41640E+01 +1.08446E+01 +7.30856E-01 +1.69455E+01
 -1.26765E+01 +1.13652E+01 -1.65946E+01 -2.19504E+00 -8.24040E+00 -1.43029E+01 +6.61061E+00 -1.62647E+01
 +1.76440E+01 -6.28821E+00 +1.70816E+01 +9.02785E+00 +5.00123E+00 +1.90938E+01 -1.06448E+01 +1.66770E+01
 -1.93053E+01 +3.07092E+00 -1.49098E+01 -1.26156E+01 -6.40755E-02 -1.96414E+01 +1.54806E+01 -1.30214E+01
 +2.12009E+01 +3.00447E+00 +1.28839E+01 +1.78013E+01 -4.33022E+00 +2.14916E+01 -1.91493E+01 +1.15459E+01
 -2.16162E+01 -5.58395E+00 -9.90109E+00 -1.87687E+01 +8.29399E+00 -1.94975E+01 +2.08311E+01 -7.36754E+00
 +1.93483E+01 +9.72492E+00 +4.94514E+00 +2.07245E+01 -1.26147E+01 +1.85450E+01 -2.16257E+01 +4.63312E+00
 -1.63890E+01 -1.19494E+01 -8.87137E-01 -2.03876E+01 +1.42228E+01 -1.51994E+01 +1.90118E+01 +7.39832E-02
 +1.08606E+01 +1.51208E+01 -4.17445E+00 +1.97381E+01 -1.58285E+01 +1.08074E+01 -1.66020E+01 -5.45136E+00
 -6.50435E+00 -1.76886E+01 +7.35615E+00 -1.73425E+01 +1.57185E+01 -4.73034E+00 +1.32277E+01 +1.11064E+01
 +1.74703E+00 +1.88271E+01 -1.09997E+01 +1.29283E+01 -1.64624E+01 -2.30520E+00 -1.08061E+01 -1.59228E+01
 +2.48570E+00 -1.82162E+01 +1.46642E+01 -7.63288E+00 +1.73218E+01 +8.27154E+00 +8.10520E+00 +1.83693E+01
 -7.28200E+00 +1.58232E+01 -1.84787E+01 +2.64356E+00 -1.73918E+01 -1.20517E+01 -4.06973E+00 -1.84873E+01
 +1.27855E+01 -1.27097E+01 +2.14943E+01 +1.18708E+00 +1.56017E+01 +1.41472E+01 -1.24135E+00 +1.81059E+01
 -1.75096E+01 +1.08806E+01 -2.18498E+01 -2.81067E+00 -1.12232E+01 -1.44518E+01 +6.85630E+00 -1.68967E+01
 +1.97177E+01 -8.61682E+00 +1.86177E+01 +5.32891E+00 +4.83242E+00 +1.62177E+01 -1.16115E+01 +1.69718E+01
 -1.93870E+01 +6.79843E+00 -1.38385E+01 -7.88343E+00 +2.55784E-01 -1.72821E+01 +1.27092E+01 -1.47627E+01
 +1.53342E+01 -1.74201E+00 +7.26148E+00 +1.27978E+01 -5.23316E+00 +1.83829E+01 -1.36042E+01 +1.06809E+01
 -1.27816E+01 -4.96440E+00 -3.99118E+00 -1.71069E+01 +6.64811E+00 -1.65969E+01 +1.22651E+01 -3.59378E+00
 +9.37005E+00 +1.22894E+01 -2.40739E-01 +1.90676E+01 -1.05835E+01 +1.14256E+01 -1.49261E+01 -5.19638E+00
 -9.86131E+00 -1.86360E+01 +2.18384E+00 -1.90724E+01 +1.37847E+01 -6.21862E+00 +1.68367E+01 +1.06768E+01
 +8.11867E+00 +1.97496E+01 -7.65460E+00 +1.49699E+01 -2.00740E+01 -2.97791E-02 -1.98688E+01 -1.50606E+01
 -5.87768E+00 -2.06001E+01 +1.31875E+01 -1.38073E+01 +2.42209E+01 +4.16490E-01 +1.90304E+01 +1.32218E+01
 +6.69753E-01 +1.73495E+01 -1.82696E+01 +1.09607E+01 -2.45535E+01 -1.92350E+00 -1.39038E+01 -1.39488E+01
 +5.93714E+00 -1.83537E+01 +2.10070E+01 -1.25269E+01 +2.13405E+01 +3.68761E-01 +7.86751E+00 +1.27639E+01
 -8.97098E+00 +1.68738E+01 -1.73733E+01 +9.70797E+00 -1.26040E+01 -4.36225E+00 +4.69289E-01 -1.58648E+01
 +1.19373E+01 -1.65418E+01 +1.43572E+01 -5.54360E+00 +7.46123E+00 +9.35117E+00 -2.79598E+00 +1.70722E+01
 -9.19631E+00 +1.16048E+01 -8.10156E+00 -3.05391E+00 -1.06220E+00 -1.55691E+01 +7.01100E+00 -1.59132E+01
 +1.11332E+01 -3.34400E+00 +8.87475E+00 +1.27239E+01 +1.38102E+00 +1.98860E+01 -7.20000E+00 +1.24114E+01
 -1.16313E+01 -4.23654E+00 -8.42193E+00 -1.75963E+01 +1.56694E+00 -1.77502E+01 +1.26248E+01 -4.70416E+00
 +1.70853E+01 +1.19698E+01 +1.05609E+01 +2.05646E+01 -4.01819E+00 +1.57246E+01 -1.72265E+01 +1.65891E+00
 -1.92974E+01 -1.16952E+01 -7.61372E+00 -1.59659E+01 +1.03713E+01 -9.53733E+00 +2.18184E+01 +2.48963E+00
 +1.79114E+01 +1.24876E+01 +8.86511E-01 +1.50779E+01 -1.71193E+01 +9.57158E+00 -2.29701E+01 -4.92491E-01
 -1.24783E+01 -9.54578E+00 +6.38682E+00 -1.26242E+01 +1.95992E+01 -7.71136E+00 +1.77070E+01 +2.85491E+00
 +2.70807E+00 +1.29270E+01 -1.39651E+01 +1.56719E+01 -2.03842E+01 +8.15101E+00 -1.28055E+01 -5.70419E+00
 +2.36655E+00 -1.66779E+01 +1.41296E+01 -1.63720E+01 +1.50362E+01 -3.82702E+00 +5.74631E+00 +1.27078E+01
 -6.65565E+00 +2.11144E+01 -1.42689E+01 +1.44627E+01 -1.33253E+01 -3.17563E+00 -5.47428E+00 -1.91713E+01
 +4.29726E+00 -2.16777E+01 +1.08038E+01 -8.76199E+00 +1.09479E+01 +9.95783E+00 +4.73205E+00 +2.06329E+01
 -4.70931E+00 +1.57459E+01 -1.21562E+01 -3.95555E-01 -1.27595E+01 -1.54036E+01 -5.24858E+00 -1.85369E+01
 +6.26460E+00 -8.58506E+00 +1.40735E+01 +6.02346E+00 +1.20465E+01 +1.43477E+01 +7.33725E-01 +1.11968E+01
 -1.19967E+01 +1.83731E-01 -1.62633E+01 -1.00385E+01 -7.92739E+00 -1.25884E+01 +7.41744E+00 -6.76499E+00
 +1.80639E+01 +2.61374E+00 +1.51903E+01 +9.35547E+00 +2.13027E-01 +9.86279E+00 -1.57259E+01 +4.49011E+00
 -2.01867E+01 -3.52917E+00 -9.25242E+00 -9.98545E+00 +9.17047E+00 -1.13572E+01 +2.13432E+01 -6.23690E+00
 +1.82530E+01 +3.48435E+00 +2.37361E+00 +1.26145E+01 -1.45471E+01 +1.49858E+01 -2.05971E+01 +7.62369E+00
 -1.23624E+01 -6.04561E+00 +3.35062E+00 -1.72010E+01 +1.53526E+01 -1.73378E+01 +1.63124E+01 -5.00048E+00
 +7.11880E+00 +1.19797E+01 -5.09273E+00 +2.14285E+01 -1.26551E+01 +1.58913E+01 -1.21169E+01 -1.17443E+00
 -5.18352E+00 -1.74167E+01 +3.52755E+00 -2.07765E+01 +9.42633E+00 -8.81372E+00 +9.80341E+00 +9.30765E+00
 +4.52281E+00 +1.99017E+01 -3.87793E+00 +1.53235E+01 -1.08176E+01 -3.69786E-01 -1.16869E+01 -1.49887E+01
