 Created: 16-Jan-2021
 $NMID
 ID='D:\BASISSIMULATI'
 FMTDAT='(8E13.5)'
 VOLUME=   1.00000E+00
 TRAMP=   1.00000E+00
 $END
 +8.03614E+01 +8.75280E-01 +6.04415E+01 +4.85170E+01 +1.30407E+01 +6.78032E+01 -3.28954E+01 +4.78157E+01
 -4.96875E+01 +2.07349E+00 -2.83120E+01 -4.02454E+01 +1.62839E+01 -5.29424E+01 +5.52114E+01 -2.91988E+01
 +6.42952E+01 +1.47605E+01 +3.91610E+01 +5.08046E+01 -2.86653E+00 +5.72482E+01 -3.48568E+01 +3.23403E+01
 -3.80296E+01 -5.67581E+00 -1.34146E+01 -3.14551E+01 +1.99558E+01 -2.94595E+01 +3.85816E+01 -3.62379E+00
 +3.03551E+01 +2.62993E+01 +2.14235E+00 +3.87630E+01 -2.56501E+01 +2.50920E+01 -3.34354E+01 -5.03778E+00
 -1.58247E+01 -3.06876E+01 +1.49384E+01 -3.42032E+01 +3.75555E+01 -1.32603E+01 +3.62572E+01 +1.76298E+01
 +1.15131E+01 +3.69818E+01 -2.02265E+01 +3.08116E+01 -3.74445E+01 +2.04018E+00 -2.77814E+01 -3.13274E+01
 +3.81190E+00 -4.79171E+01 +3.82332E+01 -3.68253E+01 +5.44896E+01 -4.58791E+00 +4.30216E+01 +2.90857E+01
 +1.15603E+01 +4.38675E+01 -2.00222E+01 +3.14968E+01 -3.23279E+01 +5.96097E-01 -1.83715E+01 -2.91598E+01
 +1.25834E+01 -3.95113E+01 +4.13587E+01 -2.47109E+01 +5.10062E+01 +5.56624E+00 +3.69843E+01 +3.29121E+01
 +9.18843E+00 +4.18640E+01 -1.49772E+01 +2.91013E+01 -2.17038E+01 +4.62997E+00 -8.95008E+00 -1.52986E+01
 +1.31927E+01 -1.86408E+01 +2.96744E+01 -4.68320E+00 +3.02426E+01 +1.63894E+01 +1.55071E+01 +3.07209E+01
 -4.26634E+00 +2.98203E+01 -1.64085E+01 +1.55757E+01 -1.41565E+01 -1.70089E+00 -6.33529E-01 -1.05307E+01
 +1.38241E+01 -5.85264E+00 +1.89102E+01 +8.00484E+00 +1.12131E+01 +2.06797E+01 -3.78603E+00 +2.29823E+01
 -1.57096E+01 +1.30493E+01 -1.64239E+01 -2.59383E+00 -5.48730E+00 -1.36163E+01 +9.67868E+00 -1.29179E+01
 +1.88978E+01 -1.37351E+00 +1.61225E+01 +1.28427E+01 +3.46952E+00 +1.98192E+01 -1.02538E+01 +1.45813E+01
 -1.54879E+01 +4.09657E-01 -8.32188E+00 -1.33790E+01 +6.91267E+00 -1.76617E+01 +2.05505E+01 -9.56903E+00
 +2.40216E+01 +5.65452E+00 +1.54960E+01 +1.81861E+01 +1.00496E+00 +2.01537E+01 -9.65420E+00 +1.07905E+01
 -9.44456E+00 -3.18703E+00 +1.32049E+00 -1.21626E+01 +1.53433E+01 -1.00394E+01 +2.33365E+01 +1.80670E+00
 +2.02315E+01 +1.56298E+01 +8.42909E+00 +2.26410E+01 -4.02941E+00 +1.89036E+01 -9.03947E+00 +7.81950E+00
 -3.91694E+00 -2.40935E+00 +6.93420E+00 -4.52762E+00 +1.52474E+01 +2.79154E+00 +1.47348E+01 +1.41404E+01
 +5.48741E+00 +2.12642E+01 -6.11003E+00 +1.89239E+01 -1.18963E+01 +8.65190E+00 -7.75270E+00 -2.24212E+00
 +3.33850E+00 -5.77701E+00 +1.31938E+01 +9.85631E-01 +1.40777E+01 +1.36137E+01 +4.25580E+00 +2.30939E+01
 -1.04256E+01 +2.19676E+01 -2.01838E+01 +9.67460E+00 -1.78560E+01 -6.61971E+00 -3.98694E+00 -1.64679E+01
 +1.30839E+01 -1.30418E+01 +2.23950E+01 +2.08383E+00 +1.75194E+01 +1.95613E+01 +9.96199E-01 +2.80871E+01
 -1.69880E+01 +2.17128E+01 -2.49635E+01 +3.87429E+00 -1.75359E+01 -1.45826E+01 +1.04275E+00 -2.22105E+01
 +1.94685E+01 -1.42518E+01 +2.65311E+01 +4.30641E+00 +1.82188E+01 +2.19130E+01 +1.97078E-01 +2.78272E+01
 -1.59261E+01 +1.89188E+01 -2.01004E+01 +1.50993E+00 -1.02156E+01 -1.28868E+01 +6.75397E+00 -1.50973E+01
 +1.95116E+01 -4.14596E+00 +1.99097E+01 +1.23491E+01 +8.19398E+00 +2.34142E+01 -7.39209E+00 +2.20546E+01
 -1.62944E+01 +9.80588E+00 -1.27764E+01 -4.48218E+00 +2.85803E-01 -1.07509E+01 +1.34541E+01 -4.59118E+00
 +1.72143E+01 +9.76247E+00 +8.50929E+00 +2.23163E+01 -7.09955E+00 +2.41375E+01 -1.91297E+01 +1.35091E+01
 -1.92760E+01 -2.75649E+00 -7.13708E+00 -1.37925E+01 +9.32550E+00 -1.19869E+01 +1.89870E+01 +1.77076E+00
 +1.50046E+01 +1.84793E+01 -4.66766E-01 +2.68905E+01 -1.75042E+01 +2.10061E+01 -2.48757E+01 +4.21147E+00
 -1.75018E+01 -1.27779E+01 +4.23813E-02 -1.88948E+01 +1.63841E+01 -1.00585E+01 +2.07733E+01 +8.00136E+00
 +1.02116E+01 +2.33806E+01 -8.44177E+00 +2.57855E+01 -2.28573E+01 +1.33727E+01 -2.33083E+01 -5.89581E+00
 -9.14882E+00 -1.93553E+01 +1.06004E+01 -1.79252E+01 +2.30279E+01 -2.16442E+00 +1.97575E+01 +1.79192E+01
 +2.52929E+00 +2.92633E+01 -1.77584E+01 +2.42419E+01 -2.79966E+01 +5.72785E+00 -2.13426E+01 -1.46081E+01
 -1.72939E+00 -2.37211E+01 +1.85428E+01 -1.55723E+01 +2.66163E+01 +4.94533E+00 +1.72699E+01 +2.50755E+01
 -3.76467E+00 +3.22923E+01 -2.34772E+01 +2.22158E+01 -2.98465E+01 +1.28867E+00 -1.93770E+01 -1.74428E+01
 +8.93425E-01 -2.26556E+01 +1.80978E+01 -1.18041E+01 +2.18114E+01 +7.57426E+00 +1.05182E+01 +2.29919E+01
 -7.81955E+00 +2.51162E+01 -2.12727E+01 +1.35477E+01 -2.17820E+01 -3.38185E+00 -1.01554E+01 -1.44554E+01
 +4.93788E+00 -1.30498E+01 +1.31127E+01 -1.27259E+00 +9.31452E+00 +1.18760E+01 -2.96619E+00 +1.69173E+01
 -1.43826E+01 +1.04525E+01 -1.63895E+01 -2.58749E+00 -7.27482E+00 -1.24855E+01 +6.57311E+00 -1.16163E+01
 +1.50512E+01 +6.96547E-02 +1.14142E+01 +1.47559E+01 -2.79603E+00 +2.19553E+01 -1.84085E+01 +1.57471E+01
 -2.45752E+01 -8.46118E-01 -1.61331E+01 -1.74133E+01 +2.55889E+00 -2.27921E+01 +2.00057E+01 -1.25069E+01
 +2.48072E+01 +7.92012E+00 +1.31129E+01 +2.61057E+01 -8.57960E+00 +3.05251E+01 -2.72254E+01 +1.79130E+01
 -3.13235E+01 -4.44215E+00 -1.81840E+01 -2.30729E+01 +4.27882E+00 -2.66753E+01 +2.24111E+01 -1.31534E+01
 +2.52892E+01 +9.09400E+00 +1.14510E+01 +2.64481E+01 -1.03368E+01 +2.85515E+01 -2.66957E+01 +1.46326E+01
 -2.80180E+01 -6.26580E+00 -1.42961E+01 -2.11889E+01 +5.21424E+00 -2.14550E+01 +1.81342E+01 -7.90619E+00
 +1.68660E+01 +1.00213E+01 +3.18820E+00 +2.06400E+01 -1.32923E+01 +1.75626E+01 -2.16602E+01 +3.57901E+00
 -1.68310E+01 -1.15359E+01 -2.65797E+00 -1.76950E+01 +1.09210E+01 -1.11793E+01 +1.46884E+01 +3.06506E+00
 +6.32909E+00 +1.49489E+01 -8.10975E+00 +1.61534E+01 -1.84065E+01 +5.78126E+00 -1.71587E+01 -9.03595E+00
 -4.87353E+00 -1.79759E+01 +1.02814E+01 -1.45631E+01 +1.79365E+01 -6.70662E-01 +1.25561E+01 +1.45788E+01
 -2.67550E+00 +2.08480E+01 -1.77881E+01 +1.35636E+01 -2.25780E+01 -2.84376E+00 -1.34621E+01 -1.76805E+01
 +3.95435E+00 -2.09901E+01 +1.83938E+01 -1.02082E+01 +2.02692E+01 +7.97113E+00 +8.05868E+00 +2.18416E+01
 -1.05552E+01 +2.23169E+01 -2.36080E+01 +8.93848E+00 -2.26526E+01 -9.73245E+00 -8.31317E+00 -2.16519E+01
 +1.00850E+01 -1.91502E+01 +2.05954E+01 -3.94649E+00 +1.64535E+01 +1.39891E+01 +4.70791E-01 +2.29790E+01
 -1.68654E+01 +1.72753E+01 -2.43137E+01 +7.61451E-01 -1.72389E+01 -1.56947E+01 -5.61400E-01 -2.14494E+01
 +1.46097E+01 -1.30622E+01 +1.83769E+01 +3.55486E+00 +8.55774E+00 +1.71851E+01 -7.99947E+00 +1.88053E+01
 -2.00960E+01 +7.52843E+00 -1.96857E+01 -8.92994E+00 -7.18776E+00 -1.95071E+01 +8.89758E+00 -1.72140E+01
 +1.77540E+01 -3.76297E+00 +1.35071E+01 +1.16510E+01 -8.69645E-01 +1.85552E+01 -1.55789E+01 +1.22232E+01
 -2.05714E+01 -3.16281E+00 -1.22737E+01 -1.72982E+01 +3.99816E+00 -2.06198E+01 +1.75324E+01 -1.06865E+01
 +1.93034E+01 +6.14658E+00 +7.96355E+00 +1.88666E+01 -9.20108E+00 +1.90293E+01 -2.09850E+01 +6.33045E+00
 -1.95629E+01 -1.11293E+01 -5.61281E+00 -2.20598E+01 +1.20717E+01 -1.92852E+01 +2.22249E+01 -4.39834E+00
 +1.83501E+01 +1.32426E+01 +2.88457E+00 +2.25101E+01 -1.43789E+01 +1.76202E+01 -2.25688E+01 +1.78991E+00
 -1.66548E+01 -1.48800E+01 -5.77779E-01 -2.18924E+01 +1.53740E+01 -1.50170E+01 +2.11946E+01 +1.13096E+00
 +1.35029E+01 +1.61907E+01 -2.45554E+00 +2.07637E+01 -1.63590E+01 +1.23714E+01 -1.95335E+01 -3.14833E+00
 -1.04606E+01 -1.56202E+01 +4.46155E+00 -1.72088E+01 +1.53033E+01 -7.41357E+00 +1.51744E+01 +6.83651E+00
 +4.64118E+00 +1.59500E+01 -8.86951E+00 +1.40763E+01 -1.61939E+01 +2.88546E+00 -1.26048E+01 -9.73976E+00
 -8.98373E-01 -1.51512E+01 +1.06369E+01 -9.81650E+00 +1.39513E+01 +2.33540E+00 +6.76024E+00 +1.26680E+01
 -5.88985E+00 +1.38028E+01 -1.50826E+01 +4.72976E+00 -1.41730E+01 -8.43167E+00 -3.42361E+00 -1.65690E+01
 +1.00490E+01 -1.38245E+01 +1.70355E+01 -1.70541E+00 +1.25109E+01 +1.17782E+01 -8.27614E-01 +1.74289E+01
 -1.42035E+01 +1.10845E+01 -1.85444E+01 -3.45259E+00 -1.05595E+01 -1.67929E+01 +4.96307E+00 -2.01063E+01
 +1.82022E+01 -1.09626E+01 +2.06946E+01 +5.01399E+00 +1.08479E+01 +1.77752E+01 -5.04687E+00 +1.93544E+01
 -1.69291E+01 +8.96463E+00 -1.74541E+01 -6.61584E+00 -6.59519E+00 -1.75281E+01 +8.56931E+00 -1.71629E+01
 +1.85930E+01 -6.19393E+00 +1.77033E+01 +8.19345E+00 +7.20774E+00 +1.71706E+01 -5.78942E+00 +1.58962E+01
 -1.32679E+01 +6.24926E+00 -1.14028E+01 -4.91296E+00 -2.59224E+00 -1.05387E+01 +6.68651E+00 -7.88417E+00
 +1.04687E+01 +1.79837E-01 +7.12805E+00 +7.65726E+00 -3.74986E-02 +9.74811E+00 -5.58684E+00 +5.95469E+00
 -5.92781E+00 -3.87235E-02 -1.68497E+00 -3.38907E+00 +3.09833E+00 -1.71960E+00 +4.18186E+00 +3.24560E+00
 +3.69710E-01 +7.11741E+00 -5.56186E+00 +6.22557E+00 -8.88873E+00 +4.77922E-01 -6.45457E+00 -6.37363E+00
 +8.34554E-01 -9.28991E+00 +8.34834E+00 -5.56707E+00 +1.07616E+01 +3.00536E+00 +5.76348E+00 +1.10215E+01
 -4.08730E+00 +1.29007E+01 -1.27111E+01 +6.66520E+00 -1.43024E+01 -4.47125E+00 -7.16080E+00 -1.38611E+01
 +4.95823E+00 -1.55171E+01 +1.49527E+01 -7.97754E+00 +1.67187E+01 +4.55709E+00 +9.02897E+00 +1.46424E+01
 -3.53527E+00 +1.61416E+01 -1.32820E+01 +8.09253E+00 -1.41309E+01 -4.57216E+00 -5.43599E+00 -1.39861E+01
 +7.52479E+00 -1.42134E+01 +1.67746E+01 -4.98687E+00 +1.66161E+01 +8.06646E+00 +7.23911E+00 +1.69254E+01
 -5.36551E+00 +1.62417E+01 -1.31990E+01 +6.76161E+00 -1.13837E+01 -5.12806E+00 -1.33555E+00 -1.15086E+01
 +1.01201E+01 -8.08900E+00 +1.51936E+01 +2.93920E+00 +1.02831E+01 +1.42805E+01 -1.56168E+00 +1.83305E+01
 -1.25719E+01 +1.22745E+01 -1.54077E+01 +8.25998E-02 -8.14584E+00 -1.00276E+01 +4.27112E+00 -1.10812E+01
 +1.32181E+01 -2.15291E+00 +1.21903E+01 +1.08037E+01 +1.35283E+00 +1.88114E+01 -1.23215E+01 +1.59390E+01
 -1.95854E+01 +3.50759E+00 -1.51906E+01 -1.05222E+01 -1.66145E+00 -1.67510E+01 +1.21177E+01 -1.07371E+01
 +1.67378E+01 +3.75245E+00 +8.69200E+00 +1.69882E+01 -6.98235E+00 +1.96963E+01 -1.98002E+01 +9.41512E+00
 -2.07593E+01 -7.55158E+00 -8.52070E+00 -2.00753E+01 +9.39196E+00 -1.95607E+01 +2.13513E+01 -5.84223E+00
 +1.93105E+01 +1.24181E+01 +4.31269E+00 +2.32604E+01 -1.39420E+01 +1.93252E+01 -2.33288E+01 +2.88044E+00
 -1.72923E+01 -1.54522E+01 +6.95621E-01 -2.35452E+01 +1.92360E+01 -1.57314E+01 +2.63647E+01 +3.37596E+00
