 Created: 16-Jan-2021
 $NMID
 ID='D:\BASISSIMULATI'
 FMTDAT='(8E13.5)'
 VOLUME=   1.00000E+00
 TRAMP=   1.00000E+00
 $END
 +5.95657E+01 +5.84793E-01 +4.30280E+01 -2.47133E+01 +4.71411E+00 -2.87078E+01 -3.01623E+01 -5.74569E+00
 -3.97079E+01 +2.93160E+01 -2.04281E+01 +5.15396E+01 +1.09242E+01 +4.38525E+01 +2.99068E+01 +9.61457E+00
 +2.22183E+01 -2.92792E+01 -6.05308E+00 -4.74988E+01 -3.30905E+01 -3.38717E+01 -3.74807E+01 +1.02542E+00
 -1.41129E+01 +3.26078E+01 +2.16748E+01 +3.97450E+01 +4.47538E+01 +1.94504E+01 +3.80652E+01 -1.16111E+01
 +4.89406E+00 -2.96883E+01 -3.32258E+01 -2.13931E+01 -5.14875E+01 +6.57524E+00 -3.89967E+01 +3.23922E+01
 -5.98661E+00 +3.51012E+01 +2.39248E+01 +1.00625E+01 +3.07361E+01 -2.72941E+01 +1.20951E+01 -5.21280E+01
 -1.55901E+01 -4.76381E+01 -2.95556E+01 -1.68521E+01 -1.75086E+01 +1.95971E+01 +1.32899E+01 +3.80265E+01
 +4.11791E+01 +2.81563E+01 +4.57049E+01 -1.98296E-01 +2.24155E+01 -2.47679E+01 -1.37627E+01 -2.71120E+01
 -3.89403E+01 -5.78539E+00 -3.69829E+01 +2.29676E+01 -1.06178E+01 +3.72936E+01 +2.08660E+01 +2.57410E+01
 +3.55027E+01 -4.35131E+00 +2.41012E+01 -3.20451E+01 -3.70689E+00 -3.77504E+01 -2.69234E+01 -1.71671E+01
 -2.85647E+01 +1.57100E+01 -7.84124E+00 +3.85496E+01 +1.95153E+01 +3.63869E+01 +3.28234E+01 +1.18748E+01
 +2.14631E+01 -1.70661E+01 -7.46146E+00 -3.02915E+01 -3.42007E+01 -1.97084E+01 -4.04066E+01 +5.36674E+00
 -2.20417E+01 +2.53793E+01 +7.99240E+00 +2.48639E+01 +2.92025E+01 +3.56432E+00 +2.79967E+01 -2.35346E+01
 +6.97357E+00 -3.70985E+01 -1.74442E+01 -2.73086E+01 -2.70873E+01 -7.77070E-01 -1.50373E+01 +2.42964E+01
 +9.70739E+00 +3.10880E+01 +2.90244E+01 +1.59021E+01 +2.88370E+01 -9.57723E+00 +9.14986E+00 -2.69224E+01
 -1.61318E+01 -2.41281E+01 -2.92717E+01 -3.88795E+00 -2.13156E+01 +1.87561E+01 +1.74923E+00 +2.74603E+01
 +2.35180E+01 +1.62704E+01 +2.89381E+01 -6.35890E+00 +1.48380E+01 -2.38920E+01 -8.19694E+00 -2.36558E+01
 -2.37054E+01 -5.79162E+00 -2.11602E+01 +1.70680E+01 -3.24583E+00 +2.89613E+01 +1.64325E+01 +2.19065E+01
 +2.33333E+01 +1.31100E+00 +1.23799E+01 -1.81951E+01 -8.61308E+00 -2.33070E+01 -2.47456E+01 -1.13527E+01
 -2.47320E+01 +8.18134E+00 -8.79824E+00 +2.07673E+01 +1.17401E+01 +1.73153E+01 +2.27072E+01 +4.99047E-01
 +1.70852E+01 -1.74422E+01 -2.97161E-01 -2.36413E+01 -1.65641E+01 -1.37688E+01 -2.01473E+01 +5.07308E+00
 -8.92219E+00 +1.96156E+01 +8.59153E+00 +1.99120E+01 +1.96130E+01 +6.23479E+00 +1.63250E+01 -1.14167E+01
 +1.32332E+00 -2.06372E+01 -1.44704E+01 -1.54025E+01 -1.97504E+01 -7.59550E-02 -1.08446E+01 +1.40449E+01
 +5.86752E+00 +1.69707E+01 +1.86922E+01 +7.07325E+00 +1.89724E+01 -8.01144E+00 +7.05477E+00 -1.70894E+01
 -8.26252E+00 -1.34894E+01 -1.62125E+01 +2.78791E-01 -1.17104E+01 +1.44979E+01 +1.26877E+00 +1.92728E+01
 +1.28411E+01 +1.15064E+01 +1.44571E+01 -3.10681E+00 +4.97910E+00 -1.43346E+01 -8.68865E+00 -1.47226E+01
 -1.67102E+01 -4.71488E+00 -1.33856E+01 +7.96620E+00 -1.11097E+00 +1.40600E+01 +1.14921E+01 +9.40330E+00
 +1.57953E+01 -2.27069E+00 +9.21233E+00 -1.22395E+01 -3.19130E+00 -1.31742E+01 -1.25310E+01 -4.36300E+00
 -1.25010E+01 +7.90670E+00 -3.72990E+00 +1.49519E+01 +6.92952E+00 +1.18869E+01 +1.15167E+01 +9.74959E-01
 +6.71717E+00 -1.01582E+01 -3.86064E+00 -1.40375E+01 -1.24158E+01 -8.56892E+00 -1.26199E+01 +1.70600E+00
 -4.11255E+00 +9.09964E+00 +7.33982E+00 +8.38548E+00 +1.40265E+01 +4.68996E-01 +1.17399E+01 -8.44196E+00
 +2.59576E+00 -1.14552E+01 -6.69393E+00 -6.00597E+00 -9.73334E+00 +4.32973E+00 -4.95524E+00 +1.24457E+01
 +3.46657E+00 +1.27857E+01 +8.84903E+00 +5.22738E+00 +6.94682E+00 -4.95764E+00 -9.79172E-01 -1.09386E+01
 -9.13565E+00 -9.13545E+00 -1.14345E+01 -1.56746E+00 -5.89570E+00 +5.84945E+00 +3.93764E+00 +7.71608E+00
 +1.15307E+01 +3.03485E+00 +1.19593E+01 -4.20889E+00 +5.27750E+00 -8.10578E+00 -3.70142E+00 -5.23441E+00
 -8.95416E+00 +2.78793E+00 -7.50908E+00 +1.04334E+01 -1.36800E+00 +1.22152E+01 +4.20894E+00 +6.59591E+00
 +4.71154E+00 -2.93532E+00 -2.77269E-01 -1.03377E+01 -6.81565E+00 -1.12244E+01 -9.55687E+00 -5.78651E+00
 -5.73528E+00 +1.59104E+00 +2.71871E+00 +5.64468E+00 +1.04539E+01 +4.01921E+00 +1.24281E+01 -1.20038E+00
 +7.41039E+00 -5.24762E+00 -1.22569E+00 -4.36056E+00 -7.92974E+00 +1.33547E+00 -8.83654E+00 +7.84999E+00
 -4.29944E+00 +1.02192E+01 +1.65154E+00 +6.15168E+00 +4.43278E+00 -2.21739E+00 +2.28270E+00 -9.72421E+00
 -2.55856E+00 -1.17178E+01 -5.66845E+00 -7.21561E+00 -3.86995E+00 +5.44681E-01 +2.27230E+00 +6.48538E+00
 +8.72176E+00 +7.24432E+00 +1.08144E+01 +3.35849E+00 +6.61975E+00 -1.42307E+00 -1.60282E+00 -3.09966E+00
 -8.89480E+00 -4.35755E-01 -1.09637E+01 +4.16930E+00 -7.03225E+00 +6.55772E+00 -1.87002E-01 +4.02230E+00
 +4.94654E+00 -2.52466E+00 +5.47624E+00 -9.02390E+00 +2.11364E+00 -1.10602E+01 -1.63724E+00 -6.97308E+00
 -2.28921E+00 +9.35107E-01 +9.30422E-01 +7.94486E+00 +5.47715E+00 +1.01053E+01 +7.40431E+00 +6.80430E+00
 +4.37300E+00 +9.48474E-01 -2.45833E+00 -3.28738E+00 -9.06019E+00 -3.46059E+00 -1.12479E+01 -4.48264E-01
 -7.55842E+00 +2.46127E+00 -2.52952E-01 +2.22598E+00 +6.24219E+00 -1.54162E+00 +8.32594E+00 -6.19548E+00
 +5.52942E+00 -7.98010E+00 +5.60884E-01 -4.84628E+00 -2.84643E+00 +1.90027E+00 -2.66439E+00 +8.32949E+00
 +9.83416E-02 +1.04964E+01 +2.37124E+00 +7.08922E+00 +1.51697E+00 +2.63366E-01 -2.52972E+00 -5.88797E+00
 -7.06663E+00 -8.10571E+00 -8.52427E+00 -6.01815E+00 -5.08445E+00 -2.08231E+00 +1.87968E+00 +4.40558E-01
 +8.58957E+00 -6.08855E-02 +1.13283E+01 -2.45259E+00 +8.85825E+00 -3.86893E+00 +3.11735E+00 -2.03422E+00
 -2.23606E+00 +2.84924E+00 -4.34726E+00 +8.05003E+00 -2.96345E+00 +1.01483E+01 -2.91645E-01 +7.45037E+00
 +8.77724E-01 +1.24917E+00 -6.52829E-01 -4.96780E+00 -3.60939E+00 -7.80002E+00 -5.27478E+00 -6.10597E+00
 -3.62869E+00 -1.57855E+00 +9.94248E-01 +2.60627E+00 +5.95563E+00 +4.04228E+00 +8.05427E+00 +2.63337E+00
 +5.72082E+00 +3.79709E-01 +1.13967E-01 -3.40107E-01 -5.64052E+00 +1.32701E+00 -8.51071E+00 +4.02556E+00
 -7.46871E+00 +5.20956E+00 -3.95068E+00 +3.09215E+00 -6.26860E-01 -1.91116E+00 +5.66691E-01 -7.30314E+00
 -2.91658E-01 -1.01130E+01 -1.38917E+00 -8.85513E+00 -7.36441E-01 -4.46924E+00 +2.19129E+00 +3.85391E-01
 +5.94676E+00 +3.14295E+00 +8.10026E+00 +2.96083E+00 +6.99368E+00 +1.05658E+00 +2.98240E+00 -4.02085E-01
 -1.72741E+00 +1.75608E-02 -4.52432E+00 +1.99071E+00 -4.09229E+00 +3.78193E+00 -1.18474E+00 +3.65134E+00
 +2.02540E+00 +1.25142E+00 +3.50355E+00 -2.01845E+00 +2.69164E+00 -3.95287E+00 +7.07375E-01 -3.08706E+00
 -6.63000E-01 +2.64552E-01 -3.83232E-01 +4.20765E+00 +1.05703E+00 +6.54070E+00 +2.05390E+00 +6.18444E+00
 +1.15003E+00 +3.77430E+00 -1.80372E+00 +1.05134E+00 -5.43944E+00 -4.49918E-01 -7.76124E+00 -4.46113E-01
 -7.48321E+00 +4.72304E-02 -4.86149E+00 -3.59256E-01 -1.45270E+00 -2.26041E+00 +9.88500E-01 -4.92364E+00
 +1.66065E+00 -6.77601E+00 +1.10710E+00 -6.53718E+00 +6.22720E-01 -4.15999E+00 +1.16979E+00 -8.98279E-01
 +2.62825E+00 +1.53198E+00 +3.92243E+00 +2.08036E+00 +3.89762E+00 +9.75561E-01 +2.26646E+00 -5.77856E-01
 -9.06635E-02 -1.34704E+00 -1.69501E+00 -9.40652E-01 -1.48724E+00 +2.62387E-02 +4.48547E-01 +5.48723E-01
 +2.96630E+00 +1.20707E-01 +4.65990E+00 -8.00691E-01 +4.78419E+00 -1.11248E+00 +3.63490E+00 +7.73966E-02
 +2.15452E+00 +2.70426E+00 +1.11370E+00 +5.67782E+00 +5.17874E-01 +7.55077E+00 -3.09061E-01 +7.44104E+00
 -2.04858E+00 +5.54668E+00 -4.66556E+00 +2.90586E+00 -7.22641E+00 +6.17068E-01 -8.43226E+00 -8.79052E-01
 -7.49429E+00 -1.92945E+00 -4.70976E+00 -3.15353E+00 -1.30945E+00 -4.72914E+00 +1.31715E+00 -6.07654E+00
 +2.45861E+00 -6.22205E+00 +2.38614E+00 -4.58323E+00 +1.94221E+00 -1.56845E+00 +1.77028E+00 +1.50301E+00
 +1.80415E+00 +3.15613E+00 +1.41793E+00 +2.67538E+00 +1.08261E-01 +5.29908E-01 -1.85421E+00 -1.99269E+00
 -3.36760E+00 -3.66807E+00 -3.15415E+00 -4.08309E+00 -6.87010E-01 -3.71437E+00 +3.29777E+00 -3.31886E+00
 +7.12182E+00 -3.14930E+00 +9.13801E+00 -2.64502E+00 +8.69284E+00 -8.79989E-01 +6.40832E+00 +2.55221E+00
 +3.60483E+00 +6.91340E+00 +1.31402E+00 +1.05024E+01 -3.72894E-01 +1.16056E+01 -2.13917E+00 +9.58828E+00
 -4.61019E+00 +5.34979E+00 -7.53364E+00 +7.90937E-01 -9.66674E+00 -2.35690E+00 -9.53884E+00 -3.52675E+00
 -6.57370E+00 -3.44543E+00 -1.73112E+00 -3.34121E+00 +2.87376E+00 -3.85529E+00 +5.18824E+00 -4.50194E+00
 +4.46587E+00 -4.10647E+00 +1.66935E+00 -1.89667E+00 -1.25565E+00 +1.60421E+00 -2.72020E+00 +4.62868E+00
 -2.48725E+00 +5.22244E+00 -1.61756E+00 +2.60170E+00 -1.43792E+00 -2.17202E+00 -2.33503E+00 -6.73840E+00
 -3.31937E+00 -8.88206E+00 -2.73432E+00 -7.89082E+00 +3.85146E-01 -4.88328E+00 +5.32693E+00 -1.88650E+00
 +9.88626E+00 -3.42160E-01 +1.16815E+01 -1.33513E-01 +9.71727E+00 +1.57942E-01 +5.08357E+00 +1.96900E+00
 +2.62836E-01 +5.42255E+00 -2.49864E+00 +8.98373E+00 -2.61712E+00 +1.04245E+01 -1.39114E+00 +8.43672E+00
 -8.74618E-01 +3.71477E+00 -2.24028E+00 -1.33161E+00 -4.84642E+00 -4.09811E+00 -6.70804E+00 -3.49720E+00
 -6.03719E+00 -6.45502E-01 -2.71089E+00 +1.97665E+00 +1.44983E+00 +2.30552E+00 +3.85237E+00 +1.41786E-01
 +2.94763E+00 -2.77537E+00 -6.23258E-01 -4.11799E+00 -4.41118E+00 -2.75358E+00 -5.83763E+00 +3.52221E-01
 -3.98857E+00 +2.79632E+00 -2.35737E-01 +2.50014E+00 +2.77313E+00 -7.10969E-01 +3.03820E+00 -4.88468E+00
 +6.58572E-01 -7.27448E+00 -2.24557E+00 -6.28818E+00 -3.09291E+00 -2.64235E+00 -7.55675E-01 +1.13368E+00
 +3.56722E+00 +2.51079E+00 +7.16756E+00 +7.91625E-01 +7.75643E+00 -2.37004E+00 +5.10698E+00 -4.15705E+00
 +1.20929E+00 -2.64280E+00 -1.18861E+00 +1.76794E+00 -6.00375E-01 +6.56121E+00 +2.09404E+00 +8.85334E+00
 +4.28247E+00 +7.40335E+00 +3.55477E+00 +3.45066E+00 -4.58666E-01 -2.22964E-01 -5.69131E+00 -1.32163E+00
 -9.00480E+00 +3.24415E-01 -8.35793E+00 +2.70341E+00 -4.23362E+00 +3.19238E+00 +7.00130E-01 +6.01111E-01
 +3.45314E+00 -3.82069E+00 +2.76361E+00 -7.18005E+00 -1.29926E-01 -6.99537E+00 -2.53041E+00 -3.03453E+00
 -2.35541E+00 +2.40415E+00 +2.88006E-01 +5.99918E+00 +3.18800E+00 +5.64724E+00 +3.71596E+00 +1.85198E+00
 +8.79470E-01 -2.71654E+00 -3.78129E+00 -5.15597E+00 -7.14698E+00 -4.35593E+00 -6.67302E+00 -1.65934E+00
