 Created: 16-Jan-2021
 $NMID
 ID='D:\BASISSIMULATI'
 FMTDAT='(8E13.5)'
 VOLUME=   1.00000E+00
 TRAMP=   1.00000E+00
 $END
 +1.01374E+02 +5.08664E-01 +9.20065E+01 +3.97887E+01 +6.70606E+01 +7.12005E+01 +3.15469E+01 +8.88146E+01
 -7.45086E+00 +8.95150E+01 -4.22340E+01 +7.36157E+01 -6.60643E+01 +4.47681E+01 -7.45319E+01 +9.18164E+00
 -6.64318E+01 -2.56774E+01 -4.39716E+01 -5.26347E+01 -1.22708E+01 -6.62825E+01 +2.17378E+01 -6.40718E+01
 +5.07717E+01 -4.68005E+01 +6.87190E+01 -1.83985E+01 +7.18970E+01 +1.49376E+01 +5.97893E+01 +4.60747E+01
 +3.51095E+01 +6.84541E+01 +3.18658E+00 +7.74663E+01 -2.91951E+01 +7.13989E+01 -5.52515E+01 +5.17648E+01
 -6.96402E+01 +2.29428E+01 -6.95837E+01 -8.78561E+00 -5.54379E+01 -3.65966E+01 -3.05897E+01 -5.45904E+01
 -7.08533E-01 -5.90516E+01 +2.74864E+01 -4.92365E+01 +4.76784E+01 -2.75221E+01 +5.53155E+01 +1.11325E+00
 +4.85932E+01 +3.01655E+01 +2.88485E+01 +5.30067E+01 +2.82300E-01 +6.43149E+01 -3.09320E+01 +6.12269E+01
 -5.79628E+01 +4.39695E+01 -7.47802E+01 +1.58338E+01 -7.74513E+01 -1.75032E+01 -6.49958E+01 -4.91669E+01
 -3.96198E+01 -7.25337E+01 -6.27706E+00 -8.26328E+01 +2.83525E+01 -7.72073E+01 +5.72523E+01 -5.72082E+01
 +7.45353E+01 -2.66166E+01 +7.66798E+01 +8.37007E+00 +6.32737E+01 +4.06184E+01 +3.71117E+01 +6.35388E+01
 +3.62338E+00 +7.24544E+01 -3.02484E+01 +6.55740E+01 -5.74847E+01 +4.43644E+01 -7.24432E+01 +1.32454E+01
 -7.20235E+01 -2.13279E+01 -5.63029E+01 -5.22049E+01 -2.85108E+01 -7.30199E+01 +5.65198E+00 -7.95049E+01
 +3.92028E+01 -7.03623E+01 +6.53292E+01 -4.75162E+01 +7.87970E+01 -1.56940E+01 +7.70230E+01 +1.85731E+01
 +6.05891E+01 +4.83183E+01 +3.30943E+01 +6.75888E+01 +3.78227E-01 +7.26739E+01 -3.07162E+01 +6.28564E+01
 -5.37813E+01 +4.05319E+01 -6.41807E+01 +1.06764E+01 -6.00032E+01 -2.02232E+01 -4.24383E+01 -4.55472E+01
 -1.54955E+01 -5.99396E+01 +1.48666E+01 -6.04276E+01 +4.20177E+01 -4.70314E+01 +6.00659E+01 -2.27379E+01
 +6.51040E+01 +7.15253E+00 +5.60292E+01 +3.61654E+01 +3.47641E+01 +5.80348E+01 +5.83706E+00 +6.80359E+01
 -2.45895E+01 +6.39862E+01 -5.00341E+01 +4.67051E+01 -6.50755E+01 +1.98345E+01 -6.65047E+01 -1.09375E+01
 -5.40065E+01 -3.90865E+01 -3.02260E+01 -5.86370E+01 -2.09258E-01 -6.54311E+01 +2.96653E+01 -5.80112E+01
 +5.30366E+01 -3.79317E+01 +6.49075E+01 -9.43323E+00 +6.27036E+01 +2.14501E+01 +4.68202E+01 +4.81633E+01
 +2.05436E+01 +6.50132E+01 -1.06373E+01 +6.83699E+01 -4.01842E+01 +5.74349E+01 -6.18839E+01 +3.44124E+01
 -7.11542E+01 +4.04976E+00 -6.60081E+01 -2.73567E+01 -4.74723E+01 -5.32818E+01 -1.93733E+01 -6.83392E+01
 +1.24640E+01 -6.94095E+01 +4.14364E+01 -5.62925E+01 +6.15442E+01 -3.17471E+01 +6.86452E+01 -9.10801E-01
 +6.13185E+01 +2.97777E+01 +4.11560E+01 +5.39269E+01 +1.24232E+01 +6.65287E+01 -1.88387E+01 +6.50017E+01
 -4.60812E+01 +4.97245E+01 -6.36190E+01 +2.39480E+01 -6.78170E+01 -6.89399E+00 -5.78437E+01 -3.63284E+01
 -3.58357E+01 -5.82012E+01 -6.44023E+00 -6.79644E+01 +2.41669E+01 -6.36227E+01 +4.95803E+01 -4.61416E+01
 +6.45076E+01 -1.92347E+01 +6.58740E+01 +1.14256E+01 +5.34576E+01 +3.94033E+01 +2.99250E+01 +5.88513E+01
 +2.60764E-01 +6.57340E+01 -2.92871E+01 +5.86662E+01 -5.25221E+01 +3.91920E+01 -6.45985E+01 +1.14491E+01
 -6.30314E+01 -1.87110E+01 -4.82077E+01 -4.49575E+01 -2.32915E+01 -6.18114E+01 +6.45306E+00 -6.57908E+01
 +3.47769E+01 -5.61328E+01 +5.57637E+01 -3.49402E+01 +6.50713E+01 -6.72564E+00 +6.08370E+01 +2.25498E+01
 +4.40568E+01 +4.67374E+01 +1.83619E+01 +6.07970E+01 -1.07601E+01 +6.18529E+01 -3.71302E+01 +4.97901E+01
 -5.51860E+01 +2.72657E+01 -6.11527E+01 -8.64175E-01 -5.38344E+01 -2.85800E+01 -3.48563E+01 -4.99760E+01
 -8.31190E+00 -6.05095E+01 +2.01119E+01 -5.79587E+01 +4.43431E+01 -4.28871E+01 +5.92124E+01 -1.85179E+01
 +6.15470E+01 +9.95379E+00 +5.08405E+01 +3.64645E+01 +2.93582E+01 +5.53688E+01 +1.65559E+00 +6.26350E+01
 -2.63866E+01 +5.67005E+01 -4.88079E+01 +3.88028E+01 -6.08296E+01 +1.27205E+01 -5.98676E+01 -1.60234E+01
 -4.60822E+01 -4.13267E+01 -2.23487E+01 -5.77961E+01 +6.34301E+00 -6.18870E+01 +3.39367E+01 -5.26549E+01
 +5.45818E+01 -3.19601E+01 +6.38646E+01 -4.08358E+00 +5.97382E+01 +2.51669E+01 +4.29567E+01 +4.96707E+01
 +1.69228E+01 +6.42758E+01 -1.30195E+01 +6.58763E+01 -4.06983E+01 +5.40638E+01 -6.03995E+01 +3.12137E+01
 -6.80565E+01 +1.99024E+00 -6.20941E+01 -2.76245E+01 -4.37525E+01 -5.15755E+01 -1.68229E+01 -6.49918E+01
 +1.31468E+01 -6.51933E+01 +4.00096E+01 -5.22377E+01 +5.82969E+01 -2.88960E+01 +6.43494E+01 -6.21885E-02
 +5.70653E+01 +2.82758E+01 +3.81105E+01 +5.02872E+01 +1.15521E+01 +6.15093E+01 -1.70084E+01 +5.97653E+01
 -4.16154E+01 +4.55981E+01 -5.72055E+01 +2.21324E+01 -6.06581E+01 -5.60258E+00 -5.14303E+01 -3.17443E+01
 -3.16468E+01 -5.08353E+01 -5.62728E+00 -5.89671E+01 +2.10434E+01 -5.45892E+01 +4.27064E+01 -3.88155E+01
 +5.48267E+01 -1.51659E+01 +5.49458E+01 +1.11991E+01 +4.31891E+01 +3.45867E+01 +2.22223E+01 +4.99873E+01
 -3.33087E+00 +5.41383E+01 -2.78849E+01 +4.62130E+01 -4.60899E+01 +2.79892E+01 -5.39756E+01 +3.46227E+00
 -4.97999E+01 -2.20125E+01 -3.44218E+01 -4.28666E+01 -1.11207E+01 -5.45102E+01 +1.51000E+01 -5.43163E+01
 +3.85766E+01 -4.21889E+01 +5.41915E+01 -2.05937E+01 +5.84666E+01 +5.95434E+00 +5.03122E+01 +3.18405E+01
 +3.12724E+01 +5.15351E+01 +5.21482E+00 +6.07647E+01 -2.24712E+01 +5.74231E+01 -4.60006E+01 +4.20283E+01
 -6.04053E+01 +1.76298E+01 -6.25799E+01 -1.08163E+01 -5.19401E+01 -3.74730E+01 -3.05560E+01 -5.68353E+01
 -2.73073E+00 -6.48770E+01 +2.58862E+01 -5.98903E+01 +4.94676E+01 -4.28431E+01 +6.32134E+01 -1.71815E+01
 +6.43421E+01 +1.18839E+01 +5.26616E+01 +3.84561E+01 +3.06012E+01 +5.71692E+01 +2.70131E+00 +6.42927E+01
 -2.53339E+01 +5.84924E+01 -4.78194E+01 +4.10899E+01 -6.02615E+01 +1.57714E+01 -6.02763E+01 -1.21935E+01
 -4.80630E+01 -3.70551E+01 -2.63363E+01 -5.37794E+01 +2.63336E-01 -5.90835E+01 +2.61558E+01 -5.20987E+01
 +4.59952E+01 -3.45228E+01 +5.57831E+01 -1.02339E+01 +5.36892E+01 +1.55478E+01 +4.04095E+01 +3.73732E+01
 +1.89892E+01 +5.07145E+01 -5.84834E+00 +5.29111E+01 -2.87201E+01 +4.37132E+01 -4.47351E+01 +2.53101E+01
 -5.05315E+01 +1.84110E+00 -4.49831E+01 -2.15042E+01 -2.94253E+01 -3.96047E+01 -7.35559E+00 -4.85060E+01
 +1.63263E+01 -4.62655E+01 +3.63751E+01 -3.33659E+01 +4.83290E+01 -1.26092E+01 +4.94705E+01 +1.14838E+01
 +3.94142E+01 +3.36422E+01 +2.01981E+01 +4.89746E+01 -4.14203E+00 +5.40199E+01 -2.84256E+01 +4.74965E+01
 -4.74262E+01 +3.05902E+01 -5.69851E+01 +6.71903E+00 -5.49028E+01 -1.91766E+01 -4.14200E+01 -4.16688E+01
 -1.91858E+01 -5.59859E+01 +7.28284E+00 -5.90216E+01 +3.25363E+01 -5.00002E+01 +5.13278E+01 -3.06539E+01
 +5.97102E+01 -4.87611E+00 +5.58655E+01 +2.20782E+01 +4.04920E+01 +4.46793E+01 +1.66675E+01 +5.82681E+01
 -1.07815E+01 +6.00228E+01 -3.62756E+01 +4.95439E+01 -5.46331E+01 +2.89367E+01 -6.21373E+01 +2.37435E+00
 -5.72980E+01 -2.47665E+01 -4.11497E+01 -4.70164E+01 -1.70258E+01 -5.99389E+01 +1.01421E+01 -6.10369E+01
 +3.48511E+01 -5.02516E+01 +5.21668E+01 -2.99540E+01 +5.87358E+01 -4.43094E+00 +5.34617E+01 +2.10212E+01
 +3.77071E+01 +4.12056E+01 +1.49801E+01 +5.21036E+01 -9.82299E+00 +5.16965E+01 -3.14581E+01 +4.03624E+01
 -4.54370E+01 +2.07658E+01 -4.89612E+01 -2.73049E+00 -4.14917E+01 -2.50062E+01 -2.48372E+01 -4.12755E+01
 -2.74551E+00 -4.80983E+01 +1.99125E+01 -4.40995E+01 +3.81910E+01 -3.02441E+01 +4.81270E+01 -9.61413E+00
 +4.75820E+01 +1.32644E+01 +3.66921E+01 +3.33981E+01 +1.78306E+01 +4.63993E+01 -4.90570E+00 +4.94272E+01
 -2.65781E+01 +4.17957E+01 -4.24657E+01 +2.51230E+01 -4.90791E+01 +2.98728E+00 -4.49119E+01 -1.98346E+01
 -3.07714E+01 -3.83857E+01 -9.61649E+00 -4.85879E+01 +1.40618E+01 -4.81177E+01 +3.51872E+01 -3.69117E+01
 +4.91734E+01 -1.71951E+01 +5.28993E+01 +6.97392E+00 +4.53787E+01 +3.05490E+01 +2.79839E+01 +4.85527E+01
 +4.17185E+00 +5.71224E+01 -2.12263E+01 +5.43271E+01 -4.30076E+01 +4.05814E+01 -5.66800E+01 +1.85702E+01
 -5.93987E+01 -7.30053E+00 -5.05610E+01 -3.18134E+01 -3.19350E+01 -5.00186E+01 -7.29501E+00 -5.82576E+01
 +1.83596E+01 -5.49179E+01 +3.98387E+01 -4.07619E+01 +5.28327E+01 -1.87623E+01 +5.47984E+01 +6.52100E+00
 +4.54741E+01 +2.98900E+01 +2.69195E+01 +4.65866E+01 +3.07345E+00 +5.32726E+01 -2.10766E+01 +4.87098E+01
 -4.05369E+01 +3.39980E+01 -5.13444E+01 +1.23252E+01 -5.13802E+01 -1.17151E+01 -4.07932E+01 -3.30957E+01
 -2.19450E+01 -4.74086E+01 +1.10681E+00 -5.17814E+01 +2.34771E+01 -4.54632E+01 +4.04881E+01 -2.99602E+01
 +4.86526E+01 -8.69603E+00 +4.63983E+01 +1.37293E+01 +3.43832E+01 +3.25238E+01 +1.53371E+01 +4.37209E+01
 -6.53445E+00 +4.50162E+01 -2.64554E+01 +3.62465E+01 -4.01006E+01 +1.94126E+01 -4.45177E+01 -1.75822E+00
 -3.87527E+01 -2.26145E+01 -2.40501E+01 -3.85777E+01 -3.58364E+00 -4.61215E+01 +1.82221E+01 -4.35257E+01
 +3.66365E+01 -3.12461E+01 +4.76321E+01 -1.18208E+01 +4.87457E+01 +1.06646E+01 +3.96082E+01 +3.14425E+01
 +2.20309E+01 +4.60739E+01 -3.69393E-01 +5.13913E+01 -2.29285E+01 +4.61753E+01 -4.09157E+01 +3.14207E+01
 -5.05310E+01 +1.01364E+01 -4.97090E+01 -1.32798E+01 -3.85591E+01 -3.39594E+01 -1.93499E+01 -4.75829E+01
 +3.95913E+00 -5.12853E+01 +2.65414E+01 -4.42583E+01 +4.37090E+01 -2.79228E+01 +5.18898E+01 -5.63549E+00
 +4.93718E+01 +1.80096E+01 +3.66589E+01 +3.81367E+01 +1.63639E+01 +5.06018E+01 -7.33804E+00 +5.28524E+01
 -2.95797E+01 +4.44533E+01 -4.58149E+01 +2.71699E+01 -5.27605E+01 +4.59342E+00 -4.90721E+01 -1.86141E+01
 -3.56128E+01 -3.76934E+01 -1.52606E+01 -4.87782E+01 +7.70403E+00 -4.96936E+01 +2.84995E+01 -4.03966E+01
 +4.28440E+01 -2.29701E+01 +4.78460E+01 -1.17022E+00 +4.25980E+01 +2.03717E+01 +2.83509E+01 +3.71268E+01
 +8.23429E+00 +4.56184E+01 -1.34155E+01 +4.41446E+01 -3.19777E+01 +3.31234E+01 -4.35234E+01 +1.49898E+01
 -4.56407E+01 -6.33198E+00 -3.79351E+01 -2.62670E+01 -2.21021E+01 -4.05615E+01 -1.55764E+00 -4.61828E+01
 +1.92935E+01 -4.19565E+01 +3.59958E+01 -2.88089E+01 +4.49888E+01 -9.56427E+00 +4.43602E+01 +1.16600E+01
 +3.42490E+01 +3.03293E+01 +1.68128E+01 +4.24551E+01 -4.23108E+00 +4.54405E+01 -2.43954E+01 +3.86310E+01
 -3.93738E+01 +2.34529E+01 -4.59530E+01 +3.11215E+00 -4.26943E+01 -1.80828E+01 -3.02390E+01 -3.56312E+01
