 Created: 16-Jan-2021
 $NMID
 ID='D:\BASISSIMULATI'
 FMTDAT='(8E13.5)'
 VOLUME=   1.00000E+00
 TRAMP=   1.00000E+00
 $END
 +2.62073E+01 +1.33020E-01 +2.40122E+01 +8.58425E+00 +1.89552E+01 +1.53791E+01 +1.20159E+01 +1.95608E+01
 +4.46427E+00 +2.06943E+01 -2.39856E+00 +1.89321E+01 -7.49861E+00 +1.49589E+01 -1.01935E+01 +9.82939E+00
 -1.03814E+01 +4.73413E+00 -8.49452E+00 +7.45591E-01 -5.38020E+00 -1.40343E+00 -2.09831E+00 -1.46245E+00
 +3.21309E-01 +3.01161E-01 +1.10858E+00 +3.17912E+00 -7.82531E-02 +6.19299E+00 -3.08029E+00 +8.32078E+00
 -7.27561E+00 +8.72994E+00 -1.17173E+01 +6.96710E+00 -1.53414E+01 +3.06444E+00 -1.71991E+01 -2.45889E+00
 -1.66644E+01 -8.69965E+00 -1.35730E+01 -1.45548E+01 -8.26395E+00 -1.89477E+01 -1.51629E+00 -2.10482E+01
 +5.60470E+00 -2.04410E+01 +1.19591E+01 -1.72075E+01 +1.65565E+01 -1.19051E+01 +1.87466E+01 -5.45166E+00
 +1.83373E+01 +1.06274E+00 +1.56172E+01 +6.59270E+00 +1.12807E+01 +1.03404E+01 +6.27195E+00 +1.19018E+01
 +1.58437E+00 +1.13273E+01 -1.94395E+00 +9.08680E+00 -3.79435E+00 +5.94947E+00 -3.85893E+00 +2.80498E+00
 -2.44178E+00 +4.66213E-01 -1.72463E-01 -5.04742E-01 +2.14756E+00 +8.89736E-02 +3.73105E+00 +2.04692E+00
 +3.98313E+00 +4.82641E+00 +2.63367E+00 +7.67075E+00 -2.03549E-01 +9.78189E+00 -4.05589E+00 +1.04993E+01
 -8.19430E+00 +9.44715E+00 -1.17898E+01 +6.61855E+00 -1.40898E+01 +2.38049E+00 -1.45769E+01 -2.60050E+00
 -1.30765E+01 -7.49487E+00 -9.79157E+00 -1.14788E+01 -5.25915E+00 -1.38992E+01 -2.38902E-01 -1.44010E+01
 +4.44158E+00 -1.29904E+01 +8.05130E+00 -1.00228E+01 +1.00960E+01 -6.12042E+00 +1.04051E+01 -2.03758E+00
 +9.14977E+00 +1.49569E+00 +6.78963E+00 +3.91900E+00 +3.96226E+00 +4.94589E+00 +1.34043E+00 +4.60650E+00
 -5.11728E-01 +3.22190E+00 -1.25324E+00 +1.31806E+00 -8.28292E-01 -5.00275E-01 +5.35715E-01 -1.68745E+00
 +2.39130E+00 -1.87659E+00 +4.17967E+00 -9.56139E-01 +5.36030E+00 +9.11790E-01 +5.53265E+00 +3.33344E+00
 +4.52418E+00 +5.77488E+00 +2.42663E+00 +7.68179E+00 -4.25816E-01 +8.60102E+00 -3.53007E+00 +8.27779E+00
 -6.32238E+00 +6.70830E+00 -8.29698E+00 +4.13780E+00 -9.10973E+00 +1.00613E+00 -8.64504E+00 -2.14630E+00
 -7.03309E+00 -4.79080E+00 -4.61522E+00 -6.51657E+00 -1.86662E+00 -7.10869E+00 +7.05771E-01 -6.58215E+00
 +2.66772E+00 -5.16660E+00 +3.74209E+00 -3.24691E+00 +3.85627E+00 -1.27395E+00 +3.14387E+00 +3.34078E-01
 +1.90252E+00 +1.27822E+00 +5.18679E-01 +1.43527E+00 -6.22872E-01 +8.73249E-01 -1.22443E+00 -1.75537E-01
 -1.13740E+00 -1.37620E+00 -3.88385E-01 -2.37265E+00 +8.34870E-01 -2.86992E+00 +2.23278E+00 -2.69931E+00
 +3.46622E+00 -1.85263E+00 +4.23479E+00 -4.79277E-01 +4.34356E+00 +1.15184E+00 +3.74381E+00 +2.71555E+00
 +2.53989E+00 +3.90390E+00 +9.61789E-01 +4.49327E+00 -6.88999E-01 +4.39018E+00 -2.10732E+00 +3.64676E+00
 -3.05029E+00 +2.44338E+00 -3.38671E+00 +1.04379E+00 -3.11962E+00 -2.66167E-01 -2.37801E+00 -1.24192E+00
 -1.38099E+00 -1.73120E+00 -3.83574E-01 -1.70196E+00 +3.82891E-01 -1.24172E+00 +7.61818E-01 -5.29886E-01
 +7.02760E-01 +2.09631E-01 +2.66726E-01 +7.63581E-01 -3.94708E-01 +9.79447E-01 -1.08056E+00 +7.98900E-01
 -1.59149E+00 +2.67545E-01 -1.77832E+00 -4.80463E-01 -1.57677E+00 -1.25839E+00 -1.02064E+00 -1.87427E+00
 -2.30824E-01 -2.17806E+00 +6.16269E-01 -2.09724E+00 +1.33300E+00 -1.65284E+00 +1.76647E+00 -9.52307E-01
 +1.83502E+00 -1.61533E-01 +1.54677E+00 +5.36755E-01 +9.95910E-01 +9.88081E-01 +3.37963E-01 +1.10372E+00
 -2.49619E-01 +8.81618E-01 -6.11955E-01 +4.05852E-01 -6.55361E-01 -1.75175E-01 -3.70769E-01 -6.86320E-01
 +1.63768E-01 -9.69934E-01 +8.02096E-01 -9.25944E-01 +1.36598E+00 -5.38009E-01 +1.68941E+00 +1.20705E-01
 +1.66057E+00 +9.03719E-01 +1.25115E+00 +1.62570E+00 +5.25841E-01 +2.10706E+00 -3.70620E-01 +2.21813E+00
 -1.24611E+00 +1.91216E+00 -1.90592E+00 +1.23913E+00 -2.19927E+00 +3.36606E-01 -2.05641E+00 -6.00469E-01
 -1.50733E+00 -1.36449E+00 -6.77221E-01 -1.78392E+00 +2.40699E-01 -1.76471E+00 +1.02913E+00 -1.31438E+00
 +1.49741E+00 -5.42831E-01 +1.52720E+00 +3.61043E-01 +1.10247E+00 +1.17181E+00 +3.16212E-01 +1.67972E+00
 -6.48181E-01 +1.74074E+00 -1.55713E+00 +1.31258E+00 -2.18001E+00 +4.68205E-01 -2.34322E+00 -6.17121E-01
 -1.97269E+00 -1.70276E+00 -1.11479E+00 -2.53591E+00 +6.96979E-02 -2.90928E+00 +1.33799E+00 -2.71010E+00
 +2.41737E+00 -1.94927E+00 +3.06561E+00 -7.63272E-01 +3.12631E+00 +6.12130E-01 +2.56652E+00 +1.89125E+00
 +1.48787E+00 +2.80040E+00 +1.07814E-01 +3.13876E+00 -1.28519E+00 +2.82457E+00 -2.39346E+00 +1.91605E+00
 -2.97522E+00 +6.01778E-01 -2.89891E+00 -8.37911E-01 -2.17414E+00 -2.09059E+00 -9.52336E-01 -2.87964E+00
 +5.04033E-01 -3.02558E+00 +1.87706E+00 -2.48706E+00 +2.86224E+00 -1.37227E+00 +3.23558E+00 +8.24103E-02
 +2.90399E+00 +1.56221E+00 +1.92788E+00 +2.74188E+00 +5.10319E-01 +3.35696E+00 -1.04529E+00 +3.26284E+00
 -2.40023E+00 +2.46847E+00 -3.25425E+00 +1.13688E+00 -3.41212E+00 -4.48031E-01 -2.82820E+00 -1.94170E+00
 -1.61903E+00 -3.01337E+00 -4.06536E-02 -3.41875E+00 +1.56484E+00 -3.05488E+00 +2.84239E+00 -1.98517E+00
 +3.50100E+00 -4.28634E-01 +3.37807E+00 +1.28488E+00 +2.47688E+00 +2.78403E+00 +9.68800E-01 +3.73541E+00
 -8.40703E-01 +3.91586E+00 -2.57538E+00 +3.26202E+00 -3.86747E+00 +1.88626E+00 -4.43606E+00 +5.50847E-02
 -4.14771E+00 -1.86557E+00 -3.04611E+00 -3.48682E+00 -1.34427E+00 -4.47874E+00 +6.19500E-01 -4.64035E+00
 +2.45242E+00 -3.94239E+00 +3.79006E+00 -2.53383E+00 +4.37331E+00 -7.10287E-01 +4.10307E+00 +1.14877E+00
 +3.06087E+00 +2.66094E+00 +1.49081E+00 +3.52243E+00 -2.53318E-01 +3.57285E+00 -1.78454E+00 +2.82925E+00
 -2.76638E+00 +1.48202E+00 -2.98586E+00 -1.46557E-01 -2.39998E+00 -1.67234E+00 -1.14564E+00 -2.73289E+00
 +4.89147E-01 -3.06671E+00 +2.12693E+00 -2.57115E+00 +3.38203E+00 -1.32633E+00 +3.94408E+00 +4.20035E-01
 +3.64599E+00 +2.30386E+00 +2.50172E+00 +3.92122E+00 +7.05764E-01 +4.91384E+00 -1.40578E+00 +5.04541E+00
 -3.42423E+00 +4.25258E+00 -4.95303E+00 +2.65955E+00 -5.68999E+00 +5.53345E-01 -5.48987E+00 -1.67506E+00
 -4.39405E+00 -3.61139E+00 -2.62099E+00 -4.90322E+00 -5.19753E-01 -5.33184E+00 +1.50340E+00 -4.85555E+00
 +3.06986E+00 -3.61553E+00 +3.90679E+00 -1.90322E+00 +3.90207E+00 -9.63737E-02 +3.12458E+00 +1.42234E+00
 +1.80587E+00 +2.34684E+00 +2.87322E-01 +2.51180E+00 -1.05566E+00 +1.92603E+00 -1.89592E+00 +7.68120E-01
 -2.02586E+00 -6.54421E-01 -1.40242E+00 -1.97361E+00 -1.56401E-01 -2.84214E+00 +1.43582E+00 -3.00984E+00
 +3.01182E+00 -2.37911E+00 +4.20117E+00 -1.02764E+00 +4.70529E+00 +8.06392E-01 +4.36200E+00 +2.77334E+00
 +3.18136E+00 +4.48472E+00 +1.34506E+00 +5.59408E+00 -8.30046E-01 +5.86891E+00 -2.95662E+00 +5.23865E+00
 -4.65580E+00 +3.80864E+00 -5.63377E+00 +1.83764E+00 -5.73999E+00 -3.16274E-01 -4.99506E+00 -2.26954E+00
 -3.58268E+00 -3.69111E+00 -1.80809E+00 -4.36809E+00 -3.20390E-02 -4.24560E+00 +1.40539E+00 -3.43271E+00
 +2.25481E+00 -2.17390E+00 +2.40676E+00 -7.92710E-01 +1.91021E+00 +3.80128E-01 +9.56757E-01 +1.07837E+00
 -1.65400E-01 +1.15663E+00 -1.13734E+00 +6.19538E-01 -1.68086E+00 -3.81916E-01 -1.62001E+00 -1.58580E+00
 -9.19726E-01 -2.67817E+00 +3.06365E-01 -3.36276E+00 +1.82034E+00 -3.42627E+00 +3.31092E+00 -2.78540E+00
 +4.45978E+00 -1.50592E+00 +5.00909E+00 +2.10101E-01 +4.81580E+00 +2.06575E+00 +3.88155E+00 +3.73032E+00
 +2.35207E+00 +4.90682E+00 +4.86781E-01 +5.39179E+00 -1.39472E+00 +5.11485E+00 -2.97756E+00 +4.15022E+00
 -4.01416E+00 +2.69823E+00 -4.37151E+00 +1.04139E+00 -4.05346E+00 -5.15277E-01 -3.19419E+00 -1.70676E+00
 -2.02471E+00 -2.36022E+00 -8.20444E-01 -2.42613E+00 +1.58803E-01 -1.98242E+00 +7.23343E-01 -1.21148E+00
 +7.91280E-01 -3.55728E-01 +4.01763E-01 +3.38307E-01 -2.98351E-01 +6.74902E-01 -1.09083E+00 +5.51500E-01
 -1.73700E+00 -2.03662E-02 -2.03199E+00 -9.19538E-01 -1.85045E+00 -1.94352E+00 -1.17425E+00 -2.85397E+00
 -9.63664E-02 -3.42924E+00 +1.19909E+00 -3.51261E+00 +2.47619E+00 -3.04585E+00 +3.49692E+00 -2.08140E+00
 +4.07052E+00 -7.71022E-01 +4.09213E+00 +6.66234E-01 +3.56260E+00 +1.98941E+00 +2.58598E+00 +2.98448E+00
 +1.34573E+00 +3.50627E+00 +6.52342E-02 +3.50484E+00 -1.03854E+00 +3.03134E+00 -1.79825E+00 +2.22263E+00
 -2.12724E+00 +1.26881E+00 -2.03249E+00 +3.71052E-01 -1.60712E+00 -3.00955E-01 -1.00513E+00 -6.42791E-01
 -4.04258E-01 -6.33547E-01 +3.44300E-02 -3.35176E-01 +2.01460E-01 +1.26149E-01 +6.09953E-02 +5.91902E-01
 -3.44281E-01 +9.08853E-01 -9.05859E-01 +9.64070E-01 -1.47625E+00 +7.09710E-01 -1.90361E+00 +1.72533E-01
 -2.06623E+00 -5.53415E-01 -1.89944E+00 -1.32878E+00 -1.40917E+00 -2.00022E+00 -6.69747E-01 -2.43398E+00
 +1.93169E-01 -2.54418E+00 +1.03018E+00 -2.31003E+00 +1.70000E+00 -1.77839E+00 +2.09847E+00 -1.05187E+00
 +2.17855E+00 -2.65388E-01 +1.95725E+00 +4.43141E-01 +1.50861E+00 +9.61434E-01 +9.44843E-01 +1.22460E+00
 +3.90199E-01 +1.22558E+00 -4.63314E-02 +1.01248E+00 -2.93428E-01 +6.74100E-01 -3.30280E-01 +3.17214E-01
 -1.87447E-01 +4.13226E-02 +6.38565E-02 -8.35921E-02 +3.31091E-01 -3.13252E-02 +5.23538E-01 +1.77074E-01
 +5.73824E-01 +4.80904E-01 +4.52981E-01 +7.96242E-01 +1.75850E-01 +1.03704E+00 -2.03991E-01 +1.13582E+00
 -6.08185E-01 +1.05917E+00 -9.52839E-01 +8.14697E-01 -1.16836E+00 +4.48048E-01 -1.21527E+00 +3.11649E-02
 -1.09235E+00 -3.55256E-01 -8.35609E-01 -6.40744E-01 -5.08445E-01 -7.80976E-01 -1.85782E-01 -7.66993E-01
 +6.40355E-02 -6.25739E-01 +1.95144E-01 -4.12056E-01 +1.94174E-01 -1.94278E-01 +8.21578E-02 -3.70461E-02
 -9.19379E-02 +1.44888E-02 -2.64279E-01 -5.46872E-02 -3.72557E-01 -2.26403E-01 -3.71682E-01 -4.54434E-01
 -2.44996E-01 -6.76440E-01 -8.34931E-03 -8.29688E-01 +2.93835E-01 -8.66735E-01 +5.99490E-01 -7.67221E-01
 +8.44099E-01 -5.42973E-01 +9.76422E-01 -2.35210E-01 +9.70954E-01 +9.54404E-02 +8.34068E-01 +3.83650E-01
 +6.02366E-01 +5.75256E-01 +3.33621E-01 +6.40411E-01 +9.24984E-02 +5.80823E-01 -6.55046E-02 +4.29266E-01
 -1.08007E-01 +2.41436E-01 -3.41547E-02 +8.20407E-02 +1.24615E-01 +8.43039E-03 +3.11774E-01 +5.56965E-02
 +4.59262E-01 +2.26879E-01 +5.04278E-01 +4.90742E-01 +4.05341E-01 +7.87837E-01 +1.53756E-01 +1.04358E+00
 -2.22333E-01 +1.18546E+00 -6.62474E-01 +1.16034E+00 -1.08616E+00 +9.47915E-01 -1.41016E+00 +5.66954E-01
