 Created: 16-Jan-2021
 $NMID
 ID='D:\BASISSIMULATI'
 FMTDAT='(8E13.5)'
 VOLUME=   1.00000E+00
 TRAMP=   1.00000E+00
 $END
 +5.05724E+01 +2.51382E-01 +4.60054E+01 +2.08499E+01 +3.34426E+01 +3.77677E+01 +1.50907E+01 +4.80697E+01
 -5.84167E+00 +4.99793E+01 -2.57048E+01 +4.31852E+01 -4.10441E+01 +2.88918E+01 -4.92012E+01 +9.60571E+00
 -4.87744E+01 -1.13039E+01 -3.98596E+01 -3.01935E+01 -2.40295E+01 -4.37806E+01 -4.05687E+00 -4.97135E+01
 +1.65717E+01 -4.69790E+01 +3.42642E+01 -3.60747E+01 +4.59487E+01 -1.89189E+01 +4.96064E+01 +1.48659E+00
 +4.46210E+01 +2.15821E+01 +3.18819E+01 +3.78709E+01 +1.36257E+01 +4.75273E+01 -6.95623E+00 +4.88874E+01
 -2.62758E+01 +4.17353E+01 -4.09735E+01 +2.73371E+01 -4.85029E+01 +8.21704E+00 -4.75716E+01 -1.22852E+01
 -3.83627E+01 -3.05977E+01 -2.25000E+01 -4.35388E+01 -2.76096E+00 -4.88695E+01 +1.74091E+01 -4.56811E+01
 +3.44984E+01 -3.45499E+01 +4.55405E+01 -1.74332E+01 +4.86285E+01 +2.67466E+00 +4.32450E+01 +2.22666E+01
 +3.03482E+01 +3.79338E+01 +1.22018E+01 +4.69594E+01 -8.02286E+00 +4.77890E+01 -2.68004E+01 +4.02989E+01
 -4.08661E+01 +2.58136E+01 -4.77839E+01 +6.87186E+00 -4.63675E+01 -1.32184E+01 -3.68844E+01 -3.09576E+01
 -2.10054E+01 -4.32641E+01 -1.51034E+00 -4.80097E+01 +1.81987E+01 -4.43872E+01 +3.46908E+01 -3.30483E+01
 +4.51036E+01 -1.59858E+01 +4.76400E+01 +3.81621E+00 +4.18783E+01 +2.29043E+01 +2.88422E+01 +3.79580E+01
 +1.08188E+01 +4.63673E+01 -9.04232E+00 +4.66853E+01 -2.72798E+01 +3.88770E+01 -4.07234E+01 +2.43217E+01
 -4.70454E+01 +5.56983E+00 -4.51634E+01 -1.41044E+01 -3.54253E+01 -3.12744E+01 -1.95460E+01 -4.29580E+01
 -3.04536E-01 -4.71355E+01 +1.89416E+01 -4.30986E+01 +3.48427E+01 -3.15705E+01 +4.46395E+01 -1.45765E+01
 +4.66422E+01 +4.91185E+00 +4.05219E+01 +2.34964E+01 +2.73641E+01 +3.79447E+01 +9.47660E+00 +4.57525E+01
 -1.00154E+01 +4.55776E+01 -2.77152E+01 +3.74703E+01 -4.05469E+01 +2.28616E+01 -4.62891E+01 +4.31062E+00
 -4.39604E+01 -1.49441E+01 -3.39862E+01 -3.15495E+01 -1.81217E+01 -4.26220E+01 +8.56949E-01 -4.62484E+01
 +1.96388E+01 -4.18161E+01 +3.49555E+01 -3.01170E+01 +4.41497E+01 -1.32053E+01 +4.56366E+01 +5.96224E+00
 +3.91767E+01 +2.40440E+01 +2.59144E+01 +3.78955E+01 +8.17494E+00 +4.51165E+01 -1.09428E+01 +4.44670E+01
 -2.81080E+01 +3.60796E+01 -4.03379E+01 +2.14336E+01 -4.55163E+01 +3.09386E+00 -4.27596E+01 -1.57383E+01
 -3.25676E+01 -3.17840E+01 -1.67328E+01 -4.22574E+01 +1.97464E+00 -4.53496E+01 +2.02914E+01 -4.05410E+01
 +3.50305E+01 -2.86883E+01 +4.36355E+01 -1.18722E+01 +4.46242E+01 +6.96803E+00 +3.78436E+01 +2.45482E+01
 +2.44934E+01 +3.78116E+01 +6.91359E+00 +4.44607E+01 -1.18254E+01 +4.33547E+01 -2.84591E+01 +3.47056E+01
 -4.00978E+01 +2.00377E+01 -4.47283E+01 +1.91913E+00 -4.15622E+01 -1.64880E+01 -3.11702E+01 -3.19792E+01
 -1.53791E+01 -4.18656E+01 +3.04908E+00 -4.44405E+01 +2.09003E+01 -3.92740E+01 +3.50690E+01 -2.72849E+01
 +4.30984E+01 -1.05770E+01 +4.36064E+01 +7.92991E+00 +3.65235E+01 +2.50102E+01 +2.31014E+01 +3.76946E+01
 +5.69225E+00 +4.37864E+01 -1.26639E+01 +4.22419E+01 -2.87699E+01 +3.33491E+01 -3.98281E+01 +1.86743E+01
 -4.39264E+01 +7.86026E-01 -4.03691E+01 -1.71941E+01 -2.97945E+01 -3.21365E+01 -1.40607E+01 -4.14481E+01
 +4.08083E+00 -4.35223E+01 +2.14666E+01 -3.80162E+01 +3.50724E+01 -2.59072E+01 +4.25398E+01 -9.31953E+00
 +4.25844E+01 +8.84859E+00 +3.52171E+01 +2.54310E+01 +2.17387E+01 +3.75456E+01 +4.51062E+00 +4.30949E+01
 -1.34593E+01 +4.11297E+01 -2.90416E+01 +3.20108E+01 -3.95300E+01 +1.73433E+01 -4.31120E+01 -3.05914E-01
 -3.91813E+01 -1.78576E+01 -2.84411E+01 -3.22571E+01 -1.27776E+01 -4.10062E+01 +5.07049E+00 -4.25962E+01
 +2.19913E+01 -3.67683E+01 +3.50420E+01 -2.45556E+01 +4.19609E+01 -8.09963E+00 +4.15592E+01 +9.72476E+00
 +3.39251E+01 +2.58118E+01 +2.04056E+01 +3.73660E+01 +3.36838E+00 +4.23876E+01 -1.42123E+01 +4.00191E+01
 -2.92752E+01 +3.06912E+01 -3.92050E+01 +1.60449E+01 -4.22862E+01 -1.35716E+00 -3.79998E+01 -1.84794E+01
 -2.71104E+01 -3.23423E+01 -1.15297E+01 -4.05412E+01 +6.01867E+00 -4.16634E+01 +2.24754E+01 -3.55313E+01
 +3.49790E+01 -2.32304E+01 +4.13631E+01 -6.91707E+00 +4.05320E+01 +1.05592E+01 +3.26484E+01 +2.61537E+01
 +1.91021E+01 +3.71571E+01 +2.26516E+00 +4.16657E+01 -1.49238E+01 +3.89111E+01 -2.94721E+01 +2.93909E+01
 -3.88543E+01 +1.47792E+01 -4.14504E+01 -2.36821E+00 -3.68255E+01 -1.90603E+01 -2.58028E+01 -3.23931E+01
 -1.03168E+01 -4.00545E+01 +6.92597E+00 -4.07251E+01 +2.29200E+01 -3.43059E+01 +3.48847E+01 -2.19318E+01
 +4.07477E+01 -5.77162E+00 +3.95038E+01 +1.13526E+01 +3.13875E+01 +2.64579E+01 +1.78285E+01 +3.69202E+01
 +1.20058E+00 +4.09304E+01 -1.55946E+01 +3.78066E+01 -2.96334E+01 +2.81104E+01 -3.84793E+01 +1.35460E+01
 -4.06056E+01 -3.33958E+00 -3.56593E+01 -1.96015E+01 -2.45189E+01 -3.24110E+01 -9.13891E+00 -3.95472E+01
 +7.79305E+00 -3.97823E+01 +2.33261E+01 -3.30928E+01 +3.47603E+01 -2.06602E+01 +4.01158E+01 -4.66299E+00
 +3.84757E+01 +1.21057E+01 +3.01430E+01 +2.67253E+01 +1.65849E+01 +3.66567E+01 +1.74226E-01 +4.01830E+01
 -1.62256E+01 +3.67067E+01 -2.97602E+01 +2.68504E+01 -3.80811E+01 +1.23454E+01 -3.97531E+01 -4.27179E+00
 -3.45019E+01 -2.01038E+01 -2.32588E+01 -3.23970E+01 -7.99581E+00 -3.90207E+01 +8.62056E+00 -3.88362E+01
 +2.36948E+01 -3.18928E+01 +3.46072E+01 -1.94158E+01 +3.94688E+01 -3.59090E+00 +3.74486E+01 +1.28193E+01
 +2.89157E+01 +2.69571E+01 +1.53714E+01 +3.63676E+01 -8.14320E-01 +3.94247E+01 -1.68176E+01 +3.56122E+01
 -2.98537E+01 +2.56111E+01 -3.76610E+01 +1.11774E+01 -3.88938E+01 -5.16541E+00 -3.33541E+01 -2.05682E+01
 -2.20231E+01 -3.23524E+01 -6.88732E+00 -3.84762E+01 +9.40916E+00 -3.78878E+01 +2.40271E+01 -3.07065E+01
 +3.44264E+01 -1.81988E+01 +3.88077E+01 -2.55502E+00 +3.64236E+01 +1.34942E+01 +2.77059E+01 +2.71545E+01
 +1.41879E+01 +3.60542E+01 -1.76551E+00 +3.86564E+01 -1.73716E+01 +3.45240E+01 -2.99151E+01 +2.43930E+01
 -3.72203E+01 +1.00419E+01 -3.80290E+01 -6.02101E+00 -3.22168E+01 -2.09956E+01 -2.08118E+01 -3.22784E+01
 -5.81321E+00 -3.79148E+01 +1.01595E+01 -3.69380E+01 +2.43239E+01 -2.95346E+01 +3.42192E+01 -1.70093E+01
 +3.81338E+01 -1.55501E+00 +3.54014E+01 +1.41311E+01 +2.65143E+01 +2.73184E+01 +1.30347E+01 +3.57178E+01
 -2.67981E+00 +3.78795E+01 -1.78884E+01 +3.34428E+01 -2.99454E+01 +2.31966E+01 -3.67601E+01 +8.93870E+00
 -3.71596E+01 -6.83916E+00 -3.10905E+01 -2.13871E+01 -1.96254E+01 -3.21760E+01 -4.77326E+00 -3.73377E+01
 +1.08724E+01 -3.59878E+01 +2.45864E+01 -2.83777E+01 +3.39868E+01 -1.58475E+01 +3.74482E+01 -5.90504E-01
 +3.43830E+01 +1.47309E+01 +2.53412E+01 +2.74500E+01 +1.19115E+01 +3.53595E+01 -3.55771E+00 +3.70948E+01
 -1.83689E+01 +3.23695E+01 -2.99458E+01 +2.20221E+01 -3.62816E+01 +7.86773E+00 -3.62867E+01 -7.62046E+00
 -2.99761E+01 -2.17434E+01 -1.84640E+01 -3.20465E+01 -3.76719E+00 -3.67461E+01 +1.15484E+01 -3.50382E+01
 +2.48156E+01 -2.72362E+01 +3.37303E+01 -1.47134E+01 +3.67519E+01 +3.38887E-01 +3.33693E+01 +1.52944E+01
 +2.41872E+01 +2.75504E+01 +1.08185E+01 +3.49805E+01 -4.39970E+00 +3.63036E+01 -1.88139E+01 +3.13047E+01
 -2.99174E+01 +2.08699E+01 -3.57859E+01 +6.82883E+00 -3.54111E+01 -8.36554E+00 -2.88740E+01 -2.20657E+01
 -1.73278E+01 -3.18910E+01 -2.79472E+00 -3.61410E+01 +1.21883E+01 -3.40901E+01 +2.50124E+01 -2.61109E+01
 +3.34509E+01 -1.36071E+01 +3.60461E+01 +1.23357E+00 +3.23610E+01 +1.58223E+01 +2.30527E+01 +2.76205E+01
 +9.75546E+00 +3.45818E+01 -5.20632E+00 +3.55067E+01 -1.92244E+01 +3.02493E+01 -2.98613E+01 +1.97403E+01
 -3.52741E+01 +5.82180E+00 -3.45339E+01 -9.07500E+00 -2.77850E+01 -2.23549E+01 -1.62170E+01 -3.17106E+01
 -1.85554E+00 -3.55236E+01 +1.27929E+01 -3.31442E+01 +2.51779E+01 -2.50020E+01 +3.31496E+01 -1.25287E+01
 +3.53317E+01 +2.09396E+00 +3.13588E+01 +1.63154E+01 +2.19379E+01 +2.76615E+01 +8.72240E+00 +3.41647E+01
 -5.97809E+00 +3.47051E+01 -1.96012E+01 +2.92038E+01 -2.97785E+01 +1.86334E+01 -3.47474E+01 +4.84642E+00
 -3.36560E+01 -9.74949E+00 -2.67095E+01 -2.26119E+01 -1.51317E+01 -3.15064E+01 -9.49332E-01 -3.48949E+01
 +1.33627E+01 -3.22015E+01 +2.53131E+01 -2.39102E+01 +3.28277E+01 -1.14781E+01 +3.46098E+01 +2.92051E+00
 +3.03636E+01 +1.67747E+01 +2.08433E+01 +2.76744E+01 +7.71918E+00 +3.37301E+01 -6.71556E+00 +3.38999E+01
 -1.99452E+01 +2.81690E+01 -2.96702E+01 +1.75496E+01 -3.42067E+01 +3.90248E+00 -3.27782E+01 -1.03897E+01
 -2.56482E+01 -2.28376E+01 -1.40721E+01 -3.12794E+01 -7.57331E-02 -3.42559E+01 +1.38986E+01 -3.12627E+01
 +2.54189E+01 -2.28357E+01 +3.24861E+01 -1.04554E+01 +3.38813E+01 +3.71367E+00 +2.93760E+01 +1.72008E+01
 +1.97692E+01 +2.76602E+01 +6.74565E+00 +3.32792E+01 -7.41928E+00 +3.30918E+01 -2.02573E+01 +2.71453E+01
 -2.95374E+01 +1.64891E+01 -3.36532E+01 +2.98970E+00 -3.19013E+01 -1.09962E+01 -2.46015E+01 -2.30330E+01
 -1.30380E+01 -3.10308E+01 +7.65617E-01 -3.36076E+01 +1.44014E+01 -3.03286E+01 +2.54963E+01 -2.17791E+01
 +3.21258E+01 -9.46041E+00 +3.31472E+01 +4.47392E+00 +2.83968E+01 +1.75946E+01 +1.87158E+01 +2.76200E+01
 +5.80166E+00 +3.28130E+01 -8.08984E+00 +3.22818E+01 -2.05384E+01 +2.61334E+01 -2.93811E+01 +1.54519E+01
 -3.30878E+01 +2.10783E+00 -3.10262E+01 -1.15696E+01 -2.35698E+01 -2.31991E+01 -1.20297E+01 -3.07615E+01
 +1.57510E+00 -3.29510E+01 +1.48717E+01 -2.93998E+01 +2.55464E+01 -2.07406E+01 +3.17481E+01 -8.49317E+00
 +3.24084E+01 +5.20173E+00 +2.74264E+01 +1.79569E+01 +1.76834E+01 +2.75547E+01 +4.88702E+00 +3.23325E+01
 -8.72781E+00 +3.14708E+01 -2.07894E+01 +2.51338E+01 -2.92023E+01 +1.44383E+01 -3.25115E+01 +1.25655E+00
 -3.01537E+01 -1.21108E+01 -2.25536E+01 -2.33367E+01 -1.10472E+01 -3.04727E+01 +2.35313E+00 -3.22870E+01
 +1.53103E+01 -2.84772E+01 +2.55701E+01 -1.97206E+01 +3.13538E+01 -7.55355E+00 +3.16658E+01 +5.89762E+00
 +2.64656E+01 +1.82885E+01 +1.66722E+01 +2.74653E+01 +4.00151E+00 +3.18386E+01 -9.33379E+00 +3.06595E+01
 -2.10111E+01 +2.41471E+01 -2.90021E+01 +1.34482E+01 -3.19252E+01 +4.35560E-01 -2.92845E+01 -1.26203E+01
 -2.15534E+01 -2.34467E+01 -1.00904E+01 -3.01652E+01 +3.10010E+00 -3.16165E+01 +1.57179E+01 -2.75613E+01
 +2.55683E+01 -1.87193E+01 +3.09439E+01 -6.64143E+00 +3.09202E+01 +6.56210E+00 +2.55149E+01 +1.85903E+01
