 Created: 16-Jan-2021
 $NMID
 ID='D:\BASISSIMULATI'
 FMTDAT='(8E13.5)'
 VOLUME=   1.00000E+00
 TRAMP=   1.00000E+00
 $END
 +3.18755E+01 +1.58659E-01 +2.91339E+01 +1.32800E+01 +2.11975E+01 +2.41494E+01 +9.45065E+00 +3.08040E+01
 -4.02571E+00 +3.20303E+01 -1.68291E+01 +2.75886E+01 -2.66714E+01 +1.82604E+01 -3.17952E+01 +5.70800E+00
 -3.12928E+01 -7.82657E+00 -2.52698E+01 -1.99294E+01 -1.48234E+01 -2.84528E+01 -1.83901E+00 -3.19029E+01
 +1.13559E+01 -2.97064E+01 +2.24161E+01 -2.23068E+01 +2.94026E+01 -1.10753E+01 +3.11286E+01 +1.94717E+00
 +2.73644E+01 +1.44270E+01 +1.88654E+01 +2.41628E+01 +7.22028E+00 +2.94805E+01 -5.44980E+00 +2.95260E+01
 -1.68835E+01 +2.44034E+01 -2.50894E+01 +1.51367E+01 -2.86987E+01 +3.46450E+00 -2.71967E+01 -8.48968E+00
 -2.09932E+01 -1.86097E+01 -1.13235E+01 -2.51670E+01 -2.35680E-03 -2.71207E+01 +1.09206E+01 -2.42829E+01
 +1.95372E+01 -1.73251E+01 +2.44186E+01 -7.62713E+00 +2.48552E+01 +2.99614E+00 +2.09566E+01 +1.26384E+01
 +1.35987E+01 +1.96482E+01 +4.23382E+00 +2.29157E+01 -5.39591E+00 +2.20481E+01 -1.35861E+01 +1.74072E+01
 -1.89751E+01 +1.00082E+01 -2.07724E+01 +1.30297E+00 -1.88709E+01 -7.10452E+00 -1.38286E+01 -1.37564E+01
 -6.73002E+00 -1.75962E+01 +1.04229E+00 -1.81358E+01 +8.07647E+00 -1.55089E+01 +1.31898E+01 -1.04061E+01
 +1.56286E+01 -3.91167E+00 +1.51750E+01 +2.72159E+00 +1.21481E+01 +8.31403E+00 +7.30431E+00 +1.19697E+01
 +1.66365E+00 +1.32186E+01 -3.70041E+00 +1.20686E+01 -7.86457E+00 +8.96279E+00 -1.02143E+01 +4.65805E+00
 -1.05307E+01 +5.41710E-02 -8.99297E+00 -3.98982E+00 -6.10509E+00 -6.81490E+00 -2.56472E+00 -8.06758E+00
 +8.92810E-01 -7.73523E+00 +3.64296E+00 -6.11021E+00 +5.28318E+00 -3.69609E+00 +5.68738E+00 -1.08047E+00
 +4.99739E+00 +1.19636E+00 +3.55884E+00 +2.74890E+00 +1.82006E+00 +3.40910E+00 +2.19217E-01 +3.23478E+00
 -9.14464E-01 +2.46638E+00 -1.42436E+00 +1.44619E+00 -1.34328E+00 +5.21406E-01 -8.62998E-01 -4.53801E-02
 -2.66822E-01 -1.37432E-01 +1.56468E-01 +1.95984E-01 +1.95410E-01 +7.63522E-01 -2.24788E-01 +1.29210E+00
 -1.02041E+00 +1.50766E+00 -1.96972E+00 +1.21597E+00 -2.77038E+00 +3.63155E-01 -3.11975E+00 -9.39062E-01
 -2.79839E+00 -2.43021E+00 -1.73655E+00 -3.75686E+00 -4.67617E-02 -4.55495E+00 +1.98637E+00 -4.53979E+00
 +3.95841E+00 -3.58280E+00 +5.42912E+00 -1.75658E+00 +6.02025E+00 +6.63664E-01 +5.50563E+00 +3.24443E+00
 +3.87307E+00 +5.47625E+00 +1.34313E+00 +6.87770E+00 -1.66113E+00 +7.09922E+00 -4.58914E+00 +6.00469E+00
 -6.86833E+00 +3.71232E+00 -8.01927E+00 +5.84884E-01 -7.75687E+00 -2.83066E+00 -6.05626E+00 -5.90342E+00
 -3.16886E+00 -8.03945E+00 +4.16071E-01 -8.79951E+00 +4.05817E+00 -7.98984E+00 +7.08489E+00 -5.70732E+00
 +8.91967E+00 -2.32904E+00 +9.19437E+00 +1.55275E+00 +7.82368E+00 +5.23855E+00 +5.02648E+00 +8.05185E+00
 +1.28928E+00 +9.46682E+00 -2.72153E+00 +9.20882E+00 -6.28247E+00 +7.30820E+00 -8.74721E+00 +4.09684E+00
 -9.66689E+00 +1.47947E-01 -8.87357E+00 -3.82943E+00 -6.51119E+00 -7.12129E+00 -3.00827E+00 -9.14010E+00
 +1.00215E+00 -9.53198E+00 +4.79987E+00 -8.23991E+00 +7.70994E+00 -5.51142E+00 +9.22522E+00 -1.84996E+00
 +9.09645E+00 +2.08009E+00 +7.37353E+00 +5.57657E+00 +4.39135E+00 +8.02753E+00 +7.03669E-01 +9.02024E+00
 -3.02157E+00 +8.41157E+00 -6.12531E+00 +6.34765E+00 -8.07592E+00 +3.23040E+00 -8.56144E+00 -3.61541E-01
 -7.53940E+00 -3.78167E+00 -5.23642E+00 -6.43365E+00 -2.09913E+00 -7.87650E+00 +1.29297E+00 -7.89837E+00
 +4.33570E+00 -6.54640E+00 +6.50885E+00 -4.10895E+00 +7.46572E+00 -1.05508E+00 +7.08803E+00 +2.05602E+00
 +5.49760E+00 +4.67809E+00 +3.02465E+00 +6.37429E+00 +1.40104E-01 +6.88987E+00 -2.63412E+00 +6.18913E+00
 -4.81985E+00 +4.45158E+00 -6.06503E+00 +2.02999E+00 -6.19978E+00 -6.20373E-01 -5.25713E+00 -3.02714E+00
 -3.45684E+00 -4.78490E+00 -1.15693E+00 -5.62301E+00 +1.21665E+00 -5.44589E+00 +3.24848E+00 -4.34022E+00
 +4.60585E+00 -2.54957E+00 +5.09232E+00 -4.22856E-01 +4.67416E+00 +1.65274E+00 +3.47668E+00 +3.32158E+00
 +1.75291E+00 +4.31970E+00 -1.68160E-01 +4.51519E+00 -1.94341E+00 +3.92307E+00 -3.27598E+00 +2.69352E+00
 -3.96384E+00 +1.07748E+00 -3.92871E+00 -6.23151E-01 -3.22174E+00 -2.11089E+00 -2.00635E+00 -3.14364E+00
 -5.22933E-01 -3.57279E+00 +9.57441E-01 -3.36266E+00 +2.18144E+00 -2.58934E+00 +2.95566E+00 -1.42035E+00
 +3.17574E+00 -8.01987E-02 +2.83838E+00 +1.19160E+00 +2.03536E+00 +2.18217E+00 +9.31920E-01 +2.73966E+00
 -2.65879E-01 +2.79504E+00 -1.34849E+00 +2.36857E+00 -2.13840E+00 +1.56082E+00 -2.51796E+00 +5.30877E-01
 -2.44552E+00 -5.33857E-01 -1.95796E+00 -1.45064E+00 -1.15995E+00 -2.07164E+00 -2.02826E-01 -2.30660E+00
 +7.43171E-01 -2.13472E+00 +1.51809E+00 -1.60450E+00 +1.99827E+00 -8.22206E-01 +2.11505E+00 +6.84923E-02
 +1.86365E+00 +9.11970E-01 +1.30110E+00 +1.56689E+00 +5.34420E-01 +1.92894E+00 -2.99071E-01 +1.94667E+00
 -1.05544E+00 +1.62811E+00 -1.60819E+00 +1.03746E+00 -1.86864E+00 +2.82831E-01 -1.79961E+00 -5.02892E-01
 -1.42031E+00 -1.18472E+00 -8.01957E-01 -1.64803E+00 -5.48526E-02 -1.81733E+00 +6.90662E-01 -1.66819E+00
 +1.30636E+00 -1.23063E+00 +1.68766E+00 -5.83446E-01 +1.77104E+00 +1.59564E-01 +1.54449E+00 +8.69119E-01
 +1.04927E+00 +1.42250E+00 +3.72659E-01 +1.72442E+00 -3.67065E-01 +1.72328E+00 -1.04093E+00 +1.41999E+00
 -1.53147E+00 +8.67790E-01 -1.75301E+00 +1.63201E-01 -1.66663E+00 -5.70619E-01 -1.28701E+00 -1.20516E+00
 -6.80138E-01 -1.62893E+00 +4.80131E-02 -1.76698E+00 +7.69814E-01 -1.59420E+00 +1.35826E+00 -1.13996E+00
 +1.70928E+00 -4.83270E-01 +1.76017E+00 +2.60901E-01 +1.50086E+00 +9.61683E-01 +9.75953E-01 +1.49532E+00
 +2.77116E-01 +1.76705E+00 -4.72918E-01 +1.72801E+00 -1.14192E+00 +1.38406E+00 -1.61154E+00 +7.94970E-01
 -1.79828E+00 +6.40060E-02 -1.66841E+00 -6.80189E-01 -1.24404E+00 -1.30630E+00 -5.99353E-01 -1.70359E+00
 +1.52403E-01 -1.80145E+00 +8.78894E-01 -1.58203E+00 +1.45202E+00 -1.08338E+00 +1.77052E+00 -3.92799E-01
 +1.77782E+00 +3.68486E-01 +1.47198E+00 +1.06665E+00 +9.06106E-01 +1.57875E+00 +1.79003E-01 +1.81432E+00
 -5.82067E-01 +1.73118E+00 -1.24361E+00 +1.34286E+00 -1.68917E+00 +7.16279E-01 -1.83962E+00 -3.98086E-02
 -1.66698E+00 -7.93619E-01 -1.19939E+00 -1.41311E+00 -5.16467E-01 -1.78883E+00 +2.64175E-01 -1.85287E+00
 +1.00698E+00 -1.59085E+00 +1.58159E+00 -1.04478E+00 +1.88529E+00 -3.06338E-01 +1.86085E+00 +4.98253E-01
 +1.50694E+00 +1.22941E+00 +8.79193E-01 +1.75783E+00 +8.16433E-02 +1.98671E+00 -7.50022E-01 +1.86895E+00
 -1.47093E+00 +1.41624E+00 -1.95149E+00 +6.98563E-01 -2.09997E+00 -1.66151E-01 -1.87927E+00 -1.03072E+00
 -1.31513E+00 -1.74289E+00 -4.93999E-01 -2.17126E+00 +4.49465E-01 -2.22868E+00 +1.35352E+00 -1.88906E+00
 +2.05607E+00 -1.19466E+00 +2.42269E+00 -2.52007E-01 +2.37140E+00 +7.83410E-01 +1.88967E+00 +1.73165E+00
 +1.04048E+00 +2.41846E+00 -4.44705E-02 +2.70622E+00 -1.18392E+00 +2.52034E+00 -2.17605E+00 +1.86630E+00
 -2.83308E+00 +8.33722E-01 -3.01563E+00 -4.14271E-01 -2.66081E+00 -1.66539E+00 -1.79858E+00 -2.69303E+00
 -5.52603E-01 -3.29611E+00 +8.75668E-01 -3.33715E+00 +2.23820E+00 -2.77153E+00 +3.28217E+00 -1.66201E+00
 +3.79571E+00 -1.74772E-01 +3.64944E+00 +1.44373E+00 +2.82583E+00 +2.90629E+00 +1.43022E+00 +3.93473E+00
 -3.20007E-01 +4.31163E+00 -2.12772E+00 +3.92451E+00 -3.66528E+00 +2.79370E+00 -4.63286E+00 +1.07765E+00
 -4.81571E+00 -9.47030E-01 -4.12948E+00 -2.92878E+00 -2.64442E+00 -4.50116E+00 -5.82486E-01 -5.34967E+00
 +1.71403E+00 -5.27334E+00 +3.83823E+00 -4.22909E+00 +5.38994E+00 -2.34962E+00 +6.05030E+00 +7.03726E-02
 +5.64572E+00 +2.61903E+00 +4.18870E+00 +4.83668E+00 +1.88637E+00 +6.29820E+00 -8.86788E-01 +6.69378E+00
 -3.64889E+00 +5.89273E+00 -5.89401E+00 +3.97757E+00 -7.18453E+00 +1.24014E+00 -7.23572E+00 -1.86139E+00
 -5.97625E+00 -4.77872E+00 -3.57206E+00 -6.97034E+00 -4.07269E-01 -8.00189E+00 +2.97638E+00 -7.63155E+00
 +5.97226E+00 -5.86357E+00 +8.01790E+00 -2.95859E+00 +8.70063E+00 +6.03212E-01 +7.84002E+00 +4.20129E+00
 +5.53073E+00 +7.18328E+00 +2.13602E+00 +8.98384E+00 -1.76869E+00 +9.23205E+00 -5.49373E+00 +7.82688E+00
 -8.35784E+00 +4.96547E+00 -9.81356E+00 +1.11727E+00 -9.55223E+00 -3.05304E+00 -7.56826E+00 -6.80122E+00
 -4.16948E+00 -9.43753E+00 +7.00782E-02 -1.04547E+01 +4.40780E+00 -9.62578E+00 +8.06394E+00 -7.05358E+00
 +1.03633E+01 -3.15979E+00 +1.08610E+01 +1.38422E+00 +9.42942E+00 +5.77448E+00 +6.28772E+00 +9.21836E+00
 +1.96910E+00 +1.10795E+01 -2.77079E+00 +1.09968E+01 -7.08776E+00 +8.95478E+00 -1.02015E+01 +5.29213E+00
 -1.15387E+01 +6.44856E-01 -1.08399E+01 -4.16560E+00 -8.21040E+00 -8.27968E+00 -4.10477E+00 -1.09556E+01
 +7.52871E-01 -1.17053E+01 +5.49848E+00 -1.03849E+01 +9.28424E+00 -7.22251E+00 +1.14326E+01 -2.77868E+00
 +1.15595E+01 +2.15471E+00 +9.64457E+00 +6.69780E+00 +6.03448E+00 +1.00424E+01 +1.37932E+00 +1.15982E+01
 -3.48630E+00 +1.10993E+01 -7.69553E+00 +8.65026E+00 -1.05065E+01 +4.70485E+00 -1.14355E+01 -1.92772E-02
 -1.03423E+01 -4.67326E+00 -7.45084E+00 -8.43229E+00 -3.30412E+00 -1.06447E+01 +1.33932E+00 -1.09470E+01
 +5.64644E+00 -9.32527E+00 +8.86198E+00 -6.11016E+00 +1.04436E+01 -1.91033E+00 +1.01554E+01 +2.50451E+00
 +8.10245E+00 +6.34706E+00 +4.70321E+00 +8.95565E+00 +6.03950E-01 +9.91054E+00 -3.44544E+00 +9.10257E+00
 -6.73120E+00 +6.74250E+00 -8.70409E+00 +3.31131E+00 -9.07306E+00 -5.37644E-01 -7.84785E+00 -4.10465E+00
 -5.32418E+00 -6.77323E+00 -2.01676E+00 -8.11902E+00 +1.44552E+00 -7.97813E+00 +4.44076E+00 -6.46392E+00
 +6.46802E+00 -3.93123E+00 +7.23280E+00 -8.97231E-01 +6.68911E+00 +2.06400E+00 +5.03237E+00 +4.43161E+00
 +2.64686E+00 +5.83156E+00 +2.05333E-02 +6.09644E+00 -2.35454E+00 +5.28178E+00 -4.07586E+00 +3.63833E+00
 -4.90010E+00 +1.54821E+00 -4.77649E+00 -5.59882E-01 -3.83948E+00 -2.29835E+00 -2.36498E+00 -3.39324E+00
 -7.01408E-01 -3.72791E+00 +8.08402E-01 -3.35075E+00 +1.89754E+00 -2.44774E+00 +2.42318E+00 -1.28825E+00
 +2.38374E+00 -1.57369E-01 +1.90330E+00 +7.09445E-01 +1.18893E+00 +1.17500E+00 +4.72096E-01 +1.22234E+00
 -5.12968E-02 +9.46468E-01 -2.68282E-01 +5.19278E-01 -1.72737E-01 +1.37170E-01 +1.39112E-01 -3.53344E-02
 +4.99809E-01 +8.79122E-02 +7.20364E-01 +4.89498E-01 +6.46058E-01 +1.05084E+00 +2.04417E-01 +1.58184E+00
