 Created: 16-Jan-2021
 $NMID
 ID='D:\BASISSIMULATI'
 FMTDAT='(8E13.5)'
 VOLUME=   1.00000E+00
 TRAMP=   1.00000E+00
 $END
 +3.75834E+01 +1.07634E-01 +2.44273E+01 +2.40892E+01 -1.16818E+00 +2.59513E+01 -1.39817E+01 +6.69601E+00
 -2.89424E+00 -1.13413E+01 +1.78740E+01 -7.97141E+00 +2.39356E+01 +1.38126E+01 +6.38693E+00 +3.10755E+01
 -1.87792E+01 +2.49516E+01 -2.72039E+01 +3.70815E-01 -1.13468E+01 -1.89693E+01 +1.18481E+01 -1.50453E+01
 +1.86498E+01 +6.09160E+00 +3.07788E+00 +2.09796E+01 -1.72063E+01 +1.33704E+01 -1.96180E+01 -8.87537E+00
 -3.60325E-01 -2.21056E+01 +2.15348E+01 -1.16029E+01 +2.39175E+01 +1.30564E+01 +4.38851E+00 +2.78951E+01
 -1.74018E+01 +1.92594E+01 -2.02489E+01 -2.34921E+00 -3.26048E+00 -1.35645E+01 +1.35756E+01 -2.63867E+00
 +1.05185E+01 +1.83910E+01 -1.12108E+01 +2.63779E+01 -3.06312E+01 +1.12394E+01 -2.87174E+01 -1.35403E+01
 -7.96887E+00 -2.48660E+01 +1.04192E+01 -1.37955E+01 +8.64762E+00 +5.57578E+00 -9.39401E+00 +1.11554E+01
 -2.25432E+01 -4.00797E+00 -1.46822E+01 -2.45619E+01 +8.36217E+00 -2.89447E+01 +2.48241E+01 -1.18425E+01
 +1.94932E+01 +1.03284E+01 -7.43574E-01 +1.64428E+01 -1.43278E+01 +2.36054E+00 -7.49358E+00 -1.51984E+01
 +1.16497E+01 -1.64011E+01 +2.19008E+01 +9.60538E-01 +1.12573E+01 +1.92670E+01 -1.05366E+01 +1.94962E+01
 -2.21003E+01 +9.76801E-01 -1.24914E+01 -1.80052E+01 +7.72063E+00 -1.91740E+01 +1.77048E+01 -2.96896E+00
 +8.03181E+00 +1.23449E+01 -9.79179E+00 +9.98493E+00 -1.56292E+01 -7.84923E+00 -1.84353E+00 -2.23895E+01
 +1.87450E+01 -1.78969E+01 +2.61694E+01 +2.04602E+00 +1.38791E+01 +1.83686E+01 -4.78762E+00 +1.62620E+01
 -1.07203E+01 +2.30755E-01 +1.13750E+00 -1.10372E+01 +1.68312E+01 -4.38207E+00 +1.82248E+01 +1.41388E+01
 +1.99310E+00 +2.56765E+01 -1.69404E+01 +1.82177E+01 -2.08793E+01 -1.06027E+00 -7.49951E+00 -1.33813E+01
 +8.11083E+00 -7.78622E+00 +9.37552E+00 +7.85076E+00 -4.61403E+00 +1.54432E+01 -1.84593E+01 +5.72340E+00
 -1.67313E+01 -1.21637E+01 -6.94603E-02 -2.02873E+01 +1.55473E+01 -1.05430E+01 +1.53593E+01 +7.11513E+00
 +8.78125E-01 +1.51646E+01 -1.20709E+01 +6.59589E+00 -9.99801E+00 -8.19579E+00 +4.35649E+00 -1.26165E+01
 +1.51818E+01 -1.27768E+00 +1.02477E+01 +1.44973E+01 -6.39182E+00 +1.85573E+01 -1.87032E+01 +6.63465E+00
 -1.52587E+01 -9.44742E+00 -7.84404E-01 -1.41877E+01 +9.13405E+00 -4.33618E+00 +4.39658E+00 +8.14589E+00
 -9.29356E+00 +8.88295E+00 -1.66671E+01 -3.88316E+00 -8.91941E+00 -1.75935E+01 +7.20399E+00 -1.85094E+01
 +1.65117E+01 -5.85298E+00 +1.10276E+01 +7.64251E+00 -2.09298E+00 +9.06437E+00 -8.37286E+00 -1.48918E+00
 -1.15338E+00 -1.14366E+01 +1.17004E+01 -9.10327E+00 +1.62565E+01 +4.12204E+00 +7.08115E+00 +1.53774E+01
 -7.23764E+00 +1.37344E+01 -1.31069E+01 +1.35470E+00 -5.88345E+00 -9.03621E+00 +5.70013E+00 -7.43869E+00
 +8.95217E+00 +3.29738E+00 +4.42398E-01 +1.08464E+01 -1.06798E+01 +6.45991E+00 -1.24388E+01 -5.99018E+00
 -2.49007E+00 -1.41973E+01 +9.61359E+00 -1.02044E+01 +1.24250E+01 +1.57684E+00 +4.28134E+00 +9.22699E+00
 -5.37847E+00 +5.71953E+00 -6.11407E+00 -4.08604E+00 +2.70563E+00 -8.88417E+00 +1.15172E+01 -2.84283E+00
 +1.07022E+01 +8.44433E+00 +5.26488E-01 +1.39289E+01 -9.33204E+00 +8.52938E+00 -9.88039E+00 -1.87830E+00
 -1.88869E+00 -6.82531E+00 +5.32247E+00 -2.08488E+00 +3.80283E+00 +6.27515E+00 -4.86666E+00 +8.55220E+00
 -1.14922E+01 +1.58696E+00 -8.96289E+00 -8.10874E+00 +4.82629E-01 -1.12551E+01 +7.79170E+00 -5.32839E+00
 +6.50239E+00 +3.13832E+00 -8.49837E-01 +5.57209E+00 -5.76332E+00 +1.69187E-01 -2.77232E+00 -6.58534E+00
 +5.03062E+00 -6.95740E+00 +9.47407E+00 -1.61727E-02 +5.87504E+00 +7.59109E+00 -2.27608E+00 +8.65287E+00
 -7.15013E+00 +2.71378E+00 -4.66519E+00 -3.78694E+00 +1.60983E+00 -4.38835E+00 +4.52598E+00 +8.35039E-01
 +8.74503E-01 +5.70860E+00 -5.48596E+00 +4.61188E+00 -7.88419E+00 -1.74011E+00 -3.77893E+00 -7.25410E+00
 +2.82480E+00 -6.85593E+00 +5.72500E+00 -1.54148E+00 +2.86434E+00 +2.98874E+00 -1.88996E+00 +2.37669E+00
 -3.08036E+00 -2.07417E+00 +6.54213E-01 -5.10109E+00 +5.40684E+00 -3.11964E+00 +6.27265E+00 +2.17563E+00
 +2.38989E+00 +5.79020E+00 -2.41762E+00 +4.63542E+00 -3.76806E+00 +4.75395E-01 -1.11960E+00 -2.21782E+00
 +2.03011E+00 -9.71472E-01 +2.03556E+00 +2.37045E+00 -1.16582E+00 +3.88465E+00 -4.25229E+00 +1.73977E+00
 -4.13355E+00 -2.07963E+00 -1.04484E+00 -4.04320E+00 +1.96405E+00 -2.70729E+00 +2.30847E+00 +7.51914E-02
 +3.53197E-01 +1.35707E+00 -1.31962E+00 +1.52509E-01 -7.81701E-01 -1.82178E+00 +1.36284E+00 -2.21251E+00
 +2.87597E+00 -4.94961E-01 +2.32322E+00 +1.70200E+00 +3.95534E-01 +2.47313E+00 -1.07128E+00 +1.52980E+00
 -1.06270E+00 +1.96821E-01 -1.99343E-01 -1.92132E-01 +2.35837E-01 +3.93356E-01 -2.55372E-01 +9.50658E-01
 -1.05183E+00 +7.18795E-01 -1.32171E+00 -8.08062E-02 -9.43037E-01 -7.19853E-01 -4.22030E-01 -8.69278E-01
 -1.24478E-01 -8.07452E-01 +1.06325E-01 -8.29907E-01 +5.18261E-01 -7.73384E-01 +9.03195E-01 -3.20977E-01
 +7.74727E-01 +3.62485E-01 +1.01909E-01 +6.26061E-01 -4.16406E-01 +1.21264E-01 -7.74140E-02 -5.81102E-01
 +8.61142E-01 -4.78117E-01 +1.23987E+00 +6.50199E-01 +2.57014E-01 +1.72870E+00 -1.41475E+00 +1.40146E+00
 -2.08770E+00 -3.70153E-01 -8.47338E-01 -1.97103E+00 +1.23779E+00 -1.69637E+00 +2.01613E+00 +3.13352E-01
 +5.40144E-01 +1.96968E+00 -1.70443E+00 +1.34813E+00 -2.17859E+00 -1.11058E+00 -3.58822E-02 -2.80669E+00
 +2.71281E+00 -1.64917E+00 +3.10769E+00 +1.53955E+00 +4.17055E-01 +3.60430E+00 -2.82648E+00 +2.28326E+00
 -3.28715E+00 -1.24016E+00 -3.87884E-01 -3.33823E+00 +2.85040E+00 -1.69885E+00 +2.83700E+00 +2.05449E+00
 -7.03911E-01 +3.84198E+00 -4.17364E+00 +1.40166E+00 -3.72114E+00 -3.09804E+00 +5.96198E-01 -5.07073E+00
 +4.59410E+00 -2.28378E+00 +4.18289E+00 +2.59648E+00 -2.53460E-01 +4.57783E+00 -4.03657E+00 +1.56528E+00
 -3.00180E+00 -3.24241E+00 +1.98409E+00 -4.52293E+00 +5.67507E+00 -4.60211E-01 +3.84491E+00 +5.08909E+00
 -2.11622E+00 +6.40246E+00 -6.37906E+00 +1.89493E+00 -4.65078E+00 -4.00085E+00 +1.21373E+00 -5.28325E+00
 +4.95284E+00 -6.93492E-01 +2.41040E+00 +4.76756E+00 -3.92937E+00 +4.94211E+00 -7.30894E+00 -9.30080E-01
 -3.72907E+00 -7.13848E+00 +3.65899E+00 -7.27978E+00 +7.58358E+00 -1.01002E+00 +4.17015E+00 +5.37175E+00
 -2.87333E+00 +5.35723E+00 -5.96562E+00 -9.01174E-01 -1.59078E+00 -6.56255E+00 +5.81941E+00 -5.17385E+00
 +8.31891E+00 +2.42358E+00 +2.77080E+00 +8.69457E+00 -5.63875E+00 +7.13125E+00 -8.57594E+00 -8.55238E-01
 -3.21789E+00 -7.19321E+00 +4.65938E+00 -5.47174E+00 +6.58872E+00 +2.27115E+00 +3.19319E-01 +7.51500E+00
 -7.61574E+00 +4.14068E+00 -8.56491E+00 -4.97503E+00 -8.64186E-01 -1.06934E+01 +8.17360E+00 -7.04469E+00
 +9.67796E+00 +2.42271E+00 +2.46386E+00 +8.15106E+00 -5.60172E+00 +4.48307E+00 -5.73612E+00 -4.32487E+00
 +2.48126E+00 -8.41741E+00 +1.04519E+01 -2.66950E+00 +9.41675E+00 +7.72859E+00 -2.89740E-01 +1.24338E+01
 -9.33613E+00 +6.66855E+00 -8.94838E+00 -3.66719E+00 -7.16488E-02 -7.98859E+00 +7.50558E+00 -2.04512E+00
 +5.33937E+00 +7.52805E+00 -4.71256E+00 +1.00413E+01 -1.22198E+01 +1.99412E+00 -8.98629E+00 -9.02089E+00
 +2.25778E+00 -1.20100E+01 +1.04624E+01 -4.00470E+00 +7.63625E+00 +6.71374E+00 -2.79473E+00 +9.12259E+00
 -9.47586E+00 +9.63315E-01 -4.98736E+00 -8.79066E+00 +6.24660E+00 -9.24407E+00 +1.23837E+01 +9.23130E-01
 +6.48198E+00 +1.18204E+01 -6.09576E+00 +1.24603E+01 -1.30473E+01 +2.19966E+00 -7.83905E+00 -8.46976E+00
 +3.45704E+00 -8.76800E+00 +8.44663E+00 +1.09958E+00 +1.40485E+00 +1.00601E+01 -1.05657E+01 +7.71588E+00
 -1.47733E+01 -4.64207E+00 -6.17125E+00 -1.51192E+01 +7.20743E+00 -1.34394E+01 +1.24199E+01 -1.65208E+00
 +5.01058E+00 +7.90907E+00 -6.32684E+00 +5.43269E+00 -8.80517E+00 -6.08507E+00 +1.01544E+00 -1.38827E+01
 +1.34415E+01 -8.77003E+00 +1.56043E+01 +5.09858E+00 +4.89628E+00 +1.43057E+01 -8.14425E+00 +1.00037E+01
 -1.06451E+01 -2.86344E+00 -7.45812E-01 -1.06438E+01 +1.04537E+01 -5.19232E+00 +1.04887E+01 +7.57113E+00
 -1.34291E+00 +1.37719E+01 -1.30547E+01 +6.10686E+00 -1.23478E+01 -8.34075E+00 +5.27038E-01 -1.52539E+01
 +1.28708E+01 -7.87419E+00 +1.26211E+01 +5.95346E+00 +8.60791E-01 +1.19119E+01 -9.32335E+00 +4.14066E+00
 -6.54276E+00 -8.59136E+00 +6.86560E+00 -1.19972E+01 +1.70884E+01 -1.26061E+00 +1.31370E+01 +1.37303E+01
 -1.64664E+00 +1.84669E+01 -1.29258E+01 +8.81665E+00 -1.01782E+01 -4.68805E+00 +2.40320E+00 -7.81733E+00
 +1.03224E+01 +2.49028E+00 +3.98896E+00 +1.48719E+01 -1.11075E+01 +1.53745E+01 -1.99333E+01 +2.11090E+00
 -1.34894E+01 -1.25630E+01 +1.76643E+00 -1.47193E+01 +1.05319E+01 -3.25273E+00 +4.50281E+00 +9.00585E+00
 -9.03238E+00 +8.68505E+00 -1.48470E+01 -4.13498E+00 -5.76370E+00 -1.59428E+01 +9.68652E+00 -1.38815E+01
 +1.59866E+01 +7.36025E-01 +6.72960E+00 +1.36020E+01 -8.66640E+00 +1.21421E+01 -1.46748E+01 -1.49279E+00
 -5.74927E+00 -1.27182E+01 +7.96361E+00 -9.75398E+00 +1.12791E+01 +4.04295E+00 -6.78830E-02 +1.36343E+01
 -1.48027E+01 +8.00181E+00 -1.77093E+01 -8.24251E+00 -5.42116E+00 -1.94731E+01 +1.00378E+01 -1.51538E+01
 +1.36965E+01 -6.91703E-01 +3.14382E+00 +8.27570E+00 -9.04835E+00 +2.23968E+00 -8.53835E+00 -1.22081E+01
 +5.68330E+00 -1.92115E+01 +2.00590E+01 -1.02130E+01 +2.04359E+01 +7.00278E+00 +6.73375E+00 +1.62401E+01
 -6.96799E+00 +9.58826E+00 -7.04225E+00 -4.48003E+00 +5.56681E+00 -1.00458E+01 +1.64225E+01 -4.20699E-01
 +1.27601E+01 +1.48106E+01 -3.05601E+00 +1.97426E+01 -1.58235E+01 +8.75248E+00 -1.31929E+01 -7.53687E+00
 +1.55370E+00 -1.31707E+01 +1.29400E+01 -3.31963E+00 +9.37980E+00 +1.08355E+01 -4.82881E+00 +1.38701E+01
 -1.40839E+01 +2.27335E+00 -7.85929E+00 -1.18356E+01 +8.18295E+00 -1.33157E+01 +1.79373E+01 +1.85052E-01
 +1.14968E+01 +1.56821E+01 -4.61659E+00 +1.82325E+01 -1.42708E+01 +6.32801E+00 -8.48538E+00 -6.69993E+00
 +5.30971E+00 -6.70160E+00 +1.11421E+01 +6.46088E+00 +1.27851E+00 +1.87211E+01 -1.55669E+01 +1.64510E+01
 -2.31502E+01 +6.90648E-01 -1.44645E+01 -1.38445E+01 +1.07973E+00 -1.39397E+01 +7.50794E+00 -1.45227E+00
 -1.11107E+00 +8.81896E+00 -1.45859E+01 +4.70560E+00 -1.73501E+01 -1.05532E+01 -4.81418E+00 -2.16270E+01
 +1.17113E+01 -1.70335E+01 +1.66386E+01 -1.10163E+00 +6.16913E+00 +1.04758E+01 -7.89450E+00 +6.85090E+00
