 Created: 16-Jan-2021
 $NMID
 ID='D:\BASISSIMULATI'
 FMTDAT='(8E13.5)'
 VOLUME=   1.00000E+00
 TRAMP=   1.00000E+00
 $END
 +5.35177E+01 +6.65926E-01 +3.89360E+01 -2.23832E+01 +5.19538E+00 -2.55325E+01 -2.45815E+01 -3.74892E+00
 -3.11796E+01 +2.84971E+01 -1.32240E+01 +4.80603E+01 +1.26066E+01 +4.04965E+01 +2.48793E+01 +1.06833E+01
 +1.37200E+01 -2.11551E+01 -1.22689E+01 -3.45423E+01 -3.32427E+01 -2.32600E+01 -3.33539E+01 +1.39008E+00
 -1.22025E+01 +2.01990E+01 +1.56871E+01 +2.05082E+01 +3.20723E+01 +4.55897E+00 +2.78576E+01 -1.37315E+01
 +8.26179E+00 -2.00259E+01 -1.24884E+01 -9.86014E+00 -2.18764E+01 +9.23857E+00 -1.70151E+01 +2.42194E+01
 -4.77622E+00 +2.58337E+01 +4.58990E+00 +1.40161E+01 +4.81201E+00 -3.55325E+00 -3.12987E+00 -1.73972E+01
 -1.30030E+01 -2.19346E+01 -1.80372E+01 -1.75376E+01 -1.48170E+01 -8.81872E+00 -4.45695E+00 -1.29412E+00
 +8.61310E+00 +1.37707E+00 +1.89133E+01 -1.33437E+00 +2.22021E+01 -6.91997E+00 +1.72910E+01 -1.10320E+01
 +6.86000E+00 -9.63971E+00 -3.46402E+00 -1.54305E+00 -7.96092E+00 +1.01733E+01 -4.37875E+00 +1.92230E+01
 +4.18077E+00 +1.97929E+01 +1.08958E+01 +1.07078E+01 +9.84223E+00 -3.03027E+00 +5.21664E-01 -1.30155E+01
 -1.12300E+01 -1.30434E+01 -1.70761E+01 -3.60176E+00 -1.22372E+01 +8.26497E+00 +7.17684E-01 +1.39169E+01
 +1.33717E+01 +9.38153E+00 +1.73325E+01 -1.75497E+00 +1.01823E+01 -1.10373E+01 -2.90465E+00 -1.14044E+01
 -1.30207E+01 -2.33363E+00 -1.39013E+01 +9.90013E+00 -6.10581E+00 +1.68690E+01 +3.87426E+00 +1.39552E+01
 +8.59691E+00 +3.29957E+00 +4.89946E+00 -8.11519E+00 -4.29353E+00 -1.34878E+01 -1.24725E+01 -1.05820E+01
 -1.41678E+01 -2.61397E+00 -8.36767E+00 +4.47541E+00 +1.30216E+00 +6.08324E+00 +9.25844E+00 +1.60101E+00
 +1.14272E+01 -5.69944E+00 +7.37692E+00 -1.10073E+01 +1.82073E-01 -1.08785E+01 -5.55684E+00 -5.10735E+00
 -6.33327E+00 +3.23923E+00 -1.68839E+00 +9.51767E+00 +5.45861E+00 +1.01082E+01 +1.03945E+01 +4.62897E+00
 +9.45829E+00 -3.55164E+00 +2.59090E+00 -9.11728E+00 -6.17410E+00 -8.15839E+00 -1.10188E+01 -1.02401E+00
 -8.27873E+00 +7.48943E+00 +6.52293E-01 +1.11933E+01 +9.81654E+00 +6.97639E+00 +1.26784E+01 -2.55602E+00
 +6.95248E+00 -1.05487E+01 -3.38753E+00 -1.07791E+01 -1.07561E+01 -2.46791E+00 -9.57339E+00 +8.76132E+00
 -6.57985E-01 +1.48203E+01 +9.13541E+00 +1.12165E+01 +1.20070E+01 +5.97793E-01 +5.24229E+00 -9.11009E+00
 -6.52588E+00 -1.07076E+01 -1.47168E+01 -3.27403E+00 -1.33324E+01 +7.09325E+00 -3.55859E+00 +1.20002E+01
 +7.17210E+00 +7.28548E+00 +1.09348E+01 -3.74612E+00 +5.38009E+00 -1.29041E+01 -4.60696E+00 -1.34496E+01
 -1.08708E+01 -5.21368E+00 -8.37459E+00 +5.44309E+00 +9.99728E-01 +1.06666E+01 +1.00988E+01 +7.10182E+00
 +1.21313E+01 -1.79808E+00 +5.80039E+00 -8.75518E+00 -3.96743E+00 -8.40596E+00 -1.00270E+01 -1.27062E+00
 -8.44740E+00 +6.96472E+00 -1.18350E+00 +1.00197E+01 +5.83026E+00 +5.74330E+00 +7.39240E+00 -2.56253E+00
 +2.81782E+00 -8.93957E+00 -3.93272E+00 -9.27939E+00 -7.54194E+00 -4.07847E+00 -5.31269E+00 +2.39003E+00
 +1.11854E+00 +5.51286E+00 +7.31635E+00 +3.62920E+00 +9.37160E+00 -1.14003E+00 +6.47708E+00 -4.80409E+00
 +1.07993E+00 -4.47677E+00 -3.15609E+00 -2.40622E-01 -3.90097E+00 +5.19410E+00 -1.47474E+00 +8.49593E+00
 +1.72337E+00 +7.85633E+00 +3.02081E+00 +3.91971E+00 +1.21876E+00 -8.75109E-01 -2.75320E+00 -3.91891E+00
 -6.51481E+00 -3.95971E+00 -7.71912E+00 -1.69136E+00 -5.45217E+00 +8.32347E-01 -7.75274E-01 +1.55481E+00
 +3.88140E+00 -2.52564E-01 +6.14016E+00 -3.47468E+00 +5.09470E+00 -5.80580E+00 +1.84951E+00 -5.23473E+00
 -1.21533E+00 -1.45432E+00 -2.04180E+00 +3.75941E+00 -3.15530E-01 +7.54694E+00 +2.29014E+00 +7.76454E+00
 +3.28590E+00 +4.39281E+00 +1.18861E+00 -4.39579E-01 -3.28692E+00 -3.87935E+00 -7.55377E+00 -4.25597E+00
 -8.82412E+00 -2.14412E+00 -5.98743E+00 +1.60039E-01 -3.93297E-01 +3.65409E-01 +5.00006E+00 -2.11517E+00
 +7.51824E+00 -5.68760E+00 +6.41582E+00 -7.64241E+00 +3.19648E+00 -6.01761E+00 +4.56153E-01 -9.91045E-01
 +7.59820E-02 +5.11797E+00 +1.97528E+00 +9.22583E+00 +4.22113E+00 +9.34801E+00 +4.39473E+00 +5.77484E+00
 +1.31759E+00 +8.37433E-01 -3.98413E+00 -2.58146E+00 -8.73533E+00 -2.86287E+00 -1.00689E+01 -6.47193E-01
 -6.88387E+00 +1.65617E+00 -6.99818E-01 +1.58265E+00 +5.14028E+00 -1.54573E+00 +7.52194E+00 -5.92918E+00
 +5.57241E+00 -8.35005E+00 +1.24297E+00 -6.39778E+00 -2.04945E+00 -3.60919E-01 -1.87576E+00 +6.63656E+00
 +1.37962E+00 +1.05329E+01 +4.72007E+00 +9.05537E+00 +4.74647E+00 +3.34385E+00 +3.27312E-01 -2.78683E+00
 -6.28277E+00 -5.51839E+00 -1.08316E+01 -3.72846E+00 -1.00556E+01 +2.89880E-01 -4.08832E+00 +2.66084E+00
 +3.53365E+00 +9.53074E-01 +8.31799E+00 -3.89310E+00 +7.92424E+00 -8.21664E+00 +3.63965E+00 -8.37790E+00
 -8.14388E-01 -3.51134E+00 -2.15953E+00 +3.77658E+00 +8.48803E-02 +9.23863E+00 +3.47750E+00 +9.91959E+00
 +4.70484E+00 +6.02132E+00 +2.13704E+00 +4.55201E-01 -3.01905E+00 -3.38445E+00 -7.67643E+00 -3.87352E+00
 -9.04365E+00 -1.88425E+00 -6.37804E+00 +2.69883E-01 -1.21415E+00 +6.45679E-01 +3.81157E+00 -1.10605E+00
 +6.53292E+00 -3.76014E+00 +6.23002E+00 -5.47054E+00 +3.67179E+00 -4.87627E+00 +5.03951E-01 -1.77426E+00
 -1.58009E+00 +2.78075E+00 -1.60849E+00 +6.85401E+00 +1.44297E-01 +8.40446E+00 +2.15324E+00 +6.32040E+00
 +2.41633E+00 +1.28844E+00 -1.67071E-01 -4.18774E+00 -4.64158E+00 -7.02452E+00 -8.12005E+00 -5.56459E+00
 -7.53737E+00 -9.89715E-01 -2.05673E+00 +3.17170E+00 +5.72268E+00 +3.48655E+00 +1.10585E+01 -6.08047E-01
 +1.03162E+01 -5.94334E+00 +3.86518E+00 -7.71382E+00 -3.79745E+00 -3.24214E+00 -7.17004E+00 +5.47921E+00
 -3.95912E+00 +1.27376E+01 +2.92631E+00 +1.31809E+01 +7.41744E+00 +6.03454E+00 +5.02856E+00 -3.95048E+00
 -3.36162E+00 -9.83892E+00 -1.18290E+01 -7.74898E+00 -1.38153E+01 +9.65617E-02 -7.29151E+00 +7.03286E+00
 +3.43711E+00 +7.16343E+00 +1.08514E+01 +5.61260E-02 +9.92241E+00 -8.83374E+00 +1.93680E+00 -1.24179E+01
 -6.58440E+00 -7.56997E+00 -9.01756E+00 +2.37488E+00 -3.75172E+00 +1.01884E+01 +4.72688E+00 +1.03254E+01
 +9.54010E+00 +3.09098E+00 +6.87152E+00 -5.81410E+00 -1.16136E+00 -9.85880E+00 -8.35805E+00 -6.64530E+00
 -9.35222E+00 +5.86862E-01 -3.62142E+00 +5.86754E+00 +4.44599E+00 +5.27109E+00 +9.19574E+00 -2.60284E-01
 +7.97505E+00 -6.05408E+00 +2.71805E+00 -7.57365E+00 -2.07114E+00 -3.78728E+00 -2.98913E+00 +2.46441E+00
 -7.15165E-02 +7.01074E+00 +3.77538E+00 +7.49356E+00 +5.37097E+00 +4.67304E+00 +3.59470E+00 +1.24767E+00
 -2.29466E-01 -4.51330E-01 -3.76699E+00 +5.74248E-02 -5.43120E+00 +1.63313E+00 -5.09266E+00 +2.79791E+00
 -3.56937E+00 +2.78280E+00 -1.75716E+00 +1.64383E+00 -2.44920E-01 -2.06753E-01 +5.43621E-01 -2.30553E+00
 +2.57972E-01 -4.02683E+00 -1.05563E+00 -4.50243E+00 -2.57099E+00 -3.07094E+00 -2.93108E+00 -6.78937E-02
 -1.28089E+00 +2.88661E+00 +1.70232E+00 +3.73922E+00 +3.88827E+00 +1.59171E+00 +3.18236E+00 -2.28736E+00
 -6.08916E-01 -5.12788E+00 -5.17391E+00 -4.74977E+00 -7.14393E+00 -1.46412E+00 -4.66034E+00 +1.91606E+00
 +9.91426E-01 +2.20428E+00 +6.15738E+00 -1.48676E+00 +7.55323E+00 -6.74723E+00 +4.82763E+00 -9.51845E+00
 +8.39634E-01 -7.19536E+00 -6.48693E-01 -7.23442E-01 +1.96120E+00 +6.02751E+00 +6.75694E+00 +9.14711E+00
 +9.77856E+00 +7.54059E+00 +8.10641E+00 +3.52560E+00 +2.10809E+00 +7.96834E-01 -4.87464E+00 +1.48357E+00
 -9.02802E+00 +4.64178E+00 -8.71123E+00 +7.23481E+00 -5.26327E+00 +6.62776E+00 -1.60277E+00 +2.54557E+00
 +3.04945E-02 -2.90479E+00 -5.93791E-01 -6.88611E+00 -2.05946E+00 -7.68761E+00 -2.69833E+00 -5.46367E+00
 -1.75106E+00 -1.67051E+00 +4.21549E-01 +1.99153E+00 +2.82648E+00 +4.27753E+00 +4.35790E+00 +4.57317E+00
 +4.05804E+00 +2.92946E+00 +1.38068E+00 +1.88285E-01 -3.29443E+00 -2.11042E+00 -8.23893E+00 -2.47912E+00
 -1.07952E+01 -6.96791E-01 -8.90944E+00 +1.51770E+00 -2.90658E+00 +1.36517E+00 +4.07202E+00 -2.81741E+00
 +7.85409E+00 -9.60424E+00 +6.31307E+00 -1.47003E+01 +1.35875E+00 -1.37513E+01 -2.11315E+00 -5.89960E+00
 +3.14351E-02 +4.83663E+00 +7.48949E+00 +1.19358E+01 +1.50705E+01 +1.11079E+01 +1.63104E+01 +3.78812E+00
 +8.63759E+00 -3.62773E+00 -4.02753E+00 -4.59712E+00 -1.36507E+01 +2.29284E+00 -1.39540E+01 +1.18601E+01
 -5.30808E+00 +1.61279E+01 +5.33356E+00 +1.06267E+01 +9.64653E+00 -1.76410E+00 +4.35018E+00 -1.26458E+01
 -6.22296E+00 -1.43678E+01 -1.35086E+01 -5.90187E+00 -1.14426E+01 +6.31107E+00 -1.25168E+00 +1.32538E+01
 +9.46971E+00 +1.01550E+01 +1.26420E+01 -6.75529E-02 +5.89119E+00 -9.33521E+00 -5.76364E+00 -1.07797E+01
 -1.39005E+01 -3.90328E+00 -1.30851E+01 +5.39197E+00 -4.67031E+00 +9.66413E+00 +4.72735E+00 +5.66608E+00
 +8.54465E+00 -3.48859E+00 +5.05922E+00 -1.11140E+01 -1.91270E+00 -1.21668E+01 -6.51127E+00 -6.72430E+00
 -5.41173E+00 +6.96233E-01 +9.47300E-02 +4.96691E+00 +5.74175E+00 +4.04735E+00 +7.86024E+00 -1.72435E-01
 +5.88189E+00 -4.01806E+00 +2.08837E+00 -4.99450E+00 -6.49014E-01 -3.17602E+00 -9.80501E-01 -3.48756E-01
 +5.26642E-01 +1.83496E+00 +2.51471E+00 +2.93430E+00 +4.07147E+00 +3.38067E+00 +4.96120E+00 +3.52021E+00
 +5.01619E+00 +3.23569E+00 +3.73146E+00 +2.46679E+00 +7.37961E-01 +1.82696E+00 -3.31451E+00 +2.35200E+00
 -6.59887E+00 +4.38599E+00 -7.23128E+00 +6.70502E+00 -4.90187E+00 +7.01281E+00 -1.49519E+00 +3.74035E+00
 +1.44615E-01 -2.28216E+00 -1.47868E+00 -7.89499E+00 -5.04257E+00 -9.69767E+00 -7.19011E+00 -6.65472E+00
 -5.16022E+00 -1.07689E+00 +7.88651E-01 +2.98601E+00 +7.21349E+00 +2.80403E+00 +9.88322E+00 -9.26444E-01
 +6.94515E+00 -4.65190E+00 +3.76689E-01 -4.80466E+00 -5.44584E+00 -6.79917E-01 -6.95812E+00 +4.93194E+00
 -3.91326E+00 +7.84620E+00 +6.97943E-01 +5.65310E+00 +3.13052E+00 -4.97791E-01 +1.75827E+00 -6.79589E+00
 -1.85564E+00 -9.54580E+00 -4.36377E+00 -7.65827E+00 -3.27073E+00 -3.07707E+00 +1.25320E+00 +9.50505E-01
 +6.62364E+00 +2.26942E+00 +9.75749E+00 +1.09510E+00 +9.10961E+00 -5.58545E-01 +5.42667E+00 -6.07162E-01
 +9.30767E-01 +1.60543E+00 -2.24369E+00 +5.00831E+00 -3.22327E+00 +7.67171E+00 -2.56471E+00 +8.06198E+00
 -1.58261E+00 +5.86107E+00 -1.43124E+00 +2.00845E+00 -2.46865E+00 -1.86933E+00 -4.12291E+00 -4.26068E+00
 -5.23128E+00 -4.45683E+00 -4.69893E+00 -2.86958E+00 -2.21216E+00 -8.07303E-01 +1.37922E+00 +2.76710E-01
