 Created: 16-Jan-2021
 $NMID
 ID='D:\BASISSIMULATI'
 FMTDAT='(8E13.5)'
 VOLUME=   1.00000E+00
 TRAMP=   1.00000E+00
 $END
 +5.00802E+01 +1.62364E-01 +3.98269E+01 -1.27936E+01 +1.39925E+01 -1.62301E+01 -1.46769E+01 -5.77254E+00
 -3.23948E+01 +1.40426E+01 -3.17043E+01 +3.21289E+01 -1.52245E+01 +3.72804E+01 +6.28086E+00 +2.49171E+01
 +2.02936E+01 +1.48962E-01 +1.96347E+01 -2.47142E+01 +6.19034E+00 -3.68463E+01 -1.07502E+01 -2.99761E+01
 -2.03823E+01 -7.82099E+00 -1.69147E+01 +1.80242E+01 -2.88953E+00 +3.44677E+01 +1.25587E+01 +3.39032E+01
 +1.93332E+01 +1.79005E+01 +1.24722E+01 -4.28316E+00 -4.87949E+00 -2.12582E+01 -2.32841E+01 -2.57777E+01
 -3.24295E+01 -1.81791E+01 -2.69267E+01 -5.28400E+00 -9.16855E+00 +4.24602E+00 +1.22367E+01 +5.13565E+00
 +2.73432E+01 -1.76607E+00 +3.01350E+01 -1.06198E+01 +2.12381E+01 -1.46098E+01 +6.80478E+00 -1.02273E+01
 -5.43152E+00 +7.45681E-01 -1.04246E+01 +1.25535E+01 -7.98266E+00 +1.90505E+01 -1.89305E+00 +1.72509E+01
 +3.05545E+00 +8.75817E+00 +4.09119E+00 -1.56376E+00 +1.70291E+00 -8.61871E+00 -1.38401E+00 -9.84002E+00
 -2.50916E+00 -6.10158E+00 -9.74020E-01 -5.03933E-01 +1.68690E+00 +3.89786E+00 +3.06549E+00 +5.83660E+00
 +1.76272E+00 +6.01434E+00 -1.58943E+00 +5.86788E+00 -4.85786E+00 +6.02859E+00 -6.04185E+00 +5.70156E+00
 -4.77900E+00 +3.42248E+00 -2.60046E+00 -1.42307E+00 -1.72301E+00 -7.54506E+00 -3.23823E+00 -1.20964E+01
 -6.03873E+00 -1.23603E+01 -7.35790E+00 -7.69845E+00 -4.68418E+00 -3.68781E-01 +2.20346E+00 +5.52383E+00
 +1.05366E+01 +6.45486E+00 +1.58594E+01 +1.80379E+00 +1.46846E+01 -5.47830E+00 +6.87740E+00 -1.04501E+01
 -3.82922E+00 -9.18172E+00 -1.17042E+01 -1.36579E+00 -1.22980E+01 +9.15075E+00 -5.18918E+00 +1.63991E+01
 +5.53644E+00 +1.57881E+01 +1.35046E+01 +6.99805E+00 +1.37573E+01 -5.53752E+00 +5.76710E+00 -1.49772E+01
 -6.08448E+00 -1.59559E+01 -1.49438E+01 -7.74639E+00 -1.54729E+01 +5.20039E+00 -7.05822E+00 +1.57179E+01
 +5.68295E+00 +1.79974E+01 +1.54526E+01 +1.09076E+01 +1.64377E+01 -1.38304E+00 +7.68197E+00 -1.18498E+01
 -6.29859E+00 -1.46931E+01 -1.80212E+01 -8.67350E+00 -2.12183E+01 +2.23502E+00 -1.42964E+01 +1.12291E+01
 -1.11611E+00 +1.26812E+01 +1.12933E+01 +5.42246E+00 +1.67118E+01 -6.58599E+00 +1.30974E+01 -1.65437E+01
 +3.46662E+00 -1.87001E+01 -6.10774E+00 -1.15917E+01 -1.01146E+01 +1.19238E+00 -6.70376E+00 +1.30798E+01
 +1.47653E+00 +1.81648E+01 +9.07063E+00 +1.43442E+01 +1.12784E+01 +4.22698E+00 +6.64603E+00 -6.56258E+00
 -2.19500E+00 -1.25951E+01 -1.01662E+01 -1.14898E+01 -1.27130E+01 -4.87022E+00 -8.35866E+00 +2.95063E+00
 +5.74501E-01 +7.62874E+00 +9.37929E+00 +7.18991E+00 +1.36020E+01 +2.85171E+00 +1.13744E+01 -2.04801E+00
 +4.19076E+00 -4.22934E+00 -4.15967E+00 -2.40884E+00 -9.76106E+00 +2.09278E+00 -1.05628E+01 +6.30927E+00
 -7.14845E+00 +7.47396E+00 -2.01984E+00 +4.62478E+00 +2.02241E+00 -9.22776E-01 +3.39650E+00 -6.40873E+00
 +2.33966E+00 -9.19292E+00 +3.97494E-01 -8.12507E+00 -7.39236E-01 -3.99754E+00 -2.86270E-01 +1.05950E+00
 +1.28725E+00 +4.78965E+00 +2.72059E+00 +5.90925E+00 +2.85136E+00 +4.53792E+00 +1.35299E+00 +1.84963E+00
 -1.09847E+00 -7.29308E-01 -3.26196E+00 -2.26334E+00 -4.05424E+00 -2.61041E+00 -3.11659E+00 -2.22352E+00
 -9.31255E-01 -1.68457E+00 +1.51364E+00 -1.30690E+00 +3.26271E+00 -1.02832E+00 +3.81868E+00 -5.92012E-01
 +3.25733E+00 +1.66814E-01 +2.04262E+00 +1.14439E+00 +7.11888E-01 +2.00900E+00 -3.69759E-01 +2.40724E+00
 -1.07854E+00 +2.18240E+00 -1.44916E+00 +1.46267E+00 -1.54843E+00 +5.75796E-01 -1.40777E+00 -1.39603E-01
 -1.04515E+00 -5.02211E-01 -5.29509E-01 -5.41413E-01 -1.26397E-02 -4.24429E-01 +3.14636E-01 -3.22705E-01
 +3.21857E-01 -3.08399E-01 +2.75600E-02 -3.38058E-01 -3.88221E-01 -3.17551E-01 -6.67187E-01 -1.92444E-01
 -6.11781E-01 +5.99762E-04 -2.03504E-01 +1.53850E-01 +3.68571E-01 +1.63730E-01 +7.92024E-01 +9.73057E-03
 +7.91314E-01 -2.17260E-01 +2.84703E-01 -3.61816E-01 -5.45466E-01 -3.05182E-01 -1.31474E+00 -6.29167E-02
 -1.61233E+00 +1.86714E-01 -1.21076E+00 +1.79607E-01 -2.01780E-01 -2.73590E-01 +1.02302E+00 -1.12317E+00
 +1.95419E+00 -2.01716E+00 +2.22506E+00 -2.41080E+00 +1.81005E+00 -1.83284E+00 +1.03711E+00 -1.90424E-01
 +3.86557E-01 +2.06250E+00 +1.78971E-01 +4.03050E+00 +3.42166E-01 +4.76010E+00 +4.26491E-01 +3.73808E+00
 -9.90657E-02 +1.23702E+00 -1.42255E+00 -1.72013E+00 -3.10830E+00 -3.81737E+00 -4.19159E+00 -4.11982E+00
 -3.67627E+00 -2.59850E+00 -1.19789E+00 -1.80535E-01 +2.54683E+00 +1.75349E+00 +5.93562E+00 +2.17328E+00
 +7.15719E+00 +1.03759E+00 +5.21195E+00 -6.46347E-01 +6.16250E-01 -1.43657E+00 -4.65977E+00 -4.18282E-01
 -8.09457E+00 +2.07348E+00 -7.93537E+00 +4.47562E+00 -4.21165E+00 +4.85162E+00 +1.17884E+00 +2.14125E+00
 +5.44125E+00 -2.94570E+00 +6.42275E+00 -8.01775E+00 +3.85124E+00 -1.01622E+01 -4.79826E-01 -7.60964E+00
 -3.75186E+00 -9.51072E-01 -3.82678E+00 +6.88036E+00 -6.14861E-01 +1.19930E+01 +3.75911E+00 +1.16089E+01
 +6.17466E+00 +5.67834E+00 +4.46095E+00 -2.93287E+00 -1.08790E+00 -9.88520E+00 -7.60568E+00 -1.16975E+01
 -1.11422E+01 -7.67098E+00 -8.97013E+00 -2.83146E-01 -1.37727E+00 +6.22083E+00 +8.17756E+00 +8.26611E+00
 +1.47623E+01 +5.01277E+00 +1.46533E+01 -1.17386E+00 +7.49822E+00 -6.15519E+00 -3.31647E+00 -6.53627E+00
 -1.23815E+01 -1.78162E+00 -1.51589E+01 +5.35539E+00 -1.04425E+01 +1.03975E+01 -9.87983E-01 +9.82209E+00
 +8.05398E+00 +3.27867E+00 +1.20126E+01 -6.00048E+00 +9.23919E+00 -1.29046E+01 +1.87861E+00 -1.33268E+01
 -5.53535E+00 -6.57190E+00 -8.79752E+00 +4.12057E+00 -6.45234E+00 +1.32702E+01 -5.12262E-01 +1.61250E+01
 +4.90339E+00 +1.12279E+01 +6.15034E+00 +1.14388E+00 +2.29689E+00 -9.02403E+00 -4.31435E+00 -1.44404E+01
 -9.49060E+00 -1.30539E+01 -9.72168E+00 -6.44324E+00 -4.30121E+00 +1.37625E+00 +4.21180E+00 +6.37371E+00
 +1.14340E+01 +6.68816E+00 +1.36234E+01 +3.35359E+00 +9.72171E+00 -7.20276E-01 +1.82822E+00 -2.74711E+00
 -6.08253E+00 -1.75577E+00 -1.03677E+01 +1.02440E+00 -9.54371E+00 +3.20783E+00 -4.75510E+00 +2.95594E+00
 +1.22240E+00 +2.10459E-01 +5.68895E+00 -3.30293E+00 +7.35757E+00 -5.23424E+00 +6.60396E+00 -4.12979E+00
 +4.68200E+00 -3.26412E-01 +2.60942E+00 +4.31106E+00 +5.49698E-01 +7.56765E+00 -1.93390E+00 +8.15884E+00
 -5.05514E+00 +6.29438E+00 -8.14158E+00 +3.24077E+00 -9.73686E+00 +2.93323E-01 -8.49376E+00 -2.05496E+00
 -4.25825E+00 -4.15337E+00 +1.47248E+00 -6.46641E+00 +6.16607E+00 -8.70417E+00 +7.66688E+00 -9.58210E+00
 +5.53012E+00 -7.54736E+00 +1.37004E+00 -2.07528E+00 -2.09647E+00 +5.38164E+00 -2.77196E+00 +1.16188E+01
 -5.68330E-01 +1.32006E+01 +2.49302E+00 +8.50656E+00 +3.63201E+00 -9.52876E-01 +1.30542E+00 -1.09126E+01
 -3.46472E+00 -1.64194E+01 -7.41262E+00 -1.45220E+01 -6.97260E+00 -6.02288E+00 -7.34275E-01 +4.82030E+00
 +9.15577E+00 +1.25927E+01 +1.76924E+01 +1.37502E+01 +1.96216E+01 +8.60807E+00 +1.25504E+01 +1.07138E+00
 -1.29277E+00 -3.78367E+00 -1.58279E+01 -2.86225E+00 -2.41649E+01 +2.97444E+00 -2.22935E+01 +9.36319E+00
 -1.13293E+01 +1.11236E+01 +3.01939E+00 +5.59717E+00 +1.35278E+01 -5.39883E+00 +1.53641E+01 -1.62770E+01
 +8.61740E+00 -2.07518E+01 -1.98280E+00 -1.55431E+01 -9.95896E+00 -2.52860E+00 -1.08774E+01 +1.19886E+01
 -4.82221E+00 +2.05762E+01 +3.86668E+00 +1.87068E+01 +9.38184E+00 +7.24901E+00 +8.06103E+00 -7.99830E+00
 +6.55698E-01 -1.94563E+01 -8.09262E+00 -2.18085E+01 -1.23014E+01 -1.46712E+01 -8.51676E+00 -2.46136E+00
 +2.11609E+00 +8.33465E+00 +1.43594E+01 +1.28283E+01 +2.17630E+01 +1.02159E+01 +2.02394E+01 +3.75748E+00
 +1.02847E+01 -1.56397E+00 -3.37150E+00 -2.18122E+00 -1.44038E+01 +2.01250E+00 -1.82464E+01 +7.84855E+00
 -1.42774E+01 +1.10461E+01 -5.71673E+00 +8.94128E+00 +2.51134E+00 +2.11453E+00 +6.57167E+00 -6.00338E+00
 +5.54701E+00 -1.12066E+01 +1.39241E+00 -1.09535E+01 -2.71298E+00 -5.71593E+00 -4.43987E+00 +1.47169E+00
 -3.51803E+00 +6.86495E+00 -1.46954E+00 +8.07041E+00 -2.39316E-01 +5.11298E+00 -7.49271E-01 +1.72084E-02
 -2.34010E+00 -4.64807E+00 -3.38626E+00 -7.24391E+00 -2.55946E+00 -7.66144E+00 +1.84833E-01 -6.83411E+00
 +3.57521E+00 -5.69154E+00 +5.92674E+00 -4.39784E+00 +6.30499E+00 -2.41901E+00 +5.11405E+00 +7.02914E-01
 +3.69685E+00 +4.54259E+00 +3.24892E+00 +7.66662E+00 +3.84702E+00 +8.40806E+00 +4.32995E+00 +6.06641E+00
 +3.17218E+00 +1.67093E+00 -2.32923E-01 -2.34292E+00 -4.81172E+00 -3.49082E+00 -8.20835E+00 -8.40243E-01
 -8.21154E+00 +4.19774E+00 -4.33504E+00 +8.50734E+00 +1.53010E+00 +9.07183E+00 +5.96082E+00 +4.88901E+00
 +5.97135E+00 -2.21723E+00 +9.52181E-01 -8.49252E+00 -6.66928E+00 -1.04167E+01 -1.25906E+01 -6.86985E+00
 -1.30577E+01 +4.65967E-02 -7.15806E+00 +6.11917E+00 +2.42342E+00 +7.48070E+00 +1.07410E+01 +2.97684E+00
 +1.33335E+01 -5.00907E+00 +8.81430E+00 -1.18398E+01 -2.30010E-01 -1.33218E+01 -8.61575E+00 -8.23796E+00
 -1.14687E+01 +8.12380E-01 -6.99915E+00 +8.82382E+00 +2.46629E+00 +1.12677E+01 +1.18037E+01 +6.77332E+00
 +1.60020E+01 -1.98191E+00 +1.29775E+01 -9.73183E+00 +4.66919E+00 -1.16159E+01 -4.19178E+00 -5.98760E+00
 -8.88238E+00 +4.58480E+00 -7.39997E+00 +1.47024E+01 -1.50851E+00 +1.91072E+01 +4.45243E+00 +1.55435E+01
 +6.24563E+00 +5.90437E+00 +2.29525E+00 -4.93001E+00 -5.37400E+00 -1.18307E+01 -1.23375E+01 -1.21419E+01
 -1.43699E+01 -6.87335E+00 -9.90614E+00 +2.05048E-01 -9.49205E-01 +4.91459E+00 +8.05511E+00 +5.03028E+00
 +1.26765E+01 +1.30943E+00 +1.08638E+01 -3.29711E+00 +3.90800E+00 -5.64616E+00 -4.44193E+00 -4.34577E+00
 -1.00971E+01 -4.93448E-01 -1.07262E+01 +3.14900E+00 -6.69799E+00 +3.95198E+00 -4.86669E-01 +1.05589E+00
 +4.94133E+00 -4.11522E+00 +7.72718E+00 -8.70554E+00 +7.81220E+00 -1.00702E+01 +6.47375E+00 -7.21498E+00
 +5.17300E+00 -1.23545E+00 +4.53512E+00 +5.39794E+00 +4.09123E+00 +1.01884E+01 +2.84899E+00 +1.17759E+01
 +2.11819E-01 +1.03119E+01 -3.41967E+00 +6.98673E+00 -6.76816E+00 +3.15862E+00 -8.41798E+00 -3.10872E-01
 -7.66223E+00 -3.15766E+00 -4.90349E+00 -5.34296E+00 -1.37564E+00 -6.62502E+00 +1.59053E+00 -6.48395E+00
 +3.25403E+00 -4.49555E+00 +3.67166E+00 -8.69095E-01 +3.35498E+00 +3.30553E+00 +2.69330E+00 +6.38660E+00
 +1.60872E+00 +6.97454E+00 -2.80928E-01 +4.70885E+00 -3.10959E+00 +5.48461E-01 -6.25912E+00 -3.69024E+00
