 Created: 16-Jan-2021
 $NMID
 ID='D:\BASISSIMULATI'
 FMTDAT='(8E13.5)'
 VOLUME=   1.00000E+00
 TRAMP=   1.00000E+00
 $END
 +5.50240E+01 -4.90117E-01 +2.80078E+01 +4.47347E+01 -2.25039E+01 +4.07766E+01 -3.88144E+01 -3.78419E+00
 -5.95756E+00 -3.36741E+01 +3.21089E+01 -1.41227E+01 +2.72984E+01 +2.83810E+01 -1.44717E+01 +4.02211E+01
 -4.21184E+01 +6.62438E+00 -2.29322E+01 -3.12784E+01 +1.76775E+01 -2.80662E+01 +2.83886E+01 +9.92237E+00
 -4.26140E+00 +3.28248E+01 -3.90441E+01 +9.11353E+00 -3.05539E+01 -3.50630E+01 +1.49506E+01 -4.71464E+01
 +4.64957E+01 -1.17379E+01 +2.94275E+01 +3.08424E+01 -1.36442E+01 +3.30683E+01 -3.10066E+01 -3.45193E+00
 -4.05591E+00 -3.15789E+01 +3.18238E+01 -1.65092E+01 +3.17068E+01 +2.29629E+01 -4.37928E+00 +3.89646E+01
 -3.29368E+01 +1.34228E+01 -2.11594E+01 -2.08914E+01 +1.33074E+01 -2.17786E+01 +2.51319E+01 +1.03085E+01
 -2.31657E+00 +3.32941E+01 -3.63404E+01 +1.56220E+01 -3.48521E+01 -2.47278E+01 +2.34446E+00 -4.17653E+01
 +3.32865E+01 -1.68448E+01 +2.43047E+01 +1.94592E+01 -1.03377E+01 +2.47446E+01 -2.69545E+01 -4.63912E+00
 -5.47146E+00 -3.07377E+01 +2.75080E+01 -2.09173E+01 +3.23222E+01 +1.32237E+01 +4.35075E+00 +3.14184E+01
 -2.17707E+01 +1.42627E+01 -1.55114E+01 -1.41498E+01 +1.25307E+01 -1.70803E+01 +2.47058E+01 +9.41140E+00
 +3.16407E+00 +3.20402E+01 -2.81902E+01 +2.14402E+01 -3.28793E+01 -1.19378E+01 -5.92529E+00 -3.05944E+01
 +2.06738E+01 -1.51089E+01 +1.68368E+01 +1.33361E+01 -1.00676E+01 +1.94713E+01 -2.54517E+01 -3.63154E+00
 -9.80109E+00 -2.74278E+01 +1.86251E+01 -2.33472E+01 +2.70946E+01 +3.13902E+00 +8.04540E+00 +2.05533E+01
 -1.31046E+01 +1.02717E+01 -1.01380E+01 -1.16898E+01 +1.20546E+01 -1.55874E+01 +2.43790E+01 +5.17528E+00
 +9.68658E+00 +2.63224E+01 -1.64032E+01 +2.26494E+01 -2.47445E+01 -1.55047E+00 -7.70977E+00 -1.82328E+01
 +1.24801E+01 -9.57676E+00 +1.12549E+01 +1.13595E+01 -9.05675E+00 +1.74843E+01 -2.31491E+01 +5.12430E-01
 -1.38016E+01 -1.99541E+01 +8.05717E+00 -2.08791E+01 +1.76606E+01 -3.15722E+00 +6.42623E+00 +1.08309E+01
 -8.86689E+00 +5.11681E+00 -7.70471E+00 -1.10667E+01 +9.08022E+00 -1.56866E+01 +2.10324E+01 -1.22643E+00
 +1.34080E+01 +1.65213E+01 -5.23732E+00 +1.79999E+01 -1.39668E+01 +3.23390E+00 -4.68059E+00 -9.06215E+00
 +9.01579E+00 -4.50343E+00 +9.07921E+00 +1.01814E+01 -5.31205E+00 +1.62074E+01 -1.75843E+01 +5.59241E+00
 -1.41449E+01 -9.95087E+00 -9.53313E-02 -1.38173E+01 +7.98964E+00 -4.15004E+00 +2.29432E+00 +5.15429E+00
 -7.71448E+00 +2.09174E+00 -7.82289E+00 -9.21584E+00 +3.51030E+00 -1.43728E+01 +1.38315E+01 -6.48809E+00
 +1.20925E+01 +5.92688E+00 +1.54463E+00 +9.72275E+00 -4.96182E+00 +2.70171E+00 -6.41311E-01 -4.64222E+00
 +7.73192E+00 -2.38308E+00 +8.74982E+00 +7.15046E+00 +1.22580E-01 +1.28515E+01 -9.17052E+00 +8.33027E+00
 -9.98025E+00 -1.05309E+00 -3.39740E+00 -5.29030E+00 +1.54563E+00 -1.55666E+00 -8.83483E-01 +3.35034E+00
 -6.76692E+00 +1.95414E+00 -8.00920E+00 -4.98665E+00 -2.21016E+00 -9.94561E+00 +4.91318E+00 -7.84110E+00
 +6.67824E+00 -1.63123E+00 +3.02224E+00 +1.81223E+00 -2.20727E-01 -1.40805E-01 +1.33490E+00 -3.43097E+00
 +5.74122E+00 -2.74579E+00 +7.57165E+00 +2.20895E+00 +4.40680E+00 +6.79304E+00 -7.66398E-01 +7.02796E+00
 -3.40826E+00 +3.78234E+00 -2.44385E+00 +1.11032E+00 -7.78742E-01 +1.39669E+00 -1.42936E+00 +3.07947E+00
 -4.15022E+00 +3.01464E+00 -6.11034E+00 +1.90060E-01 -5.23387E+00 -3.39073E+00 -2.25138E+00 -5.10350E+00
 +4.14876E-01 -4.33937E+00 +1.22330E+00 -2.70059E+00 +7.52856E-01 -2.04918E+00 +7.12086E-01 -2.69081E+00
 +2.07752E+00 -3.33078E+00 +4.17818E+00 -2.50856E+00 +5.36904E+00 -4.28243E-02 +4.55594E+00 +2.74098E+00
 +2.23338E+00 +4.15033E+00 +9.25265E-02 +3.66147E+00 -5.60561E-01 +2.42927E+00 -1.24791E-01 +2.11942E+00
 -2.97209E-01 +3.07131E+00 -2.12437E+00 +3.77129E+00 -4.55538E+00 +2.47545E+00 -5.33316E+00 -6.19861E-01
 -3.51853E+00 -3.23302E+00 -7.91656E-01 -3.37582E+00 +2.51575E-01 -1.68553E+00 -9.04370E-01 -8.28380E-01
 -1.95403E+00 -2.37223E+00 -4.38344E-01 -4.72880E+00 +3.15094E+00 -4.81680E+00 +5.63031E+00 -1.72260E+00
 +4.69877E+00 +1.99254E+00 +1.67120E+00 +3.10469E+00 -1.65079E-02 +1.45169E+00 +1.11198E+00 +6.17898E-02
 +2.81488E+00 +1.40727E+00 +1.92790E+00 +4.28063E+00 -1.61583E+00 +5.17853E+00 -4.50171E+00 +2.61120E+00
 -3.95985E+00 -9.33107E-01 -1.15443E+00 -1.88660E+00 +1.84204E-01 +8.64198E-02 -1.67952E+00 +1.66244E+00
 -4.28770E+00 -6.21344E-02 -3.91284E+00 -3.91274E+00 -1.11122E-01 -5.89690E+00 +3.63011E+00 -3.91002E+00
 +3.95474E+00 -1.98889E-01 +1.48735E+00 +1.37229E+00 -1.48754E-01 -1.19766E-01 +1.16692E+00 -1.79923E+00
 +3.57751E+00 -7.40943E-01 +3.72730E+00 +2.38901E+00 +9.88803E-01 +4.24075E+00 -1.80516E+00 +2.96866E+00
 -1.91460E+00 +4.44518E-01 -2.56918E-02 -1.71205E-01 +7.36097E-01 +1.62695E+00 -1.22449E+00 +3.12850E+00
 -3.97995E+00 +1.82082E+00 -4.43709E+00 -1.51572E+00 -2.02591E+00 -3.77026E+00 +7.71089E-01 -3.17137E+00
 +1.47814E+00 -1.12875E+00 +3.66944E-01 -2.18588E-01 -3.26115E-01 -1.07296E+00 +6.24039E-01 -1.99099E+00
 +2.10614E+00 -1.40144E+00 +2.40197E+00 +1.90979E-01 +1.43533E+00 +1.12421E+00 +6.36042E-01 +8.51229E-01
 +8.65396E-01 +4.89680E-01 +1.31485E+00 +1.10658E+00 +7.51031E-01 +2.21567E+00 -7.42431E-01 +2.48156E+00
 -1.90183E+00 +1.52444E+00 -1.97238E+00 +3.15408E-01 -1.53303E+00 -2.51511E-01 -1.40141E+00 -4.72512E-01
 -1.35264E+00 -1.06362E+00 -6.08951E-01 -1.76180E+00 +6.26351E-01 -1.54169E+00 +1.03722E+00 -3.11359E-01
 +9.18245E-03 +4.59489E-01 -1.09031E+00 -4.92159E-01 -3.50172E-01 -2.21393E+00 +2.02213E+00 -2.29710E+00
 +3.45494E+00 +6.66391E-02 +2.04009E+00 +2.63231E+00 -8.07404E-01 +2.58420E+00 -1.78638E+00 +1.67444E-01
 +1.26908E-01 -1.32656E+00 +2.08992E+00 +3.14006E-01 +8.68341E-01 +3.07055E+00 -2.71262E+00 +2.93236E+00
 -4.27739E+00 -8.24018E-01 -1.34002E+00 -4.08772E+00 +3.02147E+00 -2.69846E+00 +3.43314E+00 +2.01877E+00
 -1.01688E+00 +4.25149E+00 -5.03278E+00 +7.23225E-01 -3.25610E+00 -4.76645E+00 +2.84167E+00 -5.47451E+00
 +6.17395E+00 -4.95274E-02 +2.56209E+00 +5.28371E+00 -3.74713E+00 +4.04019E+00 -4.89724E+00 -2.31240E+00
 +7.94171E-01 -5.70519E+00 +6.25655E+00 -1.37660E+00 +4.14249E+00 +5.73999E+00 -3.69764E+00 +6.61695E+00
 -7.83336E+00 -5.65759E-01 -2.72693E+00 -7.48335E+00 +5.88758E+00 -5.48003E+00 +7.44231E+00 +3.46266E+00
 -4.26288E-01 +8.49071E+00 -8.35241E+00 +3.00458E+00 -6.32197E+00 -6.74816E+00 +3.74572E+00 -8.77425E+00
 +9.72637E+00 -1.02252E-01 +3.97842E+00 +8.98297E+00 -6.81206E+00 +7.17259E+00 -9.30782E+00 -3.69259E+00
 +2.25410E-02 -1.02705E+01 +9.94504E+00 -3.94243E+00 +7.84332E+00 +8.06731E+00 -4.46229E+00 +1.09388E+01
 -1.22334E+01 +4.76363E-01 -5.61939E+00 -1.10946E+01 +7.80852E+00 -9.62253E+00 +1.17459E+01 +3.41011E+00
 +1.13041E+00 +1.21128E+01 -1.11113E+01 +5.46967E+00 -9.54082E+00 -8.69802E+00 +4.55103E+00 -1.27830E+01
 +1.40711E+01 -1.06367E+00 +6.87904E+00 +1.26203E+01 -8.80145E+00 +1.13640E+01 -1.38102E+01 -3.79265E+00
 -1.52903E+00 -1.44228E+01 +1.33516E+01 -6.99156E+00 +1.22779E+01 +1.00897E+01 -4.25992E+00 +1.60711E+01
 -1.66546E+01 +3.13303E+00 -9.80339E+00 -1.35425E+01 +8.13941E+00 -1.38796E+01 +1.52887E+01 +2.42975E+00
 +2.81273E+00 +1.51249E+01 -1.38086E+01 +8.08762E+00 -1.34744E+01 -1.04524E+01 +4.31723E+00 -1.74908E+01
 +1.81583E+01 -3.54532E+00 +1.07170E+01 +1.50163E+01 -9.49998E+00 +1.54685E+01 -1.78277E+01 -3.21772E+00
 -3.51506E+00 -1.83593E+01 +1.65036E+01 -1.08806E+01 +1.76711E+01 +1.10182E+01 -2.18072E+00 +2.12038E+01
 -1.96656E+01 +7.25403E+00 -1.40266E+01 -1.41103E+01 +7.43235E+00 -1.71448E+01 +1.80647E+01 +1.40382E+00
 +4.57168E+00 +1.80812E+01 -1.63317E+01 +1.14820E+01 -1.82005E+01 -1.10380E+01 +2.34333E+00 -2.18658E+01
 +2.07537E+01 -7.04622E+00 +1.43198E+01 +1.59236E+01 -9.55337E+00 +1.88987E+01 -2.16368E+01 -2.34333E+00
 -6.37877E+00 -2.22046E+01 +1.85832E+01 -1.59956E+01 +2.32792E+01 +9.77559E+00 +1.76352E+00 +2.47946E+01
 -2.03927E+01 +1.15492E+01 -1.70390E+01 -1.33384E+01 +6.70403E+00 -1.93702E+01 +2.07598E+01 +4.63612E-01
 +7.13656E+00 +2.10079E+01 -1.76667E+01 +1.59101E+01 -2.27240E+01 -9.58113E+00 -9.53608E-01 -2.45436E+01
 +2.15170E+01 -1.02987E+01 +1.69991E+01 +1.60791E+01 -9.48193E+00 +2.20226E+01 -2.55741E+01 -6.80499E-01
 -1.07535E+01 -2.51983E+01 +1.83042E+01 -2.17681E+01 +2.74487E+01 +6.12534E+00 +6.27823E+00 +2.57117E+01
 -1.93004E+01 +1.45377E+01 -1.86567E+01 -1.24401E+01 +6.28170E+00 -2.13961E+01 +2.36512E+01 -1.20289E+00
 +1.10351E+01 +2.29098E+01 -1.67034E+01 +2.04926E+01 -2.55100E+01 -6.32434E+00 -4.19360E+00 -2.49872E+01
 +2.12589E+01 -1.23977E+01 +1.91486E+01 +1.62599E+01 -8.86308E+00 +2.54689E+01 -2.90739E+01 +2.67871E+00
 -1.63794E+01 -2.58733E+01 +1.50713E+01 -2.65042E+01 +2.87099E+01 +1.26590E+00 +9.60766E+00 +2.42212E+01
 -1.77981E+01 +1.57649E+01 -1.98226E+01 -1.20667E+01 +5.36602E+00 -2.38484E+01 +2.58812E+01 -4.44807E+00
 +1.56265E+01 +2.24273E+01 -1.33916E+01 +2.35437E+01 -2.57108E+01 -2.70877E+00 -6.15250E+00 -2.39902E+01
 +2.10822E+01 -1.36297E+01 +2.17014E+01 +1.62675E+01 -6.56621E+00 +2.90189E+01 -3.05917E+01 +7.90212E+00
 -2.16574E+01 -2.32016E+01 +9.83620E+00 -2.83708E+01 +2.69769E+01 -2.79760E+00 +1.08874E+01 +2.18490E+01
 -1.69625E+01 +1.61494E+01 -2.15575E+01 -1.15851E+01 +2.79095E+00 -2.61601E+01 +2.58958E+01 -9.00437E+00
 +1.91617E+01 +1.91047E+01 -9.11417E+00 +2.38171E+01 -2.39516E+01 -3.28264E-01 -6.83793E+00 -2.29751E+01
 +2.11769E+01 -1.51588E+01 +2.49112E+01 +1.48810E+01 -1.92806E+00 +3.12174E+01 -2.86608E+01 +1.36630E+01
 -2.44431E+01 -1.77187E+01 +4.74593E+00 -2.67845E+01 +2.37369E+01 -4.68971E+00 +1.08278E+01 +2.01345E+01
 -1.65082E+01 +1.70744E+01 -2.37372E+01 -9.60516E+00 -1.66106E+00 -2.67096E+01 +2.27635E+01 -1.32102E+01
 +1.99691E+01 +1.40975E+01 -5.80655E+00 +2.15894E+01 -2.18802E+01 +3.76603E-01 -7.48949E+00 -2.26477E+01
 +2.04252E+01 -1.77725E+01 +2.76139E+01 +1.09529E+01 +4.18131E+00 +3.02374E+01 -2.32507E+01 +1.76408E+01
 -2.35580E+01 -1.15321E+01 +1.71471E+00 -2.29848E+01 +2.09408E+01 -4.70742E+00 +1.10549E+01 +1.93093E+01
 -1.49843E+01 +1.89715E+01 -2.48554E+01 -5.36929E+00 -6.60457E+00 -2.40881E+01 +1.72252E+01 -1.50229E+01
