 Created: 19-Jan-2021
 $NMID
 ID='D:\BASISSIMULATI'
 FMTDAT='(8E13.5)'
 VOLUME=   1.00000E+00
 TRAMP=   1.00000E+00
 $END
 +6.59110E+00 +7.72436E-03 +5.93064E+00 +2.48216E+00 +4.26956E+00 +4.34844E+00 +2.02524E+00 +5.22681E+00
 -2.64390E-01 +4.98647E+00 -2.07572E+00 +3.76749E+00 -3.02543E+00 +1.93537E+00 -2.95652E+00 -1.74987E-02
 -1.96518E+00 -1.59682E+00 -3.64570E-01 -2.42551E+00 +1.40213E+00 -2.32800E+00 +2.87523E+00 -1.36105E+00
 +3.68929E+00 +2.13470E-01 +3.65412E+00 +2.00329E+00 +2.78847E+00 +3.58677E+00 +1.30148E+00 +4.61376E+00
 -4.69645E-01 +4.88194E+00 -2.14726E+00 +4.37225E+00 -3.40306E+00 +3.23834E+00 -4.02837E+00 +1.75657E+00
 -3.97007E+00 +2.52382E-01 -3.32711E+00 -9.77486E-01 -2.31253E+00 -1.72790E+00 -1.19381E+00 -1.92046E+00
 -2.27869E-01 -1.60592E+00 +3.93391E-01 -9.37383E-01 +5.76120E-01 -1.24415E-01 +3.31502E-01 +6.18851E-01
 -2.40884E-01 +1.11901E+00 -9.85825E-01 +1.27307E+00 -1.73138E+00 +1.05869E+00 -2.32442E+00 +5.26471E-01
 -2.65595E+00 -2.20551E-01 -2.67334E+00 -1.05316E+00 -2.38015E+00 -1.84140E+00 -1.82679E+00 -2.47473E+00
 -1.09644E+00 -2.87484E+00 -2.89687E-01 -3.00153E+00 +4.89551E-01 -2.85340E+00 +1.14618E+00 -2.46487E+00
 +1.60432E+00 -1.90101E+00 +1.81634E+00 -1.24996E+00 +1.77010E+00 -6.12785E-01 +1.49332E+00 -9.01459E-02
 +1.05303E+00 +2.33390E-01 +5.48309E-01 +3.05481E-01 +9.57350E-02 +1.19216E-01 -1.91395E-01 -2.80397E-01
 -2.26538E-01 -7.99843E-01 +2.88969E-02 -1.31161E+00 +5.52178E-01 -1.67833E+00 +1.25818E+00 -1.78212E+00
 +2.01257E+00 -1.55276E+00 +2.65769E+00 -9.87679E-01 +3.04629E+00 -1.57986E-01 +3.07558E+00 +8.02180E-01
 +2.71332E+00 +1.72182E+00 +2.00924E+00 +2.42954E+00 +1.08785E+00 +2.79223E+00 +1.23527E-01 +2.74672E+00
 -6.97164E-01 +2.31655E+00 -1.21738E+00 +1.60913E+00 -1.34639E+00 +7.93337E-01 -1.08154E+00 +6.21346E-02
 -5.10315E-01 -4.11232E-01 +2.08572E-01 -5.13356E-01 +8.80870E-01 -2.17551E-01 +1.32124E+00 +4.09012E-01
 +1.39615E+00 +1.21980E+00 +1.05510E+00 +2.02186E+00 +3.43066E-01 +2.61970E+00 -6.09049E-01 +2.85992E+00
 -1.61359E+00 +2.66636E+00 -2.46830E+00 +2.05759E+00 -3.00177E+00 +1.14293E+00 -3.11165E+00 +9.78239E-02
 -2.78717E+00 -8.75545E-01 -2.11075E+00 -1.59339E+00 -1.23869E+00 -1.93093E+00 -3.65446E-01 -1.84928E+00
 +3.20202E-01 -1.40274E+00 +6.77163E-01 -7.25207E-01 +6.42750E-01 +1.23263E-03 +2.45399E-01 +5.87887E-01
 -4.03207E-01 +8.81987E-01 -1.13453E+00 +8.00499E-01 -1.76188E+00 +3.47820E-01 -2.12257E+00 -3.86343E-01
 -2.11408E+00 -1.24811E+00 -1.71619E+00 -2.05455E+00 -9.94452E-01 -2.63469E+00 -8.44874E-02 -2.86719E+00
 +8.38980E-01 -2.70634E+00 +1.60121E+00 -2.19068E+00 +2.06577E+00 -1.43295E+00 +2.16355E+00 -5.93564E-01
 +1.90620E+00 +1.55700E-01 +1.38135E+00 +6.69822E-01 +7.31066E-01 +8.61716E-01 +1.18710E-01 +7.19747E-01
 -3.07986E-01 +3.07985E-01 -4.49405E-01 -2.50416E-01 -2.74863E-01 -8.02545E-01 +1.72556E-01 -1.20085E+00
 +7.87754E-01 -1.33603E+00 +1.42886E+00 -1.16035E+00 +1.94983E+00 -6.96552E-01 +2.23298E+00 -3.07888E-02
 +2.21398E+00 +7.08296E-01 +1.89431E+00 +1.37912E+00 +1.33852E+00 +1.85845E+00 +6.57894E-01 +2.06742E+00
 -1.56317E-02 +1.98669E+00 -5.58779E-01 +1.65783E+00 -8.83040E-01 +1.17144E+00 -9.51883E-01 +6.45036E-01
 -7.85773E-01 +1.96282E-01 -4.54534E-01 -8.23689E-02 -5.94443E-02 -1.42202E-01 +2.90443E-01 +1.37518E-02
 +5.02278E-01 +3.34317E-01 +5.18489E-01 +7.33871E-01 +3.27188E-01 +1.11258E+00 -3.77571E-02 +1.37836E+00
 -5.06278E-01 +1.46594E+00 -9.88630E-01 +1.34896E+00 -1.39492E+00 +1.04342E+00 -1.65341E+00 +6.02032E-01
 -1.72392E+00 +1.01651E-01 -1.60397E+00 -3.73452E-01 -1.32704E+00 -7.48598E-01 -9.53796E-01 -9.72697E-01
 -5.58618E-01 -1.02670E+00 -2.14326E-01 -9.25248E-01 +2.17962E-02 -7.11759E-01 +1.18143E-01 -4.48261E-01
 +7.34332E-02 -2.02309E-01 -8.46552E-02 -3.35656E-02 -3.06255E-01 +1.74563E-02 -5.29969E-01 -6.34872E-02
 -6.95277E-01 -2.62482E-01 -7.54364E-01 -5.40946E-01 -6.81221E-01 -8.43693E-01 -4.76410E-01 -1.10996E+00
 -1.66699E-01 -1.28534E+00 +2.00323E-01 -1.33232E+00 +5.65586E-01 -1.23756E+00 +8.70094E-01 -1.01442E+00
 +1.06644E+00 -7.00246E-01 +1.12807E+00 -3.49017E-01 +1.05442E+00 -2.05586E-02 +8.70856E-01 +2.31372E-01
 +6.23385E-01 +3.69860E-01 +3.69098E-01 +3.82192E-01 +1.64311E-01 +2.82260E-01 +5.28112E-02 +1.07421E-01
 +5.66974E-02 -8.95756E-02 +1.71788E-01 -2.51951E-01 +3.68616E-01 -3.31151E-01 +5.98857E-01 -2.97373E-01
 +8.05837E-01 -1.46067E-01 +9.36860E-01 +1.01014E-01 +9.54694E-01 +4.00466E-01 +8.45683E-01 +6.96598E-01
 +6.22731E-01 +9.33445E-01 +3.22491E-01 +1.06681E+00 -2.58865E-03 +1.07367E+00 -2.95602E-01 +9.56944E-01
 -5.07384E-01 +7.44560E-01 -6.06897E-01 +4.83073E-01 -5.87529E-01 +2.27355E-01 -4.67982E-01 +2.85989E-02
 -2.87628E-01 -7.66674E-02 -9.74310E-02 -7.41774E-02 +5.15028E-02 +2.54887E-02 +1.19186E-01 +1.89805E-01
 +8.53668E-02 +3.71958E-01 -4.63438E-02 +5.21497E-01 -2.49654E-01 +5.95590E-01 -4.81728E-01 +5.68412E-01
 -6.92842E-01 +4.36645E-01 -8.37391E-01 +2.19965E-01 -8.83821E-01 -4.35106E-02 -8.21334E-01 -3.05727E-01
 -6.61955E-01 -5.19232E-01 -4.37603E-01 -6.47420E-01 -1.92858E-01 -6.72245E-01 +2.49020E-02 -5.97760E-01
 +1.75830E-01 -4.48781E-01 +2.36114E-01 -2.65023E-01 +2.02831E-01 -9.20586E-02 +9.41293E-02 +2.88687E-02
 -5.52505E-02 +6.99293E-02 -2.02072E-01 +2.26910E-02 -3.04493E-01 -1.00292E-01 -3.31527E-01 -2.68601E-01
 -2.69978E-01 -4.41048E-01 -1.27311E-01 -5.75132E-01 +7.01641E-02 -6.36716E-01 +2.83353E-01 -6.07742E-01
 +4.69290E-01 -4.90251E-01 +5.90866E-01 -3.05823E-01 +6.25164E-01 -9.05716E-02 +5.68492E-01 +1.13114E-01
 +4.37002E-01 +2.66196E-01 +2.62768E-01 +3.41758E-01 +8.62633E-02 +3.30908E-01 -5.30031E-02 +2.44479E-01
 -1.25515E-01 +1.10172E-01 -1.18350E-01 -3.41571E-02 -3.78543E-02 -1.49467E-01 +9.21990E-02 -2.04652E-01
 +2.36468E-01 -1.83675E-01 +3.56515E-01 -8.90967E-02 +4.19869E-01 +5.87951E-02 +4.07557E-01 +2.26974E-01
 +3.18367E-01 +3.77553E-01 +1.68907E-01 +4.76667E-01 -1.04837E-02 +5.02260E-01 -1.82936E-01 +4.48999E-01
 -3.13621E-01 +3.29209E-01 -3.77673E-01 +1.69713E-01 -3.65636E-01 +5.40377E-03 -2.85244E-01 -1.28897E-01
 -1.59201E-01 -2.06355E-01 -1.95960E-02 -2.14005E-01 +9.96851E-02 -1.55299E-01 +1.70747E-01 -4.88392E-02
 +1.77892E-01 +7.63246E-02 +1.20869E-01 +1.87634E-01 +1.45227E-02 +2.56578E-01 -1.14975E-01 +2.65119E-01
 -2.36370E-01 +2.09585E-01 -3.20551E-01 +1.01202E-01 -3.47128E-01 -3.67367E-02 -3.08878E-01 -1.74356E-01
 -2.13149E-01 -2.82035E-01 -7.99656E-02 -3.37040E-01 +6.26574E-02 -3.28477E-01 +1.85091E-01 -2.59512E-01
 +2.62701E-01 -1.46406E-01 +2.81233E-01 -1.46516E-02 +2.39771E-01 +1.06881E-01 +1.50675E-01 +1.92461E-01
 +3.65357E-02 +2.25203E-01 -7.51323E-02 +2.00695E-01 -1.58236E-01 +1.27754E-01 -1.94044E-01 +2.61570E-02
 -1.75369E-01 -7.81061E-02 -1.08039E-01 -1.58961E-01 -9.34532E-03 -1.96327E-01 +9.61746E-02 -1.80732E-01
 +1.82602E-01 -1.15397E-01 +2.28765E-01 -1.52984E-02 +2.23171E-01 +9.65328E-02 +1.66570E-01 +1.94596E-01
 +7.15476E-02 +2.57010E-01 -4.07272E-02 +2.70627E-01 -1.45770E-01 +2.33939E-01 -2.21741E-01 +1.57074E-01
 -2.54610E-01 +5.89371E-02 -2.41228E-01 -3.77436E-02 -1.89585E-01 -1.12160E-01 -1.16253E-01 -1.50474E-01
 -4.17368E-02 -1.48896E-01 +1.49777E-02 -1.14032E-01 +4.12266E-02 -6.05106E-02 +3.35636E-02 -6.61823E-03
 -1.96012E-03 +3.08175E-02 -5.20990E-02 +4.08597E-02 -1.00554E-01 +2.10225E-02 -1.32713E-01 -2.26746E-02
 -1.39616E-01 -7.80573E-02 -1.20044E-01 -1.30764E-01 -8.02051E-02 -1.68594E-01 -3.12241E-02 -1.84924E-01
 +1.47087E-02 -1.80207E-01 +4.82888E-02 -1.61151E-01 +6.59011E-02 -1.37947E-01 +7.04161E-02 -1.20462E-01
 +6.97600E-02 -1.14676E-01 +7.37586E-02 -1.20530E-01 +9.03105E-02 -1.31899E-01 +1.22171E-01 -1.38731E-01
 +1.65447E-01 -1.30666E-01 +2.10377E-01 -1.00967E-01 +2.44215E-01 -4.94471E-02 +2.55381E-01 +1.66358E-02
 +2.37557E-01 +8.41356E-02 +1.92400E-01 +1.37662E-01 +1.29886E-01 +1.64274E-01 +6.60402E-02 +1.57798E-01
 +1.85685E-02 +1.21381E-01 +1.62840E-03 +6.73834E-02 +2.12689E-02 +1.44599E-02 +7.29609E-02 -1.74462E-02
 +1.42073E-01 -1.28402E-02 +2.07313E-01 +3.45104E-02 +2.46282E-01 +1.19125E-01 +2.41646E-01 +2.24537E-01
 +1.86204E-01 +3.27112E-01 +8.53822E-02 +4.02013E-01 -4.36074E-02 +4.29703E-01 -1.75795E-01 +4.01230E-01
 -2.84639E-01 +3.20816E-01 -3.48719E-01 +2.05042E-01 -3.57162E-01 +7.87919E-02 -3.12357E-01 -3.09374E-02
 -2.29267E-01 -1.01745E-01 -1.31551E-01 -1.21285E-01 -4.55724E-02 -9.00953E-02 +6.12294E-03 -2.11300E-02
 +1.01703E-02 +6.37715E-02 -3.47098E-02 +1.39463E-01 -1.17884E-01 +1.83624E-01 -2.19839E-01 +1.81882E-01
 -3.17137E-01 +1.30738E-01 -3.87951E-01 +3.77337E-02 -4.16780E-01 -8.09400E-02 -3.97310E-01 -2.04580E-01
 -3.32939E-01 -3.12678E-01 -2.35140E-01 -3.89048E-01 -1.20336E-01 -4.24494E-01 -6.23345E-03 -4.17671E-01
 +9.14960E-02 -3.74274E-01 +1.61547E-01 -3.05077E-01 +1.98098E-01 -2.23505E-01 +2.00837E-01 -1.43333E-01
 +1.74270E-01 -7.68705E-02 +1.26687E-01 -3.37063E-02 +6.90752E-02 -1.98784E-02 +1.40008E-02 -3.72605E-02
 -2.56288E-02 -8.30685E-02 -3.81213E-02 -1.49578E-01 -1.49199E-02 -2.24333E-01 +4.72954E-02 -2.91209E-01
 +1.44790E-01 -3.32563E-01 +2.65888E-01 -3.32421E-01 +3.91643E-01 -2.80236E-01 +4.98421E-01 -1.74374E-01
 +5.62256E-01 -2.43035E-02 +5.64253E-01 +1.49459E-01 +4.95849E-01 +3.18136E-01 +3.62482E-01 +4.50043E-01
 +1.84417E-01 +5.17572E-01 -5.98513E-03 +5.04261E-01 -1.70393E-01 +4.10112E-01 -2.72924E-01 +2.53533E-01
 -2.89008E-01 +6.89613E-02 -2.12468E-01 -9.97557E-02 -5.88194E-02 -2.09030E-01 +1.36454E-01 -2.26116E-01
 +3.24719E-01 -1.38043E-01 +4.54861E-01 +4.35243E-02 +4.85493E-01 +2.83048E-01 +3.95756E-01 +5.27804E-01
 +1.91955E-01 +7.19273E-01 -9.19467E-02 +8.06795E-01 -4.00514E-01 +7.60248E-01 -6.68624E-01 +5.78600E-01
 -8.36330E-01 +2.91979E-01 -8.63351E-01 -4.36383E-02 -7.39655E-01 -3.58220E-01 -4.89371E-01 -5.83464E-01
 -1.66738E-01 -6.68956E-01 +1.55296E-01 -5.94832E-01 +4.01441E-01 -3.77757E-01 +5.11690E-01 -6.84887E-02
 +4.56044E-01 +2.58729E-01 +2.42719E-01 +5.22747E-01 -8.23581E-02 +6.54346E-01 -4.44963E-01 +6.12945E-01
 -7.58978E-01 +3.97148E-01 -9.46143E-01 +4.64486E-02 -9.54593E-01 -3.66610E-01 -7.71805E-01 -7.52245E-01
