 Created: 19-Jan-2021
 $NMID
 ID='D:\BASISSIMULATI'
 FMTDAT='(8E13.5)'
 VOLUME=   1.00000E+00
 TRAMP=   1.00000E+00
 $END
 +5.52957E+00 +6.22558E-03 +4.75938E+00 +2.80650E+00 +2.67748E+00 +4.82818E+00 -1.39757E-01 +5.51478E+00
 -2.91402E+00 +4.67901E+00 -4.88007E+00 +2.55379E+00 -5.49682E+00 -2.72579E-01 -4.59625E+00 -3.01932E+00
 -2.42917E+00 -4.92884E+00 +4.04615E-01 -5.47569E+00 +3.12234E+00 -4.51117E+00 +4.97446E+00 -2.30370E+00
 +5.45143E+00 +5.35792E-01 +4.42382E+00 +3.22303E+00 +2.17747E+00 +5.01694E+00 -6.66036E-01 +5.42407E+00
 -3.32134E+00 +4.33427E+00 -5.05626E+00 +2.05054E+00 -5.39363E+00 -7.95274E-01 -4.24259E+00 -3.41724E+00
 -1.92300E+00 -5.09240E+00 +9.23435E-01 -5.36015E+00 +3.51066E+00 -4.14883E+00 +5.12537E+00 -1.79492E+00
 +5.32367E+00 +1.05045E+00 +4.05307E+00 +3.60157E+00 +1.66638E+00 +5.15516E+00 -1.17624E+00 +5.28421E+00
 -3.68993E+00 +3.95536E+00 -5.18177E+00 +1.53747E+00 -5.24182E+00 -1.30076E+00 -3.85578E+00 -3.77570E+00
 -1.40825E+00 -5.20519E+00 +1.42391E+00 -5.19654E+00 +3.85883E+00 -3.75439E+00 +5.22543E+00 -1.27881E+00
 +5.14840E+00 +1.54565E+00 +3.65125E+00 +3.93930E+00 +1.14922E+00 +5.24249E+00 -1.66590E+00 +5.09745E+00
 -4.01706E+00 +3.54645E+00 -5.25638E+00 +1.01957E+00 -5.04373E+00 -1.78461E+00 -3.44005E+00 -4.09208E+00
 -8.89921E-01 -5.26709E+00 +1.90170E+00 -4.98728E+00 +4.16434E+00 -3.33212E+00 +5.27465E+00 -7.60357E-01
 +4.92816E+00 +2.01712E+00 +3.22273E+00 +4.23380E+00 +6.30953E-01 +5.27906E+00 -2.13081E+00 +4.86640E+00
 -4.30043E+00 +3.11195E+00 -5.28033E+00 +5.01786E-01 -4.80206E+00 -2.24270E+00 -2.99985E+00 -4.36421E+00
 -3.72929E-01 -5.27848E+00 +2.35275E+00 -4.73519E+00 +4.42511E+00 -2.88651E+00 +5.27352E+00 -2.44458E-01
 +4.66584E+00 +2.46088E+00 +2.77200E+00 +4.48312E+00 +1.16447E-01 +5.26547E+00 -2.56706E+00 +4.59406E+00
 -4.53821E+00 +2.65639E+00 -5.25435E+00 -1.10309E-02 -4.51991E+00 -2.67122E+00 -2.53976E+00 -4.59036E+00
 +1.37903E-01 -5.24018E+00 +2.77332E+00 -4.44344E+00 +4.63955E+00 -2.42217E+00 +5.22299E+00 +2.64098E-01
 +4.36470E+00 +2.87330E+00 +2.30371E+00 +4.68578E+00 -3.89543E-01 +5.20279E+00 -2.97111E+00 +4.28376E+00
 -4.72902E+00 +2.18445E+00 -5.17962E+00 -5.14168E-01 -4.20066E+00 -3.06671E+00 -2.06445E+00 -4.76926E+00
 +6.37905E-01 -5.15350E+00 +3.16005E+00 -4.11548E+00 +4.80650E+00 -1.94381E+00 +5.12445E+00 +7.60682E-01
 +4.02827E+00 +3.25108E+00 +1.82258E+00 +4.84073E+00 -8.82434E-01 +5.09252E+00 -3.33977E+00 +3.93910E+00
 -4.87194E+00 +1.70084E+00 -5.05774E+00 -1.00309E+00 -3.84801E+00 -3.42607E+00 -1.57868E+00 -4.90013E+00
 +1.12259E+00 -5.02013E+00 +3.50994E+00 -3.75509E+00 +4.92529E+00 -1.45615E+00 +4.97973E+00 +1.24087E+00
 +3.66038E+00 +3.59135E+00 +1.33335E+00 +4.94743E+00 -1.35785E+00 +4.93659E+00 -3.67025E+00 +3.56396E+00
 -4.96654E+00 +1.21033E+00 -4.89073E+00 -1.47349E+00 -3.46589E+00 -3.74661E+00 -1.08718E+00 -4.98264E+00
 +1.58771E+00 -4.84221E+00 +3.82041E+00 -3.36623E+00 +4.99571E+00 -9.63962E-01 +4.79105E+00 +1.70045E+00
 +3.26505E+00 +3.89160E+00 +8.40757E-01 +5.00577E+00 -1.81167E+00 +4.73731E+00 -3.96016E+00 +3.16243E+00
 -5.01283E+00 +7.17635E-01 -4.68102E+00 -1.92129E+00 -3.05842E+00 -4.02606E+00 -5.94667E-01 -5.01690E+00
 +2.02926E+00 -4.62223E+00 +4.08928E+00 -2.95309E+00 +5.01799E+00 -4.71927E-01 +4.56099E+00 +2.13552E+00
 +2.84651E+00 +4.14978E+00 +3.49486E-01 +5.01611E+00 -2.24003E+00 +4.49735E+00 -4.20755E+00 +2.73876E+00
 -5.01128E+00 +2.27413E-01 -4.43135E+00 -2.34272E+00 -2.62989E+00 -4.26256E+00 -1.05781E-01 -5.00352E+00
 +2.44355E+00 -4.36304E+00 +4.31480E+00 -2.51998E+00 +4.99283E+00 +1.53424E-02 +4.29248E+00 +2.54246E+00
 +2.40911E+00 +4.36424E+00 -1.35887E-01 +4.97925E+00 -2.63940E+00 +4.21972E+00 -4.41088E+00 +2.29733E+00
 -4.96280E+00 -2.55785E-01 -4.14481E+00 -2.73433E+00 -2.18472E+00 -4.45469E+00 +3.74968E-01 -4.94349E+00
 +2.82720E+00 -4.06780E+00 +4.49567E+00 -2.07135E+00 +4.92135E+00 +4.93370E-01 +3.98876E+00 +2.91796E+00
 +1.95729E+00 +4.53381E+00 -6.10923E-01 +4.89642E+00 -3.00658E+00 +3.90773E+00 -4.56908E+00 +1.84262E+00
 -4.86871E+00 -7.27564E-01 -3.82478E+00 -3.09300E+00 -1.72739E+00 -4.60149E+00 +8.43226E-01 -4.83825E+00
 +3.17719E+00 -3.73996E+00 +4.63104E+00 -1.61169E+00 +4.80509E+00 +9.57847E-01 +3.65333E+00 +3.25911E+00
 +1.49557E+00 +4.65771E+00 -1.07136E+00 +4.76924E+00 -3.33873E+00 +3.56495E+00 -4.68151E+00 +1.37912E+00
 -4.73074E+00 -1.18371E+00 -3.47488E+00 -3.41599E+00 -1.26241E+00 -4.70243E+00 +1.29484E+00 -4.68964E+00
 +3.49088E+00 -3.38319E+00 +4.72048E+00 -1.14550E+00 +4.64596E+00 +1.40467E+00 +3.28992E+00 +3.56335E+00
 +1.02846E+00 +4.73565E+00 -1.51317E+00 +4.59974E+00 -3.63338E+00 +3.19516E+00 -4.74796E+00 +9.11364E-01
 -4.55103E+00 -1.62025E+00 -3.09895E+00 -3.70094E+00 -7.94282E-01 -4.75741E+00 +1.72588E+00 -4.49985E+00
 +3.76599E+00 -3.00137E+00 +4.76401E+00 -6.77281E-01 +4.44626E+00 +1.82999E+00 +2.90247E+00 +3.82851E+00
 +5.60430E-01 +4.76776E+00 -1.93254E+00 +4.39030E+00 -3.88848E+00 +2.80233E+00 -4.76868E+00 +4.43798E-01
 -4.33201E+00 -2.03346E+00 -2.70100E+00 -3.94588E+00 -3.27452E-01 -4.76678E+00 +2.13270E+00 -4.27144E+00
 +4.00067E+00 -2.59856E+00 +4.76208E+00 -2.11459E-01 +4.20863E+00 +2.23022E+00 +2.49506E+00 +4.05284E+00
 +9.58876E-02 +4.75459E+00 -2.32597E+00 +4.14363E+00 -4.10238E+00 +2.39057E+00 -4.74432E+00 -1.91974E-02
 -4.07649E+00 -2.41989E+00 -2.28517E+00 -4.14926E+00 +1.33730E-01 -4.73131E+00 +2.51194E+00 -4.00726E+00
 +4.19348E+00 -2.17891E+00 +4.71556E+00 +2.47645E-01 +3.93599E+00 +2.60208E+00 +2.07187E+00 +4.23500E+00
 -3.60879E-01 +4.69710E+00 -2.69025E+00 +3.86273E+00 -4.27384E+00 +1.96410E+00 -4.67596E+00 -4.73367E-01
 -3.78754E+00 -2.77643E+00 -1.85568E+00 -4.30997E+00 +5.85047E-01 -4.65215E+00 +2.86056E+00 -3.71046E+00
 +4.34338E+00 -1.74668E+00 +4.62572E+00 +6.95856E-01 +3.63156E+00 +2.94260E+00 +1.63716E+00 +4.37408E+00
 -8.05734E-01 +4.59667E+00 -3.02252E+00 +3.55088E+00 -4.40204E+00 +1.52719E+00 -4.56505E+00 -9.14620E-01
 -3.46849E+00 -3.10029E+00 -1.41683E+00 -4.42728E+00 +1.02245E+00 -4.53088E+00 +3.17585E+00 -3.38443E+00
 +4.44979E+00 -1.30616E+00 +4.49420E+00 +1.12918E+00 +3.29878E+00 +3.24919E+00 +1.19523E+00 +4.46956E+00
 -1.23473E+00 +4.45504E+00 -3.32027E+00 +3.21157E+00 -4.48660E+00 +1.08412E+00 -4.41343E+00 -1.33906E+00
 -3.12289E+00 -3.38905E+00 -9.72892E-01 -4.50091E+00 +1.44211E+00 -4.36941E+00 +3.45550E+00 -3.03277E+00
 +4.51250E+00 -8.61614E-01 +4.32302E+00 +1.54382E+00 +2.94129E+00 +3.51961E+00 +7.50349E-01 +4.52137E+00
 -1.64415E+00 +4.27430E+00 -3.58133E+00 +2.84851E+00 -4.52753E+00 +6.39165E-01 -4.22328E+00 -1.74303E+00
 -2.75448E+00 -3.64065E+00 -5.28127E-01 -4.53099E+00 +1.84042E+00 -4.17001E+00 +3.69755E+00 -2.65926E+00
 +4.53176E+00 -4.17298E-01 +4.11453E+00 +1.93626E+00 +2.56292E+00 +3.75199E+00 +3.06745E-01 +4.52984E+00
 -2.03051E+00 +4.05688E+00 -3.80396E+00 +2.46552E+00 -4.52527E+00 +1.96530E-01 -3.99710E+00 -2.12312E+00
 -2.36713E+00 -3.85344E+00 -8.67170E-02 -4.51804E+00 +2.21404E+00 -3.93525E+00 +3.90042E+00 -2.26780E+00
 +4.50818E+00 +2.26307E-02 +3.87137E+00 +2.30322E+00 +2.16760E+00 +3.94487E+00 -1.31451E-01 +4.49571E+00
 -2.39063E+00 +3.80550E+00 -3.98678E+00 +2.06659E+00 -4.48064E+00 -2.39682E-01 -3.73769E+00 -2.47621E+00
 -1.96483E+00 -4.02614E+00 +3.47263E-01 -4.46299E+00 +2.55993E+00 -3.66800E+00 +4.06295E+00 -1.86239E+00
 +4.44280E+00 +4.54133E-01 +3.59646E+00 +2.64175E+00 +1.75934E+00 +4.09718E+00 -5.60233E-01 +4.42008E+00
 -2.72162E+00 +3.52315E+00 -4.12883E+00 +1.65573E+00 -4.39485E+00 -6.65503E-01 -3.44809E+00 -2.79951E+00
 -1.55163E+00 -4.15789E+00 +7.69885E-01 -4.36715E+00 +2.87538E+00 -3.37136E+00 +4.18437E+00 -1.44711E+00
 +4.33700E+00 +8.73322E-01 +3.29299E+00 +2.94919E+00 +1.34222E+00 +4.20824E+00 -9.75757E-01 +4.30443E+00
 -3.02092E+00 +3.21305E+00 -4.22953E+00 +1.23703E+00 -4.26948E+00 -1.07713E+00 -3.13159E+00 -3.09053E+00
 -1.13161E+00 -4.24821E+00 +1.17740E+00 -4.23217E+00 +3.15799E+00 -3.04866E+00 +4.26430E+00 -1.02601E+00
 +4.19253E+00 +1.27650E+00 +2.96433E+00 +3.22326E+00 +9.20308E-01 +4.27780E+00 -1.37438E+00 +4.15061E+00
 -3.28633E+00 +2.87864E+00 -4.28871E+00 +8.14557E-01 -4.10644E+00 -1.47099E+00 -2.79165E+00 -3.34716E+00
 -7.08822E-01 -4.29704E+00 +1.56627E+00 -4.06005E+00 +3.40572E+00 -2.70342E+00 +4.30279E+00 -6.03166E-01
 +4.01147E+00 +1.66018E+00 +2.61402E+00 +3.46200E+00 +4.97650E-01 +4.30597E+00 -1.75268E+00 +3.96077E+00
 -3.51598E+00 +2.52349E+00 -4.30660E+00 +3.92337E-01 -3.90796E+00 -1.84370E+00 -2.43189E+00 -3.56762E+00
 -2.87288E-01 -4.30468E+00 +1.93320E+00 -3.85309E+00 +3.61692E+00 -2.33930E+00 +4.30023E+00 -1.82562E-01
 +3.79620E+00 +2.02115E+00 +2.24575E+00 +3.66384E+00 +7.82217E-02 +4.29326E+00 -2.10748E+00 +3.73734E+00
 -3.70839E+00 +2.15132E+00 -4.28379E+00 -2.56747E-02 -3.67656E+00 -2.19217E+00 -2.05607E+00 -3.75054E+00
 +1.29067E-01 -4.27183E+00 +2.27517E+00 -3.61388E+00 +3.79027E+00 -1.96004E+00 +4.25741E+00 +2.31898E-01
 +3.54937E+00 +2.35643E+00 +1.86332E+00 +3.82758E+00 -3.34108E-01 +4.24055E+00 -2.43592E+00 +3.48307E+00
 -3.86246E+00 +1.76594E+00 -4.22126E+00 -4.35641E-01 -3.41502E+00 -2.51359E+00 -1.66799E+00 -3.89489E+00
 +5.36438E-01 -4.19957E+00 +2.58942E+00 -3.34528E+00 +3.92487E+00 -1.56951E+00 +4.17550E+00 +6.36446E-01
 +3.27389E+00 +2.66337E+00 +1.47056E+00 +3.95239E+00 -7.35607E-01 +4.14908E+00 -2.73539E+00 +3.20090E+00
 -3.97745E+00 +1.37121E+00 -4.12034E+00 -8.33868E-01 -3.12637E+00 -2.80546E+00 -1.27152E+00 -4.00004E+00
 +9.31175E-01 -4.08930E+00 +2.87354E+00 -3.05034E+00 +4.02017E+00 -1.17155E+00 +4.05599E+00 +1.02748E+00
 +2.97287E+00 +2.93961E+00 +1.07136E+00 +4.03783E+00 -1.12272E+00 +4.02044E+00 -3.00363E+00 +2.89401E+00
 -4.05302E+00 +9.71003E-01 -3.98269E+00 -1.21685E+00 -2.81381E+00 -3.06558E+00 -8.70547E-01 -4.06575E+00
 +1.30981E+00 -3.94276E+00 +3.12543E+00 -2.73233E+00 +4.07601E+00 -7.70049E-01 +3.90070E+00 +1.40157E+00
 +2.64961E+00 +3.18315E+00 +6.69569E-01 +4.08383E+00 -1.49207E+00 +3.85653E+00 -3.23872E+00 +2.56572E+00
 -4.08919E+00 +5.69166E-01 -3.81029E+00 -1.58127E+00 -2.48071E+00 -3.29212E+00 -4.68899E-01 -4.09212E+00
