 Created: 19-Jan-2021
 $NMID
 ID='D:\BASISSIMULATI'
 FMTDAT='(8E13.5)'
 VOLUME=   1.00000E+00
 TRAMP=   1.00000E+00
 $END
 +6.71751E+00 +7.66450E-03 +5.76011E+00 +3.27229E+00 +3.19565E+00 +5.44073E+00 -5.80058E-02 +5.80554E+00
 -2.84813E+00 +4.31732E+00 -4.20955E+00 +1.59746E+00 -3.71596E+00 -1.29491E+00 -1.63152E+00 -3.25500E+00
 +1.19180E+00 -3.53892E+00 +3.63206E+00 -2.03531E+00 +4.71261E+00 +6.96820E-01 +3.96195E+00 +3.63675E+00
 +1.58627E+00 +5.67929E+00 -1.60756E+00 +6.04142E+00 -4.50906E+00 +4.54884E+00 -6.11110E+00 +1.69815E+00
 -5.87707E+00 -1.52713E+00 -3.93373E+00 -4.01765E+00 -1.02022E+00 -4.94339E+00 +1.78682E+00 -4.05388E+00
 +3.46972E+00 -1.76421E+00 +3.44197E+00 +1.00336E+00 +1.75969E+00 +3.16269E+00 -9.04113E-01 +3.86472E+00
 -3.51157E+00 +2.80893E+00 -5.04433E+00 +3.51335E-01 -4.87862E+00 -2.62904E+00 -3.01332E+00 -5.05495E+00
 -6.85052E-02 -6.04657E+00 +2.94362E+00 -5.24258E+00 +4.99005E+00 -2.92947E+00 +5.39349E+00 +6.69844E-02
 +4.07621E+00 +2.68681E+00 +1.58272E+00 +4.02432E+00 -1.12530E+00 +3.65718E+00 -3.02530E+00 +1.79579E+00
 -3.40946E+00 -8.00221E-01 -2.14204E+00 -3.10626E+00 +2.95164E-01 -4.21199E+00 +2.98418E+00 -3.65588E+00
 +4.91098E+00 -1.59274E+00 +5.33857E+00 +1.26592E+00 +4.07594E+00 +3.91518E+00 +1.54533E+00 +5.42557E+00
 -1.37548E+00 +5.28190E+00 -3.67629E+00 +3.56787E+00 -4.58344E+00 +9.30329E-01 -3.83927E+00 -1.66199E+00
 -1.79032E+00 -3.27542E+00 +7.46156E-01 -3.35216E+00 +2.78687E+00 -1.91044E+00 +3.54518E+00 +4.68191E-01
 +2.71844E+00 +2.85785E+00 +5.95559E-01 +4.33164E+00 -2.05328E+00 +4.30250E+00 -4.26230E+00 +2.73675E+00
 -5.22526E+00 +1.63253E-01 -4.58920E+00 -2.52341E+00 -2.58010E+00 -4.39193E+00 +8.43040E-02 -4.81380E+00
 +2.46046E+00 -3.68915E+00 +3.72506E+00 -1.47732E+00 +3.47360E+00 +9.77259E-01 +1.86288E+00 +2.75812E+00
 -4.53275E-01 +3.21293E+00 -2.56952E+00 +2.18952E+00 -3.66405E+00 +8.63953E-02 -3.29972E+00 -2.29891E+00
 -1.58135E+00 -4.06618E+00 +8.86855E-01 -4.54359E+00 +3.22635E+00 -3.53212E+00 +4.60741E+00 -1.37466E+00
 +4.55144E+00 +1.17355E+00 +3.10187E+00 +3.22392E+00 +8.02795E-01 +4.07924E+00 -1.50502E+00 +3.48504E+00
 -2.99414E+00 +1.71657E+00 -3.15203E+00 -5.28815E-01 -1.96399E+00 -2.39208E+00 +8.79320E-02 -3.16909E+00
 +2.20781E+00 -2.56680E+00 +3.58133E+00 -8.06065E-01 +3.67469E+00 +1.46460E+00 +2.42760E+00 +3.41086E+00
 +2.70984E-01 +4.31959E+00 -2.03503E+00 +3.85830E+00 -3.68151E+00 +2.19252E+00 -4.10575E+00 -7.97986E-02
 -3.19296E+00 -2.15102E+00 -1.31208E+00 -3.30021E+00 +8.25303E-01 -3.15420E+00 +2.42916E+00 -1.81836E+00
 +2.92044E+00 +1.69012E-01 +2.13951E+00 +2.03972E+00 +3.98703E-01 +3.08001E+00 -1.63833E+00 +2.89123E+00
 -3.20400E+00 +1.53192E+00 -3.70899E+00 -5.08879E-01 -2.95566E+00 -2.49530E+00 -1.20582E+00 -3.71605E+00
 +9.20135E-01 -3.74324E+00 +2.67339E+00 -2.58457E+00 +3.45066E+00 -6.74547E-01 +3.01117E+00 +1.28960E+00
 +1.55856E+00 +2.60540E+00 -3.40472E-01 +2.82077E+00 -1.96858E+00 +1.89446E+00 -2.72184E+00 +2.04343E-01
 -2.32851E+00 -1.59728E+00 -9.43216E-01 -2.82634E+00 +9.15810E-01 -3.01752E+00 +2.56121E+00 -2.09124E+00
 +3.38975E+00 -3.77455E-01 +3.10108E+00 +1.51023E+00 +1.80286E+00 +2.90184E+00 -3.43762E-02 +3.31545E+00
 -1.75367E+00 +2.62918E+00 -2.75317E+00 +1.11951E+00 -2.70358E+00 -6.45997E-01 -1.66277E+00 -2.02011E+00
 -4.75999E-02 -2.51264E+00 +1.52449E+00 -1.96594E+00 +2.46413E+00 -6.06229E-01 +2.42438E+00 +1.04578E+00
 +1.42310E+00 +2.36988E+00 -1.69683E-01 +2.87421E+00 -1.77241E+00 +2.37236E+00 -2.80711E+00 +1.04624E+00
 -2.90943E+00 -6.26203E-01 -2.05718E+00 -2.04954E+00 -5.72252E-01 -2.72889E+00 +1.00253E+00 -2.44733E+00
 +2.10444E+00 -1.33896E+00 +2.35518E+00 +1.66845E-01 +1.69419E+00 +1.50739E+00 +3.93890E-01 +2.19371E+00
 -1.04634E+00 +1.98669E+00 -2.08648E+00 +9.78745E-01 -2.34307E+00 -4.46593E-01 -1.72554E+00 -1.75997E+00
 -4.63285E-01 -2.48153E+00 +9.83939E-01 -2.35412E+00 +2.09738E+00 -1.43213E+00 +2.48838E+00 -5.53818E-02
 +2.03623E+00 +1.27986E+00 +9.25922E-01 +2.10374E+00 -4.25686E-01 +2.14202E+00 -1.52603E+00 +1.41056E+00
 -1.98672E+00 +2.02552E-01 -1.66151E+00 -1.02437E+00 -6.93236E-01 -1.81788E+00 +5.45089E-01 -1.89462E+00
 +1.59102E+00 -1.23875E+00 +2.06242E+00 -1.01176E-01 +1.79386E+00 +1.09775E+00 +8.91250E-01 +1.92440E+00
 -3.13055E-01 +2.08895E+00 -1.38586E+00 +1.54636E+00 -1.95191E+00 +5.06454E-01 -1.82754E+00 -6.48413E-01
 -1.08164E+00 -1.50568E+00 -3.76487E-03 -1.77194E+00 +1.00638E+00 -1.37512E+00 +1.58611E+00 -4.83966E-01
 +1.53924E+00 +5.59837E-01 +9.01866E-01 +1.36994E+00 -7.76127E-02 +1.65585E+00 -1.03431E+00 +1.32475E+00
 -1.62174E+00 +5.08982E-01 -1.63591E+00 -4.88313E-01 -1.08435E+00 -1.30736E+00 -1.76843E-01 -1.66265E+00
 +7.56130E-01 -1.44297E+00 +1.38569E+00 -7.45602E-01 +1.50221E+00 +1.65400E-01 +1.08616E+00 +9.59371E-01
 +3.08470E-01 +1.35955E+00 -5.37400E-01 +1.24007E+00 -1.14481E+00 +6.65425E-01 -1.30396E+00 -1.39637E-01
 -9.73248E-01 -8.76369E-01 -2.87722E-01 -1.28150E+00 +4.95811E-01 -1.21982E+00 +1.09502E+00 -7.27407E-01
 +1.30355E+00 +7.86116E-03 +1.06136E+00 +7.19166E-01 +4.70086E-01 +1.15864E+00 -2.49675E-01 +1.18440E+00
 -8.41529E-01 +8.06275E-01 -1.10545E+00 +1.75635E-01 -9.65828E-01 -4.74382E-01 -4.92417E-01 -9.14856E-01
 +1.31143E-01 -1.00152E+00 +6.77419E-01 -7.21416E-01 +9.57281E-01 -1.91017E-01 +8.84365E-01 +3.91167E-01
 +5.00101E-01 +8.18326E-01 -4.74122E-02 +9.48123E-01 -5.60742E-01 +7.48961E-01 -8.64529E-01 +3.05004E-01
 -8.65156E-01 -2.19456E-01 -5.78525E-01 -6.41427E-01 -1.18182E-01 -8.23480E-01 +3.49622E-01 -7.18304E-01
 +6.66211E-01 -3.79370E-01 +7.34254E-01 +6.37589E-02 +5.46915E-01 +4.54549E-01 +1.84095E-01 +6.64444E-01
 -2.20566E-01 +6.34406E-01 -5.28475E-01 +3.89877E-01 -6.42876E-01 +2.61426E-02 -5.37990E-01 -3.28590E-01
 -2.62177E-01 -5.58143E-01 +8.37174E-02 -5.95656E-01 +3.83444E-01 -4.41500E-01 +5.44232E-01 -1.57709E-01
 +5.24605E-01 +1.57021E-01 +3.43217E-01 +4.01773E-01 +6.78278E-02 +5.05292E-01 -2.10002E-01 +4.45515E-01
 -4.05047E-01 +2.52011E-01 -4.63608E-01 -7.49104E-03 -3.76742E-01 -2.50575E-01 -1.79073E-01 -4.05536E-01
 +6.47608E-02 -4.31162E-01 +2.80746E-01 -3.26064E-01 +4.06802E-01 -1.26249E-01 +4.09105E-01 +1.07092E-01
 +2.89832E-01 +3.05495E-01 +8.51836E-02 +4.11941E-01 -1.45143E-01 +3.95889E-01 -3.34212E-01 +2.61268E-01
 -4.25945E-01 +4.56920E-02 -3.90803E-01 -1.89079E-01 -2.35102E-01 -3.73493E-01 -1.08901E-03 -4.49706E-01
 +2.43136E-01 -3.89286E-01 +4.22158E-01 -2.03900E-01 +4.75825E-01 +5.50327E-02 +3.79437E-01 +3.09078E-01
 +1.54824E-01 +4.75489E-01 -1.32519E-01 +4.93800E-01 -3.91100E-01 +3.47915E-01 -5.31772E-01 +7.56238E-02
 -4.98272E-01 -2.39305E-01 -2.89550E-01 -4.91749E-01 +3.49395E-02 -5.89801E-01 +3.70742E-01 -4.88060E-01
 +6.01329E-01 -2.07581E-01 +6.38359E-01 +1.66049E-01 +4.55389E-01 +5.07957E-01 +1.02191E-01 +6.95534E-01
 -3.07314E-01 +6.52605E-01 -6.31342E-01 +3.80293E-01 -7.49482E-01 -3.78587E-02 -6.07800E-01 -4.60432E-01
 -2.42924E-01 -7.35605E-01 +2.25354E-01 -7.55749E-01 +6.32479E-01 -4.99531E-01 +8.26495E-01 -4.50825E-02
 +7.24439E-01 +4.52570E-01 +3.46831E-01 +8.13771E-01 -1.83886E-01 +8.98725E-01 -6.82582E-01 +6.61061E-01
 -9.66027E-01 +1.69960E-01 -9.20334E-01 -4.09143E-01 -5.46415E-01 -8.70447E-01 +3.46272E-02 -1.04149E+00
 +6.20250E-01 -8.48280E-01 +9.97263E-01 -3.47191E-01 +1.01995E+00 +2.89809E-01 +6.66894E-01 +8.33425E-01
 +5.43584E-02 +1.07920E+00 -6.00703E-01 +9.24126E-01 -1.05658E+00 +4.09089E-01 -1.13513E+00 -2.90265E-01
 -7.90319E-01 -9.22927E-01 -1.30503E-01 -1.25230E+00 +6.15502E-01 -1.14423E+00 +1.17837E+00 -6.20499E-01
 +1.34626E+00 +1.43358E-01 +1.04517E+00 +8.77366E-01 +3.71149E-01 +1.31351E+00 -4.39367E-01 +1.28488E+00
 -1.09227E+00 +7.90768E-01 -1.34271E+00 +2.43932E-03 -1.08733E+00 -7.94722E-01 -4.07136E-01 -1.30325E+00
 +4.56700E-01 -1.32343E+00 +1.18712E+00 -8.30398E-01 +1.50629E+00 +1.11651E-02 +1.27970E+00 +9.02202E-01
 +5.70318E-01 +1.51588E+00 -3.78872E-01 +1.61769E+00 -1.22951E+00 +1.15481E+00 -1.67026E+00 +2.80699E-01
 -1.53260E+00 -6.96007E-01 -8.56874E-01 -1.42151E+00 +1.17278E-01 -1.62651E+00 +1.03456E+00 -1.22801E+00
 +1.55270E+00 -3.64653E-01 +1.46961E+00 +6.49138E-01 +8.01721E-01 +1.43535E+00 -2.16624E-01 +1.69093E+00
 -1.21467E+00 +1.30199E+00 -1.81922E+00 +3.90675E-01 -1.79273E+00 -7.24324E-01 -1.12443E+00 -1.64093E+00
 -3.95730E-02 -2.02039E+00 +1.07847E+00 -1.71381E+00 +1.82641E+00 -8.21247E-01 +1.92954E+00 +3.40043E-01
 +1.34582E+00 +1.34847E+00 +2.86075E-01 +1.83190E+00 -8.59162E-01 +1.60638E+00 -1.66071E+00 +7.47894E-01
 -1.80906E+00 -4.30652E-01 -1.23148E+00 -1.49066E+00 -1.23764E-01 -2.02789E+00 +1.11682E+00 -1.82290E+00
 +2.03451E+00 -9.26044E-01 +2.28246E+00 +3.55820E-01 +1.75294E+00 +1.56770E+00 +6.21541E-01 +2.27171E+00
 -7.12589E-01 +2.20890E+00 -1.77025E+00 +1.39781E+00 -2.16774E+00 +1.32127E-01 -1.76011E+00 -1.12350E+00
 -6.98418E-01 -1.90261E+00 +6.21561E-01 -1.90954E+00 +1.70205E+00 -1.13162E+00 +2.12609E+00 +1.51436E-01
 +1.71343E+00 +1.46638E+00 +5.91316E-01 +2.31838E+00 -8.47278E-01 +2.37383E+00 -2.08447E+00 +1.58637E+00
 -2.66662E+00 +2.18782E-01 -2.37265E+00 -1.24916E+00 -1.29898E+00 -2.29427E+00 +1.71639E-01 -2.54218E+00
 +1.50746E+00 -1.90729E+00 +2.22209E+00 -6.27917E-01 +2.05469E+00 +8.17721E-01 +1.06921E+00 +1.88542E+00
 -3.65126E-01 +2.16562E+00 -1.70653E+00 +1.53695E+00 -2.43905E+00 +2.15229E-01 -2.26403E+00 -1.32160E+00
 -1.21386E+00 -2.50646E+00 +3.55135E-01 -2.89146E+00 +1.88959E+00 -2.31486E+00 +2.84043E+00 -9.64551E-01
 +2.86510E+00 +6.86741E-01 +1.95601E+00 +2.05223E+00 +4.46923E-01 +2.64589E+00 -1.10673E+00 +2.26257E+00
 -2.13060E+00 +1.05639E+00 -2.24351E+00 -5.12768E-01 -1.40044E+00 -1.84626E+00 +8.71602E-02 -2.42696E+00
 +1.66259E+00 -2.01179E+00 +2.72712E+00 -7.25148E-01 +2.86101E+00 +9.82401E-01 +1.98095E+00 +2.49647E+00
 +3.74968E-01 +3.26346E+00 -1.39927E+00 +2.99521E+00 -2.71676E+00 +1.77788E+00 -3.11437E+00 +4.38265E-02
 -2.46248E+00 -1.58440E+00 -1.01535E+00 -2.52175E+00 +6.79835E-01 -2.43657E+00 +1.98277E+00 -1.37495E+00
 +2.39610E+00 +2.53392E-01 +1.75079E+00 +1.82360E+00 +2.71933E-01 +2.72516E+00 -1.50049E+00 +2.58816E+00
