 Created: 19-Jan-2021
 $NMID
 ID='D:\BASISSIMULATI'
 FMTDAT='(8E13.5)'
 VOLUME=   1.00000E+00
 TRAMP=   1.00000E+00
 $END
 +6.61709E+00 +7.48438E-03 +6.52940E+00 +8.30060E-01 +6.31563E+00 +1.62466E+00 +5.98270E+00 +2.37090E+00
 +5.54092E+00 +3.04995E+00 +5.00356E+00 +3.64510E+00 +4.38649E+00 +4.14220E+00 +3.70768E+00 +4.53009E+00
 +2.98661E+00 +4.80089E+00 +2.24372E+00 +4.95018E+00 +1.49977E+00 +4.97712E+00 +7.75225E-01 +4.88444E+00
 +8.96291E-02 +4.67828E+00 -5.38944E-01 +4.36799E+00 -1.09442E+00 +3.96578E+00 -1.56320E+00 +3.48635E+00
 -1.93449E+00 +2.94638E+00 -2.20061E+00 +2.36401E+00 -2.35720E+00 +1.75826E+00 -2.40325E+00 +1.14845E+00
 -2.34111E+00 +5.53608E-01 -2.17635E+00 -8.12900E-03 -1.91754E+00 -5.20028E-01 -1.57591E+00 -9.67258E-01
 -1.16499E+00 -1.33732E+00 -7.00126E-01 -1.62036E+00 -1.97982E-01 -1.80948E+00 +3.24014E-01 -1.90083E+00
 +8.48218E-01 -1.89373E+00 +1.35733E+00 -1.79058E+00 +1.83494E+00 -1.59675E+00 +2.26601E+00 -1.32035E+00
 +2.63734E+00 -9.71921E-01 +2.93792E+00 -5.64033E-01 +3.15927E+00 -1.10861E-01 +3.29567E+00 +3.72307E-01
 +3.34423E+00 +8.69582E-01 +3.30497E+00 +1.36500E+00 +3.18077E+00 +1.84304E+00 +2.97716E+00 +2.28911E+00
 +2.70215E+00 +2.69001E+00 +2.36590E+00 +3.03436E+00 +1.98033E+00 +3.31288E+00 +1.55868E+00 +3.51871E+00
 +1.11509E+00 +3.64757E+00 +6.64085E-01 +3.69783E+00 +2.20078E-01 +3.67056E+00 -2.03089E-01 +3.56941E+00
 -5.92616E-01 +3.40044E+00 -9.37151E-01 +3.17190E+00 -1.22715E+00 +2.89389E+00 -1.45516E+00 +2.57801E+00
 -1.61608E+00 +2.23690E+00 -1.70723E+00 +1.88385E+00 -1.72847E+00 +1.53228E+00 -1.68215E+00 +1.19533E+00
 -1.57297E+00 +8.85373E-01 -1.40786E+00 +6.13616E-01 -1.19561E+00 +3.89724E-01 -9.46650E-01 +2.21500E-01
 -6.72619E-01 +1.14639E-01 -3.85963E-01 +7.25440E-02 -9.95016E-02 +9.62266E-02 +1.74017E-01 +1.84290E-01
 +4.22360E-01 +3.32991E-01 +6.34222E-01 +5.36377E-01 +7.99620E-01 +7.86506E-01 +9.10224E-01 +1.07372E+00
 +9.59644E-01 +1.38699E+00 +9.43643E-01 +1.71427E+00 +8.60282E-01 +2.04295E+00 +7.09981E-01 +2.36025E+00
 +4.95512E-01 +2.65368E+00 +2.21902E-01 +2.91141E+00 -1.03730E-01 +3.12275E+00 -4.72406E-01 +3.27845E+00
 -8.73589E-01 +3.37101E+00 -1.29553E+00 +3.39499E+00 -1.72563E+00 +3.34712E+00 -2.15090E+00 +3.22647E+00
 -2.55834E+00 +3.03448E+00 -2.93538E+00 +2.77488E+00 -3.27029E+00 +2.45364E+00 -3.55257E+00 +2.07872E+00
 -3.77327E+00 +1.65987E+00 -3.92531E+00 +1.20829E+00 -4.00368E+00 +7.36305E-01 -4.00563E+00 +2.56941E-01
 -3.93075E+00 -2.16455E-01 -3.78099E+00 -6.70651E-01 -3.56061E+00 -1.09294E+00 -3.27603E+00 -1.47155E+00
 -2.93565E+00 -1.79600E+00 -2.54958E+00 -2.05741E+00 -2.12935E+00 -2.24884E+00 -1.68752E+00 -2.36544E+00
 -1.23730E+00 -2.40460E+00 -7.92160E-01 -2.36610E+00 -3.65405E-01 -2.25203E+00 +3.02335E-02 -2.06675E+00
 +3.82982E-01 -1.81679E+00 +6.82385E-01 -1.51060E+00 +9.19616E-01 -1.15828E+00 +1.08774E+00 -7.71337E-01
 +1.18192E+00 -3.62241E-01 +1.19956E+00 +5.58914E-02 +1.14035E+00 +4.69721E-01 +1.00630E+00 +8.66086E-01
 +8.01634E-01 +1.23239E+00 +5.32666E-01 +1.55700E+00 +2.07601E-01 +1.82956E+00 -1.63732E-01 +2.04130E+00
 -5.70181E-01 +2.18530E+00 -9.99614E-01 +2.25668E+00 -1.43929E+00 +2.25271E+00 -1.87625E+00 +2.17290E+00
 -2.29767E+00 +2.01897E+00 -2.69131E+00 +1.79479E+00 -3.04580E+00 +1.50626E+00 -3.35100E+00 +1.16106E+00
 -3.59828E+00 +7.68471E-01 -3.78078E+00 +3.39038E-01 -3.89355E+00 -1.15748E-01 -3.93370E+00 -5.83798E-01
 -3.90046E+00 -1.05279E+00 -3.79516E+00 -1.51054E+00 -3.62116E+00 -1.94536E+00 -3.38372E+00 -2.34639E+00
 -3.08983E+00 -2.70390E+00 -2.74796E+00 -3.00958E+00 -2.36780E+00 -3.25674E+00 -1.95991E+00 -3.44050E+00
 -1.53547E+00 -3.55787E+00 -1.10584E+00 -3.60785E+00 -6.82297E-01 -3.59137E+00 -2.75679E-01 -3.51126E+00
 +1.03947E-01 -3.37210E+00 +4.47548E-01 -3.18009E+00 +7.47384E-01 -2.94278E+00 +9.97201E-01 -2.66884E+00
 +1.19239E+00 -2.36779E+00 +1.33010E+00 -2.04964E+00 +1.40926E+00 -1.72465E+00 +1.43058E+00 -1.40296E+00
 +1.39649E+00 -1.09430E+00 +1.31102E+00 -8.07739E-01 +1.17965E+00 -5.51361E-01 +1.00907E+00 -3.32096E-01
 +8.07008E-01 -1.55518E-01 +5.81896E-01 -2.57110E-02 +3.42646E-01 +5.48199E-02 +9.83394E-02 +8.51816E-02
 -1.42053E-01 +6.60804E-02 -3.69945E-01 -2.42087E-04 -5.77391E-01 -1.10119E-01 -7.57316E-01 -2.58610E-01
 -9.03714E-01 -4.39687E-01 -1.01181E+00 -6.46456E-01 -1.07816E+00 -8.71389E-01 -1.10074E+00 -1.10658E+00
 -1.07899E+00 -1.34401E+00 -1.01373E+00 -1.57579E+00 -9.07172E-01 -1.79441E+00 -7.62752E-01 -1.99297E+00
 -5.85026E-01 -2.16537E+00 -3.79480E-01 -2.30651E+00 -1.52334E-01 -2.41239E+00 +8.96774E-02 -2.48021E+00
 +3.39528E-01 -2.50846E+00 +5.90138E-01 -2.49690E+00 +8.34596E-01 -2.44653E+00 +1.06638E+00 -2.35955E+00
 +1.27954E+00 -2.23924E+00 +1.46891E+00 -2.08982E+00 +1.63019E+00 -1.91631E+00 +1.76013E+00 -1.72432E+00
 +1.85655E+00 -1.51987E+00 +1.91841E+00 -1.30917E+00 +1.94580E+00 -1.09843E+00 +1.93991E+00 -8.93656E-01
 +1.90295E+00 -7.00451E-01 +1.83806E+00 -5.23852E-01 +1.74920E+00 -3.68183E-01 +1.64094E+00 -2.36929E-01
 +1.51835E+00 -1.32651E-01 +1.38682E+00 -5.69248E-02 +1.25181E+00 -1.03164E-02 +1.11876E+00 +7.60648E-03
 +9.92831E-01 -1.76576E-03 +8.78797E-01 -3.61565E-02 +7.80876E-01 -9.25016E-02 +7.02605E-01 -1.67072E-01
 +6.46748E-01 -2.55612E-01 +6.15223E-01 -3.53497E-01 +6.09059E-01 -4.55891E-01 +6.28386E-01 -5.57914E-01
 +6.72455E-01 -6.54802E-01 +7.39683E-01 -7.42064E-01 +8.27724E-01 -8.15615E-01 +9.33567E-01 -8.71910E-01
 +1.05365E+00 -9.08036E-01 +1.18400E+00 -9.21800E-01 +1.32034E+00 -9.11777E-01 +1.45827E+00 -8.77341E-01
 +1.59341E+00 -8.18663E-01 +1.72151E+00 -7.36686E-01 +1.83861E+00 -6.33079E-01 +1.94115E+00 -5.10161E-01
 +2.02609E+00 -3.70810E-01 +2.09096E+00 -2.18363E-01 +2.13394E+00 -5.64905E-02 +2.15393E+00 +1.10921E-01
 +2.15049E+00 +2.79904E-01 +2.12393E+00 +4.46531E-01 +2.07520E+00 +6.07038E-01 +2.00586E+00 +7.57938E-01
 +1.91806E+00 +8.96121E-01 +1.81439E+00 +1.01893E+00 +1.69783E+00 +1.12425E+00 +1.57162E+00 +1.21053E+00
 +1.43916E+00 +1.27681E+00 +1.30391E+00 +1.32277E+00 +1.16926E+00 +1.34867E+00 +1.03847E+00 +1.35534E+00
 +9.14511E-01 +1.34412E+00 +8.00049E-01 +1.31684E+00 +6.97342E-01 +1.27568E+00 +6.08197E-01 +1.22315E+00
 +5.33937E-01 +1.16197E+00 +4.75378E-01 +1.09497E+00 +4.32830E-01 +1.02503E+00 +4.06110E-01 +9.54952E-01
 +3.94571E-01 +8.87429E-01 +3.97143E-01 +8.24926E-01 +4.12387E-01 +7.69639E-01 +4.38555E-01 +7.23441E-01
 +4.73659E-01 +6.87841E-01 +5.15539E-01 +6.63963E-01 +5.61939E-01 +6.52530E-01 +6.10575E-01 +6.53868E-01
 +6.59204E-01 +6.67921E-01 +7.05682E-01 +6.94273E-01 +7.48023E-01 +7.32182E-01 +7.84439E-01 +7.80622E-01
 +8.13381E-01 +8.38329E-01 +8.33560E-01 +9.03852E-01 +8.43970E-01 +9.75603E-01 +8.43886E-01 +1.05191E+00
 +8.32867E-01 +1.13107E+00 +8.10745E-01 +1.21139E+00 +7.77605E-01 +1.29122E+00 +7.33761E-01 +1.36899E+00
 +6.79733E-01 +1.44328E+00 +6.16213E-01 +1.51278E+00 +5.44036E-01 +1.57632E+00 +4.64148E-01 +1.63292E+00
 +3.77577E-01 +1.68175E+00 +2.85408E-01 +1.72213E+00 +1.88755E-01 +1.75356E+00 +8.87447E-02 +1.77568E+00
 -1.35002E-02 +1.78825E+00 -1.16875E-01 +1.79118E+00 -2.20302E-01 +1.78447E+00 -3.22731E-01 +1.76825E+00
 -4.23151E-01 +1.74271E+00 -5.20583E-01 +1.70816E+00 -6.14087E-01 +1.66499E+00 -7.02760E-01 +1.61365E+00
 -7.85739E-01 +1.55470E+00 -8.62202E-01 +1.48877E+00 -9.31378E-01 +1.41659E+00 -9.92553E-01 +1.33897E+00
 -1.04508E+00 +1.25681E+00 -1.08840E+00 +1.17114E+00 -1.12205E+00 +1.08304E+00 -1.14569E+00 +9.93710E-01
 -1.15911E+00 +9.04422E-01 -1.16227E+00 +8.16511E-01 -1.15532E+00 +7.31364E-01 -1.13859E+00 +6.50387E-01
 -1.11262E+00 +5.74983E-01 -1.07818E+00 +5.06513E-01 -1.03627E+00 +4.46260E-01 -9.88103E-01 +3.95390E-01
 -9.35111E-01 +3.54909E-01 -8.78912E-01 +3.25621E-01 -8.21294E-01 +3.08091E-01 -7.64173E-01 +3.02606E-01
 -7.09552E-01 +3.09146E-01 -6.59470E-01 +3.27363E-01 -6.15946E-01 +3.56560E-01 -5.80917E-01 +3.95692E-01
 -5.56177E-01 +4.43370E-01 -5.43315E-01 +4.97877E-01 -5.43650E-01 +5.57204E-01 -5.58176E-01 +6.19082E-01
 -5.87513E-01 +6.81044E-01 -6.31863E-01 +7.40484E-01 -6.90980E-01 +7.94726E-01 -7.64155E-01 +8.41108E-01
 -8.50206E-01 +8.77062E-01 -9.47495E-01 +9.00196E-01 -1.05395E+00 +9.08380E-01 -1.16711E+00 +8.99827E-01
 -1.28419E+00 +8.73161E-01 -1.40212E+00 +8.27484E-01 -1.51768E+00 +7.62422E-01 -1.62754E+00 +6.78166E-01
 -1.72839E+00 +5.75488E-01 -1.81704E+00 +4.55740E-01 -1.89052E+00 +3.20842E-01 -1.94619E+00 +1.73240E-01
 -1.98181E+00 +1.58529E-02 -1.99565E+00 -1.48002E-01 -1.98658E+00 -3.14697E-01 -1.95408E+00 -4.80396E-01
 -1.89830E+00 -6.41170E-01 -1.82011E+00 -7.93114E-01 -1.72103E+00 -9.32475E-01 -1.60327E+00 -1.05577E+00
 -1.46963E+00 -1.15991E+00 -1.32346E+00 -1.24230E+00 -1.16857E+00 -1.30096E+00 -1.00911E+00 -1.33456E+00
 -8.49427E-01 -1.34253E+00 -6.93991E-01 -1.32509E+00 -5.47201E-01 -1.28321E+00 -4.13264E-01 -1.21869E+00
 -2.96056E-01 -1.13403E+00 -1.98982E-01 -1.03244E+00 -1.24858E-01 -9.17722E-01 -7.58079E-02 -7.94161E-01
 -5.31724E-02 -6.66403E-01 -5.74504E-02 -5.39314E-01 -8.82615E-02 -4.17827E-01 -1.44337E-01 -3.06780E-01
 -2.23541E-01 -2.10761E-01 -3.22920E-01 -1.33946E-01 -4.38777E-01 -7.99587E-02 -5.66778E-01 -5.17367E-02
 -7.02080E-01 -5.14186E-02 -8.39473E-01 -8.02563E-02 -9.73546E-01 -1.38553E-01 -1.09886E+00 -2.25631E-01
 -1.21011E+00 -3.39831E-01 -1.30233E+00 -4.78544E-01 -1.37104E+00 -6.38272E-01 -1.41241E+00 -8.14726E-01
 -1.42341E+00 -1.00294E+00 -1.40191E+00 -1.19743E+00 -1.34678E+00 -1.39235E+00 -1.25793E+00 -1.58166E+00
 -1.13639E+00 -1.75936E+00 -9.84232E-01 -1.91963E+00 -8.04579E-01 -2.05709E+00 -6.01500E-01 -2.16690E+00
 -3.79908E-01 -2.24500E+00 -1.45420E-01 -2.28821E+00 +9.58093E-02 -2.29440E+00 +3.37275E-01 -2.26252E+00
 +5.72321E-01 -2.19269E+00 +7.94352E-01 -2.08623E+00 +9.97044E-01 -1.94562E+00 +1.17455E+00 -1.77445E+00
 +1.32171E+00 -1.57732E+00 +1.43419E+00 -1.35973E+00 +1.50868E+00 -1.12792E+00 +1.54300E+00 -8.88664E-01
 +1.53619E+00 -6.49076E-01 +1.48854E+00 -4.16399E-01 +1.40164E+00 -1.97771E-01 +1.27834E+00 +8.08536E-06
 +1.12266E+00 +1.70688E-01 +9.39707E-01 +3.08780E-01 +7.35518E-01 +4.09744E-01 +5.16890E-01 +4.70142E-01
