 Created: 19-Jan-2021
 $NMID
 ID='D:\BASISSIMULATI'
 FMTDAT='(8E13.5)'
 VOLUME=   1.00000E+00
 TRAMP=   1.00000E+00
 $END
 +4.24672E+00 +5.03090E-03 +4.02195E+00 +1.15090E+00 +3.45753E+00 +2.14560E+00 +2.63148E+00 +2.88688E+00
 +1.65123E+00 +3.30827E+00 +6.38321E-01 +3.38662E+00 -2.88180E-01 +3.14343E+00 -1.02745E+00 +2.64019E+00
 -1.50958E+00 +1.96836E+00 -1.70365E+00 +1.23569E+00 -1.62011E+00 +5.50837E-01 -1.30744E+00 +8.41725E-03
 -8.43759E-01 -3.23471E-01 -3.24632E-01 -4.11575E-01 +1.51085E-01 -2.60722E-01 +4.95296E-01 +8.83154E-02
 +6.42770E-01 +5.65843E-01 +5.59650E-01 +1.08402E+00 +2.47376E-01 +1.54977E+00 -2.58389E-01 +1.87800E+00
 -8.93483E-01 +2.00330E+00 -1.57468E+00 +1.88864E+00 -2.21143E+00 +1.52987E+00 -2.71824E+00 +9.55699E-01
 -3.02598E+00 +2.23284E-01 -3.09071E+00 -5.89896E-01 -2.89880E+00 -1.39656E+00 -2.46798E+00 -2.11113E+00
 -1.84419E+00 -2.66055E+00 -1.09490E+00 -2.99319E+00 -2.99852E-01 -3.08454E+00 +4.59419E-01 -2.93924E+00
 +1.10984E+00 -2.58925E+00 +1.59557E+00 -2.08854E+00 +1.88417E+00 -1.50522E+00 +1.96944E+00 -9.12180E-01
 +1.87077E+00 -3.77538E-01 +1.62926E+00 +4.38863E-02 +1.30105E+00 +3.16951E-01 +9.49144E-01 +4.29741E-01
 +6.34612E-01 +3.93925E-01 +4.08398E-01 +2.41995E-01 +3.04831E-01 +2.18829E-02 +3.37536E-01 -2.10272E-01
 +4.98230E-01 -3.98189E-01 +7.58448E-01 -4.93295E-01 +1.07389E+00 -4.61331E-01 +1.39077E+00 -2.86927E-01
 +1.65323E+00 +2.44088E-02 +1.81099E+00 +4.47059E-01 +1.82609E+00 +9.38684E-01 +1.67796E+00 +1.44573E+00
 +1.36626E+00 +1.91033E+00 +9.11025E-01 +2.27769E+00 +3.50308E-01 +2.50308E+00 -2.64523E-01 +2.55742E+00
 -8.75095E-01 +2.43095E+00 -1.42320E+00 +2.13442E+00 -1.85787E+00 +1.69768E+00 -2.14160E+00 +1.16592E+00
 -2.25467E+00 +5.94003E-01 -2.19741E+00 +3.96088E-02 -1.98976E+00 -4.43913E-01 -1.66842E+00 -8.14100E-01
 -1.28187E+00 -1.04449E+00 -8.83902E-01 -1.12767E+00 -5.26504E-01 -1.07578E+00 -2.53017E-01 -9.18521E-01
 -9.24404E-02 -6.98806E-01 -5.56626E-02 -4.66660E-01 -1.34129E-01 -2.72157E-01 -3.01138E-01 -1.58308E-01
 -5.15634E-01 -1.54871E-01 -7.28022E-01 -2.73914E-01 -8.87239E-01 -5.07764E-01 -9.48158E-01 -8.29667E-01
 -8.78313E-01 -1.19711E+00 -6.63007E-01 -1.55744E+00 -3.08081E-01 -1.85497E+00 +1.60108E-01 -2.03876E+00
 +6.97543E-01 -2.06995E+00 +1.24793E+00 -1.92753E+00 +1.74991E+00 -1.61194E+00 +2.14519E+00 -1.14575E+00
 +2.38638E+00 -5.71302E-01 +2.44368E+00 +5.43125E-02 +2.30915E+00 +6.66504E-01 +1.99822E+00 +1.20154E+00
 +1.54798E+00 +1.60499E+00 +1.01248E+00 +1.83897E+00 +4.55707E-01 +1.88735E+00 -5.70005E-02 +1.75793E+00
 -4.67738E-01 +1.48144E+00 -7.33935E-01 +1.10726E+00 -8.34189E-01 +6.96626E-01 -7.71192E-01 +3.13986E-01
 -5.71306E-01 +1.79207E-02 -2.80785E-01 -1.47246E-01 +4.08677E-02 -1.57877E-01 +3.29495E-01 -1.45755E-02
 +5.25655E-01 +2.57685E-01 +5.83431E-01 +6.12926E-01 +4.77423E-01 +9.90593E-01 +2.06897E-01 +1.32418E+00
 -2.03548E-01 +1.55081E+00 -7.06919E-01 +1.62055E+00 -1.24003E+00 +1.50387E+00 -1.73213E+00 +1.19651E+00
 -2.11469E+00 +7.20671E-01 -2.33111E+00 +1.22622E-01 -2.34484E+00 -5.33225E-01 -2.14483E+00 -1.17280E+00
 -1.74745E+00 -1.72232E+00 -1.19464E+00 -2.11834E+00 -5.48492E-01 -2.31639E+00 +1.16990E-01 -2.29708E+00
 +7.25830E-01 -2.06875E+00 +1.21029E+00 -1.66632E+00 +1.51998E+00 -1.14640E+00 +1.62847E+00 -5.79502E-01
 +1.53671E+00 -4.02747E-02 +1.27247E+00 +4.02735E-01 +8.86195E-01 +6.96431E-01 +4.43629E-01 +8.10300E-01
 +1.64569E-02 +7.40322E-01 -3.27880E-01 +5.09159E-01 -5.35646E-01 +1.62590E-01 -5.74276E-01 -2.37262E-01
 -4.36796E-01 -6.20936E-01 -1.42616E-01 -9.21603E-01 +2.65402E-01 -1.08457E+00 +7.27138E-01 -1.07500E+00
 +1.17377E+00 -8.82803E-01 +1.53750E+00 -5.24003E-01 +1.76100E+00 -3.84676E-02 +1.80537E+00 +5.15650E-01
 +1.65545E+00 +1.06995E+00 +1.32182E+00 +1.55513E+00 +8.39199E-01 +1.91038E+00 +2.61651E-01 +2.09144E+00
 -3.44825E-01 +2.07630E+00 -9.11156E-01 +1.86784E+00 -1.37431E+00 +1.49303E+00 -1.68541E+00 +9.98871E-01
 -1.81575E+00 +4.45869E-01 -1.76000E+00 -1.00234E-01 -1.53613E+00 -5.77136E-01 -1.18236E+00 -9.33952E-01
 -7.51402E-01 -1.13741E+00 -3.03056E-01 -1.17549E+00 +1.03908E-01 -1.05815E+00 +4.19406E-01 -8.15082E-01
 +6.08257E-01 -4.90911E-01 +6.54173E-01 -1.38689E-01 +5.61079E-01 +1.87527E-01 +3.51708E-01 +4.39893E-01
 +6.37673E-02 +5.82862E-01 -2.55697E-01 +5.97395E-01 -5.56923E-01 +4.82803E-01 -7.94114E-01 +2.56113E-01
 -9.31304E-01 -5.08492E-02 -9.46684E-01 -3.96171E-01 -8.34900E-01 -7.33639E-01 -6.07147E-01 -1.01882E+00
 -2.89153E-01 -1.21460E+00 +8.25708E-02 -1.29560E+00 +4.65631E-01 -1.25083E+00 +8.17136E-01 -1.08447E+00
 +1.09886E+00 -8.14824E-01 +1.28159E+00 -4.71507E-01 +1.34812E+00 -9.15423E-02 +1.29470E+00 +2.85246E-01
 +1.13085E+00 +6.20890E-01 +8.77637E-01 +8.83450E-01 +5.64759E-01 +1.05026E+00 +2.26835E-01 +1.10993E+00
 -1.00606E-01 +1.06301E+00 -3.85012E-01 +9.21306E-01 -6.00132E-01 +7.06013E-01 -7.28487E-01 +4.44980E-01
 -7.62776E-01 +1.69432E-01 -7.06156E-01 -8.94886E-02 -5.71436E-01 -3.03995E-01 -3.79329E-01 -4.52433E-01
 -1.55972E-01 -5.21334E-01 +6.99990E-02 -5.06561E-01 +2.70553E-01 -4.13496E-01 +4.21226E-01 -2.56263E-01
 +5.03685E-01 -5.60870E-02 +5.07652E-01 +1.61054E-01 +4.31999E-01 +3.67261E-01 +2.84919E-01 +5.35764E-01
 +8.31113E-02 +6.43894E-01 -1.49942E-01 +6.75685E-01 -3.86476E-01 +6.23817E-01 -5.97493E-01 +4.90678E-01
 -7.56054E-01 +2.88389E-01 -8.40470E-01 +3.77285E-02 -8.37032E-01 -2.33979E-01 -7.41929E-01 -4.95826E-01
 -5.62099E-01 -7.16844E-01 -3.14837E-01 -8.69699E-01 -2.61406E-02 -9.34127E-01 +2.72084E-01 -8.99668E-01
 +5.45667E-01 -7.67329E-01 +7.62271E-01 -5.49902E-01 +8.95437E-01 -2.70822E-01 +9.28063E-01 +3.83557E-02
 +8.54848E-01 +3.41613E-01 +6.83317E-01 +6.02838E-01 +4.33250E-01 +7.90366E-01 +1.34506E-01 +8.81107E-01
 -1.76529E-01 +8.63694E-01 -4.61456E-01 +7.40204E-01 -6.84761E-01 +5.26168E-01 -8.18474E-01 +2.48804E-01
 -8.45939E-01 -5.63324E-02 -7.64161E-01 -3.49880E-01 -5.84392E-01 -5.93812E-01 -3.30806E-01 -7.56489E-01
 -3.74208E-02 -8.16944E-01 +2.56363E-01 -7.67796E-01 +5.11015E-01 -6.16364E-01 +6.92220E-01 -3.83791E-01
 +7.75574E-01 -1.02283E-01 +7.49977E-01 +1.89211E-01 +6.19230E-01 +4.50273E-01 +4.01609E-01 +6.44551E-01
 +1.27429E-01 +7.44769E-01 -1.65058E-01 +7.36528E-01 -4.34897E-01 +6.20347E-01 -6.44055E-01 +4.11654E-01
 -7.62666E-01 +1.38718E-01 -7.73171E-01 -1.61207E-01 -6.72748E-01 -4.46980E-01 -4.73723E-01 -6.79214E-01
 -2.01872E-01 -8.25673E-01 +1.07116E-01 -8.65667E-01 +4.12544E-01 -7.92838E-01 +6.74263E-01 -6.15958E-01
 +8.58129E-01 -3.57633E-01 +9.40577E-01 -5.11222E-02 +9.11696E-01 +2.64290E-01 +7.76390E-01 +5.48679E-01
 +5.53483E-01 +7.66893E-01 +2.72927E-01 +8.93217E-01 -2.84795E-02 +9.14660E-01 -3.12225E-01 +8.32429E-01
 -5.43356E-01 +6.61414E-01 -6.95141E-01 +4.27798E-01 -7.52484E-01 +1.65161E-01 -7.13644E-01 -9.03402E-02
 -5.90060E-01 -3.05031E-01 -4.04352E-01 -4.52290E-01 -1.86811E-01 -5.16015E-01 +2.90651E-02 -4.92524E-01
 +2.11370E-01 -3.90664E-01 +3.34212E-01 -2.30175E-01 +3.81171E-01 -3.85641E-02 +3.47324E-01 +1.53005E-01
 +2.39605E-01 +3.14209E-01 +7.54863E-02 +4.19817E-01 -1.19762E-01 +4.53092E-01 -3.16819E-01 +4.07911E-01
 -4.86511E-01 +2.89337E-01 -6.03848E-01 +1.12624E-01 -6.51356E-01 -9.91560E-02 -6.21262E-01 -3.18484E-01
 -5.16267E-01 -5.17262E-01 -3.48868E-01 -6.70617E-01 -1.39354E-01 -7.60130E-01 +8.71582E-02 -7.76062E-01
 +3.04245E-01 -7.18310E-01 +4.87708E-01 -5.96030E-01 +6.18664E-01 -4.26022E-01 +6.85773E-01 -2.30163E-01
 +6.86349E-01 -3.22728E-02 +6.26260E-01 +1.45120E-01 +5.18680E-01 +2.83692E-01 +3.81914E-01 +3.71516E-01
 +2.36660E-01 +4.04285E-01 +1.03069E-01 +3.85450E-01 -1.95935E-03 +3.25293E-01 -6.69091E-02 +2.39135E-01
 -8.69520E-02 +1.44939E-01 -6.42785E-02 +6.06774E-02 -7.46533E-03 +1.80765E-03 +6.99954E-02 -2.07937E-02
 +1.51771E-01 -2.20118E-03 +2.21069E-01 +5.60456E-02 +2.62996E-01 +1.46312E-01 +2.66590E-01 +2.56042E-01
 +2.26272E-01 +3.69548E-01 +1.42549E-01 +4.70169E-01 +2.19102E-02 +5.42507E-01 -1.24057E-01 +5.74447E-01
 -2.80185E-01 +5.58719E-01 -4.29676E-01 +4.93819E-01 -5.56229E-01 +3.84179E-01 -6.46073E-01 +2.39591E-01
 -6.89661E-01 +7.39600E-02 -6.82812E-01 -9.64290E-02 -6.27172E-01 -2.54938E-01 -5.29955E-01 -3.86619E-01
 -4.02973E-01 -4.80035E-01 -2.61112E-01 -5.28629E-01 -1.20413E-01 -5.31469E-01 +3.98039E-03 -4.93283E-01
 +9.97659E-02 -4.23761E-01 +1.59062E-01 -3.36213E-01 +1.79419E-01 -2.45749E-01 +1.64117E-01 -1.67196E-01
 +1.21704E-01 -1.13025E-01 +6.48046E-02 -9.15669E-02 +8.34302E-03 -1.05748E-01 -3.25972E-02 -1.52546E-01
 -4.50076E-02 -2.23263E-01 -1.99758E-02 -3.04607E-01 +4.57941E-02 -3.80461E-01 +1.49193E-01 -4.34148E-01
 +2.80794E-01 -4.50867E-01 +4.25854E-01 -4.19989E-01 +5.66112E-01 -3.36874E-01 +6.82202E-01 -2.03929E-01
 +7.56340E-01 -3.07172E-02 +7.74935E-01 +1.66948E-01 +7.30734E-01 +3.68844E-01 +6.24189E-01 +5.52901E-01
 +4.63784E-01 +6.98153E-01 +2.65251E-01 +7.87683E-01 +4.97079E-02 +8.11116E-01 -1.59046E-01 +7.66302E-01
 -3.37737E-01 +6.59893E-01 -4.66879E-01 +5.06676E-01 -5.33609E-01 +3.27714E-01 -5.33687E-01 +1.47508E-01
 -4.72294E-01 -9.45027E-03 -3.63490E-01 -1.22244E-01 -2.28341E-01 -1.76697E-01 -9.19353E-02 -1.67651E-01
 +2.03004E-02 -9.99776E-02 +8.64758E-02 +1.18730E-02 +9.17188E-02 +1.45791E-01 +3.07310E-02 +2.75155E-01
 -9.10112E-02 +3.72784E-01 -2.57642E-01 +4.15139E-01 -4.44889E-01 +3.86137E-01 -6.23410E-01 +2.79994E-01
 -7.63047E-01 +1.02624E-01 -8.37370E-01 -1.28676E-01 -8.27857E-01 -3.87272E-01 -7.27047E-01 -6.40727E-01
 -5.40158E-01 -8.55347E-01 -2.84875E-01 -1.00109E+00 +1.07380E-02 -1.05612E+00 +3.11939E-01 -1.01028E+00
 +5.82130E-01 -8.66936E-01 +7.88099E-01 -6.42933E-01 +9.04920E-01 -3.66465E-01 +9.19753E-01 -7.32540E-02
 +8.33944E-01 +1.98504E-01 +6.63066E-01 +4.13681E-01 +4.34834E-01 +5.45432E-01 +1.85159E-01 +5.79270E-01
 -4.71049E-02 +5.15380E-01 -2.25970E-01 +3.68770E-01 -3.23797E-01 +1.67176E-01 -3.25619E-01 -5.29936E-02
 -2.31629E-01 -2.52112E-01 -5.74033E-02 -3.93388E-01 +1.68223E-01 -4.48611E-01 +4.07340E-01 -4.02690E-01
 +6.18633E-01 -2.56298E-01 +7.63686E-01 -2.61437E-02 +8.12977E-01 +2.57191E-01 +7.50651E-01 +5.53583E-01
