 Created: 19-Jan-2021
 $NMID
 ID='D:\BASISSIMULATI'
 FMTDAT='(8E13.5)'
 VOLUME=   1.00000E+00
 TRAMP=   1.00000E+00
 $END
 +1.02975E+01 +1.15751E-02 +8.75419E+00 +4.87320E+00 +4.84883E+00 +7.99347E+00 +4.40148E-02 +8.37123E+00
 -3.91556E+00 +6.06654E+00 -5.69294E+00 +2.14303E+00 -4.86567E+00 -1.79194E+00 -2.04516E+00 -4.25099E+00
 +1.42985E+00 -4.45466E+00 +4.08545E+00 -2.60154E+00 +4.93267E+00 +2.82257E-01 +3.85221E+00 +2.83614E+00
 +1.58733E+00 +3.97863E+00 -6.39957E-01 +3.37242E+00 -1.71138E+00 +1.54187E+00 -1.13220E+00 -4.01333E-01
 +7.42130E-01 -1.29607E+00 +2.87150E+00 -4.90422E-01 +4.01448E+00 +1.83045E+00 +3.31400E+00 +4.69613E+00
 +7.23941E-01 +6.76472E+00 -2.91752E+00 +6.92030E+00 -6.20826E+00 +4.79317E+00 -7.76556E+00 +9.71671E-01
 -6.82454E+00 -3.19481E+00 -3.59381E+00 -6.12688E+00 +7.89390E-01 -6.66071E+00 +4.69319E+00 -4.53676E+00
 +6.63775E+00 -5.24257E-01 +5.88688E+00 +3.87420E+00 +2.73938E+00 +7.01706E+00 -1.59983E+00 +7.77165E+00
 -5.51250E+00 +5.94826E+00 -7.61660E+00 +2.34502E+00 -7.30246E+00 -1.60806E+00 -4.93688E+00 -4.44978E+00
 -1.65952E+00 -5.27767E+00 +1.13132E+00 -4.08155E+00 +2.37782E+00 -1.68878E+00 +1.78980E+00 +6.43193E-01
 -7.71992E-02 +1.80120E+00 -2.11648E+00 +1.30483E+00 -3.19916E+00 -5.02066E-01 -2.69988E+00 -2.63482E+00
 -7.86238E-01 -3.93943E+00 +1.65526E+00 -3.63961E+00 +3.42303E+00 -1.71447E+00 +3.55510E+00 +1.06289E+00
 +1.78870E+00 +3.44704E+00 -1.28139E+00 +4.26471E+00 -4.42122E+00 +2.94584E+00 -6.26519E+00 -1.92048E-01
 -5.89814E+00 -4.03506E+00 -3.26282E+00 -7.10817E+00 +7.84464E-01 -8.17483E+00 +4.79887E+00 -6.74973E+00
 +7.32026E+00 -3.30824E+00 +7.45708E+00 +8.96762E-01 +5.23844E+00 +4.33493E+00 +1.58978E+00 +5.80750E+00
 -2.05420E+00 +4.91282E+00 -4.33460E+00 +2.17856E+00 -4.50575E+00 -1.18743E+00 -2.70399E+00 -3.81564E+00
 +1.56969E-01 -4.73967E+00 +2.80892E+00 -3.76995E+00 +4.18247E+00 -1.52474E+00 +3.85143E+00 +8.83719E-01
 +2.18139E+00 +2.36298E+00 +1.26544E-01 +2.32613E+00 -1.22786E+00 +9.38448E-01 -1.17115E+00 -9.78882E-01
 +3.03488E-01 -2.34024E+00 +2.49116E+00 -2.30593E+00 +4.29161E+00 -6.83571E-01 +4.71026E+00 +1.95874E+00
 +3.32266E+00 +4.52069E+00 +4.96307E-01 +5.84290E+00 -2.73186E+00 +5.22090E+00 -5.07510E+00 +2.73604E+00
 -5.53724E+00 -7.43355E-01 -3.84361E+00 -3.89674E+00 -5.77554E-01 -5.48446E+00 +3.03869E+00 -4.85623E+00
 +5.62947E+00 -2.22148E+00 +6.21597E+00 +1.43171E+00 +4.60270E+00 +4.73488E+00 +1.44188E+00 +6.48753E+00
 -2.04701E+00 +6.12767E+00 -4.58091E+00 +3.93163E+00 -5.32690E+00 +8.66681E-01 -4.21323E+00 -1.83344E+00
 -1.91378E+00 -3.18539E+00 +4.76760E-01 -2.84596E+00 +1.93005E+00 -1.21461E+00 +1.92069E+00 +7.85361E-01
 +6.26514E-01 +2.14259E+00 -1.18708E+00 +2.21532E+00 -2.54023E+00 +1.01026E+00 -2.69943E+00 -8.36441E-01
 -1.52048E+00 -2.36327E+00 +4.78141E-01 -2.73481E+00 +2.34365E+00 -1.63877E+00 +3.11863E+00 +5.48528E-01
 +2.28270E+00 +2.90422E+00 +1.10633E-02 +4.34966E+00 -2.86701E+00 +4.12232E+00 -5.19667E+00 +2.12431E+00
 -5.97616E+00 -1.00519E+00 -4.78302E+00 -4.12907E+00 -1.96615E+00 -6.06582E+00 +1.47947E+00 -6.06840E+00
 +4.30479E+00 -4.12871E+00 +5.50270E+00 -9.81047E-01 +4.70282E+00 +2.19547E+00 +2.30343E+00 +4.24969E+00
 -7.09413E-01 +4.50956E+00 -3.17451E+00 +3.02659E+00 -4.22412E+00 +5.18470E-01 -3.61317E+00 -1.95701E+00
 -1.77725E+00 -3.45242E+00 +3.94802E-01 -3.51237E+00 +1.96699E+00 -2.32833E+00 +2.36111E+00 -6.09382E-01
 +1.58669E+00 +7.65031E-01 +2.01718E-01 +1.15204E+00 -9.70397E-01 +4.31656E-01 -1.23676E+00 -9.51481E-01
 -3.65265E-01 -2.20543E+00 +1.29808E+00 -2.56763E+00 +2.97722E+00 -1.67147E+00 +3.81437E+00 +2.61632E-01
 +3.26530E+00 +2.49256E+00 +1.36671E+00 +4.07020E+00 -1.24464E+00 +4.24219E+00 -3.57424E+00 +2.79365E+00
 -4.67419E+00 +1.66103E-01 -4.03967E+00 -2.69813E+00 -1.82963E+00 -4.72419E+00 +1.18248E+00 -5.13353E+00
 +3.90865E+00 -3.75544E+00 +5.37331E+00 -1.09310E+00 +5.09106E+00 +1.88131E+00 +3.24186E+00 +4.11489E+00
 +5.76263E-01 +4.88383E+00 -1.90344E+00 +4.05728E+00 -3.34881E+00 +2.11220E+00 -3.38800E+00 -9.75195E-02
 -2.23598E+00 -1.71193E+00 -5.56105E-01 -2.21546E+00 +8.57099E-01 -1.62055E+00 +1.43061E+00 -4.14307E-01
 +1.04758E+00 +6.97874E-01 +6.66136E-02 +1.13148E+00 -8.74922E-01 +6.91921E-01 -1.17949E+00 -3.44581E-01
 -5.83815E-01 -1.37096E+00 +7.04004E-01 -1.74429E+00 +2.08689E+00 -1.10156E+00 +2.84494E+00 +4.46810E-01
 +2.46794E+00 +2.33488E+00 +9.06830E-01 +3.76696E+00 -1.36927E+00 +4.05604E+00 -3.54027E+00 +2.92971E+00
 -4.75972E+00 +6.70555E-01 -4.50168E+00 -1.97216E+00 -2.78438E+00 -4.06641E+00 -1.76134E-01 -4.86077E+00
 +2.41988E+00 -4.07817E+00 +4.11362E+00 -2.02019E+00 +4.36639E+00 +5.58421E-01 +3.18302E+00 +2.75014E+00
 +1.08442E+00 +3.84461E+00 -1.12106E+00 +3.58540E+00 -2.66702E+00 +2.23391E+00 -3.12062E+00 +4.23514E-01
 -2.51939E+00 -1.12529E+00 -1.30530E+00 -1.90320E+00 -9.60400E-02 -1.79827E+00 +5.99963E-01 -1.09766E+00
 +5.98282E-01 -3.14811E-01 +9.27388E-02 +7.25624E-02 -4.67710E-01 -1.47035E-01 -6.17217E-01 -8.23238E-01
 -1.14529E-01 -1.52333E+00 +9.23630E-01 -1.74813E+00 +2.05892E+00 -1.18455E+00 +2.72271E+00 +1.21104E-01
 +2.47804E+00 +1.74994E+00 +1.23584E+00 +3.06768E+00 -6.72488E-01 +3.48739E+00 -2.60213E+00 +2.72580E+00
 -3.84083E+00 +9.42502E-01 -3.89256E+00 -1.29991E+00 -2.68130E+00 -3.24133E+00 -5.89906E-01 -4.21251E+00
 +1.68199E+00 -3.88910E+00 +3.38278E+00 -2.40923E+00 +3.98850E+00 -3.09798E-01 +3.38560E+00 +1.68865E+00
 +1.88774E+00 +2.95771E+00 +8.73031E-02 +3.18544E+00 -1.39062E+00 +2.46253E+00 -2.12694E+00 +1.20403E+00
 -2.04394E+00 -5.03303E-02 -1.38905E+00 -8.66623E-01 -5.85520E-01 -1.07933E+00 -2.35042E-02 -8.22152E-01
 +1.13199E-01 -4.23416E-01 -8.97733E-02 -2.21540E-01 -3.46686E-01 -3.88995E-01 -3.35587E-01 -8.45609E-01
 +1.22693E-01 -1.29934E+00 +9.55069E-01 -1.39381E+00 +1.84828E+00 -8.93463E-01 +2.37915E+00 +1.79795E-01
 +2.20603E+00 +1.52319E+00 +1.23656E+00 +2.65753E+00 -3.04292E-01 +3.11772E+00 -1.93891E+00 +2.64897E+00
 -3.11118E+00 +1.32515E+00 -3.39948E+00 -4.62561E-01 -2.68149E+00 -2.14380E+00 -1.18366E+00 -3.17884E+00
 +6.03908E-01 -3.25565E+00 +2.11110E+00 -2.39647E+00 +2.89523E+00 -9.34487E-01 +2.79003E+00 +6.24978E-01
 +1.94108E+00 +1.79869E+00 +7.21023E-01 +2.29558E+00 -4.33443E-01 +2.09749E+00 -1.19120E+00 +1.42589E+00
 -1.43408E+00 +6.18425E-01 -1.26386E+00 -2.52189E-02 -9.16005E-01 -3.60077E-01 -6.26850E-01 -4.28663E-01
 -5.17786E-01 -4.03093E-01 -5.48102E-01 -4.70769E-01 -5.54102E-01 -7.21419E-01 -3.51558E-01 -1.08989E+00
 +1.50052E-01 -1.38138E+00 +8.77562E-01 -1.36683E+00 +1.60336E+00 -9.03345E-01 +2.03228E+00 -2.30963E-02
 +1.92885E+00 +1.05245E+00 +1.22898E+00 +1.98278E+00 +8.58855E-02 +2.43568E+00 -1.17173E+00 +2.21903E+00
 -2.15418E+00 +1.36192E+00 -2.55209E+00 +1.11136E-01 -2.24781E+00 -1.15558E+00 -1.35349E+00 -2.06428E+00
 -1.62950E-01 -2.37367E+00 +9.60188E-01 -2.04868E+00 +1.71163E+00 -1.25386E+00 +1.94190E+00 -2.75042E-01
 +1.68468E+00 +5.94147E-01 +1.11403E+00 +1.15318E+00 +4.55919E-01 +1.34492E+00 -1.04488E-01 +1.24183E+00
 -4.80739E-01 +9.82972E-01 -6.88754E-01 +6.96262E-01 -8.02726E-01 +4.43055E-01 -8.90903E-01 +2.08030E-01
 -9.65720E-01 -6.60818E-02 -9.73116E-01 -4.21046E-01 -8.25087E-01 -8.35104E-01 -4.57735E-01 -1.21072E+00
 +1.15589E-01 -1.40632E+00 +7.84353E-01 -1.29831E+00 +1.36685E+00 -8.44699E-01 +1.67341E+00 -1.19825E-01
 +1.58037E+00 +6.97741E-01 +1.08316E+00 +1.38139E+00 +3.05146E-01 +1.73465E+00 -5.42047E-01 +1.65963E+00
 -1.23042E+00 +1.18861E+00 -1.59080E+00 +4.67514E-01 -1.56220E+00 -2.99869E-01 -1.19839E+00 -9.22406E-01
 -6.33790E-01 -1.27862E+00 -2.68036E-02 -1.33997E+00 +4.93654E-01 -1.15667E+00 +8.57663E-01 -8.18540E-01
 +1.05246E+00 -4.12622E-01 +1.09740E+00 +2.61691E-03 +1.01388E+00 +3.97737E-01 +8.08413E-01 +7.53060E-01
 +4.77870E-01 +1.03566E+00 +3.20993E-02 +1.18991E+00 -4.81361E-01 +1.15070E+00 -9.68315E-01 +8.75094E-01
 -1.30510E+00 +3.76693E-01 -1.37883E+00 -2.57034E-01 -1.13461E+00 -8.77555E-01 -6.07866E-01 -1.31786E+00
 +7.55270E-02 -1.44970E+00 +7.35064E-01 -1.23191E+00 +1.19515E+00 -7.28579E-01 +1.34479E+00 -8.77276E-02
 +1.17291E+00 +5.11497E-01 +7.64957E-01 +9.21637E-01 +2.63030E-01 +1.07366E+00 -1.91993E-01 +9.88986E-01
 -5.10812E-01 +7.54059E-01 -6.77019E-01 +4.71440E-01 -7.32224E-01 +2.11928E-01 -7.35270E-01 -9.44524E-03
 -7.18200E-01 -2.23009E-01 -6.62949E-01 -4.66711E-01 -5.12100E-01 -7.42427E-01 -2.09381E-01 -9.91610E-01
 +2.50656E-01 -1.10679E+00 +7.91084E-01 -9.77657E-01 +1.25987E+00 -5.52198E-01 +1.47905E+00 +1.16992E-01
 +1.31834E+00 +8.67087E-01 +7.61416E-01 +1.46949E+00 -6.68803E-02 +1.71096E+00 -9.29641E-01 +1.47960E+00
 -1.55669E+00 +8.18713E-01 -1.74382E+00 -7.75626E-02 -1.43211E+00 -9.28959E-01 -7.33357E-01 -1.47070E+00
 +1.11064E-01 -1.55144E+00 +8.22597E-01 -1.18704E+00 +1.19156E+00 -5.47607E-01 +1.15288E+00 +1.16937E-01
 +8.00014E-01 +5.80840E-01 +3.32282E-01 +7.31416E-01 -4.02269E-02 +6.04726E-01 -1.91225E-01 +3.53549E-01
 -1.29620E-01 +1.63445E-01 +1.53716E-02 +1.56385E-01 +6.81956E-02 +3.27381E-01 -9.48442E-02 +5.44958E-01
 -4.70261E-01 +6.16984E-01 -9.12867E-01 +3.92570E-01 -1.19286E+00 -1.47693E-01 -1.10201E+00 -8.57909E-01
 -5.62027E-01 -1.47039E+00 +3.16043E-01 -1.70270E+00 +1.25316E+00 -1.38423E+00 +1.90182E+00 -5.46290E-01
 +1.98553E+00 +5.67546E-01 +1.42003E+00 +1.58131E+00 +3.62549E-01 +2.12829E+00 -8.36134E-01 +1.99754E+00
 -1.76130E+00 +1.22347E+00 -2.09444E+00 +7.88998E-02 -1.73803E+00 -1.02856E+00 -8.52507E-01 -1.71569E+00
 +2.11281E-01 -1.77298E+00 +1.05635E+00 -1.24178E+00 +1.40020E+00 -3.87185E-01 +1.18392E+00 +4.21348E-01
 +5.83917E-01 +8.69830E-01 -7.76609E-02 +8.30847E-01 -4.83528E-01 +4.09115E-01 -4.65857E-01 -1.17753E-01
 -8.02272E-02 -4.36222E-01 +4.24605E-01 -3.49603E-01 +7.28180E-01 +1.23112E-01 +5.96667E-01 +7.48866E-01
 +5.72427E-03 +1.18452E+00 -8.30302E-01 +1.13866E+00 -1.54041E+00 +5.18964E-01 -1.75796E+00 -5.03398E-01
 -1.29157E+00 -1.54608E+00 -2.29152E-01 -2.16747E+00 +1.07497E+00 -2.05600E+00 +2.13051E+00 -1.17517E+00
 +2.50840E+00 +2.01128E-01 +2.02243E+00 +1.58347E+00 +8.17201E-01 +2.45667E+00 -6.78528E-01 +2.48725E+00
