 Created: 19-Jan-2021
 $NMID
 ID='D:\BASISSIMULATI'
 FMTDAT='(8E13.5)'
 VOLUME=   1.00000E+00
 TRAMP=   1.00000E+00
 $END
 +2.35519E+01 +2.66458E-02 +2.27372E+01 +5.82977E+00 +2.04416E+01 +1.12023E+01 +1.68381E+01 +1.57640E+01
 +1.21969E+01 +1.91969E+01 +6.86327E+00 +2.12693E+01 +1.23179E+00 +2.18532E+01 -4.28467E+00 +2.09329E+01
 -9.28640E+00 +1.86064E+01 -1.34174E+01 +1.50760E+01 -1.63923E+01 +1.06329E+01 -1.80179E+01 +5.63314E+00
 -1.82068E+01 +4.70235E-01 -1.69834E+01 -4.45596E+00 -1.44809E+01 -8.77022E+00 -1.09295E+01 -1.21508E+01
 -6.63777E+00 -1.43540E+01 -1.96742E+00 -1.52323E+01 +2.69547E+00 -1.47447E+01 +6.97110E+00 -1.29592E+01
 +1.05157E+01 -1.00457E+01 +1.30484E+01 -6.26196E+00 +1.43726E+01 -1.93215E+00 +1.43906E+01 +2.57960E+00
 +1.31108E+01 +6.89836E+00 +1.06455E+01 +1.06683E+01 +7.20107E+00 +1.35809E+01 +3.06090E+00 +1.53989E+01
 -1.43813E+00 +1.59746E+01 -5.93287E+00 +1.52608E+01 -1.00631E+01 +1.33137E+01 -1.35003E+01 +1.02877E+01
 -1.59734E+01 +6.42173E+00 -1.72901E+01 +2.01979E+00 -1.73515E+01 -2.57398E+00 -1.61588E+01 -7.00318E+00
 -1.38129E+01 -1.09278E+01 -1.05049E+01 -1.40511E+01 -6.49988E+00 -1.61433E+01 -2.11526E+00 -1.70590E+01
 +2.30549E+00 -1.67481E+01 +6.42068E+00 -1.52589E+01 +9.91798E+00 -1.27332E+01 +1.25393E+01 -9.39396E+00
 +1.41012E+01 -5.52593E+00 +1.45090E+01 -1.45238E+00 +1.37636E+01 +2.49194E+00 +1.19604E+01 +5.98819E+00
 +9.28060E+00 +8.75950E+00 +5.97568E+00 +1.05934E+01 +2.34575E+00 +1.13586E+01 -1.28547E+00 +1.10157E+01
 -4.59779E+00 +9.61944E+00 -7.30112E+00 +7.31372E+00 -9.15959E+00 +4.31926E+00 -1.00111E+01 +9.14814E-01
 -9.78063E+00 -2.58630E+00 -8.48659E+00 -5.86248E+00 -6.23920E+00 -8.61078E+00 -3.23141E+00 -1.05724E+01
 +2.77000E-01 -1.15544E+01 +3.98094E+00 -1.14461E+01 +7.55520E+00 -1.02289E+01 +1.06815E+01 -7.97832E+00
 +1.30750E+01 -4.85812E+00 +1.45082E+01 -1.10777E+00 +1.48300E+01 +2.97691E+00 +1.39792E+01 +7.06757E+00
 +1.19900E+01 +1.08300E+01 +8.99030E+00 +1.39515E+01 +5.19219E+00 +1.61664E+01 +8.75332E-01 +1.72782E+01
 -3.63490E+00 +1.71761E+01 -7.99329E+00 +1.58447E+01 -1.18624E+01 +1.33661E+01 -1.49396E+01 +9.91425E+00
 -1.69817E+01 +5.74156E+00 -1.78248E+01 +1.15947E+00 -1.73979E+01 -3.48593E+00 -1.57289E+01 -7.84125E+00
 -1.29435E+01 -1.15738E+01 -9.25533E+00 -1.43980E+01 -4.94975E+00 -1.60985E+01 -3.61467E-01 -1.65474E+01
 +4.15170E+00 -1.57146E+01 +8.23705E+00 -1.36711E+01 +1.15749E+01 -1.05830E+01 +1.39040E+01 -6.69950E+00
 +1.50425E+01 -2.33298E+00 +1.49022E+01 +2.16540E+00 +1.34964E+01 +6.43331E+00 +1.09387E+01 +1.01259E+01
 +7.43455E+00 +1.29429E+01 +3.26504E+00 +1.46530E+01 -1.23477E+00 +1.51117E+01 -5.70229E+00 +1.42732E+01
 -9.77593E+00 +1.21947E+01 -1.31235E+01 +9.03134E+00 -1.54687E+01 +5.02518E+00 -1.66124E+01 +4.85775E-01
 -1.64493E+01 -4.23371E+00 -1.49758E+01 -8.76410E+00 -1.22906E+01 -1.27491E+01 -8.58734E+00 -1.58732E+01
 -4.13969E+00 -1.78863E+01 +7.20136E-01 -1.86233E+01 +5.62704E+00 -1.80172E+01 +1.02114E+01 -1.61039E+01
 +1.41279E+01 -1.30200E+01 +1.70821E+01 -8.99148E+00 +1.88534E+01 -4.31657E+00 +1.93116E+01 +6.57818E-01
 +1.84273E+01 +5.56294E+00 +1.62733E+01 +1.00369E+01 +1.30188E+01 +1.37525E+01 +8.91583E+00 +1.64426E+01
 +4.27914E+00 +1.79205E+01 -5.38471E-01 +1.80936E+01 -5.17386E+00 +1.69703E+01 -9.28181E+00 +1.46585E+01
 -1.25618E+01 +1.13563E+01 -1.47810E+01 +7.33593E+00 -1.57921E+01 +2.92194E+00 -1.55437E+01 -1.53499E+00
 -1.40838E+01 -5.68561E+00 -1.15549E+01 -9.20962E+00 -8.18190E+00 -1.18407E+01 -4.25352E+00 -1.33868E+01
 -9.88087E-02 -1.37451E+01 +3.93937E+00 -1.29090E+01 +7.53177E+00 -1.09677E+01 +1.03889E+01 -8.09848E+00
 +1.22840E+01 -4.55147E+00 +1.30702E+01 -6.29222E-01 +1.26922E+01 +3.33812E+00 +1.11896E+01 +7.01952E+00
 +8.69336E+00 +1.01097E+01 +5.41427E+00 +1.23536E+01 +1.62566E+00 +1.35665E+01 -2.35910E+00 +1.36485E+01
 -6.21213E+00 +1.25921E+01 -9.61756E+00 +1.04826E+01 -1.22970E+01 +7.49022E+00 -1.40319E+01 +3.85619E+00
 -1.46807E+01 -1.26974E-01 -1.41902E+01 -4.13942E+00 -1.25994E+01 -7.85990E+00 -1.00358E+01 -1.09917E+01
 -6.70505E+00 -1.32866E+01 -2.87381E+00 -1.45644E+01 +1.15193E+00 -1.47278E+01 +5.05173E+00 -1.37693E+01
 +8.51662E+00 -1.17719E+01 +1.12740E+01 -8.90212E+00 +1.31097E+01 -5.39580E+00 +1.38850E+01 -1.53922E+00
 +1.35473E+01 +2.35442E+00 +1.21349E+01 +5.97046E+00 +9.77287E+00 +9.01823E+00 +6.66289E+00 +1.12546E+01
 +3.06682E+00 +1.25037E+01 -7.14835E-01 +1.26707E+01 -4.36741E+00 +1.17499E+01 -7.58769E+00 +9.82441E+00
 -1.01086E+01 +7.05989E+00 -1.17208E+01 +3.69059E+00 -1.22900E+01 +3.50695E-04 -1.17675E+01 -3.70048E+00
 -1.01944E+01 -7.10035E+00 -7.69846E+00 -9.91185E+00 -4.48354E+00 -1.18951E+01 -8.13342E-01 -1.28775E+01
 +3.00997E+00 -1.27677E+01 +6.67019E+00 -1.15632E+01 +9.86270E+00 -9.35107E+00 +1.23191E+01 -6.30099E+00
 +1.38293E+01 -2.65173E+00 +1.42581E+01 +1.30775E+00 +1.35572E+01 +5.26151E+00 +1.17688E+01 +8.89191E+00
 +9.02264E+00 +1.19052E+01 +5.52609E+00 +1.40551E+01 +1.54772E+00 +1.51627E+01 -2.60394E+00 +1.51313E+01
 -6.60496E+00 +1.39540E+01 -1.01418E+01 +1.17147E+01 -1.29361E+01 +8.58165E+00 -1.47674E+01 +4.79456E+00
 -1.54902E+01 +6.45350E-01 -1.50463E+01 -3.54475E+00 -1.34689E+01 -7.45061E+00 -1.08808E+01 -1.07690E+01
 -7.48409E+00 -1.32427E+01 -3.54488E+00 -1.46809E+01 +6.28212E-01 -1.49741E+01 +4.70827E+00 -1.41031E+01
 +8.37601E+00 -1.21407E+01 +1.13450E+01 -9.24529E+00 +1.33845E+01 -5.64887E+00 +1.43374E+01 -1.63838E+00
 +1.41328E+01 +2.46706E+00 +1.27916E+01 +6.34140E+00 +1.04246E+01 +9.67753E+00 +7.22377E+00 +1.22116E+01
 +3.44674E+00 +1.37439E+01 -6.03561E-01 +1.41545E+01 -4.60304E+00 +1.34129E+01 -8.23222E+00 +1.15801E+01
 -1.12015E+01 +8.80375E+00 -1.32743E+01 +5.30614E+00 -1.42853E+01 +1.36667E+00 -1.41542E+01 -2.70056E+00
 -1.28912E+01 -6.57172E+00 -1.05965E+01 -9.93895E+00 -7.45211E+00 -1.25348E+01 -3.70711E+00 -1.41533E+01
 +3.42010E-01 -1.46665E+01 +4.37510E+00 -1.40340E+01 +8.07379E+00 -1.23065E+01 +1.11468E+01 -9.62119E+00
 +1.33528E+01 -6.19100E+00 +1.45197E+01 -2.28735E+00 +1.45582E+01 +1.78145E+00 +1.34684E+01 +5.69479E+00
 +1.13397E+01 +9.14518E+00 +8.34373E+00 +1.18627E+01 +4.72005E+00 +1.36363E+01 +7.57321E-01 +1.43305E+01
 -3.22991E+00 +1.38956E+01 -6.92628E+00 +1.23720E+01 -1.00407E+01 +9.88608E+00 -1.23294E+01 +6.64034E+00
 -1.36151E+01 +2.89685E+00 -1.38011E+01 -1.04371E+00 -1.28787E+01 -4.86618E+00 -1.09274E+01 -8.26599E+00
 -8.10850E+00 -1.09735E+01 -4.65208E+00 -1.27752E+01 -8.38142E-01 -1.35309E+01 +3.02567E+00 -1.31844E+01
 +6.62875E+00 -1.17678E+01 +9.68240E+00 -9.39889E+00 +1.19428E+01 -6.27116E+00 +1.32302E+01 -2.63841E+00
 +1.34436E+01 +1.20582E+00 +1.25681E+01 +4.95177E+00 +1.06762E+01 +8.29832E+00 +7.92164E+00 +1.09770E+01
 +4.52700E+00 +1.27735E+01 +7.65761E-01 +1.35446E+01 -3.05971E+00 +1.32293E+01 -6.64240E+00 +1.18541E+01
 -9.69523E+00 +9.53021E+00 -1.19740E+01 +6.44454E+00 -1.32967E+01 +2.84487E+00 -1.35583E+01 -9.80213E-01
 -1.27387E+01 -4.72447E+00 -1.09041E+01 -8.08848E+00 -8.20223E+00 -1.08036E+01 -4.84964E+00 -1.26533E+01
 -1.11476E+00 -1.34906E+01 +2.70372E+00 -1.32493E+01 +6.30080E+00 -1.19497E+01 +9.38945E+00 -9.69641E+00
 +1.17236E+01 -6.67007E+00 +1.31176E+01 -3.11279E+00 +1.34610E+01 +6.91263E-01 +1.27272E+01 +4.43858E+00
 +1.09757E+01 +7.83057E+00 +8.34673E+00 +1.05973E+01 +5.05035E+00 +1.25191E+01 +1.34942E+00 +1.34439E+01
 -2.46142E+00 +1.32990E+01 -6.07927E+00 +1.20971E+01 -9.21713E+00 +9.93509E+00 -1.16267E+01 +6.98574E+00
 -1.31182E+01 +3.48424E+00 -1.35751E+01 -2.90928E-01 -1.29634E+01 -4.04016E+00 -1.13343E+01 -7.46669E+00
 -8.81947E+00 -1.03002E+01 -5.62083E+00 -1.23184E+01 -1.99390E+00 -1.33643E+01 +1.77253E+00 -1.33590E+01
 +5.37955E+00 -1.23073E+01 +8.54203E+00 -1.02974E+01 +1.10113E+01 -7.49345E+00 +1.25949E+01 -4.12216E+00
 +1.31716E+01 -4.54698E-01 +1.27014E+01 +3.21525E+00 +1.12276E+01 +6.59499E+00 +8.87386E+00 +9.41622E+00
 +5.83369E+00 +1.14564E+01 +2.35477E+00 +1.25565E+01 -1.28103E+00 +1.26333E+01 -4.78029E+00 +1.16862E+01
 -7.86166E+00 +9.79676E+00 -1.02783E+01 +7.12185E+00 -1.18378E+01 +3.88113E+00 -1.24171E+01 +3.39080E-01
 -1.19725E+01 -3.21634E+00 -1.05430E+01 -6.49683E+00 -8.24674E+00 -9.23694E+00 -5.27151E+00 -1.12153E+01
 -1.85944E+00 -1.22725E+01 +1.71251E+00 -1.23235E+01 +5.15490E+00 -1.13645E+01 +8.18911E+00 -9.47308E+00
 +1.05697E+01 -6.80197E+00 +1.21041E+01 -3.56640E+00 +1.26681E+01 -2.69125E-02 +1.22154E+01 +3.53169E+00
 +1.07819E+01 +6.82326E+00 +8.48193E+00 +9.58333E+00 +5.49967E+00 +1.15903E+01 +2.07386E+00 +1.26831E+01
 -1.52128E+00 +1.27744E+01 -4.99810E+00 +1.18572E+01 -8.07869E+00 +1.00054E+01 -1.05171E+01 +7.36813E+00
 -1.21193E+01 +4.15716E+00 -1.27584E+01 +6.30299E-01 -1.23850E+01 -2.92952E+00 -1.10311E+01 -6.23697E+00
 -8.80749E+00 -9.02725E+00 -5.89482E+00 -1.10773E+01 -2.52899E+00 -1.22239E+01 +1.01775E+00 -1.23765E+01
 +4.45870E+00 -1.15246E+01 +7.51573E+00 -9.73872E+00 +9.94167E+00 -7.16457E+00 +1.15401E+01 -4.01148E+00
 +1.21813E+01 -5.35547E-01 +1.18126E+01 +2.98086E+00 +1.04625E+01 +6.25179E+00 +8.23904E+00 +9.01065E+00
 +5.32048E+00 +1.10316E+01 +1.94161E+00 +1.21478E+01 -1.62520E+00 +1.22647E+01 -5.09171E+00 +1.13679E+01
 -8.17687E+00 +9.52436E+00 -1.06293E+01 +6.87720E+00 -1.22476E+01 +3.63437E+00 -1.28961E+01 +5.21642E-02
 -1.25162E+01 -3.58510E+00 -1.11312E+01 -6.98772E+00 -8.84431E+00 -9.88364E+00 -5.83066E+00 -1.20401E+01
 -2.32365E+00 -1.32824E+01 +1.40359E+00 -1.35074E+01 +5.05984E+00 -1.26922E+01 +8.35878E+00 -1.08959E+01
 +1.10417E+01 -8.25509E+00 +1.28979E+01 -4.97290E+00 +1.37815E+01 -1.30312E+00 +1.36228E+01 +2.46985E+00
 +1.24341E+01 +6.05349E+00 +1.03081E+01 +9.17020E+00 +7.41134E+00 +1.15792E+01 +3.97019E+00 +1.30956E+01
 +2.53529E-01 +1.36047E+01 -3.44882E+00 +1.30710E+01 -6.84889E+00 +1.15411E+01 -9.68327E+00 +9.13946E+00
 -1.17339E+01 +6.05869E+00 -1.28449E+01 +2.54415E+00 -1.29353E+01 -1.12562E+00 -1.20044E+01 -4.66093E+00
 -1.01324E+01 -7.78389E+00 -7.47317E+00 -1.02503E+01 -4.24233E+00 -1.18688E+01 -6.99670E-01 -1.25160E+01
 +2.87139E+00 -1.21459E+01 +6.18635E+00 -1.07930E+01 +8.98220E+00 -8.56990E+00 +1.10381E+01 -5.65756E+00
