 Created: 19-Jan-2021
 $NMID
 ID='D:\BASISSIMULATI'
 FMTDAT='(8E13.5)'
 VOLUME=   1.00000E+00
 TRAMP=   1.00000E+00
 $END
 +1.10588E+01 +1.24837E-02 +1.06042E+01 +1.54878E+00 +9.30996E+00 +3.00667E+00 +7.31468E+00 +4.31288E+00
 +4.82934E+00 +5.39786E+00 +2.11273E+00 +6.19888E+00 -5.58710E-01 +6.66433E+00 -2.92261E+00 +6.75901E+00
 -4.76010E+00 +6.46977E+00 -5.91957E+00 +5.81052E+00 -6.33187E+00 +4.82550E+00 -6.01533E+00 +3.58977E+00
 -5.07043E+00 +2.20613E+00 -3.66479E+00 +7.98076E-01 -2.01087E+00 -5.00930E-01 -3.39126E-01 -1.56101E+00
 +1.12979E+00 -2.27087E+00 +2.21058E+00 -2.55228E+00 +2.77340E+00 -2.37219E+00 +2.75650E+00 -1.75046E+00
 +2.17022E+00 -7.61654E-01 +1.09224E+00 +4.69704E-01 -3.44817E-01 +1.78069E+00 -1.97136E+00 +2.98718E+00
 -3.60207E+00 +3.90510E+00 -5.05748E+00 +4.37311E+00 -6.18335E+00 +4.27404E+00 -6.86569E+00 +3.55216E+00
 -7.04004E+00 +2.22391E+00 -6.69436E+00 +3.80200E-01 -5.86591E+00 -1.82026E+00 -4.63305E+00 -4.16634E+00
 -3.10358E+00 -6.41695E+00 -1.40137E+00 -8.32817E+00 +3.46829E-01 -9.68168E+00 +2.02289E+00 -1.03112E+01
 +3.52605E+00 -1.01234E+01 +4.77835E+00 -9.11061E+00 +5.72675E+00 -7.35393E+00 +6.34248E+00 -5.01527E+00
 +6.61849E+00 -2.32017E+00 +6.56588E+00 +4.67414E-01 +6.21024E+00 +3.07494E+00 +5.58863E+00 +5.25239E+00
 +4.74746E+00 +6.80063E+00 +3.74118E+00 +7.59380E+00 +2.63150E+00 +7.59286E+00 +1.48644E+00 +6.84869E+00
 +3.78632E-01 +5.49458E+00 -6.17714E-01 +3.72893E+00 -1.43147E+00 +1.79051E+00 -2.00066E+00 -7.05762E-02
 -2.27952E+00 -1.62280E+00 -2.24554E+00 -2.68012E+00 -1.90538E+00 -3.12283E+00 -1.29844E+00 -2.90991E+00
 -4.96973E-01 -2.08165E+00 +3.97899E-01 -7.52485E-01 +1.26452E+00 +9.04800E-01 +1.97278E+00 +2.68120E+00
 +2.39897E+00 +4.35713E+00 +2.44157E+00 +5.72827E+00 +2.03613E+00 +6.62853E+00 +1.16701E+00 +6.94756E+00
 -1.25867E-01 +6.64081E+00 -1.74662E+00 +5.73158E+00 -3.55000E+00 +4.30514E+00 -5.35468E+00 +2.49611E+00
 -6.96218E+00 +4.71145E-01 -8.17916E+00 -1.59068E+00 -8.84071E+00 -3.51737E+00 -8.83162E+00 -5.16103E+00
 -8.10277E+00 -6.41059E+00 -6.68050E+00 -7.19929E+00 -4.66720E+00 -7.50646E+00 -2.23286E+00 -7.35419E+00
 +4.01870E-01 -6.79986E+00 +2.98925E+00 -5.92602E+00 +5.28202E+00 -4.82928E+00 +7.06159E+00 -3.60961E+00
 +8.16347E+00 -2.36141E+00 +8.49679E+00 -1.16697E+00 +8.05524E+00 -9.27048E-02 +6.91817E+00 +8.12254E-01
 +5.24136E+00 +1.51544E+00 +3.23873E+00 +1.99940E+00 +1.15694E+00 +2.25976E+00 -7.53832E-01 +2.30355E+00
 -2.26953E+00 +2.14836E+00 -3.21858E+00 +1.82215E+00 -3.50173E+00 +1.36353E+00 -3.10303E+00 +8.21828E-01
 -2.09068E+00 +2.56393E-01 -6.07707E-01 -2.65629E-01 +1.14622E+00 -6.73371E-01 +2.93950E+00 -8.98255E-01
 +4.53673E+00 -8.81554E-01 +5.72673E+00 -5.82703E-01 +6.34710E+00 +1.27821E-02 +6.30243E+00 +8.87094E-01
 +5.57403E+00 +1.98692E+00 +4.22040E+00 +3.22427E+00 +2.36866E+00 +4.48186E+00 +1.98184E-01 +5.62308E+00
 -2.08115E+00 +6.50575E+00 -4.25330E+00 +6.99833E+00 -6.11998E+00 +6.99670E+00 -7.52139E+00 +6.43924E+00
 -8.35131E+00 +5.31833E+00 -8.56523E+00 +3.68608E+00 -8.18105E+00 +1.65330E+00 -7.27265E+00 -6.18687E-01
 -5.95766E+00 -2.93312E+00 -4.38153E+00 -5.07800E+00 -2.69984E+00 -6.84937E+00 -1.06135E+00 -8.07494E+00
 +4.06470E-01 -8.63501E+00 +1.60777E+00 -8.47799E+00 +2.48399E+00 -7.62841E+00 +3.01459E+00 -6.18608E+00
 +3.21363E+00 -4.31614E+00 +3.12302E+00 -2.23109E+00 +2.80409E+00 -1.66687E-01 +2.32849E+00 +1.64547E+00
 +1.77007E+00 +3.00526E+00 +1.19824E+00 +3.76796E+00 +6.73447E-01 +3.86177E+00 +2.44840E-01 +3.29663E+00
 -5.04578E-02 +2.16326E+00 -1.86896E-01 +6.22289E-01 -1.49684E-01 -1.11500E+00 +6.58052E-02 -2.81224E+00
 +4.53994E-01 -4.23648E+00 +9.98344E-01 -5.18637E+00 +1.67015E+00 -5.51627E+00 +2.42737E+00 -5.15370E+00
 +3.21430E+00 -4.10776E+00 +3.96269E+00 -2.46779E+00 +4.59497E+00 -3.92413E-01 +5.02973E+00 +1.90944E+00
 +5.18938E+00 +4.20314E+00 +5.00927E+00 +6.25558E+00 +4.44727E+00 +7.86143E+00 +3.49241E+00 +8.86567E+00
 +2.17127E+00 +9.17941E+00 +5.50602E-01 +8.78761E+00 -1.26452E+00 +7.74802E+00 -3.13764E+00 +6.18169E+00
 -4.91259E+00 +4.25680E+00 -6.42885E+00 +2.16783E+00 -7.53911E+00 +1.12954E-01 -8.12686E+00 -1.72763E+00
 -8.12188E+00 -3.20984E+00 -7.51121E+00 -4.23856E+00 -6.34417E+00 -4.77376E+00 -4.73011E+00 -4.83004E+00
 -2.82884E+00 -4.46984E+00 -8.34425E-01 -3.79196E+00 +1.04590E+00 -2.91703E+00 +2.61538E+00 -1.97206E+00
 +3.71104E+00 -1.07597E+00 +4.22374E+00 -3.27860E-01 +4.11239E+00 +2.01128E-01 +3.41026E+00 +4.71606E-01
 +2.22241E+00 +4.75731E-01 +7.14333E-01 +2.33579E-01 -9.07091E-01 -2.12858E-01 -2.41805E+00 -8.06827E-01
 -3.60478E+00 -1.48399E+00 -4.28981E+00 -2.17870E+00 -4.35405E+00 -2.82872E+00 -3.75220E+00 -3.37837E+00
 -2.51927E+00 -3.78006E+00 -7.67396E-01 -3.99489E+00 +1.32657E+00 -3.99283E+00 +3.54144E+00 -3.75304E+00
 +5.63737E+00 -3.26491E+00 +7.38374E+00 -2.52971E+00 +8.58595E+00 -1.56292E+00 +9.10766E+00 -3.96592E-01
 +8.88606E+00 +9.18918E-01 +7.93822E+00 +2.31471E+00 +6.35806E+00 +3.70519E+00 +4.30433E+00 +4.99262E+00
 +1.98139E+00 +6.07422E+00 -3.84815E-01 +6.85165E+00 -2.57259E+00 +7.24176E+00 -4.38885E+00 +7.18750E+00
 -5.68928E+00 +6.66733E+00 -6.39198E+00 +5.70176E+00 -6.48325E+00 +4.35562E+00 -6.01522E+00 +2.73525E+00
 -5.09593E+00 +9.80326E-01 -3.87358E+00 -7.49099E-01 -2.51708E+00 -2.28916E+00 -1.19548E+00 -3.49055E+00
 -5.88219E-02 -4.23655E+00 +7.77335E-01 -4.45814E+00 +1.24224E+00 -4.14444E+00 +1.31419E+00 -3.34648E+00
 +1.01876E+00 -2.17366E+00 +4.21715E-01 -7.82856E-01 -3.81958E-01 +6.38787E-01 -1.28124E+00 +1.89557E+00
 -2.16263E+00 +2.80685E+00 -2.92239E+00 +3.22962E+00 -3.47617E+00 +3.07737E+00 -3.76523E+00 +2.33248E+00
 -3.75900E+00 +1.05059E+00 -3.45432E+00 -6.43866E-01 -2.87201E+00 -2.57076E+00 -2.05185E+00 -4.51437E+00
 -1.04683E+00 -6.24827E+00 +8.22393E-02 -7.56205E+00 +1.27125E+00 -8.28644E+00 +2.45606E+00 -8.31388E+00
 +3.57457E+00 -7.61197E+00 +4.56804E+00 -6.22794E+00 +5.38197E+00 -4.28382E+00 +5.96739E+00 -1.96267E+00
 +6.28271E+00 +5.12330E-01 +6.29655E+00 +2.90336E+00 +5.99137E+00 +4.98494E+00 +5.36737E+00 +6.56910E+00
 +4.44609E+00 +7.52572E+00 +3.27275E+00 +7.79572E+00 +1.91646E+00 +7.39561E+00 +4.67700E-01 +6.41308E+00
 -9.67303E-01 +4.99442E+00 -2.27519E+00 +3.32550E+00 -3.34635E+00 +1.60881E+00 -4.08703E+00 +3.94794E-02
 -4.43109E+00 -1.21676E+00 -4.34996E+00 -2.04121E+00 -3.85901E+00 -2.37337E+00 -3.01922E+00 -2.21473E+00
 -1.93341E+00 -1.62501E+00 -7.36922E-01 -7.11804E-01 +4.16366E-01 +3.84774E-01 +1.37150E+00 +1.51030E+00
 +1.99118E+00 +2.51468E+00 +2.17358E+00 +3.26898E+00 +1.86682E+00 +3.67853E+00 +1.07812E+00 +3.69110E+00
 -1.23939E-01 +3.29951E+00 -1.61464E+00 +2.53896E+00 -3.22555E+00 +1.47979E+00 -4.76295E+00 +2.17293E-01
 -6.03018E+00 -1.14024E+00 -6.85123E+00 -2.48324E+00 -7.09276E+00 -3.71121E+00 -6.68164E+00 -4.74059E+00
 -5.61571E+00 -5.50965E+00 -3.96638E+00 -5.98031E+00 -1.87232E+00 -6.13742E+00 +4.74946E-01 -5.98609E+00
 +2.85205E+00 -5.54800E+00 +5.02889E+00 -4.85749E+00 +6.79480E+00 -3.95818E+00 +7.98261E+00 -2.90029E+00
 +8.48762E+00 -1.73892E+00 +8.27923E+00 -5.32951E-01 +7.40382E+00 +6.55983E-01 +5.97850E+00 +1.76482E+00
 +4.17655E+00 +2.73133E+00 +2.20658E+00 +3.49748E+00 +2.87671E-01 +4.01399E+00 -1.37606E+00 +4.24560E+00
 -2.61868E+00 +4.17648E+00 -3.33047E+00 +3.81474E+00 -3.46886E+00 +3.19530E+00 -3.06102E+00 +2.37993E+00
 -2.19808E+00 +1.45411E+00 -1.02201E+00 +5.20423E-01 +2.93196E-01 -3.11194E-01 +1.56326E+00 -9.35401E-01
 +2.61584E+00 -1.26436E+00 +3.31025E+00 -1.23992E+00 +3.55264E+00 -8.43362E-01 +3.30488E+00 -1.01179E-01
 +2.58648E+00 +9.14340E-01 +1.46967E+00 +2.09022E+00 +6.86840E-02 +3.28345E+00 -1.47517E+00 +4.33630E+00
 -3.01049E+00 +5.09453E+00 -4.39269E+00 +5.42650E+00 -5.49885E+00 +5.24075E+00 -6.23889E+00 +4.49965E+00
 -6.56211E+00 +3.22721E+00 -6.45872E+00 +1.50982E+00 -5.95685E+00 -5.10678E-01 -5.11581E+00 -2.65087E+00
 -4.01694E+00 -4.70532E+00 -2.75347E+00 -6.46948E+00 -1.42068E+00 -7.76321E+00 -1.07633E-01 -8.45217E+00
 +1.10900E+00 -8.46413E+00 +2.16856E+00 -7.79841E+00 +3.02767E+00 -6.52680E+00 +3.65972E+00 -4.78605E+00
 +4.05306E+00 -2.76246E+00 +4.20885E+00 -6.70563E-01 +4.13895E+00 +1.27163E+00 +3.86454E+00 +2.86782E+00
 +3.41526E+00 +3.96586E+00 +2.82896E+00 +4.47492E+00 +2.15146E+00 +4.37511E+00 +1.43587E+00 +3.71854E+00
 +7.40849E-01 +2.62177E+00 +1.27547E-01 +1.25067E+00 -3.45009E-01 -2.00436E-01 -6.25746E-01 -1.53253E+00
 -6.78054E-01 -2.56582E+00 -4.86067E-01 -3.16078E+00 -5.96881E-02 -3.23382E+00 +5.62705E-01 -2.76594E+00
 +1.31472E+00 -1.80333E+00 +2.10610E+00 -4.50344E-01 +2.83050E+00 +1.14430E+00 +3.37650E+00 +2.80594E+00
 +3.64055E+00 +4.35482E+00 +3.54058E+00 +5.62655E+00 +3.02831E+00 +6.48994E+00 +2.09864E+00 +6.86009E+00
 +7.94501E-01 +6.70542E+00 -7.93794E-01 +6.04831E+00 -2.53520E+00 +4.95951E+00 -4.27009E+00 +3.54757E+00
 -5.82681E+00 +1.94476E+00 -7.04081E+00 +2.91660E-01 -7.77415E+00 -1.27796E+00 -7.93278E+00 -2.64990E+00
 -7.47951E+00 -3.73884E+00 -6.44074E+00 -4.49347E+00 -4.90579E+00 -4.89726E+00 -3.01875E+00 -4.96544E+00
 -9.63470E-01 -4.73898E+00 +1.05661E+00 -4.27689E+00 +2.84142E+00 -3.64792E+00 +4.21735E+00 -2.92294E+00
 +5.05752E+00 -2.16864E+00 +5.29676E+00 -1.44323E+00 +4.93932E+00 -7.94029E-01 +4.05837E+00 -2.56746E-01
 +2.78714E+00 +1.44051E-01 +1.30290E+00 +3.93939E-01 -1.94489E-01 +4.87687E-01 -1.50663E+00 +4.28750E-01
 -2.46044E+00 +2.29376E-01 -2.92877E+00 -8.88022E-02 -2.84542E+00 -4.94082E-01 -2.21259E+00 -9.44450E-01
 -1.10010E+00 -1.38838E+00 +3.63640E-01 -1.76717E+00 +2.00739E+00 -2.01904E+00 +3.63790E+00 -2.08491E+00
 +5.06283E+00 -1.91549E+00 +6.11318E+00 -1.47869E+00 +6.66245E+00 -7.66535E-01 +6.64023E+00 +1.99760E-01
 +6.03893E+00 +1.36756E+00 +4.91290E+00 +2.65418E+00 +3.37041E+00 +3.95235E+00 +1.55981E+00 +5.13941E+00
 -3.48452E-01 +6.08973E+00 -2.18129E+00 +6.68880E+00 -3.78183E+00 +6.84754E+00 -5.02521E+00 +6.51487E+00
 -5.82983E+00 +5.68676E+00 -6.16285E+00 +4.41033E+00 -6.03986E+00 +2.78201E+00 -5.51909E+00 +9.39734E-01
 -4.69135E+00 -9.50483E-01 -3.66725E+00 -2.71200E+00 -2.56359E+00 -4.17723E+00 -1.49043E+00 -5.20710E+00
