 Created: 19-Jan-2021
 $NMID
 ID='D:\BASISSIMULATI'
 FMTDAT='(8E13.5)'
 VOLUME=   1.00000E+00
 TRAMP=   1.00000E+00
 $END
 +3.68605E+00 +4.17727E-03 +3.64513E+00 +5.27917E-01 +3.53023E+00 +1.04011E+00 +3.34381E+00 +1.53038E+00
 +3.08976E+00 +1.98879E+00 +2.77335E+00 +2.40608E+00 +2.40110E+00 +2.77385E+00 +1.98067E+00 +3.08469E+00
 +1.52067E+00 +3.33240E+00 +1.03050E+00 +3.51202E+00 +5.20167E-01 +3.62003E+00 +7.08313E-05 +3.65434E+00
 -5.19210E-01 +3.61437E+00 -1.02713E+00 +3.50105E+00 -1.51339E+00 +3.31679E+00 -1.96815E+00 +3.06545E+00
 -2.38221E+00 +2.75224E+00 -2.74724E+00 +2.38362E+00 -3.05589E+00 +1.96716E+00 -3.30199E+00 +1.51139E+00
 -3.48063E+00 +1.02565E+00 -3.58830E+00 +5.19828E-01 -3.62290E+00 +4.24616E-03 -3.58387E+00 -5.10613E-01
 -3.47210E+00 -1.01429E+00 -3.28998E+00 -1.49658E+00 -3.04133E+00 -1.94771E+00 -2.73128E+00 -2.35857E+00
 -2.36625E+00 -2.72088E+00 -1.95372E+00 -3.02736E+00 -1.50216E+00 -3.27186E+00 -1.02080E+00 -3.44952E+00
 -5.19457E-01 -3.55683E+00 -8.34964E-03 -3.59173E+00 +5.02125E-01 -3.55362E+00 +1.00160E+00 -3.44339E+00
 +1.47995E+00 -3.26339E+00 +1.92748E+00 -3.01739E+00 +2.33516E+00 -2.71048E+00 +2.69477E+00 -2.34900E+00
 +2.99908E+00 -1.94038E+00 +3.24199E+00 -1.49298E+00 +3.41868E+00 -1.01596E+00 +3.52564E+00 -5.19053E-01
 +3.56082E+00 -1.23822E-02 +3.52363E+00 +4.93744E-01 +3.41491E+00 +9.89048E-01 +3.23701E+00 +1.46348E+00
 +2.99363E+00 +1.90745E+00 +2.68983E+00 +2.31197E+00 +2.33187E+00 +2.66890E+00 +1.92711E+00 +2.97106E+00
 +1.48384E+00 +3.21240E+00 +1.01113E+00 +3.38810E+00 +5.18616E-01 +3.49472E+00 +1.63447E-02 +3.53018E+00
 -4.85470E-01 +3.49388E+00 -9.76637E-01 +3.38667E+00 -1.44720E+00 +3.21083E+00 -1.88762E+00 +2.97006E+00
 -2.28901E+00 +2.66933E+00 -2.64328E+00 +2.31486E+00 -2.94330E+00 +1.91393E+00 -3.18307E+00 +1.47475E+00
 -3.35780E+00 +1.00630E+00 -3.46406E+00 +5.18148E-01 -3.49979E+00 +2.02382E-02 -3.46437E+00 -4.77301E-01
 -3.35865E+00 -9.64365E-01 -3.18486E+00 -1.43108E+00 -2.94666E+00 -1.86799E+00 -2.64899E+00 -2.26627E+00
 -2.29797E+00 -2.61789E+00 -1.90083E+00 -2.91579E+00 -1.46570E+00 -3.15400E+00 -1.00148E+00 -3.32776E+00
 -5.17649E-01 -3.43367E+00 -2.40634E-02 -3.46966E+00 +4.69236E-01 -3.43512E+00 +9.52231E-01 -3.33085E+00
 +1.41513E+00 -3.15910E+00 +1.84855E+00 -2.92345E+00 +2.24375E+00 -2.62879E+00 +2.59275E+00 -2.28119E+00
 +2.88854E+00 -1.88781E+00 +3.12519E+00 -1.45669E+00 +3.29799E+00 -9.96667E-01 +3.40354E+00 -5.17120E-01
 +3.43978E+00 -2.78213E-02 +3.40610E+00 +4.61274E-01 +3.30329E+00 +9.40232E-01 +3.13354E+00 +1.39934E+00
 +2.90041E+00 +1.82931E+00 +2.60874E+00 +2.22144E+00 +2.26453E+00 +2.56783E+00 +1.87487E+00 +2.86153E+00
 +1.44773E+00 +3.09664E+00 +9.91861E-01 +3.26848E+00 +5.16560E-01 +3.37366E+00 +3.15127E-02 +3.41016E+00
 -4.53414E-01 +3.37733E+00 -9.28369E-01 +3.27595E+00 -1.38372E+00 +3.10818E+00 -1.81025E+00 +2.87755E+00
 -2.19935E+00 +2.58883E+00 -2.54316E+00 +2.24798E+00 -2.83477E+00 +1.86201E+00 -3.06834E+00 +1.43882E+00
 -3.23923E+00 +9.87064E-01 -3.34405E+00 +5.15972E-01 -3.38078E+00 +3.51385E-02 -3.34879E+00 -4.45654E-01
 -3.24882E+00 -9.16639E-01 -3.08302E+00 -1.36827E+00 -2.85486E+00 -1.79139E+00 -2.56907E+00 -2.17747E+00
 -2.23155E+00 -2.51871E+00 -1.84923E+00 -2.80825E+00 -1.42994E+00 -3.04030E+00 -9.82274E-01 -3.21024E+00
 -5.15354E-01 -3.31469E+00 -3.86995E-02 -3.35166E+00 +4.37993E-01 -3.32049E+00 +9.05041E-01 -3.22192E+00
 +1.35297E+00 -3.05807E+00 +1.77272E+00 -2.83235E+00 +2.15580E+00 -2.54946E+00 +2.49449E+00 -2.21523E+00
 +2.78198E+00 -1.83653E+00 +3.01252E+00 -1.42112E+00 +3.18150E+00 -9.77492E-01 +3.28559E+00 -5.14708E-01
 +3.32278E+00 -4.21966E-02 +3.29242E+00 +4.30431E-01 +3.19524E+00 +8.93573E-01 +3.03330E+00 +1.33784E+00
 +2.81001E+00 +1.75423E+00 +2.52999E+00 +2.13434E+00 +2.19902E+00 +2.47050E+00 +1.82391E+00 +2.75595E+00
 +1.41233E+00 +2.98497E+00 +9.72718E-01 +3.15301E+00 +5.14035E-01 +3.25674E+00 +4.56307E-02 +3.29415E+00
 -4.22965E-01 +3.26459E+00 -8.82234E-01 +3.16877E+00 -1.32286E+00 +3.00874E+00 -1.73593E+00 +2.78784E+00
 -2.11309E+00 +2.51067E+00 -2.44673E+00 +2.18293E+00 -2.73016E+00 +1.81137E+00 -2.95768E+00 +1.40359E+00
 -3.12477E+00 +9.67953E-01 -3.22813E+00 +5.13334E-01 -3.26576E+00 +4.90025E-02 -3.23699E+00 -4.15596E-01
 -3.14252E+00 -8.71024E-01 -2.98437E+00 -1.30804E+00 -2.76584E+00 -1.71781E+00 -2.49148E+00 -2.09204E+00
 -2.16695E+00 -2.42319E+00 -1.79890E+00 -2.70460E+00 -1.39490E+00 -2.93063E+00 -9.63197E-01 -3.09678E+00
 -5.12607E-01 -3.19977E+00 -5.23128E-02 -3.23761E+00 +4.08322E-01 -3.20962E+00 +8.59939E-01 -3.11648E+00
 +1.29338E+00 -2.96019E+00 +1.69987E+00 -2.74401E+00 +2.07120E+00 -2.47244E+00 +2.39987E+00 -2.15107E+00
 +2.67928E+00 -1.78652E+00 +2.90383E+00 -1.38625E+00 +3.06904E+00 -9.58449E-01 +3.17166E+00 -5.11854E-01
 +3.20969E+00 -5.55625E-02 +3.18247E+00 +4.01141E-01 +3.09065E+00 +8.48980E-01 +2.93620E+00 +1.27887E+00
 +2.72235E+00 +1.68211E+00 +2.45354E+00 +2.05055E+00 +2.13531E+00 +2.37676E+00 +1.77421E+00 +2.65419E+00
 +1.37764E+00 +2.87726E+00 +9.53711E-01 +3.04155E+00 +5.11075E-01 +3.14379E+00 +5.87523E-02 +3.18202E+00
 -3.94054E-01 +3.15555E+00 -8.38145E-01 +3.06503E+00 -1.26451E+00 +2.91240E+00 -1.66453E+00 +2.70085E+00
 -2.03011E+00 +2.43477E+00 -2.35388E+00 +2.11966E+00 -2.62933E+00 +1.76198E+00 -2.85094E+00 +1.36908E+00
 -3.01429E+00 +9.48982E-01 -3.11616E+00 +5.10271E-01 -3.15458E+00 +6.18831E-02 -3.12886E+00 -3.87058E-01
 -3.03962E+00 -8.27432E-01 -2.88879E+00 -1.25031E+00 -2.67952E+00 -1.64712E+00 -2.41615E+00 -2.00986E+00
 -2.10411E+00 -2.33120E+00 -1.74983E+00 -2.60469E+00 -1.36056E+00 -2.82484E+00 -9.44263E-01 -2.98727E+00
 -5.09442E-01 -3.08877E+00 -6.49555E-02 -3.12737E+00 +3.80152E-01 -3.10238E+00 +8.16840E-01 -3.01442E+00
 +1.23625E+00 -2.86537E+00 +1.62989E+00 -2.65835E+00 +1.98981E+00 -2.39766E+00 +2.30875E+00 -2.08867E+00
 +2.58029E+00 -1.73775E+00 +2.79899E+00 -1.35208E+00 +2.96050E+00 -9.39553E-01 +3.06162E+00 -5.08589E-01
 +3.10039E+00 -6.79705E-02 +3.07613E+00 +3.73337E-01 +2.98942E+00 +8.06368E-01 +2.84213E+00 +1.22234E+00
 +2.63734E+00 +1.61283E+00 +2.37930E+00 +1.96995E+00 +2.07334E+00 +2.28650E+00 +1.72575E+00 +2.55610E+00
 +1.34365E+00 +2.77336E+00 +9.34853E-01 +2.93395E+00 +5.07712E-01 +3.03470E+00 +7.09286E-02 +3.07364E+00
 -3.66610E-01 +3.05009E+00 -7.96015E-01 +2.96462E+00 -1.20858E+00 +2.81908E+00 -1.59594E+00 +2.61650E+00
 -1.95029E+00 +2.36109E+00 -2.26446E+00 +2.05812E+00 -2.53214E+00 +1.71382E+00 -2.74797E+00 +1.33526E+00
 -2.90764E+00 +9.30164E-01 -3.00801E+00 +5.06812E-01 -3.04712E+00 +7.38308E-02 -3.02427E+00 -3.59971E-01
 -2.94003E+00 -7.85779E-01 -2.79621E+00 -1.19496E+00 -2.59581E+00 -1.57922E+00 -2.34300E+00 -1.93081E+00
 -2.04300E+00 -2.24262E+00 -1.70197E+00 -2.50840E+00 -1.32691E+00 -2.72280E+00 -9.25484E-01 -2.88157E+00
 -5.05889E-01 -2.98155E+00 -7.66777E-02 -3.02082E+00 +3.53418E-01 -2.99866E+00 +7.75660E-01 -2.91564E+00
 +1.18148E+00 -2.77352E+00 +1.56267E+00 -2.57528E+00 +1.91152E+00 -2.32505E+00 +2.22100E+00 -2.02799E+00
 +2.48487E+00 -1.69020E+00 +2.69786E+00 -1.31861E+00 +2.85572E+00 -9.20815E-01 +2.95532E+00 -5.04944E-01
 +2.99474E+00 -7.94700E-02 +2.97327E+00 +3.46951E-01 +2.89144E+00 +7.65655E-01 +2.75101E+00 +1.16815E+00
 +2.55491E+00 +1.54629E+00 +2.30723E+00 +1.89242E+00 +2.01308E+00 +2.19957E+00 +1.67850E+00 +2.46157E+00
 +1.31035E+00 +2.67315E+00 +9.16157E-01 +2.83010E+00 +5.03978E-01 +2.92932E+00 +8.22086E-02 +2.96889E+00
 -3.40568E-01 +2.94809E+00 -7.55764E-01 +2.86744E+00 -1.15496E+00 +2.72867E+00 -1.53006E+00 +2.53470E+00
 -1.87350E+00 +2.28955E+00 -2.17835E+00 +1.99828E+00 -2.43847E+00 +1.66687E+00 -2.64865E+00 +1.30213E+00
 -2.80471E+00 +9.11509E-01 -2.90355E+00 +5.02989E-01 -2.94325E+00 +8.48940E-02 -2.92312E+00 -3.34270E-01
 -2.84364E+00 -7.45986E-01 -2.70652E+00 -1.14190E+00 -2.51464E+00 -1.51400E+00 -2.27199E+00 -1.85477E+00
 -1.98357E+00 -2.15733E+00 -1.65532E+00 -2.41559E+00 -1.29395E+00 -2.62438E+00 -9.06873E-01 -2.77954E+00
 -5.01980E-01 -2.87799E+00 -8.75270E-02 -2.91784E+00 +3.28054E-01 -2.89835E+00 +7.36319E-01 -2.82002E+00
 +1.12899E+00 -2.68454E+00 +1.49811E+00 -2.49474E+00 +1.83622E+00 -2.25457E+00 +2.13650E+00 -1.96897E+00
 +2.39292E+00 -1.64384E+00 +2.60032E+00 -1.28582E+00 +2.75459E+00 -9.02248E-01 +2.85266E+00 -5.00951E-01
 +2.89264E+00 -9.01083E-02 +2.87379E+00 +3.21919E-01 +2.79661E+00 +7.26762E-01 +2.66274E+00 +1.11621E+00
 +2.47499E+00 +1.48237E+00 +2.23727E+00 +1.81784E+00 +1.95448E+00 +2.11587E+00 +1.63243E+00 +2.37045E+00
 +1.27773E+00 +2.57648E+00 +8.97633E-01 +2.72986E+00 +4.99901E-01 +2.82755E+00 +9.26386E-02 +2.86765E+00
 -3.15866E-01 +2.84944E+00 -7.17314E-01 +2.77338E+00 -1.10356E+00 +2.64110E+00 -1.46679E+00 +2.45539E+00
 -1.79965E+00 +2.22010E+00 -2.09543E+00 +1.94008E+00 -2.34819E+00 +1.62110E+00 -2.55286E+00 +1.26968E+00
 -2.70535E+00 +8.93031E-01 -2.80265E+00 +4.98831E-01 -2.84287E+00 +9.51186E-02 -2.82528E+00 -3.09893E-01
 -2.75034E+00 -7.07974E-01 -2.61964E+00 -1.09105E+00 -2.43595E+00 -1.45136E+00 -2.20306E+00 -1.78163E+00
 -1.92579E+00 -2.07519E+00 -1.60983E+00 -2.32614E+00 -1.26168E+00 -2.52945E+00 -8.88440E-01 -2.68106E+00
 -4.97743E-01 -2.77797E+00 -9.75490E-02 -2.81831E+00 +3.03998E-01 -2.80133E+00 +6.98740E-01 -2.72749E+00
 +1.07867E+00 -2.59836E+00 +1.43609E+00 -2.41665E+00 +1.76379E+00 -2.18614E+00 +2.05514E+00 -1.91159E+00
 +2.30429E+00 -1.59864E+00 +2.50624E+00 -1.25371E+00 +2.65698E+00 -8.83860E-01 +2.75350E+00 -4.96635E-01
 +2.79395E+00 -9.99304E-02 +2.77758E+00 +2.98182E-01 +2.70482E+00 +6.89612E-01 +2.57723E+00 +1.06642E+00
 +2.39750E+00 +1.42098E+00 +2.16935E+00 +1.74611E+00 +1.89749E+00 +2.03527E+00 +1.58752E+00 +2.28264E+00
 +1.24579E+00 +2.48325E+00 +8.79293E-01 +2.63311E+00 +4.95509E-01 +2.72925E+00 +1.02263E-01 +2.76980E+00
 -2.92442E-01 +2.75403E+00 -6.80589E-01 +2.68234E+00 -1.05430E+00 +2.55628E+00 -1.40601E+00 +2.37850E+00
 -1.72861E+00 +2.15268E+00 -2.01560E+00 +1.88350E+00 -2.26119E+00 +1.57647E+00 -2.46046E+00 +1.23791E+00
 -2.60945E+00 +8.74737E-01 -2.70520E+00 +4.94365E-01 -2.74585E+00 +1.04549E-01 -2.73067E+00 -2.86779E-01
