 Created: 19-Jan-2021
 $NMID
 ID='D:\BASISSIMULATI'
 FMTDAT='(8E13.5)'
 VOLUME=   1.00000E+00
 TRAMP=   1.00000E+00
 $END
 +7.37276E+00 +8.30644E-03 +6.95904E+00 +1.02086E+00 +5.77973E+00 +1.96656E+00 +3.97087E+00 +2.78250E+00
 +1.73959E+00 +3.40907E+00 -6.60612E-01 +3.79280E+00 -2.95981E+00 +3.89049E+00 -4.90328E+00 +3.67432E+00
 -6.28077E+00 +3.13738E+00 -6.95007E+00 +2.29850E+00 -6.85203E+00 +1.20547E+00 -6.01540E+00 -6.45724E-02
 -4.55122E+00 -1.40824E+00 -2.63766E+00 -2.70297E+00 -4.97478E-01 -3.81772E+00 +1.62902E+00 -4.62646E+00
 +3.51201E+00 -5.02311E+00 +4.95782E+00 -4.93589E+00 +5.82929E+00 -4.33935E+00 +6.05849E+00 -3.26185E+00
 +5.65086E+00 -1.78730E+00 +4.68053E+00 -5.01245E-02 +3.27809E+00 +1.77644E+00 +1.61251E+00 +3.49779E+00
 -1.29969E-01 +4.91939E+00 -1.76750E+00 +5.86969E+00 -3.14202E+00 +6.22175E+00 -4.13441E+00 +5.91074E+00
 -4.67379E+00 +4.94479E+00 -4.74063E+00 +3.40756E+00 -4.36374E+00 +1.45160E+00 -3.61225E+00 -7.16820E-01
 -2.58412E+00 -2.86012E+00 -1.39302E+00 -4.73643E+00 -1.55296E-01 -6.12806E+00 +1.02129E+00 -6.86780E+00
 +2.04610E+00 -6.85998E+00 +2.85087E+00 -6.09322E+00 +3.39159E+00 -4.64345E+00 +3.64771E+00 -2.66627E+00
 +3.61941E+00 -3.79789E-01 +3.32389E+00 +1.96039E+00 +2.79156E+00 +4.09090E+00 +2.06299E+00 +5.77144E+00
 +1.18664E+00 +6.81301E+00 +2.17558E-01 +7.10006E+00 -7.83415E-01 +6.60381E+00 -1.75057E+00 +5.38521E+00
 -2.61500E+00 +3.58713E+00 -3.30755E+00 +1.41695E+00 -3.76334E+00 -8.78391E-01 -3.92777E+00 -3.04164E+00
 -3.76336E+00 -4.83520E+00 -3.25666E+00 -6.06823E+00 -2.42399E+00 -6.61755E+00 -1.31478E+00 -6.44008E+00
 -1.15030E-02 -5.57553E+00 +1.37454E+00 -4.13915E+00 +2.71171E+00 -2.30603E+00 +3.86040E+00 -2.88857E-01
 +4.68798E+00 +1.68780E+00 +5.08485E+00 +3.41340E+00 +4.97943E+00 +4.71461E+00 +4.35008E+00 +5.47281E+00
 +3.23193E+00 +5.63451E+00 +1.71744E+00 +5.21343E+00 -5.02080E-02 +4.28490E+00 -1.89031E+00 +2.97341E+00
 -3.60354E+00 +1.43551E+00 -4.99430E+00 -1.59600E-01 -5.89405E+00 -1.64938E+00 -6.18263E+00 -2.89476E+00
 -5.80480E+00 -3.79269E+00 -4.77967E+00 -4.28349E+00 -3.20150E+00 -4.35246E+00 -1.23138E+00 -4.02642E+00
 +9.19519E-01 -3.36619E+00 +3.01332E+00 -2.45636E+00 +4.81279E+00 -1.39416E+00 +6.10936E+00 -2.78752E-01
 +6.74834E+00 +7.97696E-01 +6.64824E+00 +1.75648E+00 +5.81150E+00 +2.53608E+00 +4.32543E+00 +3.09345E+00
 +2.35283E+00 +3.40324E+00 +1.13537E-01 +3.45610E+00 -2.14106E+00 +3.25643E+00 -4.15737E+00 +2.82067E+00
 -5.70931E+00 +2.17618E+00 -6.62468E+00 +1.36088E+00 -6.80502E+00 +4.23296E-01 -6.23657E+00 -5.77513E-01
 -4.99109E+00 -1.57291E+00 -3.21644E+00 -2.48707E+00 -1.11831E+00 -3.24121E+00 +1.06463E+00 -3.75978E+00
 +3.08899E+00 -3.97819E+00 +4.73486E+00 -3.85118E+00 +5.83054E+00 -3.36088E+00 +6.27092E+00 -2.52306E+00
 +6.02744E+00 -1.39040E+00 +5.14877E+00 -5.16737E-02 +3.75239E+00 +1.37368E+00 +2.00844E+00 +2.74553E+00
 +1.18196E-01 +3.91692E+00 -1.71014E+00 +4.75035E+00 -3.28521E+00 +5.13469E+00 -4.45305E+00 +5.00043E+00
 -5.11208E+00 +4.33127E+00 -5.22118E+00 +3.17010E+00 -4.80027E+00 +1.61817E+00 -3.92386E+00 -1.73034E-01
 -2.70883E+00 -2.01648E+00 -1.29850E+00 -3.70973E+00 +1.55023E-01 -5.05797E+00 +1.50773E+00 -5.89747E+00
 +2.63802E+00 -6.11630E+00 +3.45700E+00 -5.66973E+00 +3.91393E+00 -4.58811E+00 +3.99686E+00 -2.97584E+00
 +3.72898E+00 -1.00144E+00 +3.16172E+00 +1.12057E+00 +2.36609E+00 +3.15380E+00 +1.42345E+00 +4.86739E+00
 +4.17102E-01 +6.06333E+00 -5.74482E-01 +6.60031E+00 -1.48235E+00 +6.41123E+00 -2.24965E+00 +5.51186E+00
 -2.83244E+00 +3.99978E+00 -3.19941E+00 +2.04341E+00 -3.33118E+00 -1.37510E-01 -3.21978E+00 -2.29753E+00
 -2.86879E+00 -4.19429E+00 -2.29408E+00 -5.61680E+00 -1.52509E+00 -6.40984E+00 -6.05938E-01 -6.49154E+00
 +4.04285E-01 -5.86199E+00 +1.43270E+00 -4.60213E+00 +2.39595E+00 -2.86291E+00 +3.20582E+00 -8.46514E-01
 +3.77705E+00 +1.21817E+00 +4.03655E+00 +3.10257E+00 +3.93323E+00 +4.60470E+00 +3.44678E+00 +5.57152E+00
 +2.59423E+00 +5.91482E+00 +1.43284E+00 +5.61884E+00 +5.83467E-02 +4.73928E+00 -1.40171E+00 +3.39385E+00
 -2.79950E+00 +1.74614E+00 -3.98212E+00 -1.50959E-02 -4.80895E+00 -1.69841E+00 -5.16918E+00 -3.13122E+00
 -4.99711E+00 -4.17780E+00 -4.28308E+00 -4.75189E+00 -3.07841E+00 -4.82276E+00 -1.49312E+00 -4.41444E+00
 +3.13678E-01 -3.59881E+00 +2.14994E+00 -2.48391E+00 +3.81175E+00 -1.19922E+00 +5.10687E+00 +1.19985E-01
 +5.87798E+00 +1.34722E+00 +6.02264E+00 +2.37674E+00 +5.50729E+00 +3.13176E+00 +4.37346E+00 +3.56839E+00
 +2.73502E+00 +3.67550E+00 +7.66646E-01 +3.47118E+00 -1.31541E+00 +2.99676E+00 -3.27799E+00 +2.30965E+00
 -4.89817E+00 +1.47619E+00 -5.98968E+00 +5.65313E-01 -6.42524E+00 -3.56286E-01 -6.15207E+00 -1.22730E+00
 -5.19855E+00 -1.99354E+00 -3.67122E+00 -2.60864E+00 -1.74247E+00 -3.03438E+00 +3.69783E-01 -3.24119E+00
 +2.42767E+00 -3.20935E+00 +4.20127E+00 -2.93085E+00 +5.49530E+00 -2.41190E+00 +6.17147E+00 -1.67546E+00
 +6.16371E+00 -7.63194E-01 +5.48469E+00 +2.64154E-01 +4.22275E+00 +1.32843E+00 +2.53011E+00 +2.33843E+00
 +6.03751E-01 +3.19695E+00 -1.33853E+00 +3.81010E+00 -3.08366E+00 +4.09797E+00 -4.44760E+00 +4.00548E+00
 -5.29522E+00 +3.51177E+00 -5.55383E+00 +2.63672E+00 -5.21874E+00 +1.44322E+00 -4.35069E+00 +3.44052E-02
 -3.06582E+00 -1.45445E+00 -1.51970E+00 -2.86876E+00 +1.12245E-01 -4.05114E+00 +1.65546E+00 -4.85963E+00
 +2.95547E+00 -5.18553E+00 +3.89350E+00 -4.96841E+00 +4.39682E+00 -4.20632E+00 +4.44305E+00 -2.95942E+00
 +4.05839E+00 -1.34622E+00 +3.31051E+00 +4.67452E-01 +2.29756E+00 +2.28591E+00 +1.13491E+00 +3.90544E+00
 -5.85185E-02 +5.13805E+00 -1.17256E+00 +5.83431E+00 -2.11561E+00 +5.90221E+00 -2.82097E+00 +5.31975E+00
 -3.24956E+00 +4.13936E+00 -3.38936E+00 +2.48350E+00 -3.25216E+00 +5.31620E-01 -2.86869E+00 -1.49995E+00
 -2.28308E+00 -3.38291E+00 -1.54765E+00 -4.90371E+00 -7.18558E-01 -5.88878E+00 +1.47312E-01 -6.22521E+00
 +9.94288E-01 -5.87422E+00 +1.76905E+00 -4.87586E+00 +2.42148E+00 -3.34427E+00 +2.90578E+00 -1.45408E+00
 +3.18232E+00 +5.80301E-01 +3.22043E+00 +2.53002E+00 +3.00195E+00 +4.17857E+00 +2.52524E+00 +5.34676E+00
 +1.80875E+00 +5.91289E+00 +8.93444E-01 +5.82577E+00 -1.56887E-01 +5.10911E+00 -1.25805E+00 +3.85698E+00
 -2.31095E+00 +2.22106E+00 -3.21004E+00 +3.91548E-01 -3.85407E+00 -1.42589E+00 -4.15795E+00 -3.03416E+00
 -4.06448E+00 -4.26685E+00 -3.55394E+00 -5.00583E+00 -2.65043E+00 -5.19245E+00 -1.42328E+00 -4.83123E+00
 +1.68804E-02 -3.98609E+00 +1.52754E+00 -2.76992E+00 +2.94851E+00 -1.32905E+00 +4.11947E+00 +1.75044E-01
 +4.89882E+00 +1.58452E+00 +5.18158E+00 +2.76217E+00 +4.91394E+00 +3.60470E+00 +4.10239E+00 +4.05107E+00
 +2.81609E+00 +4.08529E+00 +1.18156E+00 +3.73392E+00 -6.29742E-01 +3.05902E+00 -2.41995E+00 +2.14810E+00
 -3.98717E+00 +1.10238E+00 -5.14925E+00 +2.51577E-02 -5.76585E+00 -9.88405E-01 -5.75615E+00 -1.85902E+00
 -5.10982E+00 -2.52810E+00 -3.88970E+00 -2.95949E+00 -2.22573E+00 -3.13876E+00 -3.00714E-01 -3.07046E+00
 +1.67056E+00 -2.77448E+00 +3.46621E+00 -2.28221E+00 +4.88328E+00 -1.63313E+00 +5.76162E+00 -8.72298E-01
 +6.00274E+00 -4.87245E-02 +5.58137E+00 +7.85655E-01 +4.54810E+00 +1.57680E+00 +3.02317E+00 +2.26977E+00
 +1.18181E+00 +2.81080E+00 -7.66692E-01 +3.15053E+00 -2.60377E+00 +3.24833E+00 -4.12707E+00 +3.07745E+00
 -5.17360E+00 +2.63019E+00 -5.63771E+00 +1.92232E+00 -5.48194E+00 +9.95730E-01 -4.73951E+00 -8.16331E-02
 -3.50843E+00 -1.21903E+00 -1.93816E+00 -2.30968E+00 -2.10782E-01 -3.24052E+00 +1.48106E+00 -3.90429E+00
 +2.95641E+00 -4.21245E+00 +4.06601E+00 -4.10736E+00 +4.70759E+00 -3.57204E+00 +4.83494E+00 -2.63588E+00
 +4.45999E+00 -1.37521E+00 +3.64802E+00 +9.19424E-02 +2.50716E+00 +1.61658E+00 +1.17348E+00 +3.03418E+00
 -2.05783E-01 +4.18302E+00 -1.48914E+00 +4.92351E+00 -2.55559E+00 +5.15586E+00 -3.31578E+00 +4.83392E+00
 -3.71848E+00 +3.97320E+00 -3.75220E+00 +2.65172E+00 -3.44220E+00 +1.00333E+00 -2.84381E+00 -7.96101E-01
 -2.03337E+00 -2.54800E+00 -1.09815E+00 -4.05389E+00 -1.26731E-01 -5.13884E+00 +7.99240E-01 -5.67263E+00
 +1.61098E+00 -5.58614E+00 +2.25608E+00 -4.88057E+00 +2.69961E+00 -3.62845E+00 +2.92340E+00 -1.96602E+00
 +2.92408E+00 -7.79180E-02 +2.71074E+00 +1.82418E+00 +2.30274E+00 +3.52620E+00 +1.72804E+00 +4.83679E+00
 +1.02234E+00 +5.60970E+00 +2.28634E-01 +5.76074E+00 -6.03128E-01 +5.27736E+00 -1.41679E+00 +4.21949E+00
 -2.15179E+00 +2.71188E+00 -2.74624E+00 +9.28747E-01 -3.14161E+00 -9.27198E-01 -3.28848E+00 -2.64873E+00
 -3.15305E+00 -4.04819E+00 -2.72334E+00 -4.97862E+00 -2.01417E+00 -5.34970E+00 -1.06972E+00 -5.13639E+00
 +3.69923E-02 -4.37982E+00 +1.20846E+00 -3.18020E+00 +2.33060E+00 -1.68325E+00 +3.28386E+00 -6.17073E-02
 +3.95642E+00 +1.50538E+00 +4.25790E+00 +2.85317E+00 +4.13187E+00 +3.84884E+00 +3.56542E+00 +4.40470E+00
 +2.59415E+00 +4.48532E+00 +1.30164E+00 +4.10823E+00 -1.87006E-01 +3.33842E+00 -1.71723E+00 +2.27788E+00
 -3.12145E+00 +1.05173E+00 -4.23816E+00 -2.07172E-01 -4.93128E+00 -1.37308E+00 -5.10750E+00 -2.34001E+00
 -4.72918E+00 -3.03087E+00 -3.82110E+00 -3.40242E+00 -2.46985E+00 -3.44590E+00 -8.15695E-01 -3.18381E+00
 +9.62315E-01 -2.66379E+00 +2.66644E+00 -1.95075E+00 +4.10309E+00 -1.11848E+00 +5.10579E+00 -2.41882E-01
 +5.55526E+00 +6.09331E-01 +5.39431E+00 +1.37508E+00 +4.63532E+00 +2.00730E+00 +3.35963E+00 +2.47074E+00
 +1.70847E+00 +2.74241E+00 -1.33191E-01 +2.81059E+00 -1.95827E+00 +2.67383E+00 -3.56177E+00 +2.34034E+00
 -4.76473E+00 +1.82802E+00 -5.43501E+00 +1.16491E+00 -5.50239E+00 +3.89778E-01 -4.96610E+00 -4.47815E-01
 -3.89404E+00 -1.28845E+00 -2.41394E+00 -2.06535E+00 -6.97426E-01 -2.70865E+00 +1.06067E+00 -3.15133E+00
 +2.66533E+00 -3.33646E+00 +3.94384E+00 -3.22480E+00 +4.76496E+00 -2.80181E+00 +5.05271E+00 -2.08288E+00
 +4.79314E+00 -1.11569E+00 +4.03360E+00 +2.10733E-02 +2.87491E+00 +1.22310E+00 +1.45755E+00 +2.36962E+00
 -5.60091E-02 +3.33571E+00 -1.50070E+00 +4.00646E+00 -2.72753E+00 +4.29126E+00 -3.61920E+00 +4.13637E+00
 -4.10121E+00 +3.53408E+00 -4.14725E+00 +2.52683E+00 -3.77868E+00 +1.20554E+00 -3.05863E+00 -2.98177E-01
 -2.08189E+00 -1.82522E+00 -9.62051E-01 -3.20637E+00 +1.82260E-01 -4.28178E+00 +1.24024E+00 -4.92032E+00
