 Created: 19-Jan-2021
 $NMID
 ID='D:\BASISSIMULATI'
 FMTDAT='(8E13.5)'
 VOLUME=   1.00000E+00
 TRAMP=   1.00000E+00
 $END
 +1.29723E+01 +1.46692E-02 +1.21546E+01 +4.02432E+00 +9.99712E+00 +7.41414E+00 +6.86432E+00 +9.73492E+00
 +3.26181E+00 +1.07302E+01 -2.59214E-01 +1.03732E+01 -3.20176E+00 +8.85855E+00 -5.20765E+00 +6.55360E+00
 -6.11079E+00 +3.91913E+00 -5.95025E+00 +1.41829E+00 -4.94301E+00 -5.68177E-01 -3.42455E+00 -1.80341E+00
 -1.77170E+00 -2.22205E+00 -3.24988E-01 -1.92080E+00 +6.73203E-01 -1.11721E+00 +1.11314E+00 -8.81002E-02
 +1.01990E+00 +8.97117E-01 +5.25851E-01 +1.63314E+00 -1.77356E-01 +2.01371E+00 -8.94323E-01 +2.03884E+00
 -1.47503E+00 +1.79548E+00 -1.84631E+00 +1.41869E+00 -2.01930E+00 +1.04473E+00 -2.07301E+00 +7.68809E-01
 -2.11990E+00 +6.18136E-01 -2.26362E+00 +5.46672E-01 -2.56078E+00 +4.52101E-01 -2.99713E+00 +2.09844E-01
 -3.48440E+00 -2.85371E-01 -3.87895E+00 -1.08171E+00 -4.01745E+00 -2.14646E+00 -3.76060E+00 -3.36304E+00
 -3.03362E+00 -4.55023E+00 -1.85311E+00 -5.49947E+00 -3.32834E-01 -6.02161E+00 +1.33367E+00 -5.99179E+00
 +2.91031E+00 -5.38154E+00 +4.16724E+00 -4.27002E+00 +4.93010E+00 -2.83098E+00 +5.11801E+00 -1.29806E+00
 +4.76155E+00 +8.41709E-02 +3.99600E+00 +1.11235E+00 +3.03102E+00 +1.66779E+00 +2.10355E+00 +1.74115E+00
 +1.42430E+00 +1.43267E+00 +1.12998E+00 +9.27426E-01 +1.25235E+00 +4.51251E-01 +1.71100E+00 +2.17027E-01
 +2.33194E+00 +3.73514E-01 +2.88795E+00 +9.68325E-01 +3.15172E+00 +1.93358E+00 +2.95015E+00 +3.09769E+00
 +2.20740E+00 +4.22103E+00 +9.67210E-01 +5.04772E+00 -6.10900E-01 +5.36240E+00 -2.28092E+00 +5.03957E+00
 -3.75911E+00 +4.07462E+00 -4.78191E+00 +2.58976E+00 -5.16067E+00 +8.13421E-01 -4.82177E+00 -9.62744E-01
 -3.82357E+00 -2.44026E+00 -2.34678E+00 -3.37191E+00 -6.60510E-01 -3.60968E+00 +9.29089E-01 -3.13274E+00
 +2.13673E+00 -2.05044E+00 +2.75090E+00 -5.79928E-01 +2.67132E+00 +9.96295E-01 +1.92410E+00 +2.38393E+00
 +6.52519E-01 +3.33063E+00 -9.13756E-01 +3.66941E+00 -2.50382E+00 +3.34392E+00 -3.85552E+00 +2.41162E+00
 -4.76018E+00 +1.02586E+00 -5.09401E+00 -5.98073E-01 -4.83100E+00 -2.22515E+00 -4.03675E+00 -3.64189E+00
 -2.84628E+00 -4.68884E+00 -1.43213E+00 -5.27886E+00 +2.96712E-02 -5.39935E+00 +1.38858E+00 -5.10006E+00
 +2.53806E+00 -4.47142E+00 +3.42140E+00 -3.61931E+00 +4.02577E+00 -2.64293E+00 +4.36795E+00 -1.62018E+00
 +4.47714E+00 -6.03031E-01 +4.38002E+00 +3.77761E-01 +4.09224E+00 +1.30168E+00 +3.61837E+00 +2.14568E+00
 +2.95946E+00 +2.87453E+00 +2.12539E+00 +3.43773E+00 +1.14751E+00 +3.77474E+00 +8.70682E-02 +3.82768E+00
 -9.64267E-01 +3.55808E+00 -1.89317E+00 +2.96339E+00 -2.58183E+00 +2.08818E+00 -2.93007E+00 +1.02629E+00
 -2.87764E+00 -8.80737E-02 -2.42117E+00 -1.09928E+00 -1.62142E+00 -1.85622E+00 -5.98170E-01 -2.23997E+00
 +4.86928E-01 -2.18738E+00 +1.45691E+00 -1.70542E+00 +2.15028E+00 -8.72641E-01 +2.45000E+00 +1.72829E-01
 +2.30481E+00 +1.25689E+00 +1.73838E+00 +2.20012E+00 +8.44581E-01 +2.84945E+00 -2.30469E-01 +3.10468E+00
 -1.31565E+00 +2.93462E+00 -2.24611E+00 +2.37989E+00 -2.89214E+00 +1.54218E+00 -3.18022E+00 +5.62474E-01
 -3.10228E+00 -4.07003E-01 -2.71187E+00 -1.23133E+00 -2.10872E+00 -1.81610E+00 -1.41540E+00 -2.12109E+00
 -7.51267E-01 -2.16195E+00 -2.09293E-01 -2.00056E+00 +1.59687E-01 -1.72660E+00 +3.52438E-01 -1.43499E+00
 +4.08047E-01 -1.20401E+00 +3.93759E-01 -1.07912E+00 +3.85590E-01 -1.06531E+00 +4.48303E-01 -1.12932E+00
 +6.19237E-01 -1.21063E+00 +8.99373E-01 -1.23826E+00 +1.25328E+00 -1.14932E+00 +1.61752E+00 -9.05163E-01
 +1.91535E+00 -5.01621E-01 +2.07412E+00 +2.87603E-02 +2.04160E+00 +6.22548E-01 +1.79763E+00 +1.19783E+00
 +1.35889E+00 +1.67027E+00 +7.76136E-01 +1.96924E+00 +1.24660E-01 +2.05086E+00 -5.09465E-01 +1.90522E+00
 -1.04453E+00 +1.55696E+00 -1.41653E+00 +1.05942E+00 -1.58832E+00 +4.84103E-01 -1.55308E+00 -9.20831E-02
 -1.33228E+00 -5.99081E-01 -9.68939E-01 -9.83188E-01 -5.18409E-01 -1.21235E+00 -3.86727E-02 -1.27690E+00
 +4.17743E-01 -1.18648E+00 +8.08986E-01 -9.64523E-01 +1.10582E+00 -6.42078E-01 +1.29077E+00 -2.52535E-01
 +1.35553E+00 +1.71694E-01 +1.29816E+00 +6.00286E-01 +1.12108E+00 +1.00438E+00 +8.30795E-01 +1.35525E+00
 +4.39209E-01 +1.62339E+00 -3.39785E-02 +1.77922E+00 -5.59004E-01 +1.79563E+00 -1.09512E+00 +1.65249E+00
 -1.59201E+00 +1.34197E+00 -1.99411E+00 +8.73514E-01 -2.24740E+00 +2.76911E-01 -2.30774E+00 -3.97727E-01
 -2.14927E+00 -1.08377E+00 -1.77090E+00 -1.70544E+00 -1.19963E+00 -2.18787E+00 -4.89328E-01 -2.46815E+00
 +2.84871E-01 -2.50534E+00 +1.03608E+00 -2.28781E+00 +1.67755E+00 -1.83612E+00 +2.13491E+00 -1.20104E+00
 +2.35675E+00 -4.56867E-01 +2.32175E+00 +3.08926E-01 +2.04118E+00 +1.00789E+00 +1.55644E+00 +1.56268E+00
 +9.32304E-01 +1.91698E+00 +2.47059E-01 +2.04195E+00 -4.18670E-01 +1.93818E+00 -9.92558E-01 +1.63339E+00
 -1.41909E+00 +1.17645E+00 -1.66486E+00 +6.29109E-01 -1.72014E+00 +5.68857E-02 -1.59714E+00 -4.79298E-01
 -1.32546E+00 -9.29660E-01 -9.46152E-01 -1.25956E+00 -5.05249E-01 -1.45082E+00 -4.80782E-02 -1.50073E+00
 +3.85126E-01 -1.41937E+00 +7.61922E-01 -1.22612E+00 +1.05875E+00 -9.46089E-01 +1.26081E+00 -6.06989E-01
 +1.36110E+00 -2.36888E-01 +1.35935E+00 +1.37295E-01 +1.26086E+00 +4.90648E-01 +1.07584E+00 +8.00807E-01
 +8.18803E-01 +1.04847E+00 +5.08208E-01 +1.21807E+00 +1.65884E-01 +1.29862E+00 -1.83870E-01 +1.28475E+00
 -5.15626E-01 +1.17745E+00 -8.04600E-01 +9.84650E-01 -1.02868E+00 +7.21011E-01 -1.17043E+00 +4.07148E-01
 -1.21887E+00 +6.80938E-02 -1.17061E+00 -2.68774E-01 -1.03034E+00 -5.76124E-01 -8.10454E-01 -8.29099E-01
 -5.29994E-01 -1.00750E+00 -2.12932E-01 -1.09750E+00 +1.13907E-01 -1.09276E+00 +4.23127E-01 -9.94829E-01
 +6.89001E-01 -8.12945E-01 +8.89527E-01 -5.63197E-01 +1.00815E+00 -2.67200E-01 +1.03508E+00 +4.96125E-02
 +9.68104E-01 +3.59990E-01 +8.12848E-01 +6.37028E-01 +5.82488E-01 +8.56371E-01 +2.96810E-01 +9.98308E-01
 -1.93012E-02 +1.04957E+00 -3.37900E-01 +1.00470E+00 -6.30392E-01 +8.66698E-01 -8.70130E-01 +6.47034E-01
 -1.03492E+00 +3.64726E-01 -1.10918E+00 +4.47215E-02 -1.08551E+00 -2.84379E-01 -9.65459E-01 -5.92996E-01
 -7.59415E-01 -8.53363E-01 -4.85621E-01 -1.04214E+00 -1.68424E-01 -1.14260E+00 +1.64041E-01 -1.14610E+00
 +4.82485E-01 -1.05280E+00 +7.59162E-01 -8.71518E-01 +9.70347E-01 -6.18833E-01 +1.09840E+00 -3.17441E-01
 +1.13325E+00 +5.92696E-03 +1.07318E+00 +3.22934E-01 +9.24877E-01 +6.06154E-01 +7.02764E-01 +8.31489E-01
 +4.27672E-01 +9.80291E-01 +1.24931E-01 +1.04101E+00 -1.77944E-01 +1.01022E+00 -4.53802E-01 +8.92930E-01
 -6.78407E-01 +7.02084E-01 -8.32746E-01 +4.57299E-01 -9.04855E-01 +1.82919E-01 -8.90935E-01 -9.44390E-02
 -7.95629E-01 -3.48594E-01 -6.31389E-01 -5.56455E-01 -4.17002E-01 -7.00318E-01 -1.75443E-01 -7.69539E-01
 +6.86738E-02 -7.61363E-01 +2.91742E-01 -6.80863E-01 +4.73570E-01 -5.39992E-01 +5.99278E-01 -3.55929E-01
 +6.60473E-01 -1.48952E-01 +6.55629E-01 +5.98648E-02 +5.89679E-01 +2.50848E-01 +4.72966E-01 +4.07556E-01
 +3.19727E-01 +5.18082E-01 +1.46363E-01 +5.75745E-01 -3.03039E-02 +5.79180E-01 -1.94581E-01 +5.31924E-01
 -3.33161E-01 +4.41603E-01 -4.36009E-01 +3.18885E-01 -4.96876E-01 +1.76321E-01 -5.13482E-01 +2.71727E-02
 -4.87387E-01 -1.15696E-01 -4.23612E-01 -2.40822E-01 -3.30033E-01 -3.38994E-01 -2.16578E-01 -4.03918E-01
 -9.42648E-02 -4.32642E-01 +2.58572E-02 -4.25689E-01 +1.33789E-01 -3.86858E-01 +2.21560E-01 -3.22677E-01
 +2.83982E-01 -2.41534E-01 +3.19060E-01 -1.52583E-01 +3.27972E-01 -6.45641E-02 +3.14604E-01 +1.53007E-02
 +2.84687E-01 +8.21367E-02 +2.44673E-01 +1.33836E-01 +2.00551E-01 +1.70973E-01 +1.56800E-01 +1.96233E-01
 +1.15708E-01 +2.13440E-01 +7.71855E-02 +2.26393E-01 +3.91302E-02 +2.37730E-01 -1.72741E-03 +2.48077E-01
 -4.86565E-02 +2.55676E-01 -1.03686E-01 +2.56586E-01 -1.66557E-01 +2.45458E-01 -2.34115E-01 +2.16740E-01
 -3.00287E-01 +1.66079E-01 -3.56702E-01 +9.16635E-02 -3.93864E-01 -4.79811E-03 -4.02689E-01 -1.17646E-01
 -3.76140E-01 -2.37507E-01 -3.10679E-01 -3.52191E-01 -2.07295E-01 -4.48120E-01 -7.19204E-02 -5.12068E-01
 +8.48228E-02 -5.32982E-01 +2.48528E-01 -5.03603E-01 +4.02431E-01 -4.21698E-01 +5.29193E-01 -2.90736E-01
 +6.12825E-01 -1.19957E-01 +6.40574E-01 +7.61966E-02 +6.04567E-01 +2.79210E-01 +5.03076E-01 +4.68125E-01
 +3.41282E-01 +6.21544E-01 +1.31401E-01 +7.19878E-01 -1.07883E-01 +7.47662E-01 -3.52753E-01 +6.95734E-01
 -5.76357E-01 +5.63017E-01 -7.51566E-01 +3.57629E-01 -8.54191E-01 +9.70371E-02 -8.66329E-01 -1.92949E-01
 -7.79378E-01 -4.80442E-01 -5.96236E-01 -7.30896E-01 -3.32194E-01 -9.11392E-01 -1.41758E-02 -9.95248E-01
 +3.21819E-01 -9.66290E-01 +6.34912E-01 -8.22057E-01 +8.84715E-01 -5.75276E-01 +1.03713E+00 -2.53165E-01
 +1.06970E+00 +1.05551E-01 +9.75497E-01 +4.55630E-01 +7.64924E-01 +7.51649E-01 +4.64824E-01 +9.54721E-01
 +1.14979E-01 +1.03849E+00 -2.37587E-01 +9.93372E-01 -5.45621E-01 +8.28185E-01 -7.68822E-01 +5.68923E-01
 -8.79981E-01 +2.54690E-01 -8.68995E-01 -6.84722E-02 -7.44080E-01 -3.54842E-01 -5.29960E-01 -5.66112E-01
 -2.63408E-01 -6.77084E-01 +1.30599E-02 -6.79025E-01 +2.58154E-01 -5.80164E-01 +4.38232E-01 -4.03354E-01
 +5.32064E-01 -1.81468E-01 +5.33199E-01 +4.85570E-02 +4.49701E-01 +2.51863E-01 +3.01501E-01 +4.00912E-01
 +1.16065E-01 +4.78990E-01 -7.66816E-02 +4.81517E-01 -2.49182E-01 +4.15224E-01 -3.79989E-01 +2.95605E-01
 -4.55937E-01 +1.43401E-01 -4.72620E-01 -1.90993E-02 -4.33460E-01 -1.71222E-01 -3.47857E-01 -2.96092E-01
 -2.29058E-01 -3.81718E-01 -9.22394E-02 -4.21154E-01 +4.68951E-02 -4.12143E-01 +1.72975E-01 -3.56663E-01
 +2.71528E-01 -2.60688E-01 +3.29615E-01 -1.34265E-01 +3.36878E-01 +8.29828E-03 +2.87155E-01 +1.48545E-01
 +1.80528E-01 +2.64758E-01 +2.53391E-02 +3.34015E-01 -1.60518E-01 +3.35507E-01 -3.49782E-01 +2.54795E-01
 -5.08063E-01 +8.82818E-02 -5.98301E-01 -1.53157E-01 -5.87103E-01 -4.42518E-01 -4.51965E-01 -7.37924E-01
 -1.88025E-01 -9.87233E-01 +1.87300E-01 -1.13576E+00 +6.33192E-01 -1.13606E+00 +1.08875E+00 -9.58148E-01
 +1.48084E+00 -5.97998E-01 +1.73555E+00 -8.24159E-02 +1.79148E+00 +5.31332E-01 +1.61250E+00 +1.16173E+00
 +1.19721E+00 +1.71454E+00 +5.83134E-01 +2.09808E+00 -1.56018E-01 +2.23948E+00 -9.19900E-01 +2.09911E+00
