 Created: 19-Jan-2021
 $NMID
 ID='D:\BASISSIMULATI'
 FMTDAT='(8E13.5)'
 VOLUME=   1.00000E+00
 TRAMP=   1.00000E+00
 $END
 +6.78472E+00 +7.67975E-03 +6.58720E+00 +1.52272E+00 +6.03156E+00 +2.93753E+00 +5.15758E+00 +4.16441E+00
 +4.02681E+00 +5.13001E+00 +2.71760E+00 +5.78072E+00 +1.31898E+00 +6.08632E+00 -7.63181E-02 +6.04188E+00
 -1.37898E+00 +5.66752E+00 -2.50983E+00 +5.00626E+00 -3.40569E+00 +4.12002E+00 -4.02370E+00 +3.08423E+00
 -4.34404E+00 +1.98146E+00 -4.37067E+00 +8.94597E-01 -4.13004E+00 -9.97865E-02 -3.66813E+00 -9.37444E-01
 -3.04579E+00 -1.57124E+00 -2.33306E+00 -1.97440E+00 -1.60279E+00 -2.14194E+00 -9.24246E-01 -2.09023E+00
 -3.57147E-01 -1.85470E+00 +5.33549E-02 -1.48599E+00 +2.80260E-01 -1.04478E+00 +3.16672E-01 -5.95924E-01
 +1.75916E-01 -2.02271E-01 -1.10145E-01 +8.12376E-02 -4.94429E-01 +2.12671E-01 -9.19295E-01 +1.67003E-01
 -1.32212E+00 -6.15515E-02 -1.64128E+00 -4.58944E-01 -1.82207E+00 -9.92481E-01 -1.82199E+00 -1.61370E+00
 -1.61492E+00 -2.26265E+00 -1.19390E+00 -2.87325E+00 -5.72264E-01 -3.37917E+00 +2.17099E-01 -3.71988E+00
 +1.12411E+00 -3.84616E+00 +2.08541E+00 -3.72473E+00 +3.02947E+00 -3.34159E+00 +3.88243E+00 -2.70370E+00
 +4.57424E+00 -1.83898E+00 +5.04447E+00 -7.94461E-01 +5.24747E+00 +3.67067E-01 +5.15629E+00 +1.57180E+00
 +4.76515E+00 +2.74056E+00 +4.09018E+00 +3.79495E+00 +3.16840E+00 +4.66342E+00 +2.05500E+00 +5.28681E+00
 +8.19281E-01 +5.62294E+00 -4.60692E-01 +5.64982E+00 -1.70395E+00 +5.36724E+00 -2.83274E+00 +4.79665E+00
 -3.77837E+00 +3.97931E+00 -4.48620E+00 +2.97297E+00 -4.91952E+00 +1.84721E+00 -5.06198E+00 +6.77999E-01
 -4.91827E+00 -4.58247E-01 -4.51326E+00 -1.49042E+00 -3.88944E+00 -2.35802E+00 -3.10311E+00 -3.01542E+00
 -2.21950E+00 -3.43491E+00 -1.30730E+00 -3.60814E+00 -4.33127E-01 -3.54601E+00 +3.43787E-01 -3.27696E+00
 +9.76035E-01 -2.84391E+00 +1.43144E+00 -2.30005E+00 +1.69503E+00 -1.70389E+00 +1.76956E+00 -1.11409E+00
 +1.67444E+00 -5.84306E-01 +1.44334E+00 -1.58758E-01 +1.12055E+00 +1.31393E-01 +7.56571E-01 +2.70349E-01
 +4.03242E-01 +2.58601E-01 +1.08854E-01 +1.12392E-01 -8.63149E-02 -1.38216E-01 -1.53666E-01 -4.52479E-01
 -7.88548E-02 -7.83011E-01 +1.36957E-01 -1.08038E+00 +4.77245E-01 -1.29786E+00 +9.11657E-01 -1.39586E+00
 +1.39877E+00 -1.34576E+00 +1.88984E+00 -1.13275E+00 +2.33321E+00 -7.57351E-01 +2.67896E+00 -2.35759E-01
 +2.88348E+00 +4.01356E-01 +2.91346E+00 +1.11122E+00 +2.74902E+00 +1.84241E+00 +2.38578E+00 +2.53908E+00
 +1.83552E+00 +3.14558E+00 +1.12558E+00 +3.61111E+00 +2.96877E-01 +3.89395E+00 -5.99119E-01 +3.96503E+00
 -1.50438E+00 +3.81039E+00 -2.35882E+00 +3.43250E+00 -3.10491E+00 +2.85021E+00 -3.69222E+00 +2.09737E+00
 -4.08121E+00 +1.22028E+00 -4.24631E+00 +2.74178E-01 -4.17773E+00 -6.80974E-01 -3.88211E+00 -1.58506E+00
 -3.38184E+00 -2.38231E+00 -2.71311E+00 -3.02539E+00 -1.92300E+00 -3.47881E+00 -1.06567E+00 -3.72130E+00
 -1.98175E-01 -3.74706E+00 +6.23943E-01 -3.56571E+00 +1.35079E+00 -3.20114E+00 +1.94169E+00 -2.68911E+00
 +2.36799E+00 -2.07412E+00 +2.61470E+00 -1.40560E+00 +2.68114E+00 -7.33843E-01 +2.58027E+00 -1.06015E-01
 +2.33704E+00 +4.37464E-01 +1.98577E+00 +8.65837E-01 +1.56684E+00 +1.16004E+00 +1.12305E+00 +1.31370E+00
 +6.95849E-01 +1.33296E+00 +3.21849E-01 +1.23540E+00 +2.98763E-02 +1.04782E+00 -1.61216E-01 +8.03489E-01
 -2.43794E-01 +5.38820E-01 -2.21664E-01 +2.89898E-01 -1.09284E-01 +8.91502E-02 +6.99554E-02 -3.75755E-02
 +2.86192E-01 -7.32702E-02 +5.06088E-01 -1.11848E-02 +6.96068E-01 +1.44697E-01 +8.25534E-01 +3.80160E-01
 +8.69758E-01 +6.72162E-01 +8.12227E-01 +9.91022E-01 +6.46223E-01 +1.30317E+00 +3.75531E-01 +1.57425E+00
 +1.42104E-02 +1.77221E+00 -4.14533E-01 +1.87029E+00 -8.80266E-01 +1.84944E+00 -1.34788E+00 +1.70012E+00
 -1.78051E+00 +1.42328E+00 -2.14268E+00 +1.03044E+00 -2.40322E+00 +5.42888E-01 -2.53791E+00 -9.93492E-03
 -2.53150E+00 -5.92726E-01 -2.37902E+00 -1.16709E+00 -2.08624E+00 -1.69452E+00 -1.66923E+00 -2.13944E+00
 -1.15312E+00 -2.47189E+00 -5.70193E-01 -2.66984E+00 +4.26360E-02 -2.72077E+00 +6.46638E-01 -2.62255E+00
 +1.20419E+00 -2.38343E+00 +1.68154E+00 -2.02128E+00 +2.05126E+00 -1.56202E+00 +2.29413E+00 -1.03754E+00
 +2.40027E+00 -4.83184E-01 +2.36967E+00 +6.50338E-02 +2.21177E+00 +5.73074E-01 +1.94443E+00 +1.01135E+00
 +1.59226E+00 +1.35678E+00 +1.18439E+00 +1.59417E+00 +7.52141E-01 +1.71705E+00 +3.26446E-01 +1.72770E+00
 -6.44809E-02 +1.63648E+00 -3.97205E-01 +1.46061E+00 -6.54636E-01 +1.22236E+00 -8.27013E-01 +9.47003E-01
 -9.12244E-01 +6.60562E-01 -9.15593E-01 +3.87614E-01 -8.48773E-01 +1.49333E-01 -7.28541E-01 -3.80973E-02
 -5.74932E-01 -1.64575E-01 -4.09298E-01 -2.26593E-01 -2.52315E-01 -2.27164E-01 -1.22155E-01 -1.75182E-01
 -3.29357E-02 -8.42937E-02 +6.39504E-03 +2.85955E-02 -7.32188E-03 +1.45057E-01 -7.13747E-02 +2.46936E-01
 -1.77627E-01 +3.18076E-01 -3.13433E-01 +3.45796E-01 -4.62934E-01 +3.22030E-01 -6.08603E-01 +2.44013E-01
 -7.32905E-01 +1.14491E-01 -8.19924E-01 -5.85750E-02 -8.56815E-01 -2.62745E-01 -8.34963E-01 -4.82230E-01
 -7.50752E-01 -6.99282E-01 -6.05901E-01 -8.95742E-01 -4.07329E-01 -1.05460E+00 -1.66589E-01 -1.16141E+00
 +1.01082E-01 -1.20555E+00 +3.78002E-01 -1.18102E+00 +6.45468E-01 -1.08698E+00 +8.85238E-01 -9.27737E-01
 +1.08095E+00 -7.12448E-01 +1.21937E+00 -4.54317E-01 +1.29134E+00 -1.69566E-01 +1.29243E+00 +1.23832E-01
 +1.22318E+00 +4.07528E-01 +1.08890E+00 +6.64150E-01 +8.99230E-01 +8.78553E-01 +6.67263E-01 +1.03885E+00
 +4.08501E-01 +1.13717E+00 +1.39649E-01 +1.17006E+00 -1.22625E-01 +1.13855E+00 -3.62879E-01 +1.04790E+00
 -5.67936E-01 +9.06983E-01 -7.27698E-01 +7.27506E-01 -8.35689E-01 +5.22986E-01 -8.89299E-01 +3.07691E-01
 -8.89712E-01 +9.55765E-02 -8.41568E-01 -1.00686E-01 -7.52381E-01 -2.70528E-01 -6.31774E-01 -4.06076E-01
 -4.90621E-01 -5.02509E-01 -3.40148E-01 -5.58147E-01 -1.91085E-01 -5.74304E-01 -5.29176E-02 -5.54910E-01
 +6.66978E-02 -5.05973E-01 +1.62328E-01 -4.34923E-01 +2.30950E-01 -3.49904E-01 +2.71924E-01 -2.59068E-01
 +2.86789E-01 -1.69947E-01 +2.78896E-01 -8.89267E-02 +2.52935E-01 -2.08651E-02 +2.14399E-01 +3.11208E-02
 +1.69036E-01 +6.57072E-02 +1.22341E-01 +8.32605E-02 +7.91157E-02 +8.56021E-02 +4.31428E-02 +7.56777E-02
 +1.69743E-02 +5.71639E-02 +1.85303E-03 +3.40570E-02 -2.24690E-03 +1.02772E-02 +3.52738E-03 -1.06764E-02
 +1.71354E-02 -2.59973E-02 +3.59242E-02 -3.37533E-02 +5.69321E-02 -3.29723E-02 +7.71854E-02 -2.36365E-02
 +9.39648E-02 -6.59545E-03 +1.05020E-01 +1.65853E-02 +1.08723E-01 +4.38175E-02 +1.04152E-01 +7.27057E-02
 +9.11116E-02 +1.00762E-01 +7.00923E-02 +1.25604E-01 +4.21862E-02 +1.45120E-01 +8.96820E-03 +1.57596E-01
 -2.76387E-02 +1.61800E-01 -6.55028E-02 +1.57025E-01 -1.02416E-01 +1.43091E-01 -1.36212E-01 +1.20332E-01
 -1.64864E-01 +8.95450E-02 -1.86568E-01 +5.19438E-02 -1.99805E-01 +9.09749E-03 -2.03393E-01 -3.71288E-02
 -1.96527E-01 -8.46333E-02 -1.78827E-01 -1.31139E-01 -1.50365E-01 -1.74261E-01 -1.11705E-01 -2.11579E-01
 -6.39317E-02 -2.40729E-01 -8.66582E-03 -2.59504E-01 +5.19370E-02 -2.65978E-01 +1.15216E-01 -2.58636E-01
 +1.78068E-01 -2.36517E-01 +2.37058E-01 -1.99341E-01 +2.88562E-01 -1.47635E-01 +3.28963E-01 -8.28130E-02
 +3.54872E-01 -7.21215E-03 +3.63380E-01 +7.59253E-02 +3.52302E-01 +1.62546E-01 +3.20418E-01 +2.47951E-01
 +2.67669E-01 +3.27029E-01 +1.95293E-01 +3.94558E-01 +1.05880E-01 +4.45545E-01 +3.33743E-03 +4.75595E-01
 -1.07255E-01 +4.81267E-01 -2.19889E-01 +4.60403E-01 -3.27962E-01 +4.12384E-01 -4.24693E-01 +3.38302E-01
 -5.03579E-01 +2.41004E-01 -5.58872E-01 +1.25024E-01 -5.86028E-01 -3.63323E-03 -5.82098E-01 -1.37820E-01
 -5.46024E-01 -2.69689E-01 -4.78810E-01 -3.91212E-01 -3.83540E-01 -4.94740E-01 -2.65248E-01 -5.73560E-01
 -1.30626E-01 -6.22405E-01 +1.23974E-02 -6.37883E-01 +1.55194E-01 -6.18764E-01 +2.89042E-01 -5.66123E-01
 +4.05761E-01 -4.83308E-01 +4.98310E-01 -3.75724E-01 +5.61327E-01 -2.50464E-01 +5.91530E-01 -1.15791E-01
 +5.87982E-01 +1.94731E-02 +5.52152E-01 +1.46618E-01 +4.87803E-01 +2.57706E-01 +4.00685E-01 +3.46187E-01
 +2.98071E-01 +4.07398E-01 +1.88158E-01 +4.38917E-01 +7.93932E-02 +4.40728E-01 -2.02176E-02 +4.15191E-01
 -1.03778E-01 +3.66811E-01 -1.66068E-01 +3.01823E-01 -2.03971E-01 +2.27624E-01 -2.16723E-01 +1.52111E-01
 -2.05950E-01 +8.29639E-02 -1.75503E-01 +2.69478E-02 -1.31084E-01 -1.07097E-02 -7.97117E-02 -2.68079E-02
 -2.90552E-02 -2.04842E-02 +1.32971E-02 +6.68144E-03 +4.05736E-02 +5.07845E-02 +4.74953E-02 +1.05928E-01
 +3.08288E-02 +1.64746E-01 -1.02343E-02 +2.19070E-01 -7.39095E-02 +2.60693E-01 -1.55883E-01 +2.82150E-01
 -2.49608E-01 +2.77467E-01 -3.46807E-01 +2.42788E-01 -4.38153E-01 +1.76843E-01 -5.14065E-01 +8.11947E-02
 -5.65548E-01 -3.97482E-02 -5.85026E-01 -1.78972E-01 -5.67064E-01 -3.27328E-01 -5.08949E-01 -4.74209E-01
 -4.11048E-01 -6.08365E-01 -2.76920E-01 -7.18806E-01 -1.13174E-01 -7.95710E-01 +7.09418E-02 -8.31262E-01
 +2.64170E-01 -8.20353E-01 +4.54058E-01 -7.61078E-01 +6.27893E-01 -6.54984E-01 +7.73666E-01 -5.07051E-01
 +8.81015E-01 -3.25396E-01 +9.42042E-01 -1.20721E-01 +9.51951E-01 +9.44495E-02 +9.09455E-01 +3.06682E-01
 +8.16899E-01 +5.02634E-01 +6.80112E-01 +6.70049E-01 +5.07975E-01 +7.98672E-01 +3.11760E-01 +8.81013E-01
 +1.04270E-01 +9.12890E-01 -1.01129E-01 +8.93711E-01 -2.91522E-01 +8.26479E-01 -4.55408E-01 +7.17501E-01
 -5.83551E-01 +5.75852E-01 -6.69629E-01 +4.12616E-01 -7.10658E-01 +2.39981E-01 -7.07121E-01 +7.02591E-02
 -6.62831E-01 -8.50878E-02 -5.84516E-01 -2.16334E-01 -4.81176E-01 -3.16217E-01 -3.63263E-01 -3.80446E-01
 -2.41757E-01 -4.07948E-01 -1.27221E-01 -4.00844E-01 -2.89007E-02 -3.64147E-01 +4.60313E-02 -3.05225E-01
 +9.30487E-02 -2.33061E-01 +1.10596E-01 -1.57393E-01 +1.00149E-01 -8.77998E-02 +6.60043E-02 -3.28125E-02
 +1.48222E-02 +8.69084E-04 -4.50428E-02 +8.98649E-03 -1.04354E-01 -9.89056E-03 -1.53884E-01 -5.42351E-02
 -1.85300E-01 -1.19701E-01 -1.91973E-01 -1.99518E-01 -1.69633E-01 -2.85102E-01 -1.16814E-01 -3.66836E-01
 -3.50570E-02 -4.34954E-01 +7.11601E-02 -4.80430E-01 +1.94748E-01 -4.95833E-01 +3.26566E-01 -4.76037E-01
 +4.56173E-01 -4.18744E-01 +5.72691E-01 -3.24770E-01 +6.65729E-01 -1.98071E-01 +7.26269E-01 -4.54958E-02
