 Created: 19-Jan-2021
 $NMID
 ID='D:\BASISSIMULATI'
 FMTDAT='(8E13.5)'
 VOLUME=   1.00000E+00
 TRAMP=   1.00000E+00
 $END
 +9.90366E+00 +1.12765E-02 +8.92860E+00 +4.13774E+00 +6.27685E+00 +7.39274E+00 +2.53513E+00 +9.13205E+00
 -1.48880E+00 +9.06042E+00 -4.95773E+00 +7.28921E+00 -7.19837E+00 +4.29555E+00 -7.84886E+00 +7.95517E-01
 -6.92558E+00 -2.43481E+00 -4.79567E+00 -4.74421E+00 -2.06602E+00 -5.75119E+00 +5.80033E-01 -5.41441E+00
 +2.55450E+00 -4.01477E+00 +3.50149E+00 -2.05826E+00 +3.36578E+00 -1.28577E-01 +2.37969E+00 +1.26966E+00
 +9.76207E-01 +1.83609E+00 -3.44467E-01 +1.53728E+00 -1.15710E+00 +5.94081E-01 -1.22414E+00 -5.98686E-01
 -5.50526E-01 -1.59472E+00 +6.30998E-01 -2.02583E+00 +1.93620E+00 -1.70323E+00 +2.94355E+00 -6.64570E-01
 +3.31332E+00 +8.43024E-01 +2.87928E+00 +2.43623E+00 +1.68954E+00 +3.70232E+00 -1.16222E-02 +4.30900E+00
 -1.85292E+00 +4.08778E+00 -3.43462E+00 +3.07003E+00 -4.42859E+00 +1.46936E+00 -4.65295E+00 -3.81422E-01
 -4.10380E+00 -2.11861E+00 -2.93891E+00 -3.43543E+00 -1.42237E+00 -4.14611E+00 +1.50816E-01 -4.21145E+00
 +1.52757E+00 -3.72304E+00 +2.54674E+00 -2.85584E+00 +3.15513E+00 -1.80672E+00 +3.38943E+00 -7.39386E-01
 +3.33459E+00 +2.48191E-01 +3.07569E+00 +1.12604E+00 +2.66127E+00 +1.90735E+00 +2.09067E+00 +2.60871E+00
 +1.32919E+00 +3.21221E+00 +3.44362E-01 +3.64555E+00 -8.50888E-01 +3.78943E+00 -2.16584E+00 +3.51211E+00
 -3.42490E+00 +2.72088E+00 -4.39267E+00 +1.41339E+00 -4.82743E+00 -2.89848E-01 -4.54939E+00 -2.14586E+00
 -3.50352E+00 -3.82755E+00 -1.79704E+00 -4.99326E+00 +3.03092E-01 -5.37071E+00 +2.41640E+00 -4.83262E+00
 +4.12989E+00 -3.44198E+00 +5.09478E+00 -1.45178E+00 +5.11353E+00 +7.44007E-01 +4.19364E+00 +2.69810E+00
 +2.55193E+00 +4.01508E+00 +5.66211E-01 +4.44709E+00 -1.31492E+00 +3.95473E+00 -2.68173E+00 +2.71617E+00
 -3.26423E+00 +1.08105E+00 -2.99783E+00 -5.19771E-01 -2.03603E+00 -1.68556E+00 -7.06325E-01 -2.14900E+00
 +5.79398E-01 -1.84423E+00 +1.43666E+00 -9.21418E-01 +1.61274E+00 +2.96312E-01 +1.05588E+00 +1.40247E+00
 -6.93862E-02 +2.01967E+00 -1.42524E+00 +1.90521E+00 -2.59084E+00 +1.02151E+00 -3.17642E+00 -4.47501E-01
 -2.93110E+00 -2.13911E+00 -1.81613E+00 -3.60287E+00 -2.37567E-02 -4.41678E+00 +2.06351E+00 -4.29855E+00
 +3.96343E+00 -3.18326E+00 +5.21151E+00 -1.24740E+00 +5.47594E+00 +1.12725E+00 +4.64102E+00 +3.44079E+00
 +2.83851E+00 +5.19179E+00 +4.19439E-01 +5.99442E+00 -2.12618E+00 +5.66756E+00 -4.28143E+00 +4.27467E+00
 -5.61892E+00 +2.10605E+00 -5.89358E+00 -3.91020E-01 -5.09075E+00 -2.71585E+00 -3.41971E+00 -4.42603E+00
 -1.25682E+00 -5.23065E+00 +9.46066E-01 -5.04414E+00 +2.76451E+00 -3.99050E+00 +3.89100E+00 -2.35990E+00
 +4.19111E+00 -5.31289E-01 +3.71580E+00 +1.11859E+00 +2.67044E+00 +2.29715E+00 +1.35181E+00 +2.85065E+00
 +7.06573E-02 +2.78103E+00 -9.20082E-01 +2.22489E+00 -1.47511E+00 +1.40333E+00 -1.57485E+00 +5.58038E-01
 -1.31108E+00 -1.09352E-01 -8.47274E-01 -4.80242E-01 -3.66633E-01 -5.35745E-01 -2.20660E-02 -3.46164E-01
 +9.93882E-02 -3.92347E-02 -9.45579E-03 +2.42174E-01 -2.84425E-01 +3.80803E-01 -6.15951E-01 +3.13936E-01
 -8.83621E-01 +4.46169E-02 -9.89349E-01 -3.65455E-01 -8.80874E-01 -8.17121E-01 -5.60941E-01 -1.20175E+00
 -8.18767E-02 -1.42801E+00 +4.70858E-01 -1.44095E+00 +1.00031E+00 -1.22993E+00 +1.41866E+00 -8.25547E-01
 +1.66218E+00 -2.88445E-01 +1.69817E+00 +3.05443E-01 +1.52451E+00 +8.78846E-01 +1.16423E+00 +1.36328E+00
 +6.58244E-01 +1.70445E+00 +5.91546E-02 +1.86387E+00 -5.72873E-01 +1.81895E+00 -1.17243E+00 +1.56351E+00
 -1.67116E+00 +1.11003E+00 -2.00216E+00 +4.92996E-01 -2.10760E+00 -2.28601E-01 -1.94938E+00 -9.72091E-01
 -1.52077E+00 -1.63771E+00 -8.55450E-01 -2.12161E+00 -3.02908E-02 -2.33397E+00 +8.40848E-01 -2.21870E+00
 +1.62303E+00 -1.76981E+00 +2.18372E+00 -1.03967E+00 +2.41935E+00 -1.35516E-01 +2.27881E+00 +7.96608E-01
 +1.77789E+00 +1.59811E+00 +1.00027E+00 +2.12911E+00 +8.36596E-02 +2.29779E+00 -8.06575E-01 +2.08071E+00
 -1.51095E+00 +1.52894E+00 -1.90898E+00 +7.58041E-01 -1.94422E+00 -7.64391E-02 -1.63527E+00 -8.12388E-01
 -1.06998E+00 -1.31592E+00 -3.84170E-01 -1.50943E+00 +2.70022E-01 -1.38636E+00 +7.58836E-01 -1.00935E+00
 +9.96223E-01 -4.92571E-01 +9.61100E-01 +2.74759E-02 +6.98636E-01 +4.25258E-01 +3.05715E-01 +6.15671E-01
 -9.55182E-02 +5.72611E-01 -3.89259E-01 +3.32482E-01 -4.94959E-01 -1.77745E-02 -3.86565E-01 -3.64758E-01
 -9.76469E-02 -5.98562E-01 +2.88483E-01 -6.41104E-01 +6.60842E-01 -4.65905E-01 +9.09359E-01 -1.04699E-01
 +9.52834E-01 +3.60457E-01 +7.59510E-01 +8.17344E-01 +3.55445E-01 +1.15090E+00 -1.81076E-01 +1.27102E+00
 -7.37480E-01 +1.13422E+00 -1.19272E+00 +7.54214E-01 -1.44478E+00 +1.99233E-01 -1.43354E+00 -4.23077E-01
 -1.15389E+00 -9.89303E-01 -6.56478E-01 -1.38698E+00 -3.62307E-02 -1.53829E+00 +5.88269E-01 -1.41569E+00
 +1.09982E+00 -1.04636E+00 +1.40642E+00 -5.04939E-01 +1.45887E+00 +1.03243E-01 +1.25872E+00 +6.64513E-01
 +8.55478E-01 +1.07977E+00 +3.34205E-01 +1.28313E+00 -2.03258E-01 +1.25283E+00 -6.59230E-01 +1.01244E+00
 -9.58841E-01 +6.23123E-01 -1.06278E+00 +1.68844E-01 -9.72002E-01 -2.61717E-01 -7.24111E-01 -5.92766E-01
 -3.82750E-01 -7.74966E-01 -2.27758E-02 -7.92604E-01 +2.85506E-01 -6.63458E-01 +4.89786E-01 -4.31996E-01
 +5.64386E-01 -1.57861E-01 +5.12757E-01 +9.76585E-02 +3.63855E-01 +2.84275E-01 +1.63649E-01 +3.71977E-01
 -3.61416E-02 +3.55332E-01 -1.89539E-01 +2.52334E-01 -2.65671E-01 +9.84359E-02 -2.54225E-01 -6.26316E-02
 -1.66121E-01 -1.89146E-01 -2.95925E-02 -2.50549E-01 +1.17245E-01 -2.33622E-01 +2.35548E-01 -1.44542E-01
 +2.94603E-01 -6.59472E-03 +2.78507E-01 +1.45763E-01 +1.89328E-01 +2.75065E-01 +4.62099E-02 +3.49380E-01
 -1.19240E-01 +3.49393E-01 -2.70188E-01 +2.72537E-01 -3.72782E-01 +1.33382E-01 -4.03563E-01 -3.97171E-02
 -3.54479E-01 -2.10901E-01 -2.34510E-01 -3.44599E-01 -6.75941E-02 -4.13142E-01 +1.12604E-01 -4.02564E-01
 +2.69913E-01 -3.15387E-01 +3.73285E-01 -1.69864E-01 +4.03202E-01 +4.09291E-03 +3.55517E-01 +1.71368E-01
 +2.41985E-01 +2.99047E-01 +8.74299E-02 +3.63190E-01 -7.57530E-02 +3.53545E-01 -2.14532E-01 +2.75264E-01
 -3.02106E-01 +1.47342E-01 -3.23250E-01 -1.79883E-03 -2.77065E-01 -1.40554E-01 -1.76626E-01 -2.40833E-01
 -4.57180E-02 -2.83787E-01 +8.65599E-02 -2.63389E-01 +1.92108E-01 -1.87189E-01 +2.49696E-01 -7.41903E-02
 +2.49170E-01 +4.96124E-02 +1.93166E-01 +1.57001E-01 +9.60628E-02 +2.25348E-01 -1.95168E-02 +2.41256E-01
 -1.27825E-01 +2.03063E-01 -2.05593E-01 +1.20776E-01 -2.36911E-01 +1.35165E-02 -2.16373E-01 -9.48916E-02
 -1.49859E-01 -1.81184E-01 -5.28762E-02 -2.27620E-01 +5.31085E-02 -2.25583E-01 +1.45494E-01 -1.77092E-01
 +2.05432E-01 -9.39585E-02 +2.21726E-01 +5.13226E-03 +1.92917E-01 +9.89255E-02 +1.27170E-01 +1.68278E-01
 +4.00757E-02 +2.00188E-01 -4.90777E-02 +1.90305E-01 -1.21671E-01 +1.43436E-01 -1.63772E-01 +7.20161E-02
 -1.68928E-01 -7.03770E-03 -1.39156E-01 -7.63069E-02 -8.40011E-02 -1.21769E-01 -1.79427E-02 -1.35734E-01
 +4.31805E-02 -1.18201E-01 +8.58772E-02 -7.63887E-02 +1.01987E-01 -2.26310E-02 +9.02810E-02 +2.88142E-02
 +5.63688E-02 +6.52585E-02 +1.09899E-02 +7.85526E-02 -3.28411E-02 +6.68528E-02 -6.31292E-02 +3.48102E-02
 -7.18357E-02 -7.81128E-03 -5.67704E-02 -4.87133E-02 -2.20189E-02 -7.61903E-02 +2.31621E-02 -8.20481E-02
 +6.66814E-02 -6.36246E-02 +9.66040E-02 -2.44522E-02 +1.04079E-01 +2.65681E-02 +8.55183E-02 +7.72635E-02
 +4.35331E-02 +1.15049E-01 -1.35726E-02 +1.29882E-01 -7.36163E-02 +1.16634E-01 -1.23232E-01 +7.63519E-02
 -1.50836E-01 +1.61438E-02 -1.49203E-01 -5.22780E-02 -1.17091E-01 -1.15052E-01 -5.95824E-02 -1.59080E-01
 +1.29170E-02 -1.74764E-01 +8.67857E-02 -1.57995E-01 +1.47931E-01 -1.10979E-01 +1.84583E-01 -4.17682E-02
 +1.89565E-01 +3.73733E-02 +1.61580E-01 +1.12393E-01 +1.05307E-01 +1.70137E-01 +3.03345E-02 +2.00739E-01
 -5.07729E-02 +1.99264E-01 -1.24847E-01 +1.66314E-01 -1.80411E-01 +1.07581E-01 -2.09461E-01 +3.25195E-02
 -2.08458E-01 -4.74921E-02 -1.78427E-01 -1.21098E-01 -1.24304E-01 -1.78622E-01 -5.37626E-02 -2.13195E-01
 +2.41259E-02 -2.21238E-01 +1.00139E-01 -2.02398E-01 +1.65843E-01 -1.59106E-01 +2.14186E-01 -9.59853E-02
 +2.39813E-01 -1.92965E-02 +2.39249E-01 +6.34929E-02 +2.11098E-01 +1.44050E-01 +1.56339E-01 +2.13550E-01
 +7.86807E-02 +2.63234E-01 -1.51654E-02 +2.85271E-01 -1.15534E-01 +2.73909E-01 -2.10385E-01 +2.26777E-01
 -2.86536E-01 +1.46031E-01 -3.31514E-01 +3.89914E-02 -3.35756E-01 -8.20560E-02 -2.94756E-01 -2.01096E-01
 -2.10617E-01 -3.00605E-01 -9.25565E-02 -3.64449E-01 +4.39398E-02 -3.80924E-01 +1.79326E-01 -3.45279E-01
 +2.93236E-01 -2.61096E-01 +3.68152E-01 -1.40105E-01 +3.92725E-01 -3.46080E-04 +3.63993E-01 +1.37029E-01
 +2.87955E-01 +2.51681E-01 +1.78294E-01 +3.27885E-01 +5.35181E-02 +3.57352E-01 -6.68732E-02 +3.40419E-01
 -1.66303E-01 +2.85340E-01 -2.34194E-01 +2.05851E-01 -2.67487E-01 +1.17631E-01 -2.70264E-01 +3.45485E-02
 -2.51620E-01 -3.43448E-02 -2.22380E-01 -8.63166E-02 -1.91582E-01 -1.24572E-01 -1.63697E-01 -1.56124E-01
 -1.37390E-01 -1.88526E-01 -1.06201E-01 -2.26407E-01 -6.10204E-02 -2.68834E-01 +6.29734E-03 -3.08337E-01
 +9.91646E-02 -3.31996E-01 +2.13434E-01 -3.24457E-01 +3.36405E-01 -2.72196E-01 +4.48116E-01 -1.67966E-01
 +5.24813E-01 -1.42724E-02 +5.43895E-01 +1.75123E-01 +4.89248E-01 +3.76199E-01 +3.55739E-01 +5.58140E-01
 +1.51763E-01 +6.88633E-01 -1.00793E-01 +7.39928E-01 -3.69281E-01 +6.94412E-01 -6.15222E-01 +5.48540E-01
 -8.00492E-01 +3.14352E-01 -8.93589E-01 +1.82860E-02 -8.74867E-01 -3.02431E-01 -7.39865E-01 -6.05119E-01
 -5.00299E-01 -8.47756E-01 -1.82691E-01 -9.94907E-01 +1.74994E-01 -1.02262E+00 +5.28133E-01 -9.21777E-01
 +8.30987E-01 -6.99551E-01 +1.04239E+00 -3.79000E-01 +1.13103E+00 +3.17603E-03 +1.07982E+00 +4.00512E-01
 +8.88967E-01 +7.62035E-01 +5.77179E-01 +1.03855E+00 +1.80689E-01 +1.18938E+00 -2.50283E-01 +1.18881E+00
 -6.57568E-01 +1.03119E+00 -9.83156E-01 +7.33553E-01 -1.17835E+00 +3.34954E-01 -1.21247E+00 -1.08176E-01
 -1.07936E+00 -5.30283E-01 -8.00046E-01 -8.67564E-01 -4.20368E-01 -1.06955E+00 -3.53350E-03 -1.10905E+00
 +3.81459E-01 -9.88069E-01 +6.73349E-01 -7.37961E-01 +8.31206E-01 -4.13272E-01 +8.43065E-01 -8.01003E-02
