 Created: 19-Jan-2021
 $NMID
 ID='D:\BASISSIMULATI'
 FMTDAT='(8E13.5)'
 VOLUME=   1.00000E+00
 TRAMP=   1.00000E+00
 $END
 +1.07905E+01 +1.22983E-02 +1.05166E+01 +1.80407E+00 +9.84618E+00 +3.48240E+00 +8.81734E+00 +4.96611E+00
 +7.48563E+00 +6.18544E+00 +5.92074E+00 +7.08563E+00 +4.20242E+00 +7.62964E+00 +2.41609E+00 +7.79975E+00
 +6.47994E-01 +7.59812E+00 -1.01934E+00 +7.04617E+00 -2.51151E+00 +6.18287E+00 -3.76593E+00 +5.06211E+00
 -4.73485E+00 +3.74929E+00 -5.38733E+00 +2.31736E+00 -5.71031E+00 +8.42560E-01 -5.70853E+00 -5.99888E-01
 -5.40347E+00 -1.93985E+00 -4.83141E+00 -3.11595E+00 -4.04065E+00 -4.07851E+00 -3.08826E+00 -4.79183E+00
 -2.03636E+00 -5.23542E+00 -9.48340E-01 -5.40436E+00 +1.14785E-01 -5.30882E+00 +1.09776E+00 -4.97254E+00
 +1.95392E+00 -4.43080E+00 +2.64737E+00 -3.72768E+00 +3.15443E+00 -2.91299E+00 +3.46424E+00 -2.03906E+00
 +3.57857E+00 -1.15751E+00 +3.51088E+00 -3.16269E-01 +3.28474E+00 +4.42977E-01 +2.93172E+00 +1.08688E+00
 +2.48885E+00 +1.59181E+00 +1.99603E+00 +1.94466E+00 +1.49328E+00 +2.14282E+00 +1.01822E+00 +2.19367E+00
 +6.03800E-01 +2.11332E+00 +2.76534E-01 +1.92501E+00 +5.51490E-02 +1.65712E+00 -5.01454E-02 +1.34096E+00
 -3.78218E-02 +1.00852E+00 +8.53523E-02 +6.90347E-01 +3.05204E-01 +4.13613E-01 +6.01458E-01 +2.00490E-01
 +9.49357E-01 +6.69743E-02 +1.32147E+00 +2.21448E-02 +1.68958E+00 +6.79024E-02 +2.02650E+00 +1.99178E-01
 +2.30780E+00 +4.04565E-01 +2.51319E+00 +6.67315E-01 +2.62767E+00 +9.66621E-01 +2.64224E+00 +1.27908E+00
 +2.55428E+00 +1.58027E+00 +2.36752E+00 +1.84629E+00 +2.09159E+00 +2.05524E+00 +1.74136E+00 +2.18851E+00
 +1.33589E+00 +2.23180E+00 +8.97299E-01 +2.17596E+00 +4.49408E-01 +2.01736E+00 +1.64431E-02 +1.75810E+00
 -3.78304E-01 +1.40582E+00 -7.13685E-01 +9.73219E-01 -9.71758E-01 +4.77396E-01 -1.13865E+00 -6.10841E-02
 -1.20519E+00 -6.19220E-01 -1.16728E+00 -1.17272E+00 -1.02604E+00 -1.69715E+00 -7.87685E-01 -2.16910E+00
 -4.63151E-01 -2.56725E+00 -6.75548E-02 -2.87331E+00 +3.80551E-01 -3.07286E+00 +8.60047E-01 -3.15594E+00
 +1.34822E+00 -3.11747E+00 +1.82179E+00 -2.95750E+00 +2.25795E+00 -2.68118E+00 +2.63537E+00 -2.29856E+00
 +2.93518E+00 -1.82417E+00 +3.14176E+00 -1.27640E+00 +3.24351E+00 -6.76804E-01 +3.23334E+00 -4.91414E-02
 +3.10908E+00 +5.81567E-01 +2.87359E+00 +1.19010E+00 +2.53476E+00 +1.75212E+00 +2.10518E+00 +2.24519E+00
 +1.60170E+00 +2.64976E+00 +1.04474E+00 +2.95006E+00 +4.57449E-01 +3.13482E+00 -1.35320E-01 +3.19777E+00
 -7.08056E-01 +3.13798E+00 -1.23576E+00 +2.95998E+00 -1.69509E+00 +2.67355E+00 -2.06547E+00 +2.29333E+00
 -2.33006E+00 +1.83815E+00 -2.47663E+00 +1.33022E+00 -2.49817E+00 +7.94051E-01 -2.39331E+00 +2.55295E-01
 -2.16641E+00 -2.60480E-01 -1.82747E+00 -7.29054E-01 -1.39162E+00 -1.12876E+00 -8.78481E-01 -1.44155E+00
 -3.11196E-01 -1.65394E+00 +2.84689E-01 -1.75765E+00 +8.82491E-01 -1.75007E+00 +1.45571E+00 -1.63431E+00
 +1.97939E+00 -1.41907E+00 +2.43131E+00 -1.11813E+00 +2.79318E+00 -7.49563E-01 +3.05147E+00 -3.34753E-01
 +3.19807E+00 +1.02802E-01 +3.23068E+00 +5.38790E-01 +3.15274E+00 +9.49434E-01 +2.97324E+00 +1.31280E+00
 +2.70605E+00 +1.61000E+00 +2.36905E+00 +1.82621E+00 +1.98309E+00 +1.95145E+00 +1.57071E+00 +1.98107E+00
 +1.15479E+00 +1.91593E+00 +7.57314E-01 +1.76225E+00 +3.98022E-01 +1.53116E+00 +9.33869E-02 +1.23794E+00
 -1.44294E-01 +9.01030E-01 -3.07499E-01 +5.40890E-01 -3.93788E-01 +1.78707E-01 -4.05791E-01 -1.64884E-01
 -3.50879E-01 -4.71046E-01 -2.40543E-01 -7.23852E-01 -8.95314E-02 -9.11196E-01 +8.52159E-02 -1.02546E+00
 +2.65748E-01 -1.06390E+00 +4.34335E-01 -1.02868E+00 +5.74667E-01 -9.26647E-01 +6.72948E-01 -7.68778E-01
 +7.18811E-01 -5.69388E-01 +7.06003E-01 -3.45128E-01 +6.32794E-01 -1.13843E-01 +5.02089E-01 +1.06630E-01
 +3.21231E-01 +2.99649E-01 +1.01520E-01 +4.50877E-01 -1.42531E-01 +5.49223E-01 -3.94148E-01 +5.87577E-01
 -6.35396E-01 +5.63274E-01 -8.48360E-01 +4.78284E-01 -1.01633E+00 +3.39086E-01 -1.12491E+00 +1.56263E-01
 -1.16302E+00 -5.61703E-02 -1.12362E+00 -2.81663E-01 -1.00429E+00 -5.02187E-01 -8.07466E-01 -6.99393E-01
 -5.40376E-01 -8.55800E-01 -2.14717E-01 -9.55942E-01 +1.53961E-01 -9.87387E-01 +5.47100E-01 -9.41598E-01
 +9.44171E-01 -8.14554E-01 +1.32383E+00 -6.07112E-01 +1.66515E+00 -3.25074E-01 +1.94878E+00 +2.10237E-02
 +2.15811E+00 +4.16416E-01 +2.28023E+00 +8.42852E-01 +2.30667E+00 +1.27956E+00 +2.23398E+00 +1.70435E+00
 +2.06391E+00 +2.09481E+00 +1.80341E+00 +2.42956E+00 +1.46431E+00 +2.68940E+00 +1.06268E+00 +2.85838E+00
 +6.18038E-01 +2.92473E+00 +1.52333E-01 +2.88153E+00 -3.11224E-01 +2.72710E+00 -7.49361E-01 +2.46520E+00
 -1.13997E+00 +2.10489E+00 -1.46327E+00 +1.66006E+00 -1.70283E+00 +1.14883E+00 -1.84643E+00 +5.92631E-01
 -1.88671E+00 +1.51510E-02 -1.82152E+00 -5.58838E-01 -1.65402E+00 -1.10470E+00 -1.39257E+00 -1.59915E+00
 -1.05020E+00 -2.02139E+00 -6.43995E-01 -2.35413E+00 -1.94179E-01 -2.58438E+00 +2.76920E-01 -2.70409E+00
 +7.46017E-01 -2.71044E+00 +1.19006E+00 -2.60597E+00 +1.58737E+00 -2.39836E+00 +1.91879E+00 -2.09994E+00
 +2.16855E+00 -1.72708E+00 +2.32508E+00 -1.29922E+00 +2.38154E+00 -8.37922E-01 +2.33612E+00 -3.65679E-01
 +2.19202E+00 +9.51835E-02 +1.95729E+00 +5.23659E-01 +1.64426E+00 +9.01089E-01 +1.26894E+00 +1.21206E+00
 +8.50045E-01 +1.44511E+00 +4.08042E-01 +1.59323E+00 -3.59535E-02 +1.65409E+00 -4.61283E-01 +1.63003E+00
 -8.48807E-01 +1.52779E+00 -1.18186E+00 +1.35807E+00 -1.44709E+00 +1.13472E+00 -1.63503E+00 +8.74012E-01
 -1.74055E+00 +5.93546E-01 -1.76298E+00 +3.11300E-01 -1.70602E+00 +4.45659E-02 -1.57742E+00 -1.91011E-01
 -1.38840E+00 -3.82290E-01 -1.15298E+00 -5.19331E-01 -8.87009E-01 -5.95893E-01 -6.07306E-01 -6.09709E-01
 -3.30603E-01 -5.62524E-01 -7.25971E-02 -4.59895E-01 +1.52930E-01 -3.10773E-01 +3.34872E-01 -1.26889E-01
 +4.65374E-01 +7.80156E-02 +5.40206E-01 +2.89069E-01 +5.58914E-01 +4.91202E-01 +5.24739E-01 +6.70079E-01
 +4.44312E-01 +8.12977E-01 +3.27150E-01 +9.09555E-01 +1.84983E-01 +9.52462E-01 +3.09544E-02 +9.37774E-01
 -1.21252E-01 +8.65200E-01 -2.58309E-01 +7.38076E-01 -3.68107E-01 +5.63135E-01 -4.40534E-01 +3.50072E-01
 -4.68118E-01 +1.10934E-01 -4.46504E-01 -1.40628E-01 -3.74727E-01 -3.90201E-01 -2.55279E-01 -6.23490E-01
 -9.39562E-02 -8.27180E-01 +1.00495E-01 -9.89741E-01 +3.16918E-01 -1.10211E+00 +5.42427E-01 -1.15823E+00
 +7.63194E-01 -1.15538E+00 +9.65293E-01 -1.09435E+00 +1.13555E+00 -9.79341E-01 +1.26234E+00 -8.17712E-01
 +1.33629E+00 -6.19525E-01 +1.35086E+00 -3.96926E-01 +1.30273E+00 -1.63416E-01 +1.19203E+00 +6.69511E-02
 +1.02232E+00 +2.80404E-01 +8.00439E-01 +4.64253E-01 +5.36069E-01 +6.07627E-01 +2.41243E-01 +7.02094E-01
 -7.03506E-02 +7.42128E-01 -3.84126E-01 +7.25411E-01 -6.85404E-01 +6.52940E-01 -9.60218E-01 +5.28941E-01
 -1.19607E+00 +3.60600E-01 -1.38257E+00 +1.57631E-01 -1.51204E+00 -6.83061E-02 -1.57980E+00 -3.04277E-01
 -1.58446E+00 -5.36823E-01 -1.52790E+00 -7.52720E-01 -1.41513E+00 -9.39722E-01 -1.25397E+00 -1.08724E+00
 -1.05456E+00 -1.18692E+00 -8.28793E-01 -1.23308E+00 -5.89605E-01 -1.22304E+00 -3.50291E-01 -1.15717E+00
 -1.23753E-01 -1.03894E+00 +7.81855E-02 -8.74656E-01 +2.45404E-01 -6.73086E-01 +3.70005E-01 -4.45005E-01
 +4.46705E-01 -2.02576E-01 +4.73079E-01 +4.13032E-02 +4.49641E-01 +2.73702E-01 +3.79775E-01 +4.82341E-01
 +2.69501E-01 +6.56245E-01 +1.27109E-01 +7.86315E-01 -3.73290E-02 +8.65800E-01 -2.12535E-01 +8.90641E-01
 -3.86666E-01 +8.59669E-01 -5.47976E-01 +7.74651E-01 -6.85468E-01 +6.40188E-01 -7.89511E-01 +4.63456E-01
 -8.52374E-01 +2.53817E-01 -8.68662E-01 +2.23235E-02 -8.35625E-01 -2.18874E-01 -7.53326E-01 -4.57172E-01
 -6.24666E-01 -6.80178E-01 -4.55246E-01 -8.76371E-01 -2.53093E-01 -1.03571E+00 -2.82530E-02 -1.15019E+00
 +2.07731E-01 -1.21422E+00 +4.42420E-01 -1.22501E+00 +6.63144E-01 -1.18263E+00 +8.57673E-01 -1.09012E+00
 +1.01489E+00 -9.53236E-01 +1.12539E+00 -7.80238E-01 +1.18202E+00 -5.81395E-01 +1.18032E+00 -3.68460E-01
 +1.11872E+00 -1.54029E-01 +9.98784E-01 +4.91435E-02 +8.25060E-01 +2.28853E-01 +6.04945E-01 +3.74123E-01
 +3.48299E-01 +4.75827E-01 +6.69552E-02 +5.27216E-01 -2.25898E-01 +5.24318E-01 -5.16406E-01 +4.66185E-01
 -7.90790E-01 +3.54979E-01 -1.03609E+00 +1.95879E-01 -1.24085E+00 -3.18362E-03 -1.39579E+00 -2.31947E-01
 -1.49427E+00 -4.78382E-01 -1.53268E+00 -7.29357E-01 -1.51065E+00 -9.71382E-01 -1.43101E+00 -1.19137E+00
 -1.29970E+00 -1.37740E+00 -1.12536E+00 -1.51939E+00 -9.18844E-01 -1.60969E+00 -6.92594E-01 -1.64356E+00
 -4.59889E-01 -1.61940E+00 -2.34078E-01 -1.53890E+00 -2.77886E-02 -1.40691E+00 +1.47815E-01 -1.23118E+00
 +2.83686E-01 -1.02186E+00 +3.73414E-01 -7.90963E-01 +4.13596E-01 -5.51583E-01 +4.04004E-01 -3.17147E-01
 +3.47570E-01 -1.00604E-01 +2.50169E-01 +8.63505E-02 +1.20220E-01 +2.33963E-01 -3.18747E-02 +3.34999E-01
 -1.94407E-01 +3.85156E-01 -3.55126E-01 +3.83292E-01 -5.02028E-01 +3.31463E-01 -6.24133E-01 +2.34749E-01
 -7.12190E-01 +1.00899E-01 -7.59265E-01 -6.01903E-02 -7.61185E-01 -2.37132E-01 -7.16796E-01 -4.17791E-01
 -6.28029E-01 -5.90070E-01 -4.99766E-01 -7.42685E-01 -3.39515E-01 -8.65877E-01 -1.56918E-01 -9.52024E-01
 +3.68714E-02 -9.96105E-01 +2.29910E-01 -9.95987E-01 +4.10229E-01 -9.52530E-01 +5.66588E-01 -8.69489E-01
 +6.89186E-01 -7.53232E-01 +7.70263E-01 -6.12294E-01 +8.04567E-01 -4.56793E-01 +7.89655E-01 -2.97760E-01
 +7.26010E-01 -1.46411E-01 +6.16973E-01 -1.34251E-02 +4.68488E-01 +9.17260E-02 +2.88693E-01 +1.61364E-01
 +8.73849E-02 +1.90056E-01 -1.24618E-01 +1.74916E-01 -3.36151E-01 +1.15729E-01 -5.36379E-01 +1.49090E-02
 -7.15437E-01 -1.22720E-01 -8.64981E-01 -2.90283E-01 -9.78618E-01 -4.79333E-01 -1.05220E+00 -6.80417E-01
 -1.08398E+00 -8.83677E-01 -1.07453E+00 -1.07946E+00 -1.02665E+00 -1.25886E+00 -9.45010E-01 -1.41426E+00
 -8.35754E-01 -1.53962E+00 -7.06031E-01 -1.63082E+00 -5.63479E-01 -1.68572E+00 -4.15721E-01 -1.70415E+00
 -2.69897E-01 -1.68777E+00 -1.32269E-01 -1.63979E+00 -7.92498E-03 -1.56464E+00 +9.94169E-02 -1.46755E+00
 +1.87477E-01 -1.35419E+00 +2.55374E-01 -1.23019E+00 +3.03487E-01 -1.10087E+00 +3.33224E-01 -9.70858E-01
 +3.46748E-01 -8.43967E-01 +3.46660E-01 -7.23036E-01 +3.35692E-01 -6.09942E-01 +3.16423E-01 -5.05668E-01
