 Created: 19-Jan-2021
 $NMID
 ID='D:\BASISSIMULATI'
 FMTDAT='(8E13.5)'
 VOLUME=   1.00000E+00
 TRAMP=   1.00000E+00
 $END
 +1.12690E+01 +1.27720E-02 +1.01621E+01 +1.16214E+00 +7.17254E+00 +2.16335E+00 +2.97883E+00 +2.90908E+00
 -1.48774E+00 +3.30994E+00 -5.26458E+00 +3.30665E+00 -7.58173E+00 +2.88817E+00 -8.03321E+00 +2.10959E+00
 -6.65550E+00 +1.10064E+00 -3.89748E+00 +5.61416E-02 -4.93673E-01 -7.95356E-01 +2.72356E+00 -1.24142E+00
 +5.02369E+00 -1.14303E+00 +5.94008E+00 -4.83043E-01 +5.35723E+00 +6.10554E-01 +3.50738E+00 +1.87833E+00
 +8.84652E-01 +2.98171E+00 -1.89497E+00 +3.58426E+00 -4.24782E+00 +3.44218E+00 -5.75132E+00 +2.47928E+00
 -6.21777E+00 +8.23456E-01 -5.70151E+00 -1.20922E+00 -4.44626E+00 -3.18290E+00 -2.79488E+00 -4.64786E+00
 -1.09108E+00 -5.25714E+00 +3.99204E-01 -4.86241E+00 +1.52849E+00 -3.56121E+00 +2.26595E+00 -1.68034E+00
 +2.66228E+00 +3.03245E-01 +2.79928E+00 +1.88462E+00 +2.74483E+00 +2.66428E+00 +2.52893E+00 +2.45651E+00
 +2.14722E+00 +1.34214E+00 +1.58720E+00 -3.49943E-01 +8.63735E-01 -2.12912E+00 +4.70387E-02 -3.47455E+00
 -7.30968E-01 -3.97641E+00 -1.29800E+00 -3.44818E+00 -1.48626E+00 -1.97877E+00 -1.18735E+00 +9.03979E-02
 -3.98939E-01 +2.25710E+00 +7.53913E-01 +3.99393E+00 +2.03304E+00 +4.89019E+00 +3.13642E+00 +4.76095E+00
 +3.77092E+00 +3.69322E+00 +3.72885E+00 +2.01702E+00 +2.94676E+00 +2.09934E-01 +1.52899E+00 -1.23733E+00
 -2.71757E-01 -1.95654E+00 -2.11245E+00 -1.80069E+00 -3.64106E+00 -8.78777E-01 -4.57930E+00 +4.82041E-01
 -4.78476E+00 +1.83502E+00 -4.27667E+00 +2.74414E+00 -3.21993E+00 +2.90859E+00 -1.87421E+00 +2.24625E+00
 -5.24018E-01 +9.13107E-01 +5.89810E-01 -7.45630E-01 +1.31865E+00 -2.29741E+00 +1.62352E+00 -3.34701E+00
 +1.56041E+00 -3.64785E+00 +1.24242E+00 -3.16822E+00 +7.93957E-01 -2.09445E+00 +3.13429E-01 -7.71366E-01
 -1.44020E-01 +4.01365E-01 -5.60138E-01 +1.08631E+00 -9.29443E-01 +1.10453E+00 -1.22999E+00 +4.83812E-01
 -1.40382E+00 -5.54133E-01 -1.35834E+00 -1.66242E+00 -9.92076E-01 -2.47263E+00 -2.38077E-01 -2.70270E+00
 +8.89562E-01 -2.23774E+00 +2.26458E+00 -1.16130E+00 +3.64846E+00 +2.70917E-01 +4.72862E+00 +1.70577E+00
 +5.18986E+00 +2.79332E+00 +4.80233E+00 +3.28372E+00 +3.50128E+00 +3.09316E+00 +1.43316E+00 +2.32083E+00
 -1.05046E+00 +1.21411E+00 -3.45610E+00 +9.37578E-02 -5.25755E+00 -7.38013E-01 -6.02549E+00 -1.07964E+00
 -5.54379E+00 -8.79790E-01 -3.87982E+00 -2.41987E-01 -1.38657E+00 +6.14397E-01 +1.36869E+00 +1.42306E+00
 +3.73434E+00 +1.94790E+00 +5.13200E+00 +2.04573E+00 +5.20165E+00 +1.69740E+00 +3.89631E+00 +1.00111E+00
 +1.50032E+00 +1.32836E-01 -1.43510E+00 -7.11178E-01 -4.22382E+00 -1.37102E+00 -6.21115E+00 -1.76154E+00
 -6.93227E+00 -1.88267E+00 -6.22258E+00 -1.80136E+00 -4.25232E+00 -1.61440E+00 -1.47786E+00 -1.40692E+00
 +1.47612E+00 -1.22191E+00 +3.97194E+00 -1.05119E+00 +5.51109E+00 -8.49994E-01 +5.84483E+00 -5.68403E-01
 +5.01720E+00 -1.86484E-01 +3.33294E+00 +2.61587E-01 +1.26316E+00 +6.85518E-01 -6.83056E-01 +9.62183E-01
 -2.08548E+00 +9.77982E-01 -2.70524E+00 +6.76336E-01 -2.52179E+00 +9.30837E-02 -1.70963E+00 -6.34905E-01
 -5.67227E-01 -1.29481E+00 +5.77752E-01 -1.65274E+00 +1.45789E+00 -1.52400E+00 +1.92575E+00 -8.38030E-01
 +1.97027E+00 +3.23395E-01 +1.69058E+00 +1.72943E+00 +1.24071E+00 +3.04819E+00 +7.66381E-01 +3.92940E+00
 +3.55867E-01 +4.10026E+00 +2.00380E-02 +3.44764E+00 -2.93905E-01 +2.06184E+00 -6.62669E-01 +2.26900E-01
 -1.13750E+00 -1.64306E+00 -1.70472E+00 -3.10649E+00 -2.27193E+00 -3.80932E+00 -2.68682E+00 -3.58091E+00
 -2.78362E+00 -2.48399E+00 -2.44270E+00 -8.03463E-01 -1.64298E+00 +1.02419E+00 -4.88367E-01 +2.52301E+00
 +8.03280E-01 +3.30128E+00 +1.94846E+00 +3.15351E+00 +2.67151E+00 +2.11330E+00 +2.78259E+00 +4.42659E-01
 +2.23674E+00 -1.43870E+00 +1.15550E+00 -3.06462E+00 -1.97202E-01 -4.04369E+00 -1.47990E+00 -4.15761E+00
 -2.36198E+00 -3.41086E+00 -2.61130E+00 -2.01976E+00 -2.15628E+00 -3.46085E-01 -1.10501E+00 +1.20467E+00
 +2.84268E-01 +2.29103E+00 +1.67278E+00 +2.71945E+00 +2.73125E+00 +2.48278E+00 +3.22511E+00 +1.74494E+00
 +3.07113E+00 +7.79842E-01 +2.35082E+00 -1.15504E-01 +1.27825E+00 -7.06731E-01 +1.33441E-01 -8.82001E-01
 -8.18221E-01 -6.70150E-01 -1.39655E+00 -2.14675E-01 -1.54721E+00 +2.85358E-01 -1.34221E+00 +6.46828E-01
 -9.42607E-01 +7.62960E-01 -5.37034E-01 +6.33661E-01 -2.76867E-01 +3.57224E-01 -2.28765E-01 +8.76056E-02
 -3.59291E-01 -2.73106E-02 -5.55441E-01 +9.50017E-02 -6.73107E-01 +4.35407E-01 -5.96380E-01 +8.72742E-01
 -2.87043E-01 +1.22052E+00 +1.93215E-01 +1.28957E+00 +6.96441E-01 +9.56575E-01 +1.03468E+00 +2.15812E-01
 +1.04461E+00 -8.03844E-01 +6.49547E-01 -1.86440E+00 -1.02022E-01 -2.68111E+00 -1.03597E+00 -3.00439E+00
 -1.89288E+00 -2.69707E+00 -2.39924E+00 -1.78336E+00 -2.34949E+00 -4.53381E-01 -1.67412E+00 +9.80152E-01
 -4.72469E-01 +2.16217E+00 +1.00184E+00 +2.79065E+00 +2.40088E+00 +2.70027E+00 +3.37269E+00 +1.91023E+00
 +3.65700E+00 +6.22144E-01 +3.15931E+00 -8.31961E-01 +1.98176E+00 -2.07745E+00 +4.00820E-01 -2.79626E+00
 -1.20267E+00 -2.81006E+00 -2.44266E+00 -2.12447E+00 -3.02875E+00 -9.22938E-01 -2.84121E+00 +4.87094E-01
 -1.95943E+00 +1.75944E+00 -6.36563E-01 +2.60137E+00 +7.71938E-01 +2.84699E+00 +1.90530E+00 +2.49211E+00
 +2.49256E+00 +1.68296E+00 +2.41961E+00 +6.64299E-01 +1.75065E+00 -2.95790E-01 +6.99755E-01 -9.81442E-01
 -4.37217E-01 -1.28282E+00 -1.36922E+00 -1.21387E+00 -1.88957E+00 -8.91409E-01 -1.92589E+00 -4.84593E-01
 -1.54754E+00 -1.52995E-01 -9.30995E-01 +6.29654E-03 -2.95703E-01 -1.43848E-02 +1.68052E-01 -1.39958E-01
 +3.56783E-01 -2.49244E-01 +2.79450E-01 -2.27963E-01 +4.44571E-02 -1.91005E-02 -1.86288E-01 +3.47481E-01
 -2.60102E-01 +7.57371E-01 -9.18043E-02 +1.04642E+00 +3.02019E-01 +1.05745E+00 +8.04410E-01 +7.00503E-01
 +1.23512E+00 -3.98336E-03 +1.41171E+00 -9.14869E-01 +1.21491E+00 -1.79910E+00 +6.36820E-01 -2.39332E+00
 -2.04871E-01 -2.48137E+00 -1.09271E+00 -1.96459E+00 -1.76921E+00 -9.02923E-01 -2.01326E+00 +4.87616E-01
 -1.71034E+00 +1.88304E+00 -8.94570E-01 +2.93355E+00 +2.51294E-01 +3.35764E+00 +1.43971E+00 +3.02179E+00
 +2.35466E+00 +1.98258E+00 +2.73910E+00 +4.78101E-01 +2.46843E+00 -1.13012E+00 +1.58853E+00 -2.44973E+00
 +3.06764E-01 -3.15954E+00 -1.06203E+00 -3.09310E+00 -2.17962E+00 -2.28094E+00 -2.77492E+00 -9.40068E-01
 -2.71556E+00 +5.85755E-01 -2.04043E+00 +1.91813E+00 -9.44803E-01 +2.74271E+00 +2.77135E-01 +2.88756E+00
 +1.31497E+00 +2.36038E+00 +1.92616E+00 +1.33616E+00 +1.99758E+00 +1.00676E-01 +1.56795E+00 -1.03238E+00
 +8.06343E-01 -1.80615E+00 -4.51514E-02 -2.08361E+00 -7.46094E-01 -1.87213E+00 -1.12693E+00 -1.30544E+00
 -1.13240E+00 -5.91136E-01 -8.27351E-01 +5.83192E-02 -3.65084E-01 +4.89014E-01 +7.01593E-02 +6.44593E-01
 +3.27180E-01 +5.70356E-01 +3.37513E-01 +3.83573E-01 +1.35072E-01 +2.21835E-01 -1.60044E-01 +1.87885E-01
 -3.87687E-01 +3.09969E-01 -4.08122E-01 +5.31107E-01 -1.56465E-01 +7.30811E-01 +3.27449E-01 +7.71786E-01
 +9.04588E-01 +5.55600E-01 +1.37710E+00 +6.79501E-02 +1.55165E+00 -6.02891E-01 +1.30604E+00 -1.28246E+00
 +6.37525E-01 -1.75810E+00 -3.23564E-01 -1.84481E+00 -1.34133E+00 -1.44862E+00 -2.13655E+00 -6.07085E-01
 -2.46641E+00 +5.07658E-01 -2.19852E+00 +1.62656E+00 -1.35669E+00 +2.45320E+00 -1.23652E-01 +2.74619E+00
 +1.20164E+00 +2.39063E+00 +2.28154E+00 +1.43729E+00 +2.83069E+00 +9.69192E-02 +2.69503E+00 -1.31048E+00
 +1.89612E+00 -2.43805E+00 +6.27918E-01 -3.00385E+00 -7.93564E-01 -2.86645E+00 -2.01392E+00 -2.06294E+00
 -2.73406E+00 -7.98913E-01 -2.78800E+00 +6.07082E-01 -2.18350E+00 +1.80877E+00 -1.09489E+00 +2.52333E+00
 +1.88653E-01 +2.60319E+00 +1.34398E+00 +2.06915E+00 +2.10061E+00 +1.09670E+00 +2.30881E+00 -3.90960E-02
 +1.97099E+00 -1.04306E+00 +1.22940E+00 -1.68052E+00 +3.15868E-01 -1.83612E+00 -5.19742E-01 -1.53510E+00
 -1.08063E+00 -9.23158E-01 -1.27282E+00 -2.12852E-01 -1.12029E+00 +3.85371E-01 -7.43339E-01 +7.26078E-01
 -3.09200E-01 +7.66724E-01 +2.77839E-02 +5.70170E-01 +1.76683E-01 +2.72866E-01 +1.35252E-01 +3.05149E-02
 -1.72856E-02 -4.01159E-02 -1.56337E-01 +9.62052E-02 -1.63812E-01 +3.80254E-01 +2.24526E-02 +6.79350E-01
 +3.79118E-01 +8.35353E-01 +7.98471E-01 +7.23798E-01 +1.12096E+00 +3.04351E-01 +1.18926E+00 -3.54808E-01
 +9.06522E-01 -1.08807E+00 +2.79192E-01 -1.67717E+00 -5.70878E-01 -1.91692E+00 -1.43122E+00 -1.68209E+00
 -2.05508E+00 -9.74380E-01 -2.23357E+00 +6.63310E-02 -1.86233E+00 +1.19167E+00 -9.81841E-01 +2.10862E+00
 +2.22328E-01 +2.56006E+00 +1.46167E+00 +2.39899E+00 +2.41891E+00 +1.63458E+00 +2.83421E+00 +4.35908E-01
 +2.57882E+00 -9.08736E-01 +1.69503E+00 -2.06653E+00 +3.89902E-01 -2.74811E+00 -1.01638E+00 -2.78452E+00
 -2.17387E+00 -2.17153E+00 -2.79522E+00 -1.06925E+00 -2.73133E+00 +2.42585E-01 -2.00961E+00 +1.44068E+00
 -8.24306E-01 +2.24391E+00 +5.17789E-01 +2.48489E+00 +1.68078E+00 +2.14791E+00 +2.38861E+00 +1.36405E+00
 +2.49484E+00 +3.66583E-01 +2.01477E+00 -5.78930E-01 +1.11218E+00 -1.24873E+00 +4.62817E-02 -1.51781E+00
 -9.04393E-01 -1.38424E+00 -1.51869E+00 -9.55921E-01 -1.68827E+00 -4.06125E-01 -1.43700E+00 +8.66253E-02
 -9.00966E-01 +3.94772E-01 -2.77261E-01 +4.76601E-01 +2.41136E-01 +3.79844E-01 +5.23794E-01 +2.14451E-01
 +5.36988E-01 +1.04991E-01 +3.44243E-01 +1.39572E-01 +7.48774E-02 +3.33083E-01 -1.27738E-01 +6.17643E-01
 -1.60335E-01 +8.64065E-01 +1.93909E-03 +9.27696E-01 +2.95832E-01 +7.03621E-01 +5.92151E-01 +1.72573E-01
 +7.42493E-01 -5.78777E-01 +6.35007E-01 -1.37177E+00 +2.40392E-01 -1.98180E+00 -3.67894E-01 -2.20396E+00
 -1.02731E+00 -1.91871E+00 -1.53106E+00 -1.13709E+00 -1.69136E+00 -1.03197E-02 -1.40165E+00 +1.20150E+00
 -6.78305E-01 +2.19451E+00 +3.32725E-01 +2.70263E+00 +1.38803E+00 +2.57273E+00 +2.21012E+00 +1.81144E+00
 +2.56459E+00 +5.89480E-01 +2.32883E+00 -7.98995E-01 +1.53196E+00 -2.01162E+00 +3.53370E-01 -2.74720E+00
 -9.20909E-01 -2.82466E+00 -1.97266E+00 -2.22982E+00 -2.53629E+00 -1.11715E+00 -2.47042E+00 +2.33485E-01
 -1.79606E+00 +1.49267E+00 -6.90783E-01 +2.36827E+00 +5.59423E-01 +2.67932E+00 +1.63706E+00 +2.39681E+00
 +2.27712E+00 +1.64158E+00 +2.33498E+00 +6.41649E-01 +1.81994E+00 -3.37034E-01 +8.86108E-01 -1.06550E+00
