 Created: 19-Jan-2021
 $NMID
 ID='D:\BASISSIMULATI'
 FMTDAT='(8E13.5)'
 VOLUME=   1.00000E+00
 TRAMP=   1.00000E+00
 $END
 +7.10480E+00 +8.06114E-03 +6.43883E+00 +2.72105E+00 +4.71137E+00 +4.85210E+00 +2.30340E+00 +6.00557E+00
 -2.73560E-01 +6.00410E+00 -2.49192E+00 +4.92067E+00 -3.92286E+00 +3.05492E+00 -4.32616E+00 +8.60216E-01
 -3.69574E+00 -1.16064E+00 -2.25218E+00 -2.56728E+00 -3.85706E-01 -3.07596E+00 +1.43620E+00 -2.61598E+00
 +2.77481E+00 -1.33714E+00 +3.31579E+00 +4.31635E-01 +2.93388E+00 +2.26143E+00 +1.71344E+00 +3.72135E+00
 -7.77553E-02 +4.47291E+00 -2.05372E+00 +4.34035E+00 -3.79835E+00 +3.34231E+00 -4.95613E+00 +1.67998E+00
 -5.30531E+00 -3.13827E-01 -4.79865E+00 -2.25135E+00 -3.56441E+00 -3.77437E+00 -1.86974E+00 -4.62754E+00
 -5.65021E-02 -4.70547E+00 +1.53481E+00 -4.06479E+00 +2.63577E+00 -2.90087E+00 +3.10048E+00 -1.49670E+00
 +2.92621E+00 -1.56772E-01 +2.24198E+00 +8.58478E-01 +1.26993E+00 +1.38367E+00 +2.70087E-01 +1.37496E+00
 -5.18328E-01 +9.08292E-01 -9.25932E-01 +1.52279E-01 -8.82888E-01 -6.76308E-01 -4.24621E-01 -1.36315E+00
 +3.25409E-01 -1.74160E+00 +1.18989E+00 -1.72341E+00 +1.97971E+00 -1.30962E+00 +2.53395E+00 -5.81740E-01
 +2.74961E+00 +3.23010E-01 +2.59571E+00 +1.24491E+00 +2.11102E+00 +2.03542E+00 +1.38786E+00 +2.58407E+00
 +5.47485E-01 +2.83374E+00 -2.86326E-01 +2.78295E+00 -1.00974E+00 +2.47682E+00 -1.55317E+00 +1.99056E+00
 -1.88600E+00 +1.41060E+00 -2.01278E+00 +8.17883E-01 -1.96364E+00 +2.76456E-01 -1.78275E+00 -1.71428E-01
 -1.51791E+00 -5.04564E-01 -1.21358E+00 -7.18498E-01 -9.07683E-01 -8.20256E-01 -6.31430E-01 -8.24257E-01
 -4.10319E-01 -7.50427E-01 -2.64424E-01 -6.24247E-01 -2.06866E-01 -4.77411E-01 -2.40374E-01 -3.47310E-01
 -3.53136E-01 -2.73879E-01 -5.15893E-01 -2.93314E-01 -6.82363E-01 -4.29503E-01 -7.94418E-01 -6.85213E-01
 -7.92084E-01 -1.03581E+00 -6.26888E-01 -1.42814E+00 -2.75655E-01 -1.78624E+00 +2.48847E-01 -2.02395E+00
 +8.93830E-01 -2.06231E+00 +1.57116E+00 -1.84851E+00 +2.17103E+00 -1.37158E+00 +2.58255E+00 -6.70794E-01
 +2.71729E+00 +1.66288E-01 +2.53044E+00 +1.01688E+00 +2.03452E+00 +1.74524E+00 +1.30161E+00 +2.22988E+00
 +4.52699E-01 +2.38992E+00 -3.64523E-01 +2.20456E+00 -1.00524E+00 +1.72056E+00 -1.35824E+00 +1.04554E+00
 -1.37089E+00 +3.27396E-01 -1.06263E+00 -2.76045E-01 -5.23048E-01 -6.30984E-01 +1.05482E-01 -6.57775E-01
 +6.57580E-01 -3.50276E-01 +9.80886E-01 +2.20319E-01 +9.70538E-01 +9.18656E-01 +5.94376E-01 +1.57308E+00
 -9.70672E-02 +2.01254E+00 -9.78510E-01 +2.10460E+00 -1.87460E+00 +1.78619E+00 -2.59638E+00 +1.08013E+00
 -2.98181E+00 +9.33410E-02 -2.93155E+00 -1.00339E+00 -2.43205E+00 -2.00992E+00 -1.56061E+00 -2.73846E+00
 -4.70879E-01 -3.05344E+00 +6.38169E-01 -2.90077E+00 +1.56357E+00 -2.32010E+00 +2.14091E+00 -1.43697E+00
 +2.27902E+00 -4.36642E-01 +1.97911E+00 +4.75235E-01 +1.33412E+00 +1.11634E+00 +5.08305E-01 +1.36655E+00
 -2.98550E-01 +1.19340E+00 -8.94666E-01 +6.58524E-01 -1.13800E+00 -9.61993E-02 -9.67119E-01 -8.80034E-01
 -4.14593E-01 -1.49529E+00 +4.00172E-01 -1.78070E+00 +1.29690E+00 -1.64686E+00 +2.07362E+00 -1.09602E+00
 +2.55050E+00 -2.21886E-01 +2.60878E+00 +8.10208E-01 +2.21643E+00 +1.79867E+00 +1.43500E+00 +2.54858E+00
 +4.06414E-01 +2.91299E+00 -6.77391E-01 +2.82363E+00 -1.61520E+00 +2.30451E+00 -2.23874E+00 +1.46571E+00
 -2.44735E+00 +4.78910E-01 -2.22764E+00 -4.59789E-01 -1.65427E+00 -1.17160E+00 -8.71908E-01 -1.53228E+00
 -6.26371E-02 -1.49688E+00 +5.93934E-01 -1.10703E+00 +9.59072E-01 -4.79490E-01 +9.63640E-01 +2.21212E-01
 +6.21144E-01 +8.19693E-01 +2.26644E-02 +1.16811E+00 -6.84819E-01 +1.17767E+00 -1.33163E+00 +8.36648E-01
 -1.76267E+00 +2.11395E-01 -1.87070E+00 -5.69513E-01 -1.61850E+00 -1.34407E+00 -1.04547E+00 -1.95207E+00
 -2.57793E-01 -2.26906E+00 +5.95477E-01 -2.23178E+00 +1.35462E+00 -1.84984E+00 +1.88283E+00 -1.20169E+00
 +2.09377E+00 -4.16191E-01 +1.96771E+00 +3.55862E-01 +1.55290E+00 +9.73716E-01 +9.52691E-01 +1.33535E+00
 +3.01596E-01 +1.39684E+00 -2.64267E-01 +1.17868E+00 -6.35728E-01 +7.58271E-01 -7.52185E-01 +2.50718E-01
 -6.11970E-01 -2.17470E-01 -2.69770E-01 -5.35892E-01 +1.77786E-01 -6.33090E-01 +6.14774E-01 -4.90092E-01
 +9.31680E-01 -1.42201E-01 +1.04861E+00 +3.30783E-01 +9.31164E-01 +8.23321E-01 +5.96070E-01 +1.22748E+00
 +1.05751E-01 +1.45575E+00 -4.46374E-01 +1.45853E+00 -9.56398E-01 +1.23295E+00 -1.33164E+00 +8.21565E-01
 -1.50897E+00 +3.01714E-01 -1.46618E+00 -2.31687E-01 -1.22433E+00 -6.86101E-01 -8.41152E-01 -9.89735E-01
 -3.97357E-01 -1.10464E+00 +2.09492E-02 -1.03215E+00 +3.39872E-01 -8.10010E-01 +5.11755E-01 -5.02290E-01
 +5.22990E-01 -1.84534E-01 +3.94375E-01 +7.24334E-02 +1.74438E-01 +2.16719E-01 -7.24755E-02 +2.24783E-01
 -2.80593E-01 +1.04472E-01 -3.96486E-01 -1.08557E-01 -3.89477E-01 -3.59862E-01 -2.56780E-01 -5.88532E-01
 -2.26715E-02 -7.40077E-01 +2.67757E-01 -7.77277E-01 +5.58681E-01 -6.86930E-01 +7.95192E-01 -4.81419E-01
 +9.34102E-01 -1.95101E-01 +9.51816E-01 +1.23427E-01 +8.47903E-01 +4.21397E-01 +6.43951E-01 +6.52160E-01
 +3.78225E-01 +7.83660E-01 +9.74489E-02 +8.03559E-01 -1.52505E-01 +7.20260E-01 -3.35148E-01 +5.59884E-01
 -4.29538E-01 +3.60069E-01 -4.33048E-01 +1.61998E-01 -3.60445E-01 +2.30180E-03 -2.39703E-01 -9.36057E-02
 -1.05578E-01 -1.15574E-01 +7.68540E-03 -6.95607E-02 +7.30562E-02 +2.46840E-02 +7.55984E-02 +1.38436E-01
 +1.47167E-02 +2.40247E-01 -9.64928E-02 +3.02348E-01 -2.34487E-01 +3.05978E-01 -3.70347E-01 +2.44710E-01
 -4.75612E-01 +1.25239E-01 -5.27745E-01 -3.43360E-02 -5.14222E-01 -2.08313E-01 -4.34566E-01 -3.68426E-01
 -3.00046E-01 -4.89134E-01 -1.31240E-01 -5.52174E-01 +4.60065E-02 -5.49574E-01 +2.05390E-01 -4.84664E-01
 +3.24820E-01 -3.70990E-01 +3.90114E-01 -2.29441E-01 +3.97087E-01 -8.41939E-02 +3.51747E-01 +4.17345E-02
 +2.68650E-01 +1.30513E-01 +1.67790E-01 +1.72381E-01 +7.06667E-02 +1.66943E-01 -3.73866E-03 +1.22697E-01
 -4.23367E-02 +5.49642E-02 -4.00773E-02 -1.73339E-02 -5.29686E-04 -7.54283E-02 +6.51523E-02 -1.04283E-01
 +1.40632E-01 -9.53551E-02 +2.07679E-01 -4.80673E-02 +2.49721E-01 +3.02466E-02 +2.54996E-01 +1.25863E-01
 +2.18751E-01 +2.21347E-01 +1.44099E-01 +2.98868E-01 +4.14075E-02 +3.43541E-01 -7.36472E-02 +3.46175E-01
 -1.82968E-01 +3.04942E-01 -2.69342E-01 +2.25670E-01 -3.19535E-01 +1.20740E-01 -3.26629E-01 +6.79873E-03
 -2.91172E-01 -9.82767E-02 -2.20950E-01 -1.78588E-01 -1.29452E-01 -2.23014E-01 -3.33130E-02 -2.27093E-01
 +5.07615E-02 -1.93647E-01 +1.09025E-01 -1.32057E-01 +1.33112E-01 -5.63566E-02 +1.21407E-01 +1.75001E-02
 +7.91362E-02 +7.46606E-02 +1.71838E-02 +1.04121E-01 -5.01269E-02 +1.00689E-01 -1.07840E-01 +6.58189E-02
 -1.43232E-01 +7.16800E-03 -1.48194E-01 -6.29920E-02 -1.20693E-01 -1.30206E-01 -6.50627E-02 -1.80623E-01
 +8.90855E-03 -2.03617E-01 +8.78902E-02 -1.93748E-01 +1.57546E-01 -1.51725E-01 +2.05206E-01 -8.42027E-02
 +2.22181E-01 -2.48988E-03 +2.05293E-01 +7.95662E-02 +1.57383E-01 +1.48117E-01 +8.67054E-02 +1.91790E-01
 +5.37974E-03 +2.03669E-01 -7.28182E-02 +1.82430E-01 -1.34898E-01 +1.32461E-01 -1.70896E-01 +6.29814E-02
 -1.75532E-01 -1.36657E-02 -1.49010E-01 -8.42077E-02 -9.68493E-02 -1.36743E-01 -2.88221E-02 -1.62745E-01
 +4.28188E-02 -1.58440E-01 +1.05481E-01 -1.25346E-01 +1.48388E-01 -6.99059E-02 +1.64377E-01 -2.29840E-03
 +1.51070E-01 +6.53587E-02 +1.11207E-01 +1.21102E-01 +5.21333E-02 +1.55167E-01 -1.54946E-02 +1.61644E-01
 -7.95461E-02 +1.39487E-01 -1.28504E-01 +9.26895E-02 -1.53456E-01 +2.96281E-02 -1.49659E-01 -3.83535E-02
 -1.17420E-01 -9.88742E-02 -6.21201E-02 -1.40653E-01 +6.61396E-03 -1.55501E-01 +7.65001E-02 -1.39827E-01
 +1.34681E-01 -9.53890E-02 +1.69966E-01 -2.91386E-02 +1.74852E-01 +4.78381E-02 +1.46962E-01 +1.22139E-01
 +8.96368E-02 +1.80329E-01 +1.15401E-02 +2.11306E-01 -7.46858E-02 +2.08337E-01 -1.54515E-01 +1.70393E-01
 -2.14034E-01 +1.02516E-01 -2.42416E-01 +1.51302E-02 -2.33924E-01 -7.76329E-02 -1.89080E-01 -1.60315E-01
 -1.14747E-01 -2.18826E-01 -2.30957E-02 -2.42976E-01 +7.04144E-02 -2.28389E-01 +1.49699E-01 -1.77433E-01
 +2.00902E-01 -9.89748E-02 +2.14938E-01 -6.96240E-03 +1.89251E-01 +8.19495E-02 +1.28457E-01 +1.51329E-01
 +4.37104E-02 +1.87950E-01 -4.91190E-02 +1.84290E-01 -1.32188E-01 +1.40093E-01 -1.88871E-01 +6.26564E-02
 -2.06847E-01 -3.42138E-02 -1.80525E-01 -1.32482E-01 -1.12354E-01 -2.13009E-01 -1.27305E-02 -2.59014E-01
 +1.01536E-01 -2.59259E-01 +2.09996E-01 -2.10381E-01 +2.92116E-01 -1.17900E-01 +3.31044E-01 +4.32447E-03
 +3.16886E-01 +1.36198E-01 +2.48895E-01 +2.54738E-01 +1.36110E-01 +3.38136E-01 -3.78023E-03 +3.69836E-01
 -1.47223E-01 +3.41872E-01 -2.68842E-01 +2.56815E-01 -3.46052E-01 +1.27869E-01 -3.63431E-01 -2.30204E-02
 -3.16003E-01 -1.68805E-01 -2.10741E-01 -2.82166E-01 -6.58964E-02 -3.40690E-01 +9.18791E-02 -3.31414E-01
 +2.32192E-01 -2.53835E-01 +3.26581E-01 -1.20697E-01 +3.54153E-01 +4.37553E-02 +3.06093E-01 +2.07871E-01
 +1.88075E-01 +3.38385E-01 +1.99591E-02 +4.06888E-01 -1.67326E-01 +3.95719E-01 -3.37289E-01 +3.02076E-01
 -4.54819E-01 +1.39419E-01 -4.93251E-01 -6.43025E-02 -4.40155E-01 -2.71414E-01 -3.00596E-01 -4.41509E-01
 -9.70626E-02 -5.39380E-01 +1.34120E-01 -5.42327E-01 +3.49352E-01 -4.45348E-01 +5.06132E-01 -2.63019E-01
 +5.71632E-01 -2.75151E-02 +5.29737E-01 +2.17016E-01 +3.85046E-01 +4.22780E-01 +1.62862E-01 +5.47789E-01
 -9.50149E-02 +5.64556E-01 -3.38020E-01 +4.66243E-01 -5.16665E-01 +2.68881E-01 -5.92566E-01 +9.03859E-03
 -5.46630E-01 -2.62766E-01 -3.83641E-01 -4.91742E-01 -1.32176E-01 -6.29740E-01 +1.60306E-01 -6.45224E-01
 +4.36389E-01 -5.30228E-01 +6.39947E-01 -3.02778E-01 +7.27521E-01 -4.13080E-03 +6.77502E-01 +3.08791E-01
 +4.95185E-01 +5.74374E-01 +2.12537E-01 +7.38588E-01 -1.17432E-01 +7.66096E-01 -4.30727E-01 +6.47919E-01
 -6.64927E-01 +4.04003E-01 -7.71792E-01 +8.00125E-02 -7.27355E-01 -2.61138E-01 -5.37402E-01 -5.51478E-01
 -2.37105E-01 -7.31509E-01 +1.15269E-01 -7.62391E-01 +4.49464E-01 -6.34295E-01 +6.97029E-01 -3.69141E-01
 +8.05115E-01 -1.70248E-02 +7.47487E-01 +3.53100E-01 +5.30478E-01 +6.66753E-01 +1.92561E-01 +8.58713E-01
 -2.02522E-01 +8.86306E-01 -5.77873E-01 +7.38516E-01 -8.58467E-01 +4.38975E-01 -9.86187E-01 +4.20970E-02
