 Created: 19-Jan-2021
 $NMID
 ID='D:\BASISSIMULATI'
 FMTDAT='(8E13.5)'
 VOLUME=   1.00000E+00
 TRAMP=   1.00000E+00
 $END
 +3.68642E+00 +4.17503E-03 +3.59911E+00 +7.84061E-01 +3.34884E+00 +1.52719E+00 +2.94721E+00 +2.19995E+00
 +2.41264E+00 +2.77195E+00 +1.76958E+00 +3.21744E+00 +1.04734E+00 +3.51643E+00 +2.78770E-01 +3.65559E+00
 -5.01228E-01 +3.62888E+00 -1.25729E+00 +3.43775E+00 -1.95518E+00 +3.09114E+00 -2.56338E+00 +2.60499E+00
 -3.05446E+00 +2.00155E+00 -3.40635E+00 +1.30836E+00 -3.60332E+00 +5.56959E-01 -3.63669E+00 -2.18499E-01
 -3.50520E+00 -9.82839E-01 -3.21507E+00 -1.70144E+00 -2.77971E+00 -2.34181E+00 -2.21905E+00 -2.87505E+00
 -1.55872E+00 -3.27716E+00 -8.28786E-01 -3.53013E+00 -6.24397E-02 -3.62273E+00 +7.05533E-01 -3.55101E+00
 +1.44033E+00 -3.31849E+00 +2.10870E+00 -2.93594E+00 +2.68046E+00 -2.42095E+00 +3.12985E+00 -1.79705E+00
 +3.43671E+00 -1.09270E+00 +3.58733E+00 -3.39934E-01 +3.57516E+00 +4.27055E-01 +3.40099E+00 +1.17349E+00
 +3.07297E+00 +1.86557E+00 +2.60621E+00 +2.47202E+00 +2.02207E+00 +2.96550E+00 +1.34721E+00 +3.32381E+00
 +6.12368E-01 +3.53094E+00 -1.49075E-01 +3.57773E+00 -9.02568E-01 +3.46231E+00 -1.61398E+00 +3.19018E+00
 -2.25113E+00 +2.77390E+00 -2.78526E+00 +2.23257E+00 -3.19234E+00 +1.59092E+00 -3.45412E+00 +8.78173E-01
 -3.55895E+00 +1.26753E-01 -3.50233E+00 -6.29232E-01 -3.28709E+00 -1.35552E+00 -2.92323E+00 -2.01923E+00
 -2.42746E+00 -2.59040E+00 -1.82247E+00 -3.04328E+00 -1.13584E+00 -3.35754E+00 -3.98809E-01 -3.51915E+00
 +3.55134E-01 -3.52103E+00 +1.09180E+00 -3.36335E+00 +1.77783E+00 -3.05349E+00 +2.38222E+00 -2.60575E+00
 +2.87771E+00 -2.04062E+00 +3.24201E+00 -1.38391E+00 +3.45882E+00 -6.65513E-01 +3.51854E+00 +8.19163E-02
 +3.41872E+00 +8.24460E-01 +3.16413E+00 +1.52848E+00 +2.76656E+00 +2.16212E+00 +2.24423E+00 +2.69679E+00
 +1.62102E+00 +3.10841E+00 +9.25333E-01 +3.37852E+00 +1.88802E-01 +3.49510E+00 -5.55129E-01 +3.45311E+00
 -1.27274E+00 +3.25470E+00 -1.93154E+00 +2.90911E+00 -2.50178E+00 +2.43223E+00 -2.95775E+00 +1.84588E+00
 -3.27896E+00 +1.17680E+00 -3.45109E+00 +4.55434E-01 -3.46654E+00 -2.85434E-01 -3.32488E+00 -1.01221E+00
 -3.03277E+00 -1.69197E+00 -2.60368E+00 -2.29398E+00 -2.05727E+00 -2.79110E+00 -1.41849E+00 -3.16095E+00
 -7.16436E-01 -3.38698E+00 +1.69873E-02 -3.45916E+00 +7.48490E-01 -3.37447E+00 +1.44492E+00 -3.13700E+00
 +2.07479E+00 -2.75773E+00 +2.60964E+00 -2.25409E+00 +3.02539E+00 -1.64909E+00 +3.30338E+00 -9.70313E-01
 +3.43124E+00 -2.48626E-01 +3.40341E+00 +4.83196E-01 +3.22138E+00 +1.19197E+00 +2.89366E+00 +1.84562E+00
 +2.43532E+00 +2.41460E+00 +1.86734E+00 +2.87327E+00 +1.21563E+00 +3.20101E+00 +5.09852E-01 +3.38317E+00
 -2.17924E-01 +3.41174E+00 -9.34681E-01 +3.28565E+00 -1.60796E+00 +3.01086E+00 -2.20731E+00 +2.60006E+00
 -2.70569E+00 +2.07207E+00 -3.08067E+00 +1.45102E+00 -3.31546E+00 +7.65182E-01 -3.39964E+00 +4.57469E-02
 -3.32962E+00 -6.74632E-01 -3.10882E+00 -1.36331E+00 -2.74749E+00 -1.98912E+00 -2.26221E+00 -2.52381E+00
 -1.67518E+00 -2.94329E+00 -1.01316E+00 -3.22873E+00 -3.06262E-01 -3.36741E+00 +4.13405E-01 -3.35326E+00
 +1.11321E+00 -3.18718E+00 +1.76146E+00 -2.87693E+00 +2.32888E+00 -2.43679E+00 +2.78987E+00 -1.88691E+00
 +3.12370E+00 -1.25238E+00 +3.31546E+00 -5.62102E-01 +3.35666E+00 +1.52570E-01 +3.24569E+00 +8.59207E-01
 +2.98781E+00 +1.52580E+00 +2.59493E+00 +2.12220E+00 +2.08507E+00 +2.62149E+00 +1.48153E+00 +3.00120E+00
 +8.11794E-01 +3.24431E+00 +1.06322E-01 +3.34001E+00 -6.02861E-01 +3.28421E+00 -1.28361E+00 +3.07966E+00
 -1.90512E+00 +2.73587E+00 -2.43933E+00 +2.26864E+00 -2.86215E+00 +1.69934E+00 -3.15460E+00 +1.05392E+00
 -3.30364E+00 +3.61749E-01 -3.30273E+00 -3.45726E-01 -3.15215E+00 -1.03642E+00 -2.85896E+00 -1.67907E+00
 -2.43668E+00 -2.24461E+00 -1.90463E+00 -2.70755E+00 -1.28711E+00 -3.04707E+00 -6.12226E-01 -3.24796E+00
 +8.93412E-02 -3.30136E+00 +7.85759E-01 -3.20506E+00 +1.44547E+00 -2.96367E+00 +2.03865E+00 -2.58835E+00
 +2.53851E+00 -2.09633E+00 +2.92255E+00 -1.51008E+00 +3.17354E+00 -8.56315E-01 +3.28032E+00 -1.64772E-01
 +3.23829E+00 +5.33152E-01 +3.04956E+00 +1.20582E+00 +2.72294E+00 +1.82279E+00 +2.27343E+00 +2.35618E+00
 +1.72161E+00 +2.78197E+00 +1.09263E+00 +3.08101E+00 +4.15125E-01 +3.23997E+00 -2.80129E-01 +3.25184E+00
 -9.61598E-01 +3.11634E+00 -1.59842E+00 +2.83982E+00 -2.16181E+00 +2.43505E+00 -2.62634E+00 +1.92056E+00
 -2.97113E+00 +1.31985E+00 -3.18074E+00 +6.60265E-01 -3.24587E+00 -2.82040E-02 -3.16381E+00 -7.14315E-01
 -2.93850E+00 -1.36698E+00 -2.58038E+00 -1.95667E+00 -2.10589E+00 -2.45676E+00 -1.53671E+00 -2.84474E+00
 -8.98789E-01 -3.10319E+00 -2.21135E-01 -3.22061E+00 +4.65477E-01 -3.19190E+00 +1.12992E+00 -3.01858E+00
 +1.74211E+00 -2.70875E+00 +2.27439E+00 -2.27664E+00 +2.70277E+00 -1.74205E+00 +3.00800E+00 -1.12935E+00
 +3.17643E+00 -4.66429E-01 +3.20066E+00 +2.16586E-01 +3.07980E+00 +8.88714E-01 +2.81956E+00 +1.51951E+00
 +2.43196E+00 +2.08046E+00 +1.93475E+00 +2.54625E+00 +1.35065E+00 +2.89592E+00 +7.06260E-01 +3.11380E+00
 +3.08741E-02 +3.19024E+00 -6.44851E-01 +3.12198E+00 -1.29029E+00 +2.91235E+00 -1.87625E+00 +2.57107E+00
 -2.37626E+00 +2.11382E+00 -2.76780E+00 +1.56148E+00 -3.03330E+00 +9.39258E-01 -3.16092E+00 +2.75444E-01
 -3.14509E+00 -3.99810E-01 -2.98677E+00 -1.05589E+00 -2.69334E+00 -1.66308E+00 -2.27832E+00 -2.19396E+00
 -1.76070E+00 -2.62458E+00 -1.16411E+00 -2.93559E+00 -5.15698E-01 -3.11307E+00 +1.55066E-01 -3.14921E+00
 +8.17750E-01 -3.04257E+00 +1.44234E+00 -2.79822E+00 +2.00058E+00 -2.42745E+00 +2.46729E+00 -1.94725E+00
 +2.82145E+00 -1.37956E+00 +3.04720E+00 -7.50251E-01 +3.13450E+00 -8.79262E-02 +3.07962E+00 +5.77343E-01
 +2.88527E+00 +1.21540E+00 +2.56047E+00 +1.79739E+00 +2.12015E+00 +2.29700E+00 +1.58444E+00 +2.69174E+00
 +9.77766E-01 +2.96388E+00 +3.27737E-01 +3.10127E+00 -3.36124E-01 +3.09791E+00 -9.83710E-01 +2.95417E+00
 -1.58570E+00 +2.67678E+00 -2.11489E+00 +2.27852E+00 -2.54740E+00 +1.77763E+00 -2.86380E+00 +1.19696E+00
 -3.04992E+00 +5.62972E-01 -3.09754E+00 -9.55384E-02 -3.00471E+00 -7.48686E-01 -2.77586E+00 -1.36688E+00
 -2.42157E+00 -1.92216E+00 -1.95811E+00 -2.38946E+00 -1.40663E+00 -2.74775E+00 -7.92278E-01 -2.98095E+00
 -1.42986E-01 -3.07870E+00 +5.11768E-01 -3.03678E+00 +1.14230E+00 -2.85731E+00 +1.72008E+00 -2.54863E+00
 +2.21900E+00 -2.12494E+00 +2.61658E+00 -1.60562E+00 +2.89497E+00 -1.01435E+00 +3.04172E+00 -3.78049E-01
 +3.05040E+00 +2.74390E-01 +2.92083E+00 +9.13371E-01 +2.65910E+00 +1.50996E+00 +2.27728E+00 +2.03718E+00
 +1.79286E+00 +2.47126E+00 +1.22796E+00 +2.79266E+00 +6.08288E-01 +2.98701E+00 -3.79732E-02 +3.04569E+00
 -6.81499E-01 +2.96625E+00 -1.29313E+00 +2.75252E+00 -1.84520E+00 +2.41439E+00 -2.31279E+00 +1.96737E+00
 -2.67483E+00 +1.43190E+00 -2.91509E+00 +8.32383E-01 -3.02287E+00 +1.96085E-01 -2.99349E+00 -4.48100E-01
 -2.82850E+00 -1.07097E+00 -2.53560E+00 -1.64433E+00 -2.12824E+00 -2.14227E+00 -1.62508E+00 -2.54234E+00
 -1.04907E+00 -2.82658E+00 -4.26415E-01 -2.98228E+00 +2.14583E-01 -3.00259E+00 +8.44850E-01 -2.88680E+00
 +1.43584E+00 -2.64037E+00 +1.96084E+00 -2.27467E+00 +2.39615E+00 -1.80646E+00 +2.72219E+00 -1.25713E+00
 +2.92436E+00 -6.51685E-01 +2.99369E+00 -1.76605E-02 +2.92725E+00 +6.16169E-01 +2.72825E+00 +1.22108E+00
 +2.40593E+00 +1.76971E+00 +1.97509E+00 +2.23727E+00 +1.45542E+00 +2.60272E+00 +8.70606E-01 +2.84965E+00
 +2.47259E-01 +2.96705E+00 -3.86315E-01 +2.94981E+00 -1.00139E+00 +2.79891E+00 -1.57012E+00 +2.52142E+00
 -2.06680E+00 +2.13010E+00 -2.46904E+00 +1.64286E+00 -2.75876E+00 +1.08194E+00 -2.92301E+00 +4.72872E-01
 -2.95453E+00 -1.56672E-01 -2.85212E+00 -7.78129E-01 -2.62062E+00 -1.36335E+00 -2.27072E+00 -1.88586E+00
 -1.81847E+00 -2.32210E+00 -1.28452E+00 -2.65242E+00 -6.93200E-01 -2.86202E+00 -7.13934E-02 -2.94160E+00
 +5.52673E-01 -2.88774E+00 +1.15071E+00 -2.70311E+00 +1.69567E+00 -2.39626E+00 +2.16293E+00 -1.98131E+00
 +2.53143E+00 -1.47723E+00 +2.78464E+00 -9.06986E-01 +2.91127E+00 -2.96539E-01 +2.90576E+00 +3.26387E-01
 +2.76858E+00 +9.33545E-01 +2.50615E+00 +1.49744E+00 +2.13057E+00 +1.99260E+00 +1.65902E+00 +2.39668E+00
 +1.11303E+00 +2.69151E+00 +5.17456E-01 +2.86391E+00 -1.00631E-01 +2.90626E+00 -7.13187E-01 +2.81683E+00
 -1.29246E+00 +2.59990E+00 -1.81226E+00 +2.26549E+00 -2.24911E+00 +1.82893E+00 -2.58336E+00 +1.31018E+00
 -2.80001E+00 +7.32872E-01 -2.88943E+00 +1.23256E-01 -2.84777E+00 -4.90988E-01 -2.67712E+00 -1.08202E+00
 -2.38543E+00 -1.62309E+00 -1.98609E+00 -2.08975E+00 -1.49737E+00 -2.46098E+00 -9.41564E-01 -2.72011E+00
 -3.43961E-01 -2.85556E+00 +2.68291E-01 -2.86139E+00 +8.67424E-01 -2.73755E+00 +1.42631E+00 -2.48984E+00
 +1.91968E+00 -2.12968E+00 +2.32528E+00 -1.67358E+00 +2.62487E+00 -1.14236E+00 +2.80504E+00 -5.60202E-01
 +2.85781E+00 +4.64304E-02 +2.78099E+00 +6.50006E-01 +2.57826E+00 +1.22318E+00 +2.25901E+00 +1.74002E+00
 +1.83790E+00 +2.17720E+00 +1.33415E+00 +2.51502E+00 +7.70738E-01 +2.73835E+00 +1.73281E-01 +2.83723E+00
 -4.31091E-01 +2.80738E+00 -1.01498E+00 +2.65035E+00 -1.55195E+00 +2.37347E+00 -2.01776E+00 +1.98946E+00
 -2.39139E+00 +1.51589E+00 -2.65606E+00 +9.74378E-01 -2.79996E+00 +3.89557E-01 -2.81674E+00 -2.12000E-01
 -2.70585E+00 -8.03006E-01 -2.47252E+00 -1.35669E+00 -2.12750E+00 -1.84803E+00 -1.68661E+00 -2.25485E+00
 -1.16998E+00 -2.55885E+00 -6.01145E-01 -2.74641E+00 -5.95819E-03 -2.80922E+00 +5.88565E-01 -2.74462E+00
 +1.15548E+00 -2.55575E+00 +1.66915E+00 -2.25135E+00 +2.10636E+00 -1.84541E+00 +2.44744E+00 -1.35647E+00
 +2.67707E+00 -8.06837E-01 +2.78503E+00 -2.21498E-01 +2.76660E+00 +3.72960E-01 +2.62283E+00 +9.49583E-01
 +2.36043E+00 +1.48227E+00 +1.99147E+00 +1.94695E+00 +1.53284E+00 +2.32266E+00 +1.00547E+00 +2.59254E+00
 +4.33360E-01 +2.74450E+00 -1.57489E-01 +2.77185E+00 -7.40275E-01 +2.67355E+00 -1.28860E+00 +2.45424E+00
 -1.77767E+00 +2.12406E+00 -2.18541E+00 +1.69814E+00 -2.49347E+00 +1.19594E+00 -2.68806E+00 +6.40322E-01
 -2.76052E+00 +5.65635E-02 -2.70777E+00 -5.28842E-01 -2.53240E+00 -1.08936E+00 -2.24254E+00 -1.59964E+00
 -1.85151E+00 -2.03662E+00 -1.37719E+00 -2.38063E+00 -8.41205E-01 -2.61621E+00 -2.67939E-01 -2.73286E+00
