 Created: 19-Jan-2021
 $NMID
 ID='D:\BASISSIMULATI'
 FMTDAT='(8E13.5)'
 VOLUME=   1.00000E+00
 TRAMP=   1.00000E+00
 $END
 +3.22702E+01 +3.65228E-02 +3.13893E+01 +6.90604E+00 +2.89075E+01 +1.33402E+01 +2.49916E+01 +1.89529E+01
 +1.99026E+01 +2.34157E+01 +1.39761E+01 +2.64806E+01 +7.59860E+00 +2.79967E+01 +1.17939E+00 +2.79196E+01
 -4.87821E+00 +2.63132E+01 -1.02055E+01 +2.33434E+01 -1.44939E+01 +1.92644E+01 -1.75157E+01 +1.43992E+01
 -1.91389E+01 +9.11498E+00 -1.93345E+01 +3.79522E+00 -1.81762E+01 -1.18817E+00 -1.58322E+01 -5.50198E+00
 -1.25509E+01 -8.87521E+00 -8.63961E+00 -1.11177E+01 -4.44051E+00 -1.21320E+01 -3.03391E-01 -1.19186E+01
 +3.44116E+00 -1.05728E+01 +6.50675E+00 -8.27525E+00 +8.67230E+00 -5.27510E+00 +9.79773E+00 -1.86917E+00
 +9.83306E+00 +1.62300E+00 +8.82031E+00 +4.88514E+00 +6.88809E+00 +7.62958E+00 +4.23945E+00 +9.62007E+00
 +1.13400E+00 +1.06900E+01 -2.13436E+00 +1.07552E+01 -5.26205E+00 +9.81936E+00 -7.96110E+00 +7.97296E+00
 -9.98286E+00 +5.38498E+00 -1.11384E+01 +2.28820E+00 -1.13141E+01 -1.04038E+00 -1.04807E+01 -4.30274E+00
 -8.69583E+00 -7.20460E+00 -6.09960E+00 -9.47989E+00 -2.90303E+00 -1.09129E+01 +6.28851E-01 -1.13564E+01
 +4.19846E+00 -1.07444E+01 +7.49980E+00 -9.09781E+00 +1.02434E+01 -6.52424E+00 +1.21799E+01 -3.20969E+00
 +1.31208E+01 +5.95401E-01 +1.29547E+01 +4.59556E+00 +1.16564E+01 +8.47338E+00 +9.29076E+00 +1.19145E+01
 +6.00854E+00 +1.46328E+01 +2.03544E+00 +1.63929E+01 -2.34450E+00 +1.70298E+01 -6.81041E+00 +1.64623E+01
 -1.10291E+01 +1.47007E+01 -1.46809E+01 +1.18469E+01 -1.74842E+01 +8.08745E+00 -1.92180E+01 +3.68039E+00
 -1.97391E+01 -1.06398E+00 -1.89940E+01 -5.80630E+00 -1.70240E+01 -1.02038E+01 -1.39626E+01 -1.39364E+01
 -1.00261E+01 -1.67313E+01 -5.49798E+00 -1.83840E+01 -7.07830E-01 -1.87742E+01 +3.99346E+00 -1.78755E+01
 +8.25998E+00 -1.57583E+01 +1.17770E+01 -1.25842E+01 +1.42850E+01 -8.59537E+00 +1.55993E+01 -4.09561E+00
 +1.56245E+01 +5.71588E-01 +1.43619E+01 +5.04904E+00 +1.19101E+01 +8.99263E+00 +8.45746E+00 +1.20973E+01
 +4.26851E+00 +1.41199E+01 -3.35643E-01 +1.48979E+01 -5.00130E+00 +1.43618E+01 -9.36856E+00 +1.25400E+01
 -1.30982E+01 +9.55788E+00 -1.58970E+01 +5.62762E+00 -1.75397E+01 +1.03316E+00 -1.78859E+01 -3.89113E+00
 -1.68902E+01 -8.78520E+00 -1.46059E+01 -1.32900E+01 -1.11809E+01 -1.70742E+01 -6.84643E+00 -1.98582E+01
 -1.89980E+00 -2.14354E+01 +3.31754E+00 -2.16864E+01 +8.44547E+00 -2.05878E+01 +1.31318E+01 -1.82135E+01
 +1.70582E+01 -1.47282E+01 +1.99631E+01 -1.03751E+01 +2.16607E+01 -5.45716E+00 +2.20540E+01 -3.14042E-01
 +2.11405E+01 +4.70317E+00 +1.90118E+01 +9.25810E+00 +1.58453E+01 +1.30538E+01 +1.18898E+01 +1.58541E+01
 +7.44604E+00 +1.75007E+01 +2.84317E+00 +1.79231E+01 -1.58629E+00 +1.71430E+01 -5.53170E+00 +1.52708E+01
 -8.72746E+00 +1.24957E+01 -1.09724E+01 +9.06952E+00 -1.21441E+01 +5.28660E+00 -1.22068E+01 +1.45999E+00
 -1.12126E+01 -2.10313E+00 -9.29573E+00 -5.12544E+00 -6.66053E+00 -7.38078E+00 -3.56410E+00 -8.71120E+00
 -2.94936E-01 -9.03850E+00 +2.85075E+00 -8.36931E+00 +5.59299E+00 -6.79347E+00 +7.69061E+00 -4.47569E+00
 +8.96049E+00 -1.64143E+00 +9.29206E+00 +1.44204E+00 +8.65598E+00 +4.48786E+00 +7.10614E+00 +7.21324E+00
 +4.77511E+00 +9.36273E+00 +1.86323E+00 +1.07293E+01 -1.37782E+00 +1.11715E+01 -4.66548E+00 +1.06253E+01
 -7.70934E+00 +9.10987E+00 -1.02349E+01 +6.72673E+00 -1.20060E+01 +3.65202E+00 -1.28448E+01 +1.23096E-01
 -1.26464E+01 -3.58000E+00 -1.13884E+01 -7.15656E+00 -9.13414E+00 -1.03090E+01 -6.02834E+00 -1.27667E+01
 -2.28722E+00 -1.43077E+01 +1.81764E+00 -1.47772E+01 +5.97965E+00 -1.41003E+01 +9.88066E+00 -1.22894E+01
 +1.32153E+01 -9.44427E+00 +1.57149E+01 -5.74572E+00 +1.71682E+01 -1.44286E+00 +1.74384E+01 +3.16500E+00
 +1.64747E+01 +7.75042E+00 +1.43166E+01 +1.19822E+01 +1.10921E+01 +1.55502E+01 +7.00910E+00 +1.81889E+01
 +2.34043E+00 +1.96972E+01 -2.59602E+00 +1.99543E+01 -7.46052E+00 +1.89287E+01 -1.19165E+01 +1.66813E+01
 -1.56554E+01 +1.33609E+01 -1.84196E+01 +9.19380E+00 -2.00212E+01 +4.46684E+00 -2.03560E+01 -4.93397E-01
 -1.94110E+01 -5.34483E+00 -1.72652E+01 -9.75504E+00 -1.40834E+01 -1.34257E+01 -1.01035E+01 -1.61144E+01
 -5.61870E+00 -1.76524E+01 -9.55530E-01 -1.79561E+01 +3.55084E+00 -1.70334E+01 +7.58140E+00 -1.49814E+01
 +1.08570E+01 -1.19794E+01 +1.31587E+01 -8.27366E+00 +1.43438E+01 -4.15921E+00 +1.43554E+01 +4.34577E-02
 +1.32263E+01 +4.01260E+00 +1.10749E+01 +7.44960E+00 +8.09580E+00 +1.01015E+01 +4.54391E+00 +1.17795E+01
 +7.14268E-01 +1.23732E+01 -3.08097E+00 +1.18578E+01 -6.53674E+00 +1.02951E+01 -9.37855E+00 +7.82828E+00
 -1.13834E+01 +4.66970E+00 -1.23968E+01 +1.08387E+00 -1.23438E+01 -2.63353E+00 -1.12348E+01 -6.17895E+00
 -9.16360E+00 -9.26473E+00 -6.29968E+00 -1.16415E+01 -2.87460E+00 -1.31174E+01 +8.36631E-01 -1.35729E+01
 +4.53724E+00 -1.29698E+01 +7.93209E+00 -1.13537E+01 +1.07508E+01 -8.85057E+00 +1.27690E+01 -5.65602E+00
 +1.38256E+01 -2.02025E+00 +1.38354E+01 +1.77191E+00 +1.27956E+01 +5.42335E+00 +1.07862E+01 +8.64795E+00
 +7.96310E+00 +1.11930E+01 +4.54625E+00 +1.28590E+01 +8.02302E-01 +1.35152E+01 -2.97623E+00 +1.31097E+01
 -6.49382E+00 +1.16737E+01 -9.47502E+00 +9.31908E+00 -1.16859E+01 +6.22949E+00 -1.29524E+01 +2.64631E+00
 -1.31739E+01 -1.15019E+00 -1.23309E+01 -4.86264E+00 -1.04871E+01 -8.19966E+00 -7.78411E+00 -1.08985E+01
 -4.43075E+00 -1.27456E+01 -6.86891E-01 -1.35930E+01 +3.15662E+00 -1.33702E+01 +6.80046E+00 -1.20894E+01
 +9.95996E+00 -9.84502E+00 +1.23872E+01 -6.80633E+00 +1.38902E+01 -3.20452E+00 +1.43478E+01 +6.85021E-01
 +1.37193E+01 +4.56392E+00 +1.20475E+01 +8.13377E+00 +9.45562E+00 +1.11191E+01 +6.13808E+00 +1.32887E+01
 +2.34543E+00 +1.44734E+01 -1.63466E+00 +1.45790E+01 -5.49954E+00 +1.35940E+01 -8.95472E+00 +1.15903E+01
 -1.17365E+01 +8.71771E+00 -1.36321E+01 +5.19278E+00 -1.44963E+01 +1.28212E+00 -1.42620E+01 -2.71793E+00
 -1.29461E+01 -6.50392E+00 -1.06476E+01 -9.78851E+00 -7.54053E+00 -1.23224E+01 -3.86035E+00 -1.39133E+01
 +1.13943E-01 -1.44407E+01 +4.08109E+00 -1.38650E+01 +7.74059E+00 -1.22302E+01 +1.08156E+01 -9.66099E+00
 +1.30740E+01 -6.35254E+00 +1.43460E+01 -2.55600E+00 +1.45370E+01 +1.44097E+00 +1.36345E+01 +5.33614E+00
 +1.17093E+01 +8.83576E+00 +8.90940E+00 +1.16769E+01 +5.44865E+00 +1.36475E+01 +1.59046E+00 +1.46024E+01
 -2.37262E+00 +1.44738E+01 -6.14130E+00 +1.32770E+01 -9.43240E+00 +1.11082E+01 -1.20004E+01 +8.13699E+00
 -1.36563E+01 +4.59353E+00 -1.42813E+01 +7.50208E-01 -1.38362E+01 -3.09914E+00 -1.23639E+01 -6.66190E+00
 -9.98556E+00 -9.66911E+00 -6.89118E+00 -1.18960E+01 -3.32461E+00 -1.31792E+01 +4.35420E-01 -1.34287E+01
 +4.09690E+00 -1.26349E+01 +7.37714E+00 -1.08689E+01 +1.00245E+01 -8.27649E+00 +1.18378E+01 -5.06671E+00
 +1.26816E+01 -1.49556E+00 +1.24964E+01 +2.15408E+00 +1.13033E+01 +5.59445E+00 +9.20162E+00 +8.55520E+00
 +6.36152E+00 +1.08043E+01 +3.01023E+00 +1.21660E+01 -5.85532E-01 +1.25344E+01 -4.14039E+00 +1.18812E+01
 -7.37252E+00 +1.02584E+01 -1.00255E+01 +7.79349E+00 -1.18882E+01 +4.68004E+00 -1.28113E+01 +1.16223E+00
 -1.27184E+01 -2.48393E+00 -1.16127E+01 -5.97209E+00 -9.57592E+00 -9.02771E+00 -6.76260E+00 -1.14094E+01
 -3.38788E+00 -1.29275E+01 +2.89019E-01 -1.34589E+01 +3.98481E+00 -1.29567E+01 +7.41400E+00 -1.14536E+01
 +1.03109E+01 -9.05971E+00 +1.24501E+01 -5.95389E+00 +1.36639E+01 -2.37031E+00 +1.38552E+01 +1.41969E+00
 +1.30049E+01 +5.12838E+00 +1.11738E+01 +8.47369E+00 +8.49749E+00 +1.12009E+01 +5.17617E+00 +1.31020E+01
 +1.45944E+00 +1.40317E+01 -2.37294E+00 +1.39188E+01 -6.03237E+00 +1.27711E+01 -9.24349E+00 +1.06749E+01
 -1.17652E+01 +7.78866E+00 -1.34090E+01 +4.33047E+00 -1.40533E+01 +5.61411E-01 -1.36525E+01 -3.23440E+00
 -1.22404E+01 -6.77155E+00 -9.92761E+00 -9.78513E+00 -6.89239E+00 -1.20509E+01 -3.36739E+00 -1.34022E+01
 +3.78587E-01 -1.37426E+01 +4.06114E+00 -1.30530E+01 +7.40210E+00 -1.13929E+01 +1.01508E+01 -8.89534E+00
 +1.21030E+01 -5.75660E+00 +1.31167E+01 -2.22089E+00 +1.31224E+01 +1.43863E+00 +1.21284E+01 +4.94089E+00
 +1.02197E+01 +8.01859E+00 +7.55112E+00 +1.04387E+01 +4.33512E+00 +1.20202E+01 +8.25249E-01 +1.26479E+01
 -2.70368E+00 +1.22810E+01 -5.97690E+00 +1.09560E+01 -8.74090E+00 +8.78364E+00 -1.07830E+01 +5.93983E+00
 -1.19477E+01 +2.65200E+00 -1.21485E+01 -8.18740E-01 -1.13745E+01 -4.19801E+00 -9.69099E+00 -7.21946E+00
 -7.23416E+00 -9.64550E+00 -4.20043E+00 -1.12856E+01 -8.31050E-01 -1.20113E+01 +2.60677E+00 -1.17657E+01
 +5.84062E+00 -1.05680E+01 +8.61415E+00 -8.51225E+00 +1.07069E+01 -5.75943E+00 +1.19517E+01 -2.52532E+00
 +1.22472E+01 +9.36422E-01 +1.15662E+01 +4.35392E+00 +9.95771E+00 +7.45820E+00 +7.54301E+00 +1.00040E+01
 +4.50652E+00 +1.17890E+01 +1.08154E+00 +1.26693E+01 -2.46779E+00 +1.25708E+01 -5.86683E+00 +1.14948E+01
 -8.85164E+00 +9.51851E+00 -1.11894E+01 +6.78864E+00 -1.26963E+01 +3.51052E+00 -1.32519E+01 -6.76823E-02
 -1.28084E+01 -3.67399E+00 -1.13944E+01 -7.03349E+00 -9.11288E+00 -9.88941E+00 -6.13338E+00 -1.20228E+01
 -2.67896E+00 -1.32694E+01 +9.90666E-01 -1.35321E+01 +4.59906E+00 -1.27886E+01 +7.87411E+00 -1.10932E+01
 +1.05689E+01 -8.57219E+00 +1.24803E+01 -5.41476E+00 +1.34647E+01 -1.85827E+00 +1.34490E+01 +1.82980E+00
 +1.24355E+01 +5.37228E+00 +1.05025E+01 +8.50341E+00 +7.79760E+00 +1.09891E+01 +4.52643E+00 +1.26445E+01
 +9.37104E-01 +1.33484E+01 -2.69893E+00 +1.30518E+01 -6.10761E+00 +1.17819E+01 -9.03311E+00 +9.63949E+00
 -1.12573E+01 +6.79122E+00 -1.26164E+01 +3.45663E+00 -1.30129E+01 -1.08728E-01 -1.24231E+01 -3.63301E+00
 -1.08988E+01 -6.84886E+00 -8.56239E+00 -9.51379E+00 -5.59793E+00 -1.14287E+01 -2.23637E+00 -1.24529E+01
 +1.26220E+00 -1.25147E+01 +4.62864E+00 -1.16163E+01 +7.60542E+00 -9.83402E+00 +9.96638E+00 -7.31126E+00
 +1.15340E+01 -4.24776E+00 +1.21927E+01 -8.83818E-01 +1.18977E+01 +2.51838E+00 +1.06781E+01 +5.69506E+00
 +8.63424E+00 +8.40117E+00 +5.92969E+00 +1.04293E+01 +2.77848E+00 +1.16253E+01 -5.71676E-01 +1.19005E+01
 -3.85871E+00 +1.12378E+01 -6.82647E+00 +9.69306E+00 -9.24457E+00 +7.39033E+00 -1.09261E+01 +4.51223E+00
 -1.17421E+01 +1.28554E+00 -1.16313E+01 -2.03656E+00 -1.06046E+01 -5.19413E+00 -8.74438E+00 -7.94067E+00
