 Created: 19-Jan-2021
 $NMID
 ID='D:\BASISSIMULATI'
 FMTDAT='(8E13.5)'
 VOLUME=   1.00000E+00
 TRAMP=   1.00000E+00
 $END
 +2.05338E+01 +2.32154E-02 +1.89198E+01 +2.64551E+00 +1.45937E+01 +5.36835E+00 +8.68029E+00 +8.13045E+00
 +2.63099E+00 +1.05896E+01 -2.22608E+00 +1.21920E+01 -5.06311E+00 +1.23823E+01 -5.73085E+00 +1.08663E+01
 -4.69438E+00 +7.80507E+00 -2.77559E+00 +3.84545E+00 -8.19565E-01 -4.29058E-02 +5.82272E-01 -2.87140E+00
 +1.21780E+00 -3.96272E+00 +1.20700E+00 -3.17881E+00 +8.34600E-01 -9.57719E-01 +3.58505E-01 +1.85357E+00
 -1.13074E-01 +4.30225E+00 -6.28169E-01 +5.64963E+00 -1.29623E+00 +5.58764E+00 -2.15717E+00 +4.27985E+00
 -3.09414E+00 +2.22926E+00 -3.84348E+00 +4.41586E-02 -4.10203E+00 -1.79268E+00 -3.67922E+00 -3.05964E+00
 -2.61430E+00 -3.79613E+00 -1.19261E+00 -4.19069E+00 +1.58263E-01 -4.42920E+00 +1.05212E+00 -4.58469E+00
 +1.32516E+00 -4.60095E+00 +1.12712E+00 -4.36786E+00 +8.72254E-01 -3.83724E+00 +1.06280E+00 -3.10561E+00
 +2.05745E+00 -2.40783E+00 +3.88710E+00 -2.01325E+00 +6.20390E+00 -2.07062E+00 +8.39372E+00 -2.48192E+00
 +9.81053E+00 -2.88044E+00 +1.00354E+01 -2.74425E+00 +9.04883E+00 -1.61234E+00 +7.23958E+00 +6.84018E-01
 +5.24353E+00 +3.88026E+00 +3.67915E+00 +7.30405E+00 +2.89276E+00 +1.00767E+01 +2.82357E+00 +1.14232E+01
 +3.04735E+00 +1.09710E+01 +2.98012E+00 +8.91418E+00 +2.15312E+00 +5.96691E+00 +4.38916E-01 +3.11572E+00
 -1.87131E+00 +1.26050E+00 -4.17426E+00 +8.83543E-01 -5.80014E+00 +1.87692E+00 -6.29162E+00 +3.59690E+00
 -5.59565E+00 +5.12343E+00 -4.08522E+00 +5.62144E+00 -2.40177E+00 +4.66132E+00 -1.18640E+00 +2.37512E+00
 -8.15927E-01 -6.06818E-01 -1.25685E+00 -3.40535E+00 -2.09840E+00 -5.22286E+00 -2.74815E+00 -5.62275E+00
 -2.70345E+00 -4.65460E+00 -1.78031E+00 -2.78993E+00 -2.00966E-01 -7.11686E-01 +1.49645E+00 +9.45146E-01
 +2.68591E+00 +1.79462E+00 +2.92065E+00 +1.77203E+00 +2.12600E+00 +1.06977E+00 +6.38490E-01 -1.05142E-02
 -9.21655E-01 -1.20640E+00 -1.88741E+00 -2.37185E+00 -1.79121E+00 -3.45608E+00 -5.22125E-01 -4.41196E+00
 +1.66117E+00 -5.09993E+00 +4.25274E+00 -5.25598E+00 +6.69235E+00 -4.55803E+00 +8.54158E+00 -2.77149E+00
 +9.57341E+00 +9.20387E-02 +9.75423E+00 +3.68548E+00 +9.15104E+00 +7.36484E+00 +7.83079E+00 +1.03596E+01
 +5.81619E+00 +1.20181E+01 +3.12617E+00 +1.20313E+01 -1.22940E-01 +1.05425E+01 -3.61970E+00 +8.09171E+00
 -6.83586E+00 +5.41469E+00 -9.12219E+00 +3.17537E+00 -9.90673E+00 +1.74191E+00 -8.92412E+00 +1.09599E+00
 -6.37610E+00 +9.08236E-01 -2.93942E+00 +7.40172E-01 +4.06585E-01 +2.78276E-01 +2.68520E+00 -5.07122E-01
 +3.25283E+00 -1.35039E+00 +2.02761E+00 -1.83133E+00 -4.77393E-01 -1.60254E+00 -3.33624E+00 -5.96635E-01
 -5.54251E+00 +8.87008E-01 -6.36648E+00 +2.26436E+00 -5.60100E+00 +2.89066E+00 -3.60444E+00 +2.33403E+00
 -1.13016E+00 +5.80761E-01 +9.83349E-01 -1.92083E+00 +2.13482E+00 -4.40421E+00 +2.16774E+00 -6.06325E+00
 +1.38784E+00 -6.35486E+00 +3.95453E-01 -5.20296E+00 -1.87096E-01 -3.02139E+00 +2.54602E-02 -5.47681E-01
 +1.04137E+00 +1.44314E+00 +2.52010E+00 +2.42799E+00 +3.94366E+00 +2.31359E+00 +4.84688E+00 +1.43741E+00
 +5.00291E+00 +4.00954E-01 +4.48745E+00 -1.87481E-01 +3.60367E+00 +4.90243E-02 +2.71372E+00 +1.13143E+00
 +2.06157E+00 +2.75421E+00 +1.67067E+00 +4.44167E+00 +1.36000E+00 +5.75234E+00 +8.63971E-01 +6.43932E+00
 -7.86599E-03 +6.50258E+00 -1.25232E+00 +6.12397E+00 -2.65453E+00 +5.53100E+00 -3.87949E+00 +4.86510E+00
 -4.62821E+00 +4.12199E+00 -4.78139E+00 +3.19089E+00 -4.45835E+00 +1.96655E+00 -3.95952E+00 +4.69283E-01
 -3.61694E+00 -1.09767E+00 -3.62340E+00 -2.39328E+00 -3.92415E+00 -3.07445E+00 -4.22836E+00 -2.96150E+00
 -4.14241E+00 -2.15173E+00 -3.36853E+00 -1.01743E+00 -1.87756E+00 -7.54652E-02 +2.86971E-02 +2.23901E-01
 +1.80408E+00 -3.00798E-01 +2.86577E+00 -1.46225E+00 +2.83851E+00 -2.76004E+00 +1.72958E+00 -3.57906E+00
 -4.60584E-02 -3.45307E+00 -1.80916E+00 -2.28223E+00 -2.87436E+00 -4.07229E-01 -2.81820E+00 +1.50031E+00
 -1.64531E+00 +2.69443E+00 +2.18109E-01 +2.65767E+00 +2.10192E+00 +1.32608E+00 +3.36688E+00 -8.58929E-01
 +3.66126E+00 -3.09804E+00 +3.05178E+00 -4.52556E+00 +1.97489E+00 -4.53085E+00 +1.03123E+00 -2.98316E+00
 +7.12842E-01 -2.73546E-01 +1.18050E+00 +2.83832E+00 +2.18651E+00 +5.50615E+00 +3.17528E+00 +7.09320E+00
 +3.51823E+00 +7.36743E+00 +2.78298E+00 +6.52764E+00 +9.23891E-01 +5.06505E+00 -1.68435E+00 +3.53157E+00
 -4.38098E+00 +2.31880E+00 -6.46244E+00 +1.53834E+00 -7.43309E+00 +1.04288E+00 -7.16330E+00 +5.62461E-01
 -5.89842E+00 -1.19060E-01 -4.12736E+00 -1.03458E+00 -2.37691E+00 -2.01079E+00 -1.02346E+00 -2.75697E+00
 -1.97655E-01 -3.01695E+00 +1.90616E-01 -2.70650E+00 +3.36256E-01 -1.96753E+00 +4.00369E-01 -1.11168E+00
 +4.21706E-01 -4.80472E-01 +3.19783E-01 -2.89434E-01 -1.87952E-02 -5.32102E-01 -6.23548E-01 -9.91177E-01
 -1.36250E+00 -1.35271E+00 -1.95445E+00 -1.36895E+00 -2.07608E+00 -9.90549E-01 -1.51844E+00 -4.01564E-01
 -3.16953E-01 +6.42981E-02 +1.21529E+00 +9.07190E-02 +2.58039E+00 -4.48475E-01 +3.28611E+00 -1.39536E+00
 +3.05639E+00 -2.34449E+00 +1.96834E+00 -2.80313E+00 +4.48142E-01 -2.40966E+00 -8.83371E-01 -1.11384E+00
 -1.45872E+00 +7.66143E-01 -1.00417E+00 +2.64410E+00 +3.30378E-01 +3.88962E+00 +2.01238E+00 +4.08486E+00
 +3.32788E+00 +3.20528E+00 +3.66446E+00 +1.64378E+00 +2.76067E+00 +6.20286E-02 +8.18579E-01 -8.73963E-01
 -1.56862E+00 -7.66467E-01 -3.64520E+00 +3.46339E-01 -4.78454E+00 +1.99869E+00 -4.72492E+00 +3.47980E+00
 -3.65454E+00 +4.11661E+00 -2.11484E+00 +3.54157E+00 -7.66468E-01 +1.83706E+00 -1.18144E-01 -4.99689E-01
 -3.30946E-01 -2.75297E+00 -1.17554E+00 -4.26270E+00 -2.15323E+00 -4.66375E+00 -2.72263E+00 -3.99697E+00
 -2.53224E+00 -2.65531E+00 -1.56082E+00 -1.19805E+00 -1.11877E-01 -1.18786E-01 +1.32728E+00 +3.33843E-01
 +2.29378E+00 +2.13349E-01 +2.53212E+00 -2.01547E-01 +2.07573E+00 -5.70750E-01 +1.20039E+00 -6.61861E-01
 +2.80691E-01 -4.46948E-01 -3.78093E-01 -8.85204E-02 -6.54973E-01 +1.69259E-01 -6.27121E-01 +1.43922E-01
 -4.85912E-01 -1.81383E-01 -4.05224E-01 -6.45130E-01 -4.33193E-01 -9.90915E-01 -4.64265E-01 -1.00384E+00
 -3.06217E-01 -6.29686E-01 +1.92699E-01 -1.43658E-02 +1.02383E+00 +5.59986E-01 +1.97235E+00 +8.14788E-01
 +2.67835E+00 +6.23668E-01 +2.78571E+00 +9.50960E-02 +2.11372E+00 -4.57729E-01 +7.69928E-01 -6.54129E-01
 -8.55961E-01 -2.32355E-01 -2.22623E+00 +8.00642E-01 -2.86760E+00 +2.13075E+00 -2.57292E+00 +3.23773E+00
 -1.50224E+00 +3.60155E+00 -1.32637E-01 +2.92973E+00 +9.29468E-01 +1.30652E+00 +1.19929E+00 -8.06680E-01
 +5.22940E-01 -2.72891E+00 -8.45877E-01 -3.81684E+00 -2.33860E+00 -3.71812E+00 -3.29963E+00 -2.51547E+00
 -3.25673E+00 -6.99372E-01 -2.12172E+00 +1.02244E+00 -2.36868E-01 +2.00268E+00 +1.75365E+00 +1.90652E+00
 +3.15531E+00 +8.35696E-01 +3.49466E+00 -7.24245E-01 +2.69984E+00 -2.10919E+00 +1.11847E+00 -2.74745E+00
 -6.31007E-01 -2.38459E+00 -1.90939E+00 -1.17218E+00 -2.30366E+00 +4.10630E-01 -1.77093E+00 +1.76340E+00
 -6.26201E-01 +2.40830E+00 +6.12165E-01 +2.16967E+00 +1.44712E+00 +1.21931E+00 +1.60015E+00 -2.22319E-02
 +1.10119E+00 -1.07691E+00 +2.41811E-01 -1.60584E+00 -5.76904E-01 -1.52747E+00 -1.02729E+00 -1.01386E+00
 -9.86166E-01 -3.77874E-01 -5.60513E-01 +8.78617E-02 -5.93157E-03 +2.42568E-01 +4.14806E-01 +1.40533E-01
 +5.60782E-01 -2.72505E-02 +4.67638E-01 -5.68252E-02 +3.05386E-01 +1.46070E-01 +2.65673E-01 +5.08103E-01
 +4.39765E-01 +8.24986E-01 +7.52741E-01 +8.74171E-01 +9.91061E-01 +5.45893E-01 +9.13368E-01 -7.62545E-02
 +3.90961E-01 -7.31146E-01 -4.93907E-01 -1.09187E+00 -1.44728E+00 -9.24690E-01 -2.07105E+00 -2.19853E-01
 -2.03718E+00 +7.72896E-01 -1.25129E+00 +1.63001E+00 +7.27313E-02 +1.93134E+00 +1.46998E+00 +1.45391E+00
 +2.39902E+00 +2.94492E-01 +2.46471E+00 -1.14035E+00 +1.59455E+00 -2.28196E+00 +8.89433E-02 -2.62921E+00
 -1.48343E+00 -1.96507E+00 -2.50755E+00 -4.65940E-01 -2.57221E+00 +1.34799E+00 -1.64384E+00 +2.80708E+00
 -8.91268E-02 +3.35484E+00 +1.46643E+00 +2.77163E+00 +2.38808E+00 +1.26629E+00 +2.28758E+00 -6.03712E-01
 +1.18004E+00 -2.15184E+00 -5.22522E-01 -2.83246E+00 -2.17736E+00 -2.45100E+00 -3.16721E+00 -1.22994E+00
 -3.14094E+00 +2.93235E-01 -2.14120E+00 +1.49037E+00 -5.70827E-01 +1.89454E+00 +9.82467E-01 +1.37620E+00
 +1.98578E+00 +1.75383E-01 +2.16435E+00 -1.21605E+00 +1.58741E+00 -2.26580E+00 +6.08731E-01 -2.61363E+00
 -3.03836E-01 -2.19751E+00 -7.70577E-01 -1.24742E+00 -6.46416E-01 -1.59967E-01 -5.39451E-02 +6.82842E-01
 +7.01458E-01 +1.06796E+00 +1.28684E+00 +1.01399E+00 +1.49181E+00 +7.23175E-01 +1.30590E+00 +4.55360E-01
 +8.93842E-01 +3.90017E-01 +4.88933E-01 +5.43865E-01 +2.62750E-01 +7.80737E-01 +2.37953E-01 +9.03451E-01
 +2.87045E-01 +7.76883E-01 +2.15666E-01 +4.16559E-01 -1.14063E-01 -5.19352E-03 -6.85690E-01 -2.41833E-01
 -1.31019E+00 -1.04807E-01 -1.70279E+00 +4.20948E-01 -1.62252E+00 +1.13977E+00 -1.00829E+00 +1.71257E+00
 -4.22019E-02 +1.80485E+00 +8.98953E-01 +1.25056E+00 +1.39176E+00 +1.54246E-01 +1.15352E+00 -1.12254E+00
 +1.85438E-01 -2.09439E+00 -1.19767E+00 -2.35370E+00 -2.47332E+00 -1.75529E+00 -3.11605E+00 -5.00631E-01
 -2.81754E+00 +9.21769E-01 -1.62814E+00 +1.92221E+00 +4.50417E-02 +2.04858E+00 +1.58886E+00 +1.17874E+00
 +2.42587E+00 -4.16455E-01 +2.24870E+00 -2.16985E+00 +1.14966E+00 -3.43815E+00 -4.10084E-01 -3.75654E+00
 -1.78089E+00 -3.02299E+00 -2.38173E+00 -1.53643E+00 -1.92921E+00 +1.27097E-01 -5.45758E-01 +1.34832E+00
 +1.29488E+00 +1.71206E+00 +2.95955E+00 +1.16665E+00 +3.90350E+00 +3.23426E-02 +3.87238E+00 -1.14064E+00
 +2.97870E+00 -1.80197E+00 +1.62844E+00 -1.62204E+00 +3.36134E-01 -6.14338E-01 -4.88322E-01 +8.85749E-01
 -6.91116E-01 +2.36914E+00 -4.05216E-01 +3.36005E+00 +4.33085E-02 +3.59310E+00 +3.03320E-01 +3.09039E+00
 +1.61797E-01 +2.11553E+00 -3.69751E-01 +1.03614E+00 -1.07878E+00 +1.63023E-01 -1.66668E+00 -3.61321E-01
 -1.89602E+00 -5.80930E-01 -1.69953E+00 -6.54093E-01 -1.20125E+00 -7.35999E-01 -6.44701E-01 -8.80331E-01
 -2.66780E-01 -1.01072E+00 -1.81645E-01 -9.75183E-01 -3.31823E-01 -6.53011E-01 -5.29880E-01 -5.55094E-02
 -5.68601E-01 +6.36970E-01 -3.43047E-01 +1.12881E+00 +7.92164E-02 +1.13559E+00 +4.79173E-01 +5.26608E-01
