 Created: 19-Jan-2021
 $NMID
 ID='D:\BASISSIMULATI'
 FMTDAT='(8E13.5)'
 VOLUME=   1.00000E+00
 TRAMP=   1.00000E+00
 $END
 +1.87495E+01 +2.11801E-02 +1.70231E+01 +3.12741E+00 +1.24365E+01 +5.95866E+00 +6.14245E+00 +8.25058E+00
 -3.53588E-01 +9.69098E+00 -5.63222E+00 +9.97977E+00 -8.74241E+00 +8.94316E+00 -9.40910E+00 +6.65078E+00
 -8.01341E+00 +3.47242E+00 -5.37503E+00 +2.96352E-02 -2.43214E+00 -2.95957E+00 +6.04193E-02 -4.89591E+00
 +1.71442E+00 -5.49400E+00 +2.52894E+00 -4.87739E+00 +2.77096E+00 -3.52766E+00 +2.78803E+00 -2.09865E+00
 +2.84100E+00 -1.16281E+00 +3.02142E+00 -9.87952E-01 +3.27202E+00 -1.43479E+00 +3.47866E+00 -2.02000E+00
 +3.57305E+00 -2.12395E+00 +3.58701E+00 -1.26244E+00 +3.62972E+00 +6.86412E-01 +3.80218E+00 +3.39413E+00
 +4.09831E+00 +6.17294E+00 +4.35187E+00 +8.21509E+00 +4.26813E+00 +8.88964E+00 +3.53875E+00 +7.98119E+00
 +1.99526E+00 +5.77666E+00 -2.67656E-01 +2.96487E+00 -2.86152E+00 +3.87140E-01 -5.19274E+00 -1.26493E+00
 -6.64686E+00 -1.68849E+00 -6.80123E+00 -1.05506E+00 -5.58224E+00 +8.62416E-02 -3.30162E+00 +1.04538E+00
 -5.53352E-01 +1.27239E+00 +1.99123E+00 +5.72673E-01 +3.81026E+00 -8.24326E-01 +4.69087E+00 -2.36368E+00
 +4.75959E+00 -3.38591E+00 +4.37573E+00 -3.37996E+00 +3.93695E+00 -2.17021E+00 +3.68328E+00 +2.89856E-02
 +3.58602E+00 +2.70217E+00 +3.37135E+00 +5.21980E+00 +2.66945E+00 +7.04407E+00 +1.22431E+00 +7.87488E+00
 -9.29984E-01 +7.69026E+00 -3.40978E+00 +6.68367E+00 -5.57555E+00 +5.14345E+00 -6.75084E+00 +3.33795E+00
 -6.48380E+00 +1.45746E+00 -4.74624E+00 -3.70969E-01 -1.98560E+00 -2.02063E+00 +9.99033E-01 -3.30496E+00
 +3.31696E+00 -3.96998E+00 +4.28776E+00 -3.76133E+00 +3.67290E+00 -2.54616E+00 +1.75121E+00 -4.34633E-01
 -7.88574E-01 +2.16562E+00 -3.09528E+00 +4.60816E+00 -4.44879E+00 +6.18040E+00 -4.49136E+00 +6.33926E+00
 -3.31677E+00 +4.92403E+00 -1.39502E+00 +2.25845E+00 +6.26631E-01 -9.10429E-01 +2.16141E+00 -3.62930E+00
 +2.86740E+00 -5.04316E+00 +2.71567E+00 -4.68107E+00 +1.93173E+00 -2.61908E+00 +8.52030E-01 +5.40967E-01
 -2.32212E-01 +3.87108E+00 -1.17469E+00 +6.42336E+00 -1.98068E+00 +7.53252E+00 -2.73101E+00 +7.00802E+00
 -3.47266E+00 +5.15289E+00 -4.13887E+00 +2.61334E+00 -4.54506E+00 +1.26068E-01 -4.46724E+00 -1.73583E+00
 -3.76693E+00 -2.72374E+00 -2.49988E+00 -2.93039E+00 -9.48851E-01 -2.67282E+00 +4.47521E-01 -2.30490E+00
 +1.25031E+00 -2.04660E+00 +1.19957E+00 -1.90300E+00 +3.39765E-01 -1.70150E+00 -9.69004E-01 -1.22098E+00
 -2.16945E+00 -3.45721E-01 -2.71611E+00 +8.32818E-01 -2.29483E+00 +2.01821E+00 -9.63645E-01 +2.81870E+00
 +8.46374E-01 +2.91764E+00 +2.47731E+00 +2.22849E+00 +3.28522E+00 +9.61932E-01 +2.88375E+00 -4.30844E-01
 +1.29537E+00 -1.42204E+00 -1.04969E+00 -1.61429E+00 -3.46728E+00 -9.06356E-01 -5.26611E+00 +4.52393E-01
 -5.99145E+00 +1.94414E+00 -5.57219E+00 +2.97115E+00 -4.31733E+00 +3.07721E+00 -2.76883E+00 +2.11510E+00
 -1.47469E+00 +2.95739E-01 -7.75817E-01 -1.89669E+00 -6.91562E-01 -3.88566E+00 -9.45596E-01 -5.20394E+00
 -1.11487E+00 -5.63590E+00 -8.34098E-01 -5.24888E+00 +3.24916E-02 -4.31127E+00 +1.32398E+00 -3.14278E+00
 +2.64579E+00 -1.96939E+00 +3.53296E+00 -8.49185E-01 +3.64220E+00 +3.00441E-01 +2.89066E+00 +1.59221E+00
 +1.48456E+00 +3.03367E+00 -1.71276E-01 +4.43911E+00 -1.64061E+00 +5.44099E+00 -2.62552E+00 +5.60823E+00
 -3.06580E+00 +4.62844E+00 -3.12734E+00 +2.47719E+00 -3.08892E+00 -5.03802E-01 -3.18194E+00 -3.66481E+00
 -3.45810E+00 -6.23350E+00 -3.74767E+00 -7.56458E+00 -3.73013E+00 -7.36107E+00 -3.08848E+00 -5.78091E+00
 -1.67947E+00 -3.38484E+00 +3.57638E-01 -9.41946E-01 +2.60683E+00 +8.35673E-01 +4.50105E+00 +1.53024E+00
 +5.52161E+00 +1.14062E+00 +5.39189E+00 +4.79427E-02 +4.18602E+00 -1.15580E+00 +2.30638E+00 -1.90474E+00
 +3.36794E-01 -1.86808E+00 -1.17083E+00 -1.05299E+00 -1.89167E+00 +2.30545E-01 -1.82794E+00 +1.51809E+00
 -1.27638E+00 +2.38405E+00 -6.80408E-01 +2.59797E+00 -4.31252E-01 +2.18334E+00 -7.01864E-01 +1.36396E+00
 -1.38174E+00 +4.32243E-01 -2.13689E+00 -3.94034E-01 -2.56578E+00 -1.05891E+00 -2.38179E+00 -1.66093E+00
 -1.54272E+00 -2.35874E+00 -2.71910E-01 -3.23919E+00 +1.03707E+00 -4.21594E+00 +1.98929E+00 -5.01440E+00
 +2.35650E+00 -5.25949E+00 +2.17040E+00 -4.63491E+00 +1.69963E+00 -3.04636E+00 +1.32020E+00 -7.14371E-01
 +1.33549E+00 +1.85246E+00 +1.82531E+00 +4.00439E+00 +2.59207E+00 +5.16725E+00 +3.23127E+00 +5.04658E+00
 +3.30033E+00 +3.73821E+00 +2.51646E+00 +1.69893E+00 +9.00207E-01 -4.14305E-01 -1.19850E+00 -1.97636E+00
 -3.20698E+00 -2.60844E+00 -4.53013E+00 -2.29386E+00 -4.76625E+00 -1.35378E+00 -3.85327E+00 -2.97373E-01
 -2.08806E+00 +3.89651E-01 -1.26762E-02 +4.32292E-01 +1.78573E+00 -1.43762E-01 +2.88092E+00 -1.04982E+00
 +3.13947E+00 -1.87648E+00 +2.73090E+00 -2.27527E+00 +2.01993E+00 -2.10109E+00 +1.39242E+00 -1.45695E+00
 +1.09175E+00 -6.27003E-01 +1.13373E+00 +6.70078E-02 +1.33176E+00 +4.18387E-01 +1.41407E+00 +4.27206E-01
 +1.17529E+00 +2.89894E-01 +5.90616E-01 +2.92108E-01 -1.60846E-01 +6.54479E-01 -7.75011E-01 +1.40306E+00
 -9.68523E-01 +2.32668E+00 -6.24295E-01 +3.04577E+00 +1.31779E-01 +3.16792E+00 +9.62636E-01 +2.46570E+00
 +1.45259E+00 +9.99265E-01 +1.28745E+00 -8.72696E-01 +4.05483E-01 -2.60517E+00 -9.48425E-01 -3.66170E+00
 -2.29450E+00 -3.71564E+00 -3.09255E+00 -2.77689E+00 -2.95222E+00 -1.19157E+00 -1.79475E+00 +4.86592E-01
 +1.00147E-01 +1.70331E+00 +2.18384E+00 +2.10723E+00 +3.83152E+00 +1.67043E+00 +4.56375E+00 +6.80310E-01
 +4.21115E+00 -3.90056E-01 +2.96008E+00 -1.07757E+00 +1.26524E+00 -1.11006E+00 -3.31767E-01 -5.00495E-01
 -1.40294E+00 +4.79384E-01 -1.77404E+00 +1.42920E+00 -1.55284E+00 +1.99433E+00 -1.04242E+00 +2.00906E+00
 -5.83875E-01 +1.54926E+00 -4.00234E-01 +8.76427E-01 -5.09186E-01 +3.02643E-01 -7.38962E-01 +4.01049E-02
 -8.34895E-01 +1.03959E-01 -6.03708E-01 +3.12398E-01 -2.64536E-02 +3.83578E-01 +7.14109E-01 +8.48581E-02
 +1.30677E+00 -6.34612E-01 +1.45459E+00 -1.59095E+00 +1.02314E+00 -2.42108E+00 +1.25417E-01 -2.72777E+00
 -8.99573E-01 -2.25473E+00 -1.61203E+00 -1.01622E+00 -1.65186E+00 +6.77653E-01 -8.99637E-01 +2.31672E+00
 +4.51844E-01 +3.37371E+00 +1.95017E+00 +3.50308E+00 +3.04424E+00 +2.67571E+00 +3.29221E+00 +1.19422E+00
 +2.53444E+00 -4.18909E-01 +9.61892E-01 -1.61685E+00 -9.48296E-01 -2.03038E+00 -2.60528E+00 -1.59718E+00
 -3.51753E+00 -5.69234E-01 -3.46336E+00 +6.01004E-01 -2.55439E+00 +1.44644E+00 -1.17130E+00 +1.66639E+00
 +1.97010E-01 +1.23060E+00 +1.14278E+00 +3.68051E-01 +1.48026E+00 -5.48570E-01 +1.28496E+00 -1.16905E+00
 +8.22524E-01 -1.30983E+00 +4.05389E-01 -1.01574E+00 +2.43923E-01 -5.16825E-01 +3.58121E-01 -1.04196E-01
 +5.86442E-01 +1.61631E-02 +6.83738E-01 -1.75984E-01 +4.59984E-01 -5.06151E-01 -1.06711E-01 -6.92242E-01
 -8.37656E-01 -4.88359E-01 -1.42013E+00 +1.80526E-01 -1.54615E+00 +1.15643E+00 -1.06276E+00 +2.09135E+00
 -6.51023E-02 +2.58216E+00 +1.11364E+00 +2.34271E+00 +2.01821E+00 +1.33999E+00 +2.24967E+00 -1.66611E-01
 +1.63401E+00 -1.70454E+00 +3.09759E-01 -2.75870E+00 -1.30545E+00 -2.96679E+00 -2.66032E+00 -2.26123E+00
 -3.27269E+00 -8.99427E-01 -2.91017E+00 +6.31103E-01 -1.67765E+00 +1.79591E+00 +2.28370E-02 +2.21278E+00
 +1.64312E+00 +1.78855E+00 +2.69047E+00 +7.41144E-01 +2.90031E+00 -4.98705E-01 +2.31415E+00 -1.46320E+00
 +1.23692E+00 -1.82795E+00 +9.69462E-02 -1.52505E+00 -7.29666E-01 -7.46677E-01 -1.05697E+00 +1.56102E-01
 -9.35425E-01 +8.31526E-01 -5.93643E-01 +1.07272E+00 -3.07938E-01 +8.89505E-01 -2.61879E-01 +4.79382E-01
 -4.59931E-01 +1.15752E-01 -7.33150E-01 +7.12861E-03 -8.32381E-01 +1.92958E-01 -5.64429E-01 +5.24050E-01
 +9.33549E-02 +7.36890E-01 +9.55654E-01 +5.88201E-01 +1.69059E+00 -1.19996E-02 +1.95715E+00 -9.31569E-01
 +1.56064E+00 -1.84725E+00 +5.57301E-01 -2.36761E+00 -7.41394E-01 -2.19883E+00 -1.87301E+00 -1.28293E+00
 -2.39895E+00 +1.52730E-01 -2.08043E+00 +1.66091E+00 -9.83094E-01 +2.73327E+00 +5.34728E-01 +2.99133E+00
 +1.94873E+00 +2.33359E+00 +2.76225E+00 +9.78811E-01 +2.69107E+00 -6.12955E-01 +1.76713E+00 -1.91122E+00
 +3.21245E-01 -2.51038E+00 -1.14661E+00 -2.27288E+00 -2.15617E+00 -1.36555E+00 -2.41971E+00 -1.77965E-01
 -1.93205E+00 +8.40262E-01 -9.46820E-01 +1.35541E+00 +1.45099E-01 +1.26760E+00 +9.79835E-01 +7.26325E-01
 +1.35771E+00 +4.30370E-02 +1.29845E+00 -4.56676E-01 +9.97000E-01 -5.75275E-01 +7.06147E-01 -3.18819E-01
 +6.03007E-01 +1.23899E-01 +7.01383E-01 +4.85191E-01 +8.49732E-01 +5.55325E-01 +8.14654E-01 +2.88547E-01
 +4.10453E-01 -1.71097E-01 -3.86419E-01 -5.56993E-01 -1.39359E+00 -6.10738E-01 -2.27457E+00 -2.17223E-01
 -2.66848E+00 +5.19011E-01 -2.34440E+00 +1.29501E+00 -1.31356E+00 +1.72504E+00 +1.51725E-01 +1.50550E+00
 +1.60563E+00 +5.60136E-01 +2.59114E+00 -8.98219E-01 +2.81294E+00 -2.42070E+00 +2.25065E+00 -3.47495E+00
 +1.16518E+00 -3.64030E+00 -5.60382E-03 -2.76973E+00 -8.20399E-01 -1.05449E+00 -1.00730E+00 +1.03501E+00
 -5.66170E-01 +2.90978E+00 +2.40203E-01 +4.06275E+00 +1.00111E+00 +4.23300E+00 +1.33082E+00 +3.47385E+00
 +1.02793E+00 +2.10440E+00 +1.56212E-01 +5.70519E-01 -9.84306E-01 -7.24406E-01 -1.98191E+00 -1.55073E+00
 -2.47972E+00 -1.89748E+00 -2.31455E+00 -1.92193E+00 -1.57169E+00 -1.83559E+00 -5.35714E-01 -1.78365E+00
 +4.38148E-01 -1.77415E+00 +1.07464E+00 -1.68745E+00 +1.28581E+00 -1.35807E+00 +1.18979E+00 -6.86575E-01
 +1.03544E+00 +2.75141E-01 +1.06836E+00 +1.31022E+00 +1.39972E+00 +2.10729E+00 +1.93803E+00 +2.38794E+00
 +2.41635E+00 +2.03604E+00 +2.50573E+00 +1.16910E+00 +1.96720E+00 +1.14432E-01 +7.76228E-01 -7.07417E-01
 -8.35989E-01 -9.48673E-01 -2.44641E+00 -4.82704E-01 -3.58684E+00 +5.28493E-01 -3.91593E+00 +1.68013E+00
 -3.34737E+00 +2.47074E+00 -2.08220E+00 +2.49399E+00 -5.31943E-01 +1.60154E+00 +8.36440E-01 -2.79500E-02
 +1.67151E+00 -1.94217E+00 +1.85635E+00 -3.57128E+00 +1.53020E+00 -4.42695E+00 +1.00785E+00 -4.26826E+00
 +6.33868E-01 -3.17249E+00 +6.34157E-01 -1.48785E+00 +1.02615E+00 +3.08120E-01 +1.62250E+00 +1.78437E+00
 +2.12240E+00 +2.69597E+00 +2.24790E+00 +3.03532E+00 +1.86508E+00 +2.98200E+00 +1.03829E+00 +2.78134E+00
 -3.33725E-03 +2.61014E+00 -9.68869E-01 +2.49090E+00 -1.62983E+00 +2.29176E+00 -1.90901E+00 +1.80981E+00
