 Created: 19-Jan-2021
 $NMID
 ID='D:\BASISSIMULATI'
 FMTDAT='(8E13.5)'
 VOLUME=   1.00000E+00
 TRAMP=   1.00000E+00
 $END
 +7.29736E+00 +8.09229E-03 +6.18612E+00 +3.50609E+00 +3.28885E+00 +5.67475E+00 -2.39820E-01 +5.71861E+00
 -3.00142E+00 +3.69657E+00 -3.91656E+00 +4.95643E-01 -2.65827E+00 -2.52850E+00 +2.18588E-01 -4.09870E+00
 +3.50292E+00 -3.53078E+00 +5.81686E+00 -1.00812E+00 +6.17115E+00 +2.49358E+00 +4.36303E+00 +5.60020E+00
 +1.05659E+00 +7.09266E+00 -2.48569E+00 +6.39659E+00 -4.91151E+00 +3.81151E+00 -5.32207E+00 +3.87931E-01
 -3.63153E+00 -2.49722E+00 -5.98447E-01 -3.69528E+00 +2.48251E+00 -2.74708E+00 +4.30366E+00 -6.54576E-02
 +4.07112E+00 +3.23370E+00 +1.82335E+00 +5.78272E+00 -1.58616E+00 +6.51355E+00 -4.83400E+00 +5.08691E+00
 -6.66005E+00 +2.02708E+00 -6.37346E+00 -1.49104E+00 -4.12821E+00 -4.11575E+00 -8.58043E-01 -4.86194E+00
 +2.10188E+00 -3.50507E+00 +3.55333E+00 -6.68092E-01 +2.91641E+00 +2.43287E+00 +4.60472E-01 +4.48040E+00
 -2.80739E+00 +4.58673E+00 -5.55016E+00 +2.64982E+00 -6.64003E+00 -6.07727E-01 -5.61138E+00 -3.93168E+00
 -2.84580E+00 -6.04176E+00 +5.84095E-01 -6.14577E+00 +3.34804E+00 -4.25553E+00 +4.39320E+00 -1.17836E+00
 +3.36557E+00 +1.81110E+00 +7.48556E-01 +3.48548E+00 -2.33555E+00 +3.15810E+00 -4.58022E+00 +9.56747E-01
 -5.02139E+00 -2.23110E+00 -3.42416E+00 -5.11840E+00 -3.74739E-01 -6.53766E+00 +2.95821E+00 -5.90978E+00
 +5.29515E+00 -3.47427E+00 +5.75969E+00 -1.89490E-01 +4.22812E+00 +2.65548E+00 +1.37493E+00 +3.95986E+00
 -1.60262E+00 +3.25206E+00 -3.46862E+00 +8.75433E-01 -3.44562E+00 -2.15436E+00 -1.52503E+00 -4.56148E+00
 +1.53313E+00 -5.32454E+00 +4.50942E+00 -4.08632E+00 +6.21721E+00 -1.29450E+00 +5.97918E+00 +1.98180E+00
 +3.89665E+00 +4.48414E+00 +8.04809E-01 +5.27055E+00 -2.06665E+00 +4.09145E+00 -3.58929E+00 +1.48539E+00
 -3.18827E+00 -1.44233E+00 -1.06957E+00 -3.46738E+00 +1.86767E+00 -3.73926E+00 +4.39688E+00 -2.12120E+00
 +5.45914E+00 +7.58869E-01 +4.58802E+00 +3.76470E+00 +2.09389E+00 +5.71092E+00 -1.06488E+00 +5.83908E+00
 -3.67014E+00 +4.11948E+00 -4.73398E+00 +1.25841E+00 -3.89327E+00 -1.59005E+00 -1.55078E+00 -3.29007E+00
 +1.29204E+00 -3.17982E+00 +3.44170E+00 -1.33377E+00 +3.99352E+00 +1.47236E+00 +2.69344E+00 +4.07809E+00
 +3.59927E-02 +5.40706E+00 -2.93890E+00 +4.89893E+00 -5.06683E+00 +2.73122E+00 -5.52678E+00 -2.56636E-01
 -4.16799E+00 -2.90432E+00 -1.56545E+00 -4.19802E+00 +1.21617E+00 -3.67565E+00 +3.05338E+00 -1.60765E+00
 +3.21511E+00 +1.11749E+00 +1.65306E+00 +3.35490E+00 -9.84178E-01 +4.16523E+00 -3.61693E+00 +3.19049E+00
 -5.17116E+00 +7.93718E-01 -5.00969E+00 -2.09185E+00 -3.18472E+00 -4.34126E+00 -4.11778E-01 -5.09030E+00
 +2.22217E+00 -4.07972E+00 +3.69729E+00 -1.75410E+00 +3.46895E+00 +9.22448E-01 +1.68169E+00 +2.85742E+00
 -8.94877E-01 +3.26924E+00 -3.18056E+00 +1.99821E+00 -4.22091E+00 -4.34774E-01 -3.56942E+00 -3.04299E+00
 -1.46262E+00 -4.77378E+00 +1.28025E+00 -4.93138E+00 +3.59054E+00 -3.45300E+00 +4.58044E+00 -9.28551E-01
 +3.89701E+00 +1.64142E+00 +1.85840E+00 +3.25028E+00 -6.80042E-01 +3.28856E+00 -2.67389E+00 +1.78420E+00
 -3.31026E+00 -6.14969E-01 -2.33166E+00 -2.90717E+00 -1.33945E-01 -4.14205E+00 +2.39856E+00 -3.80151E+00
 +4.25226E+00 -2.00358E+00 +4.69184E+00 +5.50719E-01 +3.55226E+00 +2.86372E+00 +1.29931E+00 +4.04345E+00
 -1.16322E+00 +3.65964E+00 -2.85990E+00 +1.91106E+00 -3.13498E+00 -4.60852E-01 -1.91156E+00 -2.47494E+00
 +2.84020E-01 -3.30615E+00 +2.53965E+00 -2.61463E+00 +3.92732E+00 -6.76839E-01 +3.87538E+00 +1.73173E+00
 +2.39396E+00 +3.65252E+00 +6.48584E-02 +4.32979E+00 -2.19746E+00 +3.51105E+00 -3.51546E+00 +1.54258E+00
 -3.39917E+00 -7.75983E-01 -1.93768E+00 -2.51680E+00 +2.43500E-01 -2.99673E+00 +2.23937E+00 -2.04782E+00
 +3.23127E+00 -7.83073E-02 +2.81384E+00 +2.09782E+00 +1.15256E+00 +3.59178E+00 -1.08925E+00 +3.79694E+00
 -3.02186E+00 +2.62842E+00 -3.88792E+00 +5.50958E-01 -3.36383E+00 -1.61367E+00 -1.68379E+00 -3.01967E+00
 +4.60993E-01 -3.13571E+00 +2.20465E+00 -1.95322E+00 +2.85527E+00 +1.71496E-02 +2.16940E+00 +1.95682E+00
 +4.43407E-01 +3.07104E+00 -1.61233E+00 +2.90672E+00 -3.16331E+00 +1.52927E+00 -3.58650E+00 -5.10395E-01
 -2.71685E+00 -2.40268E+00 -9.07141E-01 -3.40651E+00 +1.12007E+00 -3.14461E+00 +2.56635E+00 -1.74917E+00
 +2.87744E+00 +1.98289E-01 +1.96116E+00 +1.90584E+00 +2.17350E-01 +2.69077E+00 -1.62935E+00 +2.25084E+00
 -2.82410E+00 +7.79468E-01 -2.88421E+00 -1.11905E+00 -1.78812E+00 -2.67731E+00 +2.28705E-02 -3.27402E+00
 +1.82785E+00 -2.68016E+00 +2.91857E+00 -1.14447E+00 +2.88204E+00 +7.13217E-01 +1.76072E+00 +2.15532E+00
 +2.82667E-02 +2.62279E+00 -1.60671E+00 +1.95538E+00 -2.48742E+00 +4.48929E-01 -2.27036E+00 -1.27038E+00
 -1.05724E+00 -2.50173E+00 +6.53143E-01 -2.75088E+00 +2.17082E+00 -1.92407E+00 +2.89338E+00 -3.58727E-01
 +2.54496E+00 +1.31860E+00 +1.28066E+00 +2.44723E+00 -3.82886E-01 +2.59644E+00 -1.78003E+00 +1.73312E+00
 -2.36421E+00 +2.27738E-01 -1.92371E+00 -1.30094E+00 -6.59781E-01 -2.23723E+00 +9.01446E-01 -2.21407E+00
 +2.12504E+00 -1.25470E+00 +2.52261E+00 +2.44074E-01 +1.94430E+00 +1.67729E+00 +6.31966E-01 +2.47711E+00
 -8.84837E-01 +2.33840E+00 -2.00557E+00 +1.33510E+00 -2.29933E+00 -1.16844E-01 -1.67296E+00 -1.43213E+00
 -4.01112E-01 -2.09268E+00 +9.90914E-01 -1.85253E+00 +1.94171E+00 -8.29889E-01 +2.07813E+00 +5.47767E-01
 +1.35975E+00 +1.72071E+00 +8.76771E-02 +2.22275E+00 -1.22287E+00 +1.86475E+00 -2.05243E+00 +8.03722E-01
 -2.08407E+00 -5.27450E-01 -1.32479E+00 -1.59853E+00 -9.51619E-02 -1.99499E+00 +1.10548E+00 -1.58008E+00
 +1.80185E+00 -5.42448E-01 +1.73099E+00 +6.86789E-01 +9.41507E-01 +1.61137E+00 -2.33567E-01 +1.86876E+00
 -1.31631E+00 +1.37081E+00 -1.87750E+00 +3.31743E-01 -1.70589E+00 -8.24734E-01 -8.86298E-01 -1.63919E+00
 +2.41837E-01 -1.79979E+00 +1.22606E+00 -1.26199E+00 +1.68343E+00 -2.58934E-01 +1.45045E+00 +7.98753E-01
 +6.41631E-01 +1.49081E+00 -4.03871E-01 +1.55417E+00 -1.26328E+00 +9.82638E-01 -1.60021E+00 +2.17285E-02
 -1.29531E+00 -9.36204E-01 -4.86961E-01 -1.51183E+00 +4.91515E-01 -1.48865E+00 +1.24989E+00 -8.93557E-01
 +1.49722E+00 +2.15300E-02 +1.15370E+00 +8.86612E-01 +3.75213E-01 +1.36375E+00 -5.16158E-01 +1.27951E+00
 -1.16507E+00 +6.87861E-01 -1.32438E+00 -1.59105E-01 -9.48871E-01 -9.17692E-01 -2.05791E-01 -1.29156E+00
 +5.98931E-01 -1.14686E+00 +1.14650E+00 -5.58973E-01 +1.23140E+00 +2.25218E-01 +8.37916E-01 +8.91184E-01
 +1.38871E-01 +1.18326E+00 -5.80019E-01 +1.00287E+00 -1.03711E+00 +4.40780E-01 -1.06535E+00 -2.66495E-01
 -6.72944E-01 -8.35871E-01 -3.24240E-02 -1.05084E+00 +5.94394E-01 -8.43401E-01 +9.63157E-01 -3.13902E-01
 +9.41865E-01 +3.16192E-01 +5.57139E-01 +7.96799E-01 -2.39953E-02 +9.48431E-01 -5.66446E-01 +7.28770E-01
 -8.62341E-01 +2.42101E-01 -8.10647E-01 -3.09126E-01 -4.50711E-01 -7.08500E-01 +6.08966E-02 -8.10639E-01
 +5.17978E-01 -5.93608E-01 +7.47684E-01 -1.60131E-01 +6.75484E-01 +3.09829E-01 +3.47852E-01 +6.33578E-01
 -9.35340E-02 +6.96482E-01 -4.72821E-01 +4.91651E-01 -6.50066E-01 +1.15150E-01 -5.72467E-01 -2.78277E-01
 -2.88164E-01 -5.38900E-01 +7.99192E-02 -5.78921E-01 +3.86956E-01 -4.01042E-01 +5.23150E-01 -8.99502E-02
 +4.52376E-01 +2.26893E-01 +2.19211E-01 +4.31288E-01 -7.54385E-02 +4.57951E-01 -3.17717E-01 +3.13784E-01
 -4.24638E-01 +6.78510E-02 -3.71525E-01 -1.80990E-01 -1.94432E-01 -3.43941E-01 +3.03883E-02 -3.73536E-01
 +2.19306E-01 -2.75557E-01 +3.12344E-01 -9.96968E-02 +2.91009E-01 +8.44593E-02 +1.78290E-01 +2.14846E-01
 +2.38354E-02 +2.56954E-01 -1.17506E-01 +2.10427E-01 -2.04538E-01 +1.02512E-01 -2.19713E-01 -2.63064E-02
 -1.68893E-01 -1.37339E-01 -7.39305E-02 -2.03874E-01 +3.69200E-02 -2.14570E-01 +1.36588E-01 -1.71688E-01
 +2.03244E-01 -8.73845E-02 +2.21960E-01 +1.92900E-02 +1.86163E-01 +1.24280E-01 +1.00124E-01 +2.00861E-01
 -1.84744E-02 +2.24458E-01 -1.38674E-01 +1.80382E-01 -2.21851E-01 +7.22254E-02 -2.33302E-01 -7.34859E-02
 -1.56729E-01 -2.10727E-01 -5.56903E-03 -2.87035E-01 +1.75322E-01 -2.63143E-01 +3.21163E-01 -1.31856E-01
 +3.69942E-01 +7.26503E-02 +2.88509E-01 +2.81445E-01 +9.11196E-02 +4.13581E-01 -1.59167E-01 +4.07802E-01
 -3.69660E-01 +2.50786E-01 -4.52566E-01 -1.09109E-02 -3.62066E-01 -2.82694E-01 -1.18299E-01 -4.55558E-01
 +1.93668E-01 -4.49765E-01 +4.52307E-01 -2.51035E-01 +5.46419E-01 +7.69577E-02 +4.22243E-01 +4.11548E-01
 +1.10987E-01 +6.16543E-01 -2.76691E-01 +5.97456E-01 -5.89852E-01 +3.44091E-01 -6.96483E-01 -5.85088E-02
 -5.39506E-01 -4.57921E-01 -1.65850E-01 -6.92359E-01 +2.85584E-01 -6.56802E-01 +6.35005E-01 -3.50188E-01
 +7.33208E-01 +1.17336E-01 +5.25042E-01 +5.62777E-01 +7.79207E-02 +8.01245E-01 -4.38638E-01 +7.22008E-01
 -8.16900E-01 +3.38383E-01 -8.94247E-01 -2.10774E-01 -6.22519E-01 -7.11323E-01 -9.38596E-02 -9.57875E-01
 +4.89945E-01 -8.38615E-01 +8.94874E-01 -3.85862E-01 +9.49170E-01 +2.30244E-01 +6.16742E-01 +7.65096E-01
 +1.81646E-02 +9.96567E-01 -6.11780E-01 +8.17118E-01 -1.01540E+00 +2.82901E-01 -1.01676E+00 -4.02266E-01
 -5.97187E-01 -9.64251E-01 +9.06219E-02 -1.16802E+00 +7.78284E-01 -9.15454E-01 +1.18705E+00 -2.90820E-01
 +1.14144E+00 +4.66735E-01 +6.44862E-01 +1.05526E+00 -1.15359E-01 +1.23115E+00 -8.38019E-01 +9.10850E-01
 -1.22722E+00 +2.10454E-01 -1.11347E+00 -5.94900E-01 -5.27193E-01 -1.17818E+00 +3.07184E-01 -1.29237E+00
 +1.05658E+00 -8.73964E-01 +1.41186E+00 -7.47305E-02 +1.21474E+00 +7.93512E-01 +5.27044E-01 +1.38125E+00
 -3.87996E-01 +1.44272E+00 -1.16716E+00 +9.39144E-01 -1.49249E+00 +6.04731E-02 -1.22215E+00 -8.45681E-01
 -4.53102E-01 -1.41140E+00 +5.11986E-01 -1.39790E+00 +1.28263E+00 -7.96293E-01 +1.53738E+00 +1.62725E-01
 +1.15660E+00 +1.09664E+00 +2.76449E-01 +1.62309E+00 -7.60145E-01 +1.51560E+00 -1.53796E+00 +7.99673E-01
 -1.73675E+00 -2.51444E-01 -1.26378E+00 -1.22208E+00 -2.96906E-01 -1.71993E+00 +7.81666E-01 -1.53617E+00
 +1.53625E+00 -7.34541E-01 +1.65379E+00 +3.68564E-01 +1.07386E+00 +1.32731E+00 +1.88010E-02 +1.74498E+00
 -1.09067E+00 +1.43648E+00 -1.80238E+00 +5.08097E-01 -1.81587E+00 -6.79552E-01 -1.10773E+00 -1.65287E+00
 +5.33506E-02 -2.01544E+00 +1.20988E+00 -1.61058E+00 +1.89777E+00 -5.89648E-01 +1.83470E+00 +6.43627E-01
