 Created: 19-Jan-2021
 $NMID
 ID='D:\BASISSIMULATI'
 FMTDAT='(8E13.5)'
 VOLUME=   1.00000E+00
 TRAMP=   1.00000E+00
 $END
 +9.59389E+00 +1.08402E-02 +9.34803E+00 +1.91038E+00 +8.71329E+00 +3.70431E+00 +7.72449E+00 +5.31177E+00
 +6.43334E+00 +6.66229E+00 +4.90543E+00 +7.69923E+00 +3.21666E+00 +8.38249E+00 +1.44909E+00 +8.69025E+00
 -3.13432E-01 +8.61968E+00 -1.98962E+00 +8.18663E+00 -3.50492E+00 +7.42433E+00 -4.79514E+00 +6.38115E+00
 -5.80945E+00 +5.11766E+00 -6.51260E+00 +3.70306E+00 -6.88617E+00 +2.21133E+00 -6.92892E+00 +7.17190E-01
 -6.65619E+00 -7.07792E-01 -6.09837E+00 -1.99879E+00 -5.29874E+00 -3.10081E+00 -4.31062E+00 -3.97108E+00
 -3.19407E+00 -4.58072E+00 -2.01252E+00 -4.91559E+00 -8.29236E-01 -4.97624E+00 +2.95930E-01 -4.77713E+00
 +1.30949E+00 -4.34514E+00 +2.16674E+00 -3.71746E+00 +2.83356E+00 -2.93908E+00 +3.28758E+00 -2.06000E+00
 +3.51860E+00 -1.13234E+00 +3.52837E+00 -2.07526E-01 +3.32973E+00 +6.66299E-01 +2.94522E+00 +1.44651E+00
 +2.40530E+00 +2.09778E+00 +1.74628E+00 +2.59337E+00 +1.00807E+00 +2.91583E+00 +2.31981E-01 +3.05719E+00
 -5.41380E-01 +3.01867E+00 -1.27403E+00 +2.80990E+00 -1.93220E+00 +2.44781E+00 -2.48752E+00 +1.95528E+00
 -2.91793E+00 +1.35961E+00 -3.20809E+00 +6.90956E-01 -3.34947E+00 -1.92348E-02 -3.34015E+00 -7.39631E-01
 -3.18431E+00 -1.44028E+00 -2.89150E+00 -2.09365E+00 -2.47583E+00 -2.67543E+00 -1.95508E+00 -3.16510E+00
 -1.34977E+00 -3.54632E+00 -6.82267E-01 -3.80701E+00 +2.39825E-02 -3.93946E+00 +7.45196E-01 -3.94009E+00
 +1.45787E+00 -3.80937E+00 +2.13931E+00 -3.55149E+00 +2.76809E+00 -3.17413E+00 +3.32443E+00 -2.68817E+00
 +3.79060E+00 -2.10744E+00 +4.15124E+00 -1.44839E+00 +4.39370E+00 -7.29844E-01 +4.50839E+00 +2.73942E-02
 +4.48915E+00 +8.00892E-01 +4.33353E+00 +1.56708E+00 +4.04312E+00 +2.30182E+00 +3.62375E+00 +2.98103E+00
 +3.08563E+00 +3.58147E+00 +2.44328E+00 +4.08155E+00 +1.71542E+00 +4.46218E+00 +9.24513E-01 +4.70765E+00
 +9.62341E-02 +4.80649E+00 -7.41340E-01 +4.75218E+00 -1.55871E+00 +4.54374E+00 -2.32611E+00 +4.18611E+00
 -3.01472E+00 +3.69029E+00 -3.59802E+00 +3.07319E+00 -4.05307E+00 +2.35718E+00 -4.36169E+00 +1.56929E+00
 -4.51154E+00 +7.40232E-01 -4.49689E+00 -9.69328E-02 -4.31913E+00 -9.08264E-01 -3.98695E+00 -1.66053E+00
 -3.51609E+00 -2.32286E+00 -2.92879E+00 -2.86827E+00 -2.25279E+00 -3.27515E+00 -1.52007E+00 -3.52837E+00
 -7.65291E-01 -3.62021E+00 -2.40929E-02 -3.55085E+00 +6.68766E-01 -3.32840E+00 +1.28120E+00 -2.96861E+00
 +1.78551E+00 -2.49407E+00 +2.15985E+00 -1.93305E+00 +2.38944E+00 -1.31802E+00 +2.46734E+00 -6.83924E-01
 +2.39485E+00 -6.62797E-02 +2.18145E+00 +5.00750E-01 +1.84424E+00 +9.86222E-01 +1.40700E+00 +1.36412E+00
 +8.98859E-01 +1.61476E+00 +3.52649E-01 +1.72590E+00 -1.96934E-01 +1.69337E+00 -7.15282E-01 +1.52127E+00
 -1.16981E+00 +1.22173E+00 -1.53180E+00 +8.14183E-01 -1.77795E+00 +3.24237E-01 -1.89171E+00 -2.17778E-01
 -1.86416E+00 -7.78535E-01 -1.69447E+00 -1.32360E+00 -1.38990E+00 -1.81933E+00 -9.65392E-01 -2.23478E+00
 -4.42674E-01 -2.54337E+00 +1.50971E-01 -2.72434E+00 +7.84228E-01 -2.76383E+00 +1.42348E+00 -2.65564E+00
 +2.03465E+00 -2.40143E+00 +2.58503E+00 -2.01062E+00 +3.04499E+00 -1.49981E+00 +3.38955E+00 -8.91802E-01
 +3.59961E+00 -2.14349E-01 +3.66285E+00 +5.01361E-01 +3.57428E+00 +1.22236E+00 +3.33639E+00 +1.91562E+00
 +2.95883E+00 +2.54971E+00 +2.45784E+00 +3.09638E+00 +1.85525E+00 +3.53184E+00 +1.17730E+00 +3.83788E+00
 +4.53202E-01 +4.00257E+00 -2.86345E-01 +4.02068E+00 -1.01068E+00 +3.89374E+00 -1.69065E+00 +3.62968E+00
 -2.29993E+00 +3.24229E+00 -2.81617E+00 +2.75030E+00 -3.22186E+00 +2.17632E+00 -3.50493E+00 +1.54563E+00
 -3.65907E+00 +8.84882E-01 -3.68373E+00 +2.20817E-01 -3.58387E+00 -4.20947E-01 -3.36940E+00 -1.01702E+00
 -3.05451E+00 -1.54714E+00 -2.65677E+00 -1.99492E+00 -2.19615E+00 -2.34834E+00 -1.69402E+00 -2.59996E+00
 -1.17208E+00 -2.74700E+00 -6.51470E-01 -2.79112E+00 -1.51841E-01 -2.73806E+00 +3.09333E-01 -2.59713E+00
 +7.17353E-01 -2.38053E+00 +1.06071E+00 -2.10268E+00 +1.33133E+00 -1.77943E+00 +1.52465E+00 -1.42733E+00
 +1.63956E+00 -1.06291E+00 +1.67818E+00 -7.02009E-01 +1.64558E+00 -3.59226E-01 +1.54935E+00 -4.74083E-02
 +1.39913E+00 +2.22704E-01 +1.20618E+00 +4.42754E-01 +9.82777E-01 +6.06937E-01 +7.41749E-01 +7.12063E-01
 +4.95975E-01 +7.57535E-01 +2.57912E-01 +7.45250E-01 +3.91750E-02 +6.79421E-01 -1.49852E-01 +5.66347E-01
 -3.00337E-01 +4.14129E-01 -4.05281E-01 +2.32343E-01 -4.59734E-01 +3.16761E-02 -4.60953E-01 -1.76455E-01
 -4.08498E-01 -3.80317E-01 -3.04260E-01 -5.68285E-01 -1.52420E-01 -7.29261E-01 +4.06588E-02 -8.53103E-01
 +2.66624E-01 -9.31029E-01 +5.15386E-01 -9.55995E-01 +7.75458E-01 -9.23029E-01 +1.03435E+00 -8.29513E-01
 +1.27903E+00 -6.75386E-01 +1.49642E+00 -4.63270E-01 +1.67397E+00 -1.98487E-01 +1.80016E+00 +1.11023E-01
 +1.86506E+00 +4.54899E-01 +1.86087E+00 +8.20675E-01 +1.78229E+00 +1.19420E+00 +1.62699E+00 +1.56016E+00
 +1.39576E+00 +1.90266E+00 +1.09273E+00 +2.20594E+00 +7.25297E-01 +2.45500E+00 +3.04018E-01 +2.63634E+00
 -1.57732E-01 +2.73862E+00 -6.44201E-01 +2.75324E+00 -1.13784E+00 +2.67487E+00 -1.61999E+00 +2.50182E+00
 -2.07169E+00 +2.23626E+00 -2.47442E+00 +1.88427E+00 -2.81103E+00 +1.45573E+00 -3.06646E+00 +9.64056E-01
 -3.22851E+00 +4.25653E-01 -3.28844E+00 -1.40644E-01 -3.24148E+00 -7.14362E-01 -3.08713E+00 -1.27423E+00
 -2.82924E+00 -1.79910E+00 -2.47601E+00 -2.26886E+00 -2.03967E+00 -2.66535E+00 -1.53601E+00 -2.97320E+00
 -9.83739E-01 -3.18052E+00 -4.03733E-01 -3.27947E+00 +1.81901E-01 -3.26667E+00 +7.50769E-01 -3.14336E+00
 +1.28118E+00 -2.91539E+00 +1.75311E+00 -2.59299E+00 +2.14909E+00 -2.19029E+00 +2.45501E+00 -1.72474E+00
 +2.66069E+00 -1.21632E+00 +2.76042E+00 -6.86625E-01 +2.75312E+00 -1.57885E-01 +2.64240E+00 +3.48024E-01
 +2.43638E+00 +8.10583E-01 +2.14729E+00 +1.21156E+00 +1.79084E+00 +1.53581E+00 +1.38554E+00 +1.77200E+00
 +9.51735E-01 +1.91304E+00 +5.10714E-01 +1.95641E+00 +8.36524E-02 +1.90424E+00 -3.09365E-01 +1.76317E+00
 -6.50290E-01 +1.54396E+00 -9.23958E-01 +1.26099E+00 -1.11879E+00 +9.31514E-01 -1.22733E+00 +5.74815E-01
 -1.24657E+00 +2.11249E-01 -1.17808E+00 -1.38745E-01 -1.02790E+00 -4.55652E-01 -8.06249E-01 -7.21828E-01
 -5.26982E-01 -9.22372E-01 -2.06924E-01 -1.04585E+00 +1.34971E-01 -1.08489E+00 +4.78554E-01 -1.03650E+00
 +8.03478E-01 -9.02286E-01 +1.09021E+00 -6.88371E-01 +1.32098E+00 -4.05110E-01 +1.48074E+00 -6.66166E-02
 +1.55786E+00 +3.09905E-01 +1.54475E+00 +7.04982E-01 +1.43833E+00 +1.09781E+00 +1.24017E+00 +1.46726E+00
 +9.56498E-01 +1.79290E+00 +5.97955E-01 +2.05602E+00 +1.79140E-01 +2.24054E+00 -2.82049E-01 +2.33384E+00
 -7.65223E-01 +2.32742E+00 -1.24845E+00 +2.21736E+00 -1.70927E+00 +2.00457E+00 -2.12577E+00 +1.69480E+00
 -2.47761E+00 +1.29848E+00 -2.74702E+00 +8.30235E-01 -2.91964E+00 +3.08299E-01 -2.98525E+00 -2.46319E-01
 -2.93831E+00 -8.10773E-01 -2.77820E+00 -1.36141E+00 -2.50938E+00 -1.87487E+00 -2.14116E+00 -2.32914E+00
 -1.68735E+00 -2.70459E+00 -1.16564E+00 -2.98488E+00 -5.96839E-01 -3.15772E+00 -3.90195E-03 -3.21546E+00
 +5.89071E-01 -3.15542E+00 +1.15794E+00 -2.98006E+00 +1.67961E+00 -2.69684E+00 +2.13309E+00 -2.31792E+00
 +2.50041E+00 -1.85956E+00 +2.76747E+00 -1.34141E+00 +2.92462E+00 -7.85575E-01 +2.96709E+00 -2.15647E-01
 +2.89520E+00 +3.44399E-01 +2.71428E+00 +8.71285E-01 +2.43444E+00 +1.34348E+00 +2.07002E+00 +1.74215E+00
 +1.63893E+00 +2.05203E+00 +1.16182E+00 +2.26204E+00 +6.61091E-01 +2.36579E+00 +1.59868E-01 +2.36180E+00
 -3.19075E-01 +2.25354E+00 -7.54349E-01 +2.04924E+00 -1.12692E+00 +1.76142E+00 -1.42098E+00 +1.40635E+00
 -1.62462E+00 +1.00318E+00 -1.73039E+00 +5.73119E-01 -1.73559E+00 +1.38379E-01 -1.64238E+00 -2.78838E-01
 -1.45764E+00 -6.57377E-01 -1.19268E+00 -9.78111E-01 -8.62633E-01 -1.22484E+00 -4.85819E-01 -1.38502E+00
 -8.28431E-02 -1.45040E+00 +3.24341E-01 -1.41739E+00 +7.13460E-01 -1.28724E+00 +1.06296E+00 -1.06604E+00
 +1.35303E+00 -7.64490E-01 +1.56653E+00 -3.97387E-01 +1.68987E+00 +1.69568E-02 +1.71363E+00 +4.57555E-01
 +1.63314E+00 +9.01676E-01 +1.44875E+00 +1.32588E+00 +1.16589E+00 +1.70710E+00 +7.94983E-01 +2.02372E+00
 +3.51017E-01 +2.25664E+00 -1.47008E-01 +2.39021E+00 -6.76874E-01 +2.41306E+00 -1.21410E+00 +2.31873E+00
 -1.73300E+00 +2.10614E+00 -2.20787E+00 +1.77977E+00 -2.61417E+00 +1.34962E+00 -2.92969E+00 +8.30934E-01
 -3.13568E+00 +2.43642E-01 -3.21784E+00 -3.88426E-01 -3.16708E+00 -1.03852E+00 -2.98016E+00 -1.67813E+00
 -2.66001E+00 -2.27824E+00 -2.21579E+00 -2.81070E+00 -1.66263E+00 -3.24953E+00 -1.02115E+00 -3.57224E+00
 -3.16655E-01 -3.76097E+00 +4.21952E-01 -3.80346E+00 +1.16339E+00 -3.69382E+00 +1.87542E+00 -3.43294E+00
 +2.52634E+00 -3.02868E+00 +3.08650E+00 -2.49564E+00 +3.52977E+00 -1.85467E+00 +3.83483E+00 -1.13201E+00
 +3.98637E+00 -3.58155E-01 +3.97588E+00 +4.33488E-01 +3.80223E+00 +1.20817E+00 +3.47188E+00 +1.93145E+00
 +2.99866E+00 +2.57084E+00 +2.40328E+00 +3.09742E+00 +1.71235E+00 +3.48733E+00 +9.57230E-01 +3.72297E+00
 +1.72523E-01 +3.79393E+00 -6.05595E-01 +3.69763E+00 -1.34114E+00 +3.43948E+00 -2.00009E+00 +3.03271E+00
 -2.55211E+00 +2.49774E+00 -2.97210E+00 +1.86121E+00 -3.24141E+00 +1.15469E+00 -3.34888E+00 +4.13095E-01
 -3.29136E+00 -3.27047E-01 -3.07389E+00 -1.02947E+00 -2.70948E+00 -1.65997E+00 -2.21837E+00 -2.18818E+00
 -1.62702E+00 -2.58907E+00 -9.66754E-01 -2.84424E+00 -2.72099E-01 -2.94278E+00 +4.20984E-01 -2.88184E+00
 +1.07695E+00 -2.66668E+00 +1.66251E+00 -2.31035E+00 +2.14828E+00 -1.83298E+00 +2.51029E+00 -1.26061E+00
 +2.73115E+00 -6.23843E-01 +2.80084E+00 +4.37993E-02 +2.71712E+00 +7.07629E-01 +2.48558E+00 +1.33359E+00
 +2.11918E+00 +1.88996E+00 +1.63749E+00 +2.34897E+00 +1.06558E+00 +2.68808E+00 +4.32658E-01 +2.89109E+00
 -2.29519E-01 +2.94876E+00 -8.88259E-01 +2.85914E+00 -1.51159E+00 +2.62750E+00 -2.06985E+00 +2.26589E+00
 -2.53703E+00 +1.79236E+00 -2.89200E+00 +1.22991E+00 -3.11932E+00 +6.05211E-01 -3.20987E+00 -5.27642E-02
 -3.16100E+00 -7.14219E-01 -2.97647E+00 -1.34996E+00 -2.66600E+00 -1.93272E+00 -2.24459E+00 -2.43836E+00
 -1.73161E+00 -2.84682E+00 -1.14978E+00 -3.14284E+00 -5.23917E-01 -3.31638E+00 +1.20150E-01 -3.36284E+00
