 Created: 19-Jan-2021
 $NMID
 ID='D:\BASISSIMULATI'
 FMTDAT='(8E13.5)'
 VOLUME=   1.00000E+00
 TRAMP=   1.00000E+00
 $END
 +1.13112E+01 +1.28336E-02 +1.00373E+01 +2.61059E+00 +6.66519E+00 +4.73395E+00 +2.11163E+00 +6.01017E+00
 -2.40684E+00 +6.19122E+00 -5.71886E+00 +5.20837E+00 -7.02198E+00 +3.21147E+00 -6.09100E+00 +5.74218E-01
 -3.31396E+00 -2.15148E+00 +4.47918E-01 -4.33749E+00 +4.12699E+00 -5.42365E+00 +6.75817E+00 -5.07110E+00
 +7.73757E+00 -3.27899E+00 +6.95910E+00 -4.21905E-01 +4.79864E+00 +2.81675E+00 +1.96332E+00 +5.60944E+00
 -7.37949E-01 +7.20835E+00 -2.62818E+00 +7.16528E+00 -3.33190E+00 +5.47907E+00 -2.83912E+00 +2.61852E+00
 -1.45851E+00 -5.95336E-01 +3.11405E-01 -3.22002E+00 +1.94360E+00 -4.46991E+00 +3.02501E+00 -3.95750E+00
 +3.34284E+00 -1.82071E+00 +2.90129E+00 +1.30771E+00 +1.87925E+00 +4.48420E+00 +5.55152E-01 +6.73838E+00
 -7.71749E-01 +7.37044E+00 -1.84173E+00 +6.16930E+00 -2.46873E+00 +3.48224E+00 -2.55290E+00 +1.12700E-01
 -2.08270E+00 -2.92312E+00 -1.13567E+00 -4.70564E+00 +1.20975E-01 -4.69138E+00 +1.43740E+00 -2.87634E+00
 +2.50779E+00 +2.05978E-01 +3.02402E+00 +3.64934E+00 +2.75299E+00 +6.44906E+00 +1.61940E+00 +7.80010E+00
 -2.34567E-01 +7.32814E+00 -2.44168E+00 +5.18611E+00 -4.47189E+00 +1.99245E+00 -5.75974E+00 -1.36384E+00
 -5.86763E+00 -3.98685E+00 -4.63696E+00 -5.22471E+00 -2.27491E+00 -4.83537E+00 +6.61177E-01 -3.02500E+00
 +3.39065E+00 -3.58310E-01 +5.12014E+00 +2.42237E+00 +5.27948E+00 +4.60872E+00 +3.71051E+00 +5.70609E+00
 +7.44944E-01 +5.53498E+00 -2.86176E+00 +4.23714E+00 -6.12952E+00 +2.19888E+00 -8.13204E+00 -7.40455E-02
 -8.27207E+00 -2.08824E+00 -6.46885E+00 -3.46611E+00 -3.19650E+00 -4.00232E+00 +6.42658E-01 -3.67274E+00
 +3.97528E+00 -2.60894E+00 +5.86875E+00 -1.05559E+00 +5.80341E+00 +6.75351E-01 +3.82285E+00 +2.24835E+00
 +5.16835E-01 +3.34767E+00 -3.15693E+00 +3.72448E+00 -6.15674E+00 +3.24725E+00 -7.65971E+00 +1.94676E+00
 -7.29241E+00 +3.92531E-02 -5.22277E+00 -2.08984E+00 -2.09044E+00 -3.95201E+00 +1.19716E+00 -5.06645E+00
 +3.73677E+00 -5.09179E+00 +4.88536E+00 -3.94154E+00 +4.42600E+00 -1.84255E+00 +2.60048E+00 +6.92186E-01
 +8.58678E-03 +2.98123E+00 -2.58658E+00 +4.35783E+00 -4.48288E+00 +4.36839E+00 -5.22568E+00 +2.92512E+00
 -4.70700E+00 +3.59928E-01 -3.15843E+00 -2.64608E+00 -1.05259E+00 -5.24523E+00 +1.04777E+00 -6.66862E+00
 +2.64374E+00 -6.46122E+00 +3.41496E+00 -4.63280E+00 +3.27112E+00 -1.67334E+00 +2.33876E+00 +1.57760E+00
 +9.00217E-01 +4.17266E+00 -6.88934E-01 +5.33811E+00 -2.07950E+00 +4.70939E+00 -2.98941E+00 +2.44704E+00
 -3.24115E+00 -8.04351E-01 -2.77952E+00 -4.10353E+00 -1.67579E+00 -6.49010E+00 -1.21166E-01 -7.26811E+00
 +1.59281E+00 -6.20972E+00 +3.11272E+00 -3.61834E+00 +4.08397E+00 -2.33784E-01 +4.22946E+00 +2.98911E+00
 +3.43071E+00 +5.15989E+00 +1.78757E+00 +5.70534E+00 -3.69199E-01 +4.52228E+00 -2.52902E+00 +1.98935E+00
 -4.11517E+00 -1.15911E+00 -4.63784E+00 -4.05355E+00 -3.84541E+00 -5.93505E+00 -1.82609E+00 -6.35474E+00
 +9.79300E-01 -5.27347E+00 +3.86872E+00 -3.04203E+00 +6.05820E+00 -2.77929E-01 +6.90252E+00 +2.31700E+00
 +6.09283E+00 +4.14205E+00 +3.76879E+00 +4.83599E+00 +5.04352E-01 +4.33784E+00 -2.83618E+00 +2.86564E+00
 -5.33546E+00 +8.31477E-01 -6.28610E+00 -1.27479E+00 -5.40080E+00 -2.99967E+00 -2.90469E+00 -4.01241E+00
 +5.21147E-01 -4.15180E+00 +3.93084E+00 -3.43444E+00 +6.38414E+00 -2.03347E+00 +7.21603E+00 -2.38503E-01
 +6.22499E+00 +1.59506E+00 +3.72460E+00 +3.10329E+00 +4.44227E-01 +3.97499E+00 -2.68914E+00 +4.01217E+00
 -4.82119E+00 +3.18052E+00 -5.41139E+00 +1.63564E+00 -4.37499E+00 -2.88885E-01 -2.08761E+00 -2.13974E+00
 +7.43027E-01 -3.44374E+00 +3.29470E+00 -3.82969E+00 +4.86945E+00 -3.14032E+00 +5.08299E+00 -1.49873E+00
 +3.95296E+00 +6.98224E-01 +1.86737E+00 +2.86786E+00 -5.48837E-01 +4.39426E+00 -2.62320E+00 +4.80580E+00
 -3.82276E+00 +3.92518E+00 -3.88644E+00 +1.94297E+00 -2.87157E+00 -6.14734E-01 -1.11080E+00 -3.02264E+00
 +8.98478E-01 -4.56184E+00 +2.63481E+00 -4.73533E+00 +3.68268E+00 -3.42781E+00 +3.82075E+00 -9.57548E-01
 +3.05316E+00 +2.00034E+00 +1.58617E+00 +4.60108E+00 -2.34944E-01 +6.07463E+00 -2.00813E+00 +5.95489E+00
 -3.35682E+00 +4.22396E+00 -3.99853E+00 +1.32654E+00 -3.79261E+00 -1.95182E+00 -2.76416E+00 -4.70752E+00
 -1.10300E+00 -6.17714E+00 +8.63344E-01 -5.95472E+00 +2.72290E+00 -4.10469E+00 +4.05549E+00 -1.13868E+00
 +4.52237E+00 +2.13449E+00 +3.95239E+00 +4.83948E+00 +2.40251E+00 +6.27699E+00 +1.71298E-01 +6.10867E+00
 -2.24794E+00 +4.43429E+00 -4.27217E+00 +1.74458E+00 -5.37171E+00 -1.23023E+00 -5.21578E+00 -3.72771E+00
 -3.77882E+00 -5.15537E+00 -1.37158E+00 -5.23266E+00 +1.41983E+00 -4.03919E+00 +3.87799E+00 -1.96465E+00
 +5.34583E+00 +4.16700E-01 +5.41283E+00 +2.50620E+00 +4.04054E+00 +3.83003E+00 +1.58658E+00 +4.14095E+00
 -1.28467E+00 +3.45324E+00 -3.78343E+00 +2.01137E+00 -5.21723E+00 +2.09664E-01 -5.19026E+00 -1.51142E+00
 -3.71985E+00 -2.76575E+00 -1.23386E+00 -3.29846E+00 +1.55179E+00 -3.02796E+00 +3.84019E+00 -2.05062E+00
 +4.98429E+00 -6.12278E-01 +4.67320E+00 +9.45877E-01 +3.01916E+00 +2.25745E+00 +5.20335E-01 +3.00661E+00
 -2.08830E+00 +2.99748E+00 -4.05044E+00 +2.20423E+00 -4.80627E+00 +7.89130E-01 -4.14896E+00 -9.20333E-01
 -2.27627E+00 -2.49692E+00 +2.74627E-01 -3.51221E+00 +2.78658E+00 -3.64795E+00 +4.56715E+00 -2.79185E+00
 +5.13895E+00 -1.08884E+00 +4.36309E+00 +1.07290E+00 +2.46461E+00 +3.14551E+00 -4.15818E-02 +4.55898E+00
 -2.49825E+00 +4.87840E+00 -4.28274E+00 +3.93702E+00 -4.96438E+00 +1.90406E+00 -4.40296E+00 -7.38544E-01
 -2.76781E+00 -3.31050E+00 -4.79495E-01 -5.11182E+00 +1.90470E+00 -5.61764E+00 +3.82875E+00 -4.63328E+00
 +4.86505E+00 -2.36268E+00 +4.80293E+00 +6.33590E-01 +3.68324E+00 +3.58255E+00 +1.77694E+00 +5.70686E+00
 -4.82696E-01 +6.43868E+00 -2.59718E+00 +5.57808E+00 -4.10859E+00 +3.35040E+00 -4.69413E+00 +3.45542E-01
 -4.23248E+00 -2.64388E+00 -2.82994E+00 -4.83913E+00 -8.00676E-01 -5.68562E+00 +1.39689E+00 -4.99785E+00
 +3.25744E+00 -3.00027E+00 +4.34157E+00 -2.55159E-01 +4.38031E+00 +2.49876E+00 +3.34635E+00 +4.54963E+00
 +1.47166E+00 +5.40004E+00 -7.97691E-01 +4.88869E+00 -2.90377E+00 +3.21635E+00 -4.31415E+00 +8.74269E-01
 -4.66093E+00 -1.49994E+00 -3.84394E+00 -3.29623E+00 -2.06755E+00 -4.08795E+00 +2.03360E-01 -3.73015E+00
 +2.36079E+00 -2.37905E+00 +3.81531E+00 -4.33780E-01 +4.15869E+00 +1.57888E+00 +3.28143E+00 +3.14337E+00
 +1.40999E+00 +3.88172E+00 -9.49477E-01 +3.63798E+00 -3.14770E+00 +2.50393E+00 -4.57207E+00 +7.84675E-01
 -4.81915E+00 -1.08332E+00 -3.81041E+00 -2.64020E+00 -1.81728E+00 -3.51102E+00 +6.12454E-01 -3.49096E+00
 +2.80667E+00 -2.59002E+00 +4.15629E+00 -1.02882E+00 +4.28483E+00 +8.12812E-01 +3.15241E+00 +2.48334E+00
 +1.06517E+00 +3.56465E+00 -1.41126E+00 +3.77205E+00 -3.60903E+00 +3.02636E+00 -4.94101E+00 +1.48008E+00
 -5.05845E+00 -5.11012E-01 -3.94065E+00 -2.46743E+00 -1.89413E+00 -3.90049E+00 +5.36012E-01 -4.43530E+00
 +2.71553E+00 -3.91146E+00 +4.08953E+00 -2.43384E+00 +4.32450E+00 -3.57024E-01 +3.38785E+00 +1.79682E+00
 +1.54684E+00 +3.46831E+00 -7.09026E-01 +4.20723E+00 -2.79911E+00 +3.79588E+00 -4.20035E+00 +2.31472E+00
 -4.57575E+00 +1.29798E-01 -3.85192E+00 -2.19766E+00 -2.22895E+00 -4.05739E+00 -1.23378E-01 -4.95343E+00
 +1.93909E+00 -4.64004E+00 +3.45386E+00 -3.19202E+00 +4.05896E+00 -9.88843E-01 +3.61993E+00 +1.38461E+00
 +2.25898E+00 +3.29422E+00 +3.23084E-01 +4.22740E+00 -1.70106E+00 +3.93166E+00 -3.30487E+00 +2.48294E+00
 -4.08117E+00 +2.65255E-01 -3.82411E+00 -2.13272E+00 -2.58170E+00 -4.07537E+00 -6.47682E-01 -5.04925E+00
 +1.50681E+00 -4.79817E+00 +3.34672E+00 -3.38848E+00 +4.40537E+00 -1.18854E+00 +4.40322E+00 +1.23064E+00
 +3.32299E+00 +3.24603E+00 +1.42061E+00 +4.34404E+00 -8.33112E-01 +4.25078E+00 -2.86746E+00 +2.99848E+00
 -4.15577E+00 +9.12731E-01 -4.35178E+00 -1.47414E+00 -3.38267E+00 -3.55983E+00 -1.47316E+00 -4.82349E+00
 +9.07334E-01 -4.95389E+00 +3.16240E+00 -3.92330E+00 +4.72123E+00 -1.99031E+00 +5.18661E+00 +3.67524E-01
 +4.43886E+00 +2.57348E+00 +2.66821E+00 +4.09386E+00 +3.26166E-01 +4.56795E+00 -1.99116E+00 +3.89454E+00
 -3.69731E+00 +2.25446E+00 -4.36652E+00 +6.42658E-02 -3.84188E+00 -2.12751E+00 -2.27278E+00 -3.77612E+00
 -7.25718E-02 -4.47526E+00 +2.19129E+00 -4.05743E+00 +3.94507E+00 -2.63505E+00 +4.75551E+00 -5.71736E-01
 +4.43768E+00 +1.60982E+00 +3.09716E+00 +3.36042E+00 +1.09703E+00 +4.24427E+00 -1.03986E+00 +4.05042E+00
 -2.76718E+00 +2.84674E+00 -3.65439E+00 +9.61944E-01 -3.49382E+00 -1.10038E+00 -2.34932E+00 -2.79364E+00
 -5.35618E-01 -3.67171E+00 +1.46536E+00 -3.50618E+00 +3.12895E+00 -2.34610E+00 +4.02167E+00 -5.04166E-01
 +3.91097E+00 +1.52700E+00 +2.82369E+00 +3.20631E+00 +1.03903E+00 +4.08816E+00 -9.82364E-01 +3.94034E+00
 -2.71556E+00 +2.80478E+00 -3.70567E+00 +9.85059E-01 -3.68569E+00 -1.03509E+00 -2.64797E+00 -2.72025E+00
 -8.50230E-01 -3.62420E+00 +1.24658E+00 -3.50588E+00 +3.09410E+00 -2.39073E+00 +4.19754E+00 -5.62196E-01
 +4.24588E+00 +1.51310E+00 +3.19711E+00 +3.30602E+00 +1.29516E+00 +4.35975E+00 -9.87870E-01 +4.40440E+00
 -3.07069E+00 +3.42311E+00 -4.41311E+00 +1.65427E+00 -4.65852E+00 -4.69320E-01 -3.73041E+00 -2.42814E+00
 -1.85646E+00 -3.74348E+00 +4.87676E-01 -4.09368E+00 +2.70077E+00 -3.39154E+00 +4.21282E+00 -1.80495E+00
 +4.63438E+00 +2.83660E-01 +3.85847E+00 +2.36901E+00 +2.08768E+00 +3.94422E+00 -2.20642E-01 +4.62304E+00
 -2.47605E+00 +4.23413E+00 -4.11026E+00 +2.86473E+00 -4.72436E+00 +8.42321E-01 -4.18873E+00 -1.34241E+00
 -2.67027E+00 -3.15418E+00 -5.81526E-01 -4.14526E+00 +1.53274E+00 -4.06877E+00 +3.13957E+00 -2.94428E+00
 +3.85366E+00 -1.05740E+00 +3.53000E+00 +1.10874E+00 +2.29115E+00 +2.99481E+00 +4.85067E-01 +4.10954E+00
 -1.41217E+00 +4.15959E+00 -2.92138E+00 +3.13012E+00 -3.67999E+00 +1.29287E+00 -3.52690E+00 -8.62818E-01
 -2.53361E+00 -2.75910E+00 -9.76958E-01 -3.88544E+00 +7.36557E-01 -3.93861E+00 +2.17431E+00 -2.90783E+00
 +2.98309E+00 -1.08022E+00 +2.97204E+00 +1.03632E+00 +2.15497E+00 +2.85252E+00 +7.43875E-01 +3.86107E+00
 -9.03677E-01 +3.77813E+00 -2.37055E+00 +2.62301E+00 -3.28007E+00 +7.13239E-01 -3.38762E+00 -1.42374E+00
