 Created: 19-Jan-2021
 $NMID
 ID='D:\BASISSIMULATI'
 FMTDAT='(8E13.5)'
 VOLUME=   1.00000E+00
 TRAMP=   1.00000E+00
 $END
 +1.62692E+01 +1.88705E-02 +1.46992E+01 +6.04123E+00 +1.06104E+01 +1.06239E+01 +4.98378E+00 +1.27829E+01
 -8.65161E-01 +1.21169E+01 -5.60225E+00 +8.88914E+00 -8.18862E+00 +3.95054E+00 -8.11763E+00 -1.47498E+00
 -5.51968E+00 -6.08867E+00 -1.11322E+00 -8.82495E+00 +3.98251E+00 -9.09572E+00 +8.52451E+00 -6.91405E+00
 +1.14441E+01 -2.87131E+00 +1.20940E+01 +2.02266E+00 +1.03873E+01 +6.59385E+00 +6.79760E+00 +9.78904E+00
 +2.22545E+00 +1.09220E+01 -2.23252E+00 +9.82335E+00 -5.55348E+00 +6.86108E+00 -7.03077E+00 +2.83129E+00
 -6.43132E+00 -1.25012E+00 -4.03316E+00 -4.40118E+00 -5.38092E-01 -5.91019E+00 +3.11516E+00 -5.49810E+00
 +5.98863E+00 -3.37017E+00 +7.37436E+00 -1.48011E-01 +6.95978E+00 +3.29739E+00 +4.89116E+00 +6.06802E+00
 +1.72298E+00 +7.46062E+00 -1.73099E+00 +7.13398E+00 -4.60563E+00 +5.18263E+00 -6.19903E+00 +2.10177E+00
 -6.14119E+00 -1.34501E+00 -4.47697E+00 -4.32031E+00 -1.64541E+00 -6.12058E+00 +1.63697E+00 -6.34617E+00
 +4.55816E+00 -4.99300E+00 +6.41186E+00 -2.44553E+00 +6.76879E+00 +6.25033E-01 +5.57684E+00 +3.43057E+00
 +3.16727E+00 +5.26104E+00 +1.67508E-01 +5.65695E+00 -2.65670E+00 +4.51773E+00 -4.58998E+00 +2.12105E+00
 -5.14075E+00 -9.50015E-01 -4.15749E+00 -3.95266E+00 -1.86088E+00 -6.16636E+00 +1.21446E+00 -7.06671E+00
 +4.35330E+00 -6.44909E+00 +6.83444E+00 -4.47332E+00 +8.10410E+00 -1.61979E+00 +7.90624E+00 +1.43096E+00
 +6.33904E+00 +3.96479E+00 +3.82525E+00 +5.40591E+00 +1.00493E+00 +5.45261E+00 -1.42221E+00 +4.14471E+00
 -2.86614E+00 +1.84764E+00 -2.98633E+00 -8.41621E-01 -1.76905E+00 -3.24263E+00 +4.75710E-01 -4.75704E+00
 +3.19516E+00 -5.01118E+00 +5.73189E+00 -3.94166E+00 +7.48449E+00 -1.80436E+00 +8.05151E+00 +8.94011E-01
 +7.32399E+00 +3.52378E+00 +5.50518E+00 +5.48723E+00 +3.05389E+00 +6.36250E+00 +5.67014E-01 +6.00155E+00
 -1.36907E+00 +4.55915E+00 -2.32114E+00 +2.44723E+00 -2.11094E+00 +2.27352E-01 -8.52033E-01 -1.53112E+00
 +1.08602E+00 -2.39134E+00 +3.17585E+00 -2.15332E+00 +4.86715E+00 -8.97150E-01 +5.72404E+00 +1.04431E+00
 +5.53072E+00 +3.17499E+00 +4.33962E+00 +4.96377E+00 +2.45141E+00 +5.97843E+00 +3.33077E-01 +5.99162E+00
 -1.50396E+00 +5.03284E+00 -2.63416E+00 +3.37438E+00 -2.82354E+00 +1.45606E+00 -2.08437E+00 -2.30945E-01
 -6.65956E-01 -1.27095E+00 +1.01505E+00 -1.42873E+00 +2.48594E+00 -7.06180E-01 +3.34167E+00 +6.63129E-01
 +3.34903E+00 +2.27906E+00 +2.50482E+00 +3.68222E+00 +1.03346E+00 +4.47513E+00 -6.74506E-01 +4.42592E+00
 -2.16655E+00 +3.52783E+00 -3.04762E+00 +1.99945E+00 -3.08371E+00 +2.26237E-01 -2.26302E+00 -1.34124E+00
 -7.98687E-01 -2.30572E+00 +9.26941E-01 -2.42747E+00 +2.46229E+00 -1.68741E+00 +3.40452E+00 -2.92716E-01
 +3.50502E+00 +1.37629E+00 +2.73519E+00 +2.86447E+00 +1.29535E+00 +3.75985E+00 -4.35407E-01 +3.80102E+00
 -1.99586E+00 +2.94616E+00 -2.96081E+00 +1.38599E+00 -3.05077E+00 -5.02957E-01 -2.20490E+00 -2.25274E+00
 -5.98575E-01 -3.42233E+00 +1.39894E+00 -3.70962E+00 +3.31625E+00 -3.02870E+00 +4.69765E+00 -1.53275E+00
 +5.21734E+00 +4.23245E-01 +4.76109E+00 +2.37065E+00 +3.45489E+00 +3.84386E+00 +1.63334E+00 +4.49611E+00
 -2.44077E-01 +4.18537E+00 -1.70767E+00 +3.00875E+00 -2.39426E+00 +1.27701E+00 -2.13671E+00 -5.64136E-01
 -1.00377E+00 -2.04588E+00 +7.19139E-01 -2.79311E+00 +2.60324E+00 -2.61674E+00 +4.18483E+00 -1.55868E+00
 +5.08136E+00 +1.21568E-01 +5.08582E+00 +2.01474E+00 +4.21598E+00 +3.66642E+00 +2.70635E+00 +4.69183E+00
 +9.45624E-01 +4.87158E+00 -6.24263E-01 +4.20435E+00 -1.62125E+00 +2.90357E+00 -1.81972E+00 +1.33941E+00
 -1.20600E+00 -5.86552E-02 +2.10729E-02 -9.13469E-01 +1.50433E+00 -9.97383E-01 +2.82282E+00 -2.90079E-01
 +3.60242E+00 +1.01762E+00 +3.61374E+00 +2.57479E+00 +2.83224E+00 +3.96291E+00 +1.44491E+00 +4.80608E+00
 -1.98215E-01 +4.87025E+00 -1.67529E+00 +4.12584E+00 -2.60326E+00 +2.75735E+00 -2.73914E+00 +1.11705E+00
 -2.04579E+00 -3.65457E-01 -7.04742E-01 -1.29499E+00 +9.27768E-01 -1.41503E+00 +2.41085E+00 -6.77367E-01
 +3.33237E+00 +7.41145E-01 +3.41692E+00 +2.47989E+00 +2.60026E+00 +4.08398E+00 +1.05085E+00 +5.11973E+00
 -8.68089E-01 +5.28685E+00 -2.68714E+00 +4.49864E+00 -3.94812E+00 +2.90913E+00 -4.32089E+00 +8.79472E-01
 -3.68992E+00 -1.10903E+00 -2.18800E+00 -2.57394E+00 -1.67811E-01 -3.15318E+00 +1.88250E+00 -2.69826E+00
 +3.45937E+00 -1.31535E+00 +4.16962E+00 +6.57121E-01 +3.83058E+00 +2.72945E+00 +2.51884E+00 +4.38091E+00
 +5.54770E-01 +5.18950E+00 -1.57436E+00 +4.93867E+00 -3.33394E+00 +3.67418E+00 -4.27512E+00 +1.69586E+00
 -4.14801E+00 -5.14211E-01 -2.96652E+00 -2.41003E+00 -1.00799E+00 -3.51747E+00 +1.25317E+00 -3.55362E+00
 +3.26186E+00 -2.49972E+00 +4.52028E+00 -6.08792E-01 +4.71306E+00 +1.65463E+00 +3.78831E+00 +3.72839E+00
 +1.97355E+00 +5.09239E+00 -2.78011E-01 +5.39931E+00 -2.39830E+00 +4.56370E+00 -3.84528E+00 +2.78665E+00
 -4.23902E+00 +5.09075E-01 -3.45894E+00 -1.69536E+00 -1.67756E+00 -3.26188E+00 +6.78364E-01 -3.77570E+00
 +3.03060E+00 -3.07761E+00 +4.79101E+00 -1.30728E+00 +5.50735E+00 +1.12710E+00 +4.97717E+00 +3.64603E+00
 +3.30118E+00 +5.63951E+00 +8.62328E-01 +6.61679E+00 -1.76484E+00 +6.32839E+00 -3.95286E+00 +4.82987E+00
 -5.17423E+00 +2.47122E+00 -5.13094E+00 -1.85985E-01 -3.82867E+00 -2.50374E+00 -1.57721E+00 -3.92228E+00
 +1.08343E+00 -4.09616E+00 +3.51318E+00 -2.97867E+00 +5.12672E+00 -8.33389E-01 +5.53499E+00 +1.82963E+00
 +4.63871E+00 +4.37766E+00 +2.65126E+00 +6.20867E+00 +4.52061E-02 +6.89647E+00 -2.56388E+00 +6.29237E+00
 -4.56767E+00 +4.55840E+00 -5.51233E+00 +2.12441E+00 -5.20657E+00 -4.19789E-01 -3.76415E+00 -2.47040E+00
 -1.57100E+00 -3.55721E+00 +8.14237E-01 -3.45643E+00 +2.80106E+00 -2.24096E+00 +3.91378E+00 -2.56504E-01
 +3.90751E+00 +1.97006E+00 +2.82466E+00 +3.86619E+00 +9.78507E-01 +4.95874E+00 -1.13147E+00 +4.99196E+00
 -2.95041E+00 +3.98875E+00 -4.01143E+00 +2.24015E+00 -4.05502E+00 +2.26255E-01 -3.09405E+00 -1.51091E+00
 -1.40787E+00 -2.50973E+00 +5.32585E-01 -2.50988E+00 +2.18971E+00 -1.52070E+00 +3.10159E+00 +1.80839E-01
 +3.00536E+00 +2.12219E+00 +1.90918E+00 +3.75920E+00 +9.39632E-02 +4.62016E+00 -1.95648E+00 +4.43285E+00
 -3.67970E+00 +3.20140E+00 -4.58178E+00 +1.21233E+00 -4.36990E+00 -1.03308E+00 -3.03567E+00 -2.94384E+00
 -8.66868E-01 -3.99084E+00 +1.61693E+00 -3.84657E+00 +3.79012E+00 -2.47694E+00 +5.07761E+00 -1.60821E-01
 +5.10303E+00 +2.56952E+00 +3.79106E+00 +5.05372E+00 +1.39701E+00 +6.66451E+00 -1.54545E+00 +6.96519E+00
 -4.34733E+00 +5.82400E+00 -6.32892E+00 +3.45612E+00 -6.98637E+00 +3.81142E-01 -6.11898E+00 -2.69487E+00
 -3.88548E+00 -5.04560E+00 -7.74006E-01 -6.09880E+00 +2.50807E+00 -5.57671E+00 +5.19902E+00 -3.56769E+00
 +6.66304E+00 -5.10953E-01 +6.54263E+00 +2.90289E+00 +4.84602E+00 +5.89238E+00 +1.94816E+00 +7.76868E+00
 -1.49548E+00 +8.09809E+00 -4.70206E+00 +6.80461E+00 -6.94493E+00 +4.18785E+00 -7.72375E+00 +8.51892E-01
 -6.88061E+00 -2.43762E+00 -4.63452E+00 -4.93408E+00 -1.52647E+00 -6.08466E+00 +1.71132E+00 -5.65775E+00
 +4.33007E+00 -3.79286E+00 +5.74092E+00 -9.61854E-01 +5.65090E+00 +2.14823E+00 +4.12647E+00 +4.80179E+00
 +1.57013E+00 +6.39009E+00 -1.38281E+00 +6.57311E+00 -4.02132E+00 +5.35434E+00 -5.73078E+00 +3.07145E+00
 -6.13833E+00 +3.06572E-01 -5.19649E+00 -2.26065E+00 -3.18608E+00 -4.02043E+00 -6.39019E-01 -4.57959E+00
 +1.79859E+00 -3.85197E+00 +3.52838E+00 -2.07162E+00 +4.14646E+00 +2.73264E-01 +3.53894E+00 +2.56792E+00
 +1.90365E+00 +4.22741E+00 -3.06327E-01 +4.84272E+00 -2.50185E+00 +4.28027E+00 -4.10915E+00 +2.71073E+00
 -4.71521E+00 +5.60974E-01 -4.17070E+00 -1.59798E+00 -2.62524E+00 -3.19820E+00 -4.86648E-01 -3.81990E+00
 +1.68490E+00 -3.29793E+00 +3.32073E+00 -1.76317E+00 +3.98915E+00 +3.91397E-01 +3.50598E+00 +2.61086E+00
 +1.98224E+00 +4.31967E+00 -2.02768E-01 +5.06828E+00 -2.49631E+00 +4.64832E+00 -4.31124E+00 +3.14735E+00
 -5.17444E+00 +9.29296E-01 -4.84734E+00 -1.45475E+00 -3.38857E+00 -3.40331E+00 -1.14253E+00 -4.41490E+00
 +1.34345E+00 -4.21472E+00 +3.45318E+00 -2.82577E+00 +4.65396E+00 -5.66733E-01 +4.62946E+00 +2.02361E+00
 +3.36027E+00 +4.31688E+00 +1.13186E+00 +5.74882E+00 -1.53244E+00 +5.95843E+00 -3.99734E+00 +4.87816E+00
 -5.66969E+00 +2.75286E+00 -6.14334E+00 +8.25058E-02 -5.29906E+00 -2.49776E+00 -3.33505E+00 -4.37102E+00
 -7.20328E-01 -5.08814E+00 +1.91787E+00 -4.47711E+00 +3.94533E+00 -2.68526E+00 +4.87411E+00 -1.44149E-01
 +4.48033E+00 +2.53447E+00 +2.85807E+00 +4.70636E+00 +3.96174E-01 +5.85023E+00 -2.31627E+00 +5.69303E+00
 -4.63265E+00 +4.27495E+00 -6.00500E+00 +1.93822E+00 -6.11560E+00 -7.57155E-01 -4.95205E+00 -3.16993E+00
 -2.80792E+00 -4.73312E+00 -2.09171E-01 -5.09038E+00 +2.21539E+00 -4.18022E+00 +3.88750E+00 -2.24784E+00
 +4.41928E+00 +2.17782E-01 +3.70526E+00 +2.60568E+00 +1.94460E+00 +4.33320E+00 -4.11433E-01 +4.98786E+00
 -2.77315E+00 +4.42601E+00 -4.55886E+00 +2.80436E+00 -5.33762E+00 +5.37383E-01 -4.93325E+00 -1.80829E+00
 -3.46417E+00 -3.65585E+00 -1.31003E+00 -4.56106E+00 +9.86115E-01 -4.32053E+00 +2.85498E+00 -3.01887E+00
 +3.84324E+00 -1.00374E+00 +3.72519E+00 +1.20456E+00 +2.55631E+00 +3.04551E+00 +6.55891E-01 +4.05959E+00
 -1.47633E+00 +4.00271E+00 -3.28811E+00 +2.90542E+00 -4.31476E+00 +1.06260E+00 -4.29598E+00 -1.04351E+00
 -3.24035E+00 -2.86698E+00 -1.42145E+00 -3.93709E+00 +6.93029E-01 -3.97759E+00 +2.56091E+00 -2.97608E+00
 +3.70356E+00 -1.18641E+00 +3.82743E+00 +9.36348E-01 +2.89848E+00 +2.85167E+00 +1.15080E+00 +4.07087E+00
 -9.72548E-01 +4.28107E+00 -2.93149E+00 +3.42480E+00 -4.22542E+00 +1.71507E+00 -4.51983E+00 -4.17708E-01
 -3.73122E+00 -2.43360E+00 -2.04905E+00 -3.81872E+00 +1.10817E-01 -4.21449E+00 +2.20947E+00 -3.50817E+00
 +3.71927E+00 -1.86202E+00 +4.25556E+00 +3.26084E-01 +3.67289E+00 +2.52084E+00 +2.10189E+00 +4.18199E+00
 -8.23946E-02 +4.89808E+00 -2.35270E+00 +4.48831E+00 -4.15933E+00 +3.04734E+00 -5.06534E+00 +9.21983E-01
 -4.85367E+00 -1.37411E+00 -3.57991E+00 -3.28667E+00 -1.55789E+00 -4.35656E+00 +7.18088E-01 -4.33155E+00
 +2.69485E+00 -3.22688E+00 +3.89564E+00 -1.31991E+00 +4.03582E+00 +9.19426E-01 +3.09071E+00 +2.94471E+00
