 Created: 19-Jan-2021
 $NMID
 ID='D:\BASISSIMULATI'
 FMTDAT='(8E13.5)'
 VOLUME=   1.00000E+00
 TRAMP=   1.00000E+00
 $END
 +1.29271E+01 +1.43361E-02 +1.15774E+01 -3.49278E+00 +7.97482E+00 -5.86428E+00 +3.03895E+00 -6.29207E+00
 -1.99090E+00 -4.52209E+00 -5.88531E+00 -9.28138E-01 -7.74843E+00 +3.58741E+00 -7.24829E+00 +7.83845E+00
 -4.69309E+00 +1.06784E+01 -9.34091E-01 +1.13135E+01 +2.87653E+00 +9.52109E+00 +5.60588E+00 +5.71351E+00
 +6.45092E+00 +8.30742E-01 +5.15494E+00 -3.90870E+00 +2.07223E+00 -7.33091E+00 -1.93564E+00 -8.61632E+00
 -5.74192E+00 -7.51283E+00 -8.26817E+00 -4.39561E+00 -8.78299E+00 -1.58742E-01 -7.10455E+00 +4.03052E+00
 -3.65217E+00 +7.04748E+00 +6.66444E-01 +8.10988E+00 +4.70071E+00 +6.98137E+00 +7.36826E+00 +4.02473E+00
 +7.94684E+00 +9.22723E-02 +6.26817E+00 -3.71488E+00 +2.76184E+00 -6.35183E+00 -1.66154E+00 -7.11575E+00
 -5.85544E+00 -5.83494E+00 -8.74362E+00 -2.91078E+00 -9.60457E+00 +7.97430E-01 -8.25791E+00 +4.21196E+00
 -5.10376E+00 +6.33421E+00 -1.00603E+00 +6.51881E+00 +2.94687E+00 +4.65009E+00 +5.73796E+00 +1.17358E+00
 +6.69369E+00 -3.02483E+00 +5.65896E+00 -6.85821E+00 +3.02895E+00 -9.33080E+00 -3.68606E-01 -9.80363E+00
 -3.50720E+00 -8.16234E+00 -5.44625E+00 -4.84275E+00 -5.58899E+00 -7.08925E-01 -3.84373E+00 +3.18197E+00
 -6.45868E-01 +5.86334E+00 +3.16386E+00 +6.71444E+00 +6.57034E+00 +5.61913E+00 +8.66058E+00 +2.98652E+00
 +8.87026E+00 -3.70024E-01 +7.13410E+00 -3.46081E+00 +3.90028E+00 -5.39165E+00 +6.46352E-03 -5.60561E+00
 -3.54754E+00 -4.02957E+00 -5.86807E+00 -1.08751E+00 -6.40417E+00 +2.42138E+00 -5.08906E+00 +5.54486E+00
 -2.34980E+00 +7.43864E+00 +1.01566E+00 +7.59496E+00 +4.05912E+00 +5.97733E+00 +5.93951E+00 +3.02624E+00
 +6.14732E+00 -4.64251E-01 +4.63598E+00 -3.56399E+00 +1.82630E+00 -5.45833E+00 -1.51529E+00 -5.66564E+00
 -4.48995E+00 -4.16243E+00 -6.31195E+00 -1.38366E+00 -6.51995E+00 +1.90009E+00 -5.09716E+00 +4.79392E+00
 -2.46953E+00 +6.52003E+00 +6.15898E-01 +6.62404E+00 +3.29780E+00 +5.09118E+00 +4.83550E+00 +2.34239E+00
 +4.80805E+00 -8.86389E-01 +3.22441E+00 -3.74770E+00 +5.16102E-01 -5.51236E+00 -2.58389E+00 -5.76334E+00
 -5.24171E+00 -4.50204E+00 -6.74756E+00 -2.13978E+00 -6.70400E+00 +6.21405E-01 -5.12757E+00 +2.98452E+00
 -2.43783E+00 +4.27593E+00 +6.61498E-01 +4.12681E+00 +3.37545E+00 +2.56946E+00 +5.03169E+00 +2.36015E-02
 +5.25751E+00 -2.82186E+00 +4.07292E+00 -5.19805E+00 +1.87628E+00 -6.46438E+00 -6.71628E-01 -6.27931E+00
 -2.83213E+00 -4.68825E+00 -3.99073E+00 -2.10633E+00 -3.82188E+00 +7.97746E-01 -2.37262E+00 +3.28386E+00
 -4.38613E-02 +4.73857E+00 +2.52390E+00 +4.83576E+00 +4.62795E+00 +3.61726E+00 +5.69496E+00 +1.47338E+00
 +5.43477E+00 -9.69719E-01 +3.91557E+00 -3.02359E+00 +1.54130E+00 -4.12423E+00 -1.06097E+00 -3.98151E+00
 -3.21193E+00 -2.65155E+00 -4.36245E+00 -5.14217E-01 -4.23801E+00 +1.83655E+00 -2.90731E+00 +3.75830E+00
 -7.57666E-01 +4.73575E+00 +1.61431E+00 +4.51893E+00 +3.56600E+00 +3.18710E+00 +4.58115E+00 +1.12241E+00
 +4.40483E+00 -1.09814E+00 +3.10553E+00 -2.86180E+00 +1.04917E+00 -3.68655E+00 -1.20635E+00 -3.34986E+00
 -3.06585E+00 -1.94563E+00 -4.05834E+00 +1.44820E-01 -3.96139E+00 +2.35864E+00 -2.85563E+00 +4.10437E+00
 -1.09596E+00 +4.92005E+00 +7.91083E-01 +4.59401E+00 +2.25484E+00 +3.21660E+00 +2.87191E+00 +1.15021E+00
 +2.46057E+00 -1.07272E+00 +1.12766E+00 -2.89495E+00 -7.63604E-01 -3.88314E+00 -2.69489E+00 -3.83983E+00
 -4.13476E+00 -2.84953E+00 -4.68236E+00 -1.24772E+00 -4.17407E+00 +4.77163E-01 -2.72496E+00 +1.82082E+00
 -6.94938E-01 +2.40153E+00 +1.41012E+00 +2.06229E+00 +3.07449E+00 +9.09631E-01 +3.90893E+00 -7.20159E-01
 +3.75048E+00 -2.35709E+00 +2.69987E+00 -3.52856E+00 +1.08749E+00 -3.88937E+00 -6.21201E-01 -3.31538E+00
 -1.95435E+00 -1.93598E+00 -2.56091E+00 -9.74154E-02 -2.30221E+00 +1.73205E+00 -1.28381E+00 +3.08868E+00
 +1.79728E-01 +3.63698E+00 +1.65618E+00 +3.25717E+00 +2.71737E+00 +2.07362E+00 +3.05737E+00 +4.17469E-01
 +2.57536E+00 -1.26540E+00 +1.40093E+00 -2.53514E+00 -1.43970E-01 -3.07474E+00 -1.63516E+00 -2.77122E+00
 -2.66316E+00 -1.74031E+00 -2.94479E+00 -2.88960E-01 -2.39917E+00 +1.17288E+00 -1.16806E+00 +2.24631E+00
 +4.24218E-01 +2.65199E+00 +1.95956E+00 +2.30372E+00 +3.03890E+00 +1.32780E+00 +3.38830E+00 +2.38993E-02
 +2.92965E+00 -1.22086E+00 +1.79780E+00 -2.04046E+00 +3.00087E-01 -2.19110E+00 -1.16955E+00 -1.61753E+00
 -2.23798E+00 -4.66844E-01 -2.65244E+00 +9.53096E-01 -2.34538E+00 +2.25873E+00 -1.44773E+00 +3.09555E+00
 -2.47984E-01 +3.23383E+00 +8.90781E-01 +2.62953E+00 +1.63269E+00 +1.43428E+00 +1.76149E+00 -4.75764E-02
 +1.23861E+00 -1.44238E+00 +2.11510E-01 -2.40795E+00 -1.02913E+00 -2.72424E+00 -2.13109E+00 -2.34933E+00
 -2.77819E+00 -1.42644E+00 -2.77700E+00 -2.40623E-01 -2.10917E+00 +8.62118E-01 -9.35480E-01 +1.57069E+00
 +4.48857E-01 +1.69345E+00 +1.69483E+00 +1.20858E+00 +2.49393E+00 +2.67096E-01 +2.66022E+00 -8.51697E-01
 +2.17813E+00 -1.81926E+00 +1.20348E+00 -2.34947E+00 +1.80545E-02 -2.27755E+00 -1.04913E+00 -1.60487E+00
 -1.71207E+00 -4.97785E-01 -1.80475E+00 +7.58575E-01 -1.32399E+00 +1.83853E+00 -4.27171E-01 +2.46432E+00
 +6.14120E-01 +2.48062E+00 +1.49108E+00 +1.89495E+00 +1.94395E+00 +8.73509E-01 +1.83370E+00 -3.05979E-01
 +1.17987E+00 -1.33099E+00 +1.54303E-01 -1.93912E+00 -9.66739E-01 -1.98812E+00 -1.87880E+00 -1.49198E+00
 -2.33254E+00 -6.13800E-01 -2.20138E+00 +3.81971E-01 -1.51515E+00 +1.20449E+00 -4.50976E-01 +1.61760E+00
 +7.15725E-01 +1.50483E+00 +1.68629E+00 +9.00610E-01 +2.21923E+00 -2.04778E-02 +2.19406E+00 -9.93085E-01
 +1.64139E+00 -1.73518E+00 +7.31519E-01 -2.02633E+00 -2.74755E-01 -1.76859E+00 -1.09925E+00 -1.01365E+00
 -1.52304E+00 +5.11952E-02 -1.44559E+00 +1.15383E+00 -9.10484E-01 +2.01099E+00 -9.09447E-02 +2.40434E+00
 +7.60346E-01 +2.23843E+00 +1.38296E+00 +1.56488E+00 +1.58202E+00 +5.66565E-01 +1.28290E+00 -4.93378E-01
 +5.52345E-01 -1.34348E+00 -4.19538E-01 -1.77701E+00 -1.37131E+00 -1.70621E+00 -2.04177E+00 -1.18320E+00
 -2.24133E+00 -3.82379E-01 -1.90385E+00 +4.50568E-01 -1.10468E+00 +1.06836E+00 -4.04365E-02 +1.29137E+00
 +1.02390E+00 +1.05715E+00 +1.82588E+00 +4.37033E-01 +2.17511E+00 -3.84760E-01 +2.00260E+00 -1.16325E+00
 +1.37680E+00 -1.66161E+00 +4.82311E-01 -1.71768E+00 -4.32314E-01 -1.28986E+00 -1.12330E+00 -4.69794E-01
 -1.41778E+00 +5.41502E-01 -1.25940E+00 +1.48745E+00 -7.21178E-01 +2.12481E+00 +1.75106E-02 +2.28894E+00
 +7.23020E-01 +1.93761E+00 +1.17401E+00 +1.16168E+00 +1.22398E+00 +1.59972E-01 +8.42535E-01 -8.14549E-01
 +1.24172E-01 -1.52255E+00 -7.37677E-01 -1.80148E+00 -1.50402E+00 -1.60719E+00 -1.95633E+00 -1.02288E+00
 -1.95700E+00 -2.33515E-01 -1.48778E+00 +5.26955E-01 -6.55627E-01 +1.04084E+00 +3.35440E-01 +1.16642E+00
 +1.23872E+00 +8.75837E-01 +1.83061E+00 +2.61145E-01 +1.96983E+00 -4.92933E-01 +1.63423E+00 -1.16160E+00
 +9.25325E-01 -1.54330E+00 +3.96224E-02 -1.51627E+00 -7.85148E-01 -1.07275E+00 -1.33416E+00 -3.21602E-01
 -1.47254E+00 +5.41169E-01 -1.17990E+00 +1.28592E+00 -5.53469E-01 +1.71203E+00 +2.20800E-01 +1.70265E+00
 +9.20782E-01 +1.25661E+00 +1.34980E+00 +4.88937E-01 +1.39039E+00 -4.00041E-01 +1.03571E+00 -1.17850E+00
 +3.90051E-01 -1.64509E+00 -3.61081E-01 -1.68231E+00 -1.00310E+00 -1.28698E+00 -1.35207E+00 -5.69717E-01
 -1.30561E+00 +2.75997E-01 -8.71186E-01 +1.02670E+00 -1.64072E-01 +1.48910E+00 +6.24169E-01 +1.55131E+00
 +1.27803E+00 +1.21136E+00 +1.61678E+00 +5.75629E-01 +1.54363E+00 -1.71979E-01 +1.07193E+00 -8.21456E-01
 +3.21528E-01 -1.19439E+00 -5.13578E-01 -1.19224E+00 -1.21743E+00 -8.22212E-01 -1.60986E+00 -1.93841E-01
 -1.59418E+00 +5.12322E-01 -1.18218E+00 +1.09518E+00 -4.89740E-01 +1.38871E+00 +2.95256E-01 +1.30754E+00
 +9.63968E-01 +8.70115E-01 +1.34252E+00 +1.93303E-01 +1.33779E+00 -5.39837E-01 +9.60807E-01 -1.13021E+00
 +3.21896E-01 -1.41700E+00 -4.00901E-01 -1.32133E+00 -1.01107E+00 -8.67630E-01 -1.34708E+00 -1.76871E-01
 -1.32545E+00 +5.66098E-01 -9.62032E-01 +1.16228E+00 -3.65884E-01 +1.45174E+00 +2.92107E-01 +1.35597E+00
 +8.27068E-01 +8.98181E-01 +1.09122E+00 +1.96258E-01 +1.01426E+00 -5.69421E-01 +6.22124E-01 -1.20436E+00
 +2.93171E-02 -1.55142E+00 -5.92993E-01 -1.53150E+00 -1.06415E+00 -1.16278E+00 -1.24360E+00 -5.53669E-01
 -1.06934E+00 +1.28252E-01 -5.75091E-01 +7.02488E-01 +1.18575E-01 +1.02443E+00 +8.36306E-01 +1.02347E+00
 +1.39463E+00 +7.20306E-01 +1.65049E+00 +2.19137E-01 +1.53867E+00 -3.22829E-01 +1.08824E+00 -7.39859E-01
 +4.13871E-01 -9.03929E-01 -3.15375E-01 -7.60087E-01 -9.21068E-01 -3.41436E-01 -1.26213E+00 +2.40140E-01
 -1.27072E+00 +8.24757E-01 -9.67926E-01 +1.24830E+00 -4.55436E-01 +1.38723E+00 +1.14129E-01 +1.19222E+00
 +5.79829E-01 +7.01817E-01 +8.16260E-01 +3.23933E-02 +7.66792E-01 -6.52595E-01 +4.57405E-01 -1.18565E+00
 -1.23021E-02 -1.43896E+00 -4.98107E-01 -1.35722E+00 -8.51976E-01 -9.70832E-01 -9.63429E-01 -3.86373E-01
 -7.90185E-01 +2.42835E-01 -3.69876E-01 +7.57881E-01 +1.90171E-01 +1.03596E+00 +7.42102E-01 +1.02154E+00
 +1.13758E+00 +7.38791E-01 +1.26782E+00 +2.82501E-01 +1.09278E+00 -2.09806E-01 +6.51822E-01 -5.96528E-01
 +5.31362E-02 -7.70844E-01 -5.55051E-01 -6.89222E-01 -1.02351E+00 -3.82079E-01 -1.24083E+00 +5.60245E-02
 -1.16163E+00 +4.93615E-01 -8.16886E-01 +7.99325E-01 -3.03949E-01 +8.78461E-01 +2.40783E-01 +6.99204E-01
 +6.78824E-01 +3.01423E-01 +9.06177E-01 -2.14080E-01 +8.79741E-01 -7.12788E-01 +6.26695E-01 -1.06262E+00
 +2.34712E-01 -1.16919E+00 -1.73946E-01 -1.00069E+00 -4.77092E-01 -5.95843E-01 -5.86486E-01 -5.31046E-02
 -4.71716E-01 +4.95873E-01 -1.67790E-01 +9.21054E-01 +2.35363E-01 +1.12775E+00 +6.18332E-01 +1.08024E+00
 +8.65460E-01 +8.09284E-01 +8.96732E-01 +4.01646E-01 +6.89678E-01 -2.49135E-02 +2.85476E-01 -3.54350E-01
 -2.22181E-01 -5.03652E-01 -7.12211E-01 -4.44394E-01 -1.06831E+00 -2.08884E-01 -1.20937E+00 +1.20424E-01
 -1.11006E+00 +4.35032E-01 -8.06165E-01 +6.31201E-01 -3.83534E-01 +6.38921E-01 +4.59986E-02 +4.41204E-01
 +3.75047E-01 +7.85845E-02 +5.29090E-01 -3.62148E-01 +4.85252E-01 -7.71680E-01 +2.76586E-01 -1.04773E+00
 -1.89646E-02 -1.12231E+00 -3.01600E-01 -9.79389E-01 -4.78129E-01 -6.58331E-01 -4.88001E-01 -2.42404E-01
