 Created: 19-Jan-2021
 $NMID
 ID='D:\BASISSIMULATI'
 FMTDAT='(8E13.5)'
 VOLUME=   1.00000E+00
 TRAMP=   1.00000E+00
 $END
 +2.34066E+01 +2.64894E-02 +2.26569E+01 +5.49726E+00 +2.05318E+01 +1.05754E+01 +1.71881E+01 +1.49110E+01
 +1.28706E+01 +1.82097E+01 +7.89378E+00 +2.02550E+01 +2.61790E+00 +2.09235E+01 -2.57818E+00 +2.01938E+01
 -7.32539E+00 +1.81477E+01 -1.12920E+01 +1.49629E+01 -1.42082E+01 +1.08994E+01 -1.58860E+01 +6.27906E+00
 -1.62323E+01 +1.46068E+00 -1.52556E+01 -3.18711E+00 -1.30637E+01 -7.31405E+00 -9.85515E+00 -1.06145E+01
 -5.90270E+00 -1.28504E+01 -1.53207E+00 -1.38684E+01 +2.90368E+00 -1.36111E+01 +7.05144E+00 -1.21199E+01
 +1.05853E+01 -9.53140E+00 +1.32311E+01 -6.06517E+00 +1.47875E+01 -2.00643E+00 +1.51403E+01 +2.31697E+00
 +1.42711E+01 +6.56038E+00 +1.22568E+01 +1.03894E+01 +9.26359E+00 +1.35056E+01 +5.53269E+00 +1.56700E+01
 +1.36075E+00 +1.67207E+01 -2.92383E+00 +1.65854E+01 -6.98702E+00 +1.52859E+01 -1.05156E+01 +1.29359E+01
 -1.32415E+01 +9.73114E+00 -1.49631E+01 +5.93360E+00 -1.55604E+01 +1.85000E+00 -1.50042E+01 -2.19268E+00
 -1.33580E+01 -5.87331E+00 -1.07722E+01 -8.90225E+00 -7.47232E+00 -1.10442E+01 -3.74008E+00 -1.21370E+01
 +1.08845E-01 -1.21042E+01 +3.75029E+00 -1.09612E+01 +6.87755E+00 -8.81375E+00 +9.22597E+00 -5.84980E+00
 +1.05941E+01 -2.32417E+00 +1.08602E+01 +1.46154E+00 +9.99174E+00 +5.18304E+00 +8.04874E+00 +8.51915E+00
 +5.17918E+00 +1.11775E+01 +1.60765E+00 +1.29180E+01 -2.38202E+00 +1.35721E+01 -6.46899E+00 +1.30567E+01
 -1.03205E+01 +1.13816E+01 -1.36180E+01 +8.64880E+00 -1.60826E+01 +5.04564E+00 -1.74968E+01 +8.30608E-01
 -1.77225E+01 -3.68633E+00 -1.67120E+01 -8.16746E+00 -1.45125E+01 -1.22734E+01 -1.12635E+01 -1.56893E+01
 -7.18619E+00 -1.81494E+01 -2.56728E+00 -1.94578E+01 +2.26256E+00 -1.95043E+01 +6.95387E+00 -1.82725E+01
 +1.11649E+01 -1.58428E+01 +1.45879E+01 -1.23857E+01 +1.69725E+01 -8.14979E+00 +1.81448E+01 -3.44314E+00
 +1.80215E+01 +1.39004E+00 +1.66156E+01 +5.99528E+00 +1.40362E+01 +1.00347E+01 +1.04803E+01 +1.32125E+01
 +6.21789E+00 +1.52974E+01 +1.57156E+00 +1.61404E+01 -3.10773E+00 +1.56854E+01 -7.46723E+00 +1.39741E+01
 -1.11790E+01 +1.11422E+01 -1.39648E+01 +7.40921E+00 -1.56166E+01 +3.06180E+00 -1.60126E+01 -1.56826E+00
 -1.51259E+01 -6.12913E+00 -1.30259E+01 -1.02756E+01 -9.87357E+00 -1.36952E+01 -5.90784E+00 -1.61316E+01
 -1.42785E+00 -1.74038E+01 +3.23026E+00 -1.74195E+01 +7.71903E+00 -1.61816E+01 +1.17060E+01 -1.37872E+01
 +1.48990E+01 -1.04200E+01 +1.70680E+01 -6.33546E+00 +1.80621E+01 -1.84097E+00 +1.78206E+01 +2.72790E+00
 +1.63769E+01 +7.03330E+00 +1.38549E+01 +1.07609E+01 +1.04595E+01 +1.36437E+01 +6.45933E+00 +1.54824E+01
 +2.16619E+00 +1.61595E+01 -2.08964E+00 +1.56486E+01 -5.98496E+00 +1.40145E+01 -9.22860E+00 +1.14085E+01
 -1.15838E+01 +8.05517E+00 -1.28859E+01 +4.23444E+00 -1.30550E+01 +2.59535E-01 -1.21011E+01 -3.54797E+00
 -1.01230E+01 -6.88330E+00 -7.29960E+00 -9.48230E+00 -3.87536E+00 -1.11419E+01 -1.40809E-01 -1.17358E+01
 +3.59079E+00 -1.12238E+01 +7.00824E+00 -9.65498E+00 +9.82708E+00 -7.16284E+00 +1.18119E+01 -3.95488E+00
 +1.27950E+01 -2.95736E-01 +1.26894E+01 +3.51387E+00 +1.14955E+01 +7.16105E+00 +9.30133E+00 +1.03456E+01
 +6.27508E+00 +1.28037E+01 +2.65210E+00 +1.43288E+01 -1.28378E+00 +1.47882E+01 -5.22266E+00 +1.41334E+01
 -8.85296E+00 +1.24041E+01 -1.18860E+01 +9.72539E+00 -1.40788E+01 +6.29782E+00 -1.52534E+01 +2.38211E+00
 -1.53107E+01 -1.72133E+00 -1.42390E+01 -5.69582E+00 -1.21146E+01 -9.23315E+00 -9.09658E+00 -1.20577E+01
 -5.41447E+00 -1.39482E+01 -1.35052E+00 -1.47548E+01 +2.78203E+00 -1.44115E+01 +6.66321E+00 -1.29412E+01
 +9.99115E+00 -1.04542E+01 +1.25056E+01 -7.14022E+00 +1.40080E+01 -3.25366E+00 +1.43776E+01 +9.05798E-01
 +1.35802E+01 +5.01616E+00 +1.16717E+01 +8.75795E+00 +8.79380E+00 +1.18389E+01 +5.16320E+00 +1.40163E+01
 +1.05526E+00 +1.51163E+01 -3.21711E+00 +1.50466E+01 -7.32736E+00 +1.38046E+01 -1.09604E+01 +1.14771E+01
 -1.38365E+01 +8.23387E+00 -1.57332E+01 +4.31508E+00 -1.65020E+01 +1.26457E-02 -1.60796E+01 -4.35187E+00
 -1.44934E+01 -8.45189E+00 -1.18587E+01 -1.19807E+01 -8.37017E+00 -1.46748E+01 -4.28697E+00 -1.63341E+01
 +8.71592E-02 -1.68369E+01 +4.42713E+00 -1.61491E+01 +8.41131E+00 -1.43267E+01 +1.17460E+01 -1.15113E+01
 +1.41878E+01 -7.91891E+00 +1.55619E+01 -3.82344E+00 +1.57754E+01 +4.64521E-01 +1.48240E+01 +4.62152E+00
 +1.27917E+01 +8.33600E+00 +9.84441E+00 +1.13321E+01 +6.21677E+00 +1.33906E+01 +2.19366E+00 +1.43655E+01
 -1.91173E+00 +1.41948E+01 -5.78217E+00 +1.29049E+01 -9.12076E+00 +1.06080E+01 -1.16737E+01 +7.49337E+00
 -1.32498E+01 +3.81189E+00 -1.37344E+01 -1.43245E-01 -1.30987E+01 -4.05956E+00 -1.14008E+01 -7.62955E+00
 -8.78117E+00 -1.05744E+01 -5.45125E+00 -1.26656E+01 -1.67685E+00 -1.37424E+01 +2.24283E+00 -1.37238E+01
 +5.99854E+00 -1.26149E+01 +9.29509E+00 -1.05059E+01 +1.18742E+01 -7.56482E+00 +1.35347E+01 -4.02429E+00
 +1.41477E+01 -1.63041E-01 +1.36666E+01 +3.71586E+00 +1.21305E+01 +7.30868E+00 +9.66091E+00 +1.03347E+01
 +6.45205E+00 +1.25582E+01 +2.75561E+00 +1.38064E+01 -1.13905E+00 +1.39831E+01 -4.92749E+00 +1.30759E+01
 -8.31393E+00 +1.11573E+01 -1.10343E+01 +8.37849E+00 -1.28769E+01 +4.95765E+00 -1.36986E+01 +1.16302E+00
 -1.34361E+01 -2.70821E+00 -1.21106E+01 -6.35304E+00 -9.82654E+00 -9.48624E+00 -6.76271E+00 -1.18626E+01
 -3.15887E+00 -1.32958E+01 +7.03180E-01 -1.36731E+01 +4.52149E+00 -1.29641E+01 +7.99742E+00 -1.12227E+01
 +1.08589E+01 -8.58337E+00 +1.28813E+01 -5.25026E+00 +1.39054E+01 -1.48167E+00 +1.38491E+01 +2.43018E+00
 +1.27142E+01 +6.18177E+00 +1.05859E+01 +9.48180E+00 +7.62668E+00 +1.20738E+01 +4.06317E+00 +1.37558E+01
 +1.68891E-01 +1.43963E+01 -3.75699E+00 +1.39441E+01 -7.41282E+00 +1.24322E+01 -1.05178E+01 +9.97553E+00
 -1.28334E+01 +6.76173E+00 -1.41824E+01 +3.03668E+00 -1.44618E+01 -9.14503E-01 -1.36510E+01 -4.78954E+00
 -1.18135E+01 -8.29231E+00 -9.09155E+00 -1.11558E+01 -5.69523E+00 -1.31624E+01 -1.88621E+00 -1.41610E+01
 +2.04262E+00 -1.40783E+01 +5.78982E+00 -1.29245E+01 +9.06862E+00 -1.07920E+01 +1.16291E+01 -7.84863E+00
 +1.32773E+01 -4.32423E+00 +1.38903E+01 -4.92828E-01 +1.34254E+01 +3.34864E+00 +1.19232E+01 +6.90329E+00
 +9.50466E+00 +9.89728E+00 +6.36106E+00 +1.21009E+01 +2.73941E+00 +1.33464E+01 -1.07693E+00 +1.35407E+01
 -4.79024E+00 +1.26723E+01 -8.11152E+00 +1.08126E+01 -1.07829E+01 +8.10954E+00 -1.25976E+01 +4.77630E+00
 -1.34158E+01 +1.07468E+00 -1.31755E+01 -2.70535E+00 -1.18970E+01 -6.26818E+00 -9.68154E+00 -9.33553E+00
 -6.70295E+00 -1.16680E+01 -3.19438E+00 -1.30835E+01 +5.69970E-01 -1.34717E+01 +4.29618E+00 -1.28018E+01
 +7.69340E+00 -1.11258E+01 +1.04964E+01 -8.57345E+00 +1.24863E+01 -5.34290E+00 +1.35070E+01 -1.68486E+00
 +1.34781E+01 +2.11671E+00 +1.24001E+01 +5.76665E+00 +1.03553E+01 +8.98142E+00 +7.50052E+00 +1.15111E+01
 +4.05568E+00 +1.31587E+01 +2.86313E-01 +1.37954E+01 -3.51682E+00 +1.33704E+01 -7.06022E+00 +1.19149E+01
 -1.00703E+01 +9.53987E+00 -1.23145E+01 +6.42693E+00 -1.36194E+01 +2.81482E+00 -1.38836E+01 -1.01928E+00
 -1.30861E+01 -4.78108E+00 -1.12873E+01 -8.18190E+00 -8.62475E+00 -1.09608E+01 -5.30224E+00 -1.29049E+01
 -1.57408E+00 -1.38653E+01 +2.27444E+00 -1.37689E+01 +5.94911E+00 -1.26235E+01 +9.16937E+00 -1.05174E+01
 +1.16899E+01 -7.61263E+00 +1.33193E+01 -4.13175E+00 +1.39348E+01 -3.41264E-01 +1.34917E+01 +3.46926E+00
 +1.20261E+01 +7.00938E+00 +9.65252E+00 +1.00101E+01 +6.55464E+00 +1.22446E+01 +2.97093E+00 +1.35454E+01
 -8.23732E-01 +1.38169E+01 -4.53933E+00 +1.30429E+01 -7.89306E+00 +1.12874E+01 -1.06310E+01 +8.68915E+00
 -1.25478E+01 +5.45114E+00 -1.35017E+01 +1.82439E+00 -1.34261E+01 -1.91146E+00 -1.23334E+01 -5.46979E+00
 -1.03145E+01 -8.57916E+00 -7.53112E+00 -1.10042E+01 -4.20291E+00 -1.25637E+01 -5.90395E-01 -1.31441E+01
 +3.02541E+00 -1.27085E+01 +6.36490E+00 -1.12986E+01 +9.17149E+00 -9.03155E+00 +1.12315E+01 -6.09022E+00
 +1.23903E+01 -2.70897E+00 +1.25647E+01 +8.44938E-01 +1.17484E+01 +4.29223E+00 +1.00124E+01 +7.36343E+00
 +7.49965E+00 +9.81980E+00 +4.41291E+00 +1.14719E+01 +9.99174E-01 +1.21942E+01 -2.46991E+00 +1.19346E+01
 -5.71938E+00 +1.07185E+01 -8.49245E+00 +8.64626E+00 -1.05706E+01 +5.88560E+00 -1.17906E+01 +2.65794E+00
 -1.20571E+01 -7.78899E-01 -1.13504E+01 -4.15094E+00 -9.72743E+00 -7.18963E+00 -7.31734E+00 -9.65283E+00
 -4.31159E+00 -1.13438E+01 -9.48651E-01 -1.21268E+01 +2.50456E+00 -1.19375E+01 +5.77362E+00 -1.07880E+01
 +8.59811E+00 -8.76632E+00 +1.07520E+01 -6.02932E+00 +1.20614E+01 -2.79053E+00 +1.24184E+01 +6.96433E-01
 +1.17890E+01 +4.15758E+00 +1.02170E+01 +7.31993E+00 +7.81977E+00 +9.93279E+00 +4.77966E+00 +1.17873E+01
 +1.33010E+00 +1.27330E+01 -2.26261E+00 +1.26892E+01 -5.71981E+00 +1.16520E+01 -8.77205E+00 +9.69453E+00
 -1.11800E+01 +6.96138E+00 -1.27530E+01 +3.65783E+00 -1.33639E+01 +3.40352E-02 -1.29592E+01 -3.63410E+00
 -1.15630E+01 -7.06615E+00 -9.27580E+00 -9.99870E+00 -6.26639E+00 -1.22056E+01 -2.75947E+00 -1.35156E+01
 +9.81721E-01 -1.38250E+01 +4.67540E+00 -1.31065E+01 +8.04282E+00 -1.14107E+01 +1.08296E+01 -8.86253E+00
 +1.28250E+01 -5.65181E+00 +1.38783E+01 -2.01871E+00 +1.39100E+01 +1.76458E+00 +1.29179E+01 +5.41458E+00
 +1.09774E+01 +8.65813E+00 +8.23525E+00 +1.12532E+01 +4.89871E+00 +1.30071E+01 +1.21938E+00 +1.37913E+01
 -2.52597E+00 +1.35508E+01 -6.05653E+00 +1.23084E+01 -9.10883E+00 +1.01624E+01 -1.14567E+01 +7.27887E+00
 -1.29285E+01 +3.87913E+00 -1.34196E+01 +2.22223E-01 -1.29006E+01 -3.41481E+00 -1.14186E+01 -6.75816E+00
 -9.09354E+00 -9.55816E+00 -6.10876E+00 -1.16082E+01 -2.69628E+00 -1.27603E+01 +8.81057E-01 -1.29360E+01
 +4.34996E+00 -1.21322E+01 +7.44775E+00 -1.04205E+01 +9.94242E+00 -7.94143E+00 +1.16503E+01 -4.89336E+00
 +1.24500E+01 -1.51644E+00 +1.22912E+01 +1.92599E+00 +1.11979E+01 +5.16798E+00 +9.26651E+00 +7.96160E+00
 +6.65742E+00 +1.00960E+01 +3.58232E+00 +1.14136E+01 +2.87333E-01 +1.18219E+01 -2.96641E+00 +1.13004E+01
 -5.92325E+00 +9.90167E+00 -8.35295E+00 +7.74678E+00 -1.00686E+01 +5.01546E+00 -1.09411E+01 +1.93165E+00
 -1.09089E+01 -1.25429E+00 -9.98261E+00 -4.28541E+00 -8.24389E+00 -6.91846E+00 -5.83867E+00 -8.94299E+00
