 Created: 19-Jan-2021
 $NMID
 ID='D:\BASISSIMULATI'
 FMTDAT='(8E13.5)'
 VOLUME=   1.00000E+00
 TRAMP=   1.00000E+00
 $END
 +1.29019E+01 +1.45283E-02 +1.22217E+01 +6.56276E-01 +1.03102E+01 +1.44363E+00 +7.46507E+00 +2.46867E+00
 +4.11587E+00 +3.72726E+00 +7.42384E-01 +5.10585E+00 -2.21259E+00 +6.39963E+00 -4.41783E+00 +7.35803E+00
 -5.70060E+00 +7.74647E+00 -6.05791E+00 +7.40899E+00 -5.63257E+00 +6.31535E+00 -4.66263E+00 +4.58051E+00
 -3.41834E+00 +2.45050E+00 -2.14263E+00 +2.57338E-01 -1.00886E+00 -1.64696E+00 -1.04191E-01 -2.96196E+00
 +5.60735E-01 -3.49936E+00 +1.02185E+00 -3.21882E+00 +1.32297E+00 -2.23115E+00 +1.48148E+00 -7.69188E-01
 +1.46963E+00 +8.65868E-01 +1.21754E+00 +2.36907E+00 +6.37475E-01 +3.49184E+00 -3.38026E-01 +4.08389E+00
 -1.71569E+00 +4.10830E+00 -3.41194E+00 +3.62867E+00 -5.24478E+00 +2.77415E+00 -6.95252E+00 +1.69365E+00
 -8.23724E+00 +5.12970E-01 -8.82430E+00 -6.93292E-01 -8.52399E+00 -1.90758E+00 -7.28028E+00 -3.15252E+00
 -5.19374E+00 -4.45742E+00 -2.51165E+00 -5.81952E+00 +4.13846E-01 -7.17294E+00 +3.19115E+00 -8.37674E+00
 +5.46378E+00 -9.22838E+00 +6.97732E+00 -9.50153E+00 +7.62361E+00 -9.00057E+00 +7.45252E+00 -7.61827E+00
 +6.64930E+00 -5.38151E+00 +5.48362E+00 -2.47159E+00 +4.24325E+00 +7.88752E-01 +3.16866E+00 +3.98159E+00
 +2.40402E+00 +6.66528E+00 +1.97588E+00 +8.45658E+00 +1.80338E+00 +9.10557E+00 +1.73586E+00 +8.54666E+00
 +1.60701E+00 +6.91398E+00 +1.29040E+00 +4.51723E+00 +7.41470E-01 +1.78303E+00 +1.47959E-02 -8.25608E-01
 -7.48132E-01 -2.89428E+00 -1.35721E+00 -4.12881E+00 -1.62800E+00 -4.39898E+00 -1.43760E+00 -3.74684E+00
 -7.66895E-01 -2.36028E+00 +2.82216E-01 -5.20515E-01 +1.50016E+00 +1.46270E+00 +2.61103E+00 +3.31222E+00
 +3.33247E+00 +4.82752E+00 +3.43956E+00 +5.90339E+00 +2.81756E+00 +6.52213E+00 +1.49035E+00 +6.72531E+00
 -3.81812E-01 +6.57592E+00 -2.53485E+00 +6.12358E+00 -4.65544E+00 +5.38391E+00 -6.44447E+00 +4.33793E+00
 -7.67427E+00 +2.95147E+00 -8.22656E+00 +1.20768E+00 -8.10328E+00 -8.58037E-01 -7.40942E+00 -3.13307E+00
 -6.31425E+00 -5.42244E+00 -5.00235E+00 -7.46826E+00 -3.62800E+00 -8.99167E+00 -2.28509E+00 -9.74875E+00
 -9.99635E-01 -9.58719E+00 +2.54257E-01 -8.48935E+00 +1.52105E+00 -6.58972E+00 +2.82411E+00 -4.16062E+00
 +4.13256E+00 -1.56739E+00 +5.34598E+00 +7.98373E-01 +6.30325E+00 +2.59294E+00 +6.81521E+00 +3.58582E+00
 +6.71372E+00 +3.70141E+00 +5.90471E+00 +3.02788E+00 +4.41063E+00 +1.79142E+00 +2.38963E+00 +3.02358E-01
 +1.23818E-01 -1.11396E+00 -2.02340E+00 -2.18538E+00 -3.67328E+00 -2.74460E+00 -4.50727E+00 -2.75307E+00
 -4.33508E+00 -2.29310E+00 -3.13978E+00 -1.53185E+00 -1.08878E+00 -6.67805E-01 +1.49252E+00 +1.25707E-01
 +4.17942E+00 +7.45179E-01 +6.52647E+00 +1.17860E+00 +8.14914E+00 +1.49919E+00 +8.79129E+00 +1.83384E+00
 +8.36482E+00 +2.31555E+00 +6.95435E+00 +3.03325E+00 +4.78801E+00 +3.99329E+00 +2.18296E+00 +5.10333E+00
 -5.20593E-01 +6.18401E+00 -3.02141E+00 +7.00591E+00 -5.10184E+00 +7.34296E+00 -6.64715E+00 +7.02899E+00
 -7.63831E+00 +6.00286E+00 -8.12408E+00 +4.33074E+00 -8.18293E+00 +2.19932E+00 -7.88721E+00 -1.18670E-01
 -7.28031E+00 -2.31862E+00 -6.37290E+00 -4.12490E+00 -5.15826E+00 -5.34394E+00 -3.64059E+00 -5.89732E+00
 -1.86604E+00 -5.82751E+00 +5.50916E-02 -5.27621E+00 +1.94424E+00 -4.44191E+00 +3.57310E+00 -3.52817E+00
 +4.70262E+00 -2.69636E+00 +5.13435E+00 -2.03465E+00 +4.76161E+00 -1.55052E+00 +3.60686E+00 -1.18733E+00
 +1.83429E+00 -8.59099E-01 -2.68042E-01 -4.92500E-01 -2.33485E+00 -6.31751E-02 -3.99016E+00 +3.84794E-01
 -4.91975E+00 +7.42925E-01 -4.93347E+00 +8.65864E-01 -4.00330E+00 +6.15674E-01 -2.26840E+00 -8.89309E-02
 -5.84418E-03 -1.23225E+00 +2.42631E+00 -2.68242E+00 +4.66067E+00 -4.20081E+00 +6.39087E+00 -5.48013E+00
 +7.42491E+00 -6.20430E+00 +7.71069E+00 -6.11709E+00 +7.32920E+00 -5.08349E+00 +6.45915E+00 -3.12933E+00
 +5.32327E+00 -4.48684E-01 +4.13042E+00 +2.62375E+00 +3.02821E+00 +5.67018E+00 +2.07732E+00 +8.26519E+00
 +1.25265E+00 +1.00530E+01 +4.69315E-01 +1.08100E+01 -3.75013E-01 +1.04800E+01 -1.35413E+00 +9.17456E+00
 -2.47692E+00 +7.14195E+00 -3.67120E+00 +4.71095E+00 -4.79259E+00 +2.22481E+00 -5.65657E+00 -2.01347E-02
 -6.08539E+00 -1.81819E+00 -5.95744E+00 -3.07254E+00 -5.24587E+00 -3.78697E+00 -4.03554E+00 -4.03682E+00
 -2.51331E+00 -3.92962E+00 -9.33022E-01 -3.56745E+00 +4.36659E-01 -3.02181E+00 +1.36913E+00 -2.32701E+00
 +1.72761E+00 -1.49234E+00 +1.49239E+00 -5.27306E-01 +7.60955E-01 +5.29677E-01 -2.78320E-01 +1.59026E+00
 -1.39224E+00 +2.51158E+00 -2.35663E+00 +3.11252E+00 -3.00458E+00 +3.20880E+00 -3.25731E+00 +2.65915E+00
 -3.13068E+00 +1.41093E+00 -2.71690E+00 -4.67881E-01 -2.14742E+00 -2.78030E+00 -1.54795E+00 -5.22086E+00
 -9.98542E-01 -7.42291E+00 -5.09948E-01 -9.02394E+00 -2.32356E-02 -9.73527E+00 +5.67131E-01 -9.40066E+00
 +1.37283E+00 -8.03026E+00 +2.46516E+00 -5.80180E+00 +3.83567E+00 -3.02816E+00 +5.37601E+00 -9.80567E-02
 +6.88411E+00 +2.59713E+00 +8.09741E+00 +4.73451E+00 +8.74655E+00 +6.11347E+00 +8.61741E+00 +6.68126E+00
 +7.60672E+00 +6.52604E+00 +5.75715E+00 +5.84117E+00 +3.26259E+00 +4.87054E+00 +4.40761E-01 +3.84910E+00
 -2.32169E+00 +2.95307E+00 -4.64017E+00 +2.27088E+00 -6.20382E+00 +1.80043E+00 -6.83227E+00 +1.47104E+00
 -6.50552E+00 +1.18213E+00 -5.36094E+00 +8.46845E-01 -3.65934E+00 +4.27761E-01 -1.72864E+00 -4.54479E-02
 +1.01438E-01 -4.81223E-01 +1.55896E+00 -7.52699E-01 +2.47109E+00 -7.38064E-01 +2.77979E+00 -3.63199E-01
 +2.53123E+00 +3.65674E-01 +1.84449E+00 +1.34918E+00 +8.70110E-01 +2.40643E+00 -2.49653E-01 +3.30943E+00
 -1.40819E+00 +3.83220E+00 -2.54354E+00 +3.80283E+00 -3.62856E+00 +3.14544E+00 -4.64764E+00 +1.90125E+00
 -5.56926E+00 +2.23279E-01 -6.32501E+00 -1.65438E+00 -6.80365E+00 -3.46546E+00 -6.86447E+00 -4.96680E+00
 -6.36832E+00 -5.98652E+00 -5.21888E+00 -6.45386E+00 -3.40328E+00 -6.40381E+00 -1.01984E+00 -5.95647E+00
 +1.71664E+00 -5.27712E+00 +4.49656E+00 -4.52825E+00 +6.96216E+00 -3.82632E+00 +8.77042E+00 -3.21466E+00
 +9.65908E+00 -2.65963E+00 +9.50091E+00 -2.07060E+00 +8.33343E+00 -1.33802E+00 +6.35654E+00 -3.78756E-01
 +3.89756E+00 +8.24169E-01 +1.35066E+00 +2.19921E+00 -8.96472E-01 +3.58856E+00 -2.53307E+00 +4.77594E+00
 -3.37784E+00 +5.53421E+00 -3.40306E+00 +5.68135E+00 -2.72624E+00 +5.13096E+00 -1.57282E+00 +3.92417E+00
 -2.20046E-01 +2.23394E+00 +1.06436E+00 +3.39370E-01 +2.07421E+00 -1.42530E+00 +2.69657E+00 -2.73601E+00
 +2.91736E+00 -3.34407E+00 +2.80236E+00 -3.12653E+00 +2.46070E+00 -2.11058E+00 +2.00243E+00 -4.66853E-01
 +1.50244E+00 +1.52640E+00 +9.80442E-01 +3.53960E+00 +4.02241E-01 +5.25544E+00 -2.99156E-01 +6.42568E+00
 -1.18930E+00 +6.90922E+00 -2.29564E+00 +6.68448E+00 -3.57983E+00 +5.83576E+00 -4.92800E+00 +4.51948E+00
 -6.16335E+00 +2.92060E+00 -7.07895E+00 +1.21121E+00 -7.48328E+00 -4.78388E-01 -7.24725E+00 -2.07005E+00
 -6.34021E+00 -3.52904E+00 -4.84556E+00 -4.84148E+00 -2.95060E+00 -5.98692E+00 -9.12577E-01 -6.91636E+00
 +9.91908E-01 -7.54432E+00 +2.52214E+00 -7.75906E+00 +3.52022E+00 -7.44967E+00 +3.93854E+00 -6.54322E+00
 +3.84161E+00 -5.04139E+00 +3.38227E+00 -3.04534E+00 +2.75870E+00 -7.59605E-01 +2.16338E+00 +1.52926E+00
 +1.73704E+00 +3.49703E+00 +1.53890E+00 +4.84103E+00 +1.54048E+00 +5.34147E+00 +1.64383E+00 +4.91080E+00
 +1.71857E+00 +3.61905E+00 +1.64746E+00 +1.68812E+00 +1.36774E+00 -5.45025E-01 +8.96619E-01 -2.68928E+00
 +3.33668E-01 -4.37176E+00 -1.61474E-01 -5.30626E+00 -4.10656E-01 -5.34338E+00 -2.67662E-01 -4.49210E+00
 +3.35584E-01 -2.90910E+00 +1.35947E+00 -8.59467E-01 +2.65232E+00 +1.34116E+00 +3.97359E+00 +3.38951E+00
 +5.04018E+00 +5.04839E+00 +5.58567E+00 +6.18017E+00 +5.41880E+00 +6.75434E+00 +4.46762E+00 +6.83022E+00
 +2.79887E+00 +6.52174E+00 +6.08211E-01 +5.95537E+00 -1.81664E+00 +5.23306E+00 -4.15110E+00 +4.40999E+00
 -6.09462E+00 +3.49203E+00 -7.42388E+00 +2.45226E+00 -8.02668E+00 +1.26016E+00 -7.91055E+00 -8.63732E-02
 -7.18590E+00 -1.53676E+00 -6.02986E+00 -2.97976E+00 -4.64115E+00 -4.25559E+00 -3.19779E+00 -5.18623E+00
 -1.82786E+00 -5.61678E+00 -5.99211E-01 -5.45704E+00 +4.71506E-01 -4.71212E+00 +1.39541E+00 -3.49289E+00
 +2.18269E+00 -2.00217E+00 +2.81860E+00 -4.98598E-01 +3.25278E+00 +7.54237E-01 +3.40618E+00 +1.54168E+00
 +3.19438E+00 +1.74232E+00 +2.56116E+00 +1.35208E+00 +1.51226E+00 +4.82258E-01 +1.38465E-01 -6.67901E-01
 -1.38060E+00 -1.85753E+00 -2.79610E+00 -2.85807E+00 -3.83108E+00 -3.50174E+00 -4.23503E+00 -3.71325E+00
 -3.84005E+00 -3.51742E+00 -2.60514E+00 -3.02179E+00 -6.37328E-01 -2.37957E+00 +1.81687E+00 -1.74311E+00
 +4.40937E+00 -1.22037E+00 +6.75088E+00 -8.45963E-01 +8.48134E+00 -5.74350E-01 +9.33553E+00 -2.96872E-01
 +9.19006E+00 +1.21932E-01 +8.08186E+00 +7.98507E-01 +6.19508E+00 +1.78735E+00 +3.81994E+00 +3.05275E+00
 +1.29368E+00 +4.46347E+00 -1.06306E+00 +5.81269E+00 -3.00053E+00 +6.85933E+00 -4.37381E+00 +7.38110E+00
 -5.15095E+00 +7.22666E+00 -5.39607E+00 +6.35417E+00 -5.23438E+00 +4.84670E+00 -4.80965E+00 +2.90040E+00
 -4.24589E+00 +7.88050E-01 -3.62281E+00 -1.19378E+00 -2.97022E+00 -2.78178E+00 -2.28080E+00 -3.79421E+00
 -1.53556E+00 -4.16001E+00 -7.32741E-01 -3.92297E+00 +8.98359E-02 -3.22148E+00 +8.47022E-01 -2.25015E+00
 +1.41678E+00 -1.21366E+00 +1.66707E+00 -2.84399E-01 +1.49241E+00 +4.26121E-01 +8.50062E-01 +8.76305E-01
 -2.14734E-01 +1.08382E+00 -1.56270E+00 +1.10029E+00 -2.97727E+00 +9.80316E-01 -4.20188E+00 +7.54787E-01
 -4.99011E+00 +4.17173E-01 -5.15733E+00 -7.29257E-02 -4.62161E+00 -7.69696E-01 -3.42385E+00 -1.71048E+00
 -1.72188E+00 -2.88409E+00 +2.40614E-01 -4.20839E+00 +2.18339E+00 -5.52579E+00 +3.84583E+00 -6.62037E+00
 +5.03706E+00 -7.25511E+00 +5.66864E+00 -7.22179E+00 +5.76266E+00 -6.39201E+00 +5.43429E+00 -4.75703E+00
 +4.85410E+00 -2.44546E+00 +4.20003E+00 +2.86999E-01 +3.61161E+00 +3.09541E+00 +3.15790E+00 +5.60423E+00
 +2.82674E+00 +7.47467E+00 +2.53767E+00 +8.46657E+00 +2.17415E+00 +8.48151E+00 +1.62614E+00 +7.57806E+00
 +8.31139E-01 +5.95618E+00 -1.97546E-01 +3.91477E+00 -1.36344E+00 +1.79221E+00 -2.50290E+00 -9.68992E-02
 -3.42099E+00 -1.51517E+00 -3.93839E+00 -2.33549E+00 -3.93761E+00 -2.54818E+00 -3.39660E+00 -2.24330E+00
