 Created: 19-Jan-2021
 $NMID
 ID='D:\BASISSIMULATI'
 FMTDAT='(8E13.5)'
 VOLUME=   1.00000E+00
 TRAMP=   1.00000E+00
 $END
 +6.92462E+00 +7.84169E-03 +6.75884E+00 +1.40633E+00 +6.28038E+00 +2.72340E+00 +5.52081E+00 +3.88485E+00
 +4.52967E+00 +4.82760E+00 +3.37084E+00 +5.50398E+00 +2.11780E+00 +5.88499E+00 +8.48255E-01 +5.96201E+00
 -3.61488E-01 +5.74706E+00 -1.44197E+00 +5.27150E+00 -2.33545E+00 +4.58334E+00 -2.99986E+00 +3.74331E+00
 -3.41144E+00 +2.82006E+00 -3.56609E+00 +1.88481E+00 -3.47904E+00 +1.00596E+00 -3.18321E+00 +2.43877E-01
 -2.72615E+00 -3.53462E-01 -2.16591E+00 -7.53928E-01 -1.56619E+00 -9.43351E-01 -9.91106E-01 -9.26218E-01
 -4.99979E-01 -7.24902E-01 -1.42603E-01 -3.77488E-01 +4.47134E-02 +6.56131E-02 +4.19804E-02 +5.45997E-01
 -1.52955E-01 +1.00220E+00 -5.24317E-01 +1.37481E+00 -1.03975E+00 +1.61148E+00 -1.65294E+00 +1.67123E+00
 -2.30742E+00 +1.52794E+00 -2.94110E+00 +1.17263E+00 -3.49124E+00 +6.14361E-01 -3.89959E+00 -1.20222E-01
 -4.11706E+00 -9.88797E-01 -4.10777E+00 -1.93645E+00 -3.85205E+00 -2.89977E+00 -3.34825E+00 -3.81163E+00
 -2.61309E+00 -4.60622E+00 -1.68071E+00 -5.22405E+00 -6.00327E-01 -5.61649E+00 +5.67244E-01 -5.74944E+00
 +1.75392E+00 -5.60598E+00 +2.88925E+00 -5.18769E+00 +3.90546E+00 -4.51465E+00 +4.74233E+00 -3.62400E+00
 +5.35143E+00 -2.56726E+00 +5.69955E+00 -1.40668E+00 +5.77093E+00 -2.10683E-01 +5.56818E+00 +9.50966E-01
 +5.11188E+00 +2.01215E+00 +4.43886E+00 +2.91501E+00 +3.59928E+00 +3.61391E+00 +2.65275E+00 +4.07844E+00
 +1.66388E+00 +4.29526E+00 +6.97470E-01 +4.26863E+00 -1.86238E-01 +4.01963E+00 -9.35821E-01 +3.58413E+00
 -1.51225E+00 +3.00970E+00 -1.89145E+00 +2.35169E+00 -2.06565E+00 +1.66877E+00 -2.04350E+00 +1.01836E+00
 -1.84887E+00 +4.52191E-01 -1.51859E+00 +1.23900E-02 -1.09912E+00 -2.71568E-01 -6.42595E-01 -3.84921E-01
 -2.02481E-01 -3.28473E-01 +1.70828E-01 -1.18214E-01 +4.34088E-01 +2.16254E-01 +5.54678E-01 +6.34340E-01
 +5.13186E-01 +1.08794E+00 +3.04928E-01 +1.52545E+00 -5.97125E-02 +1.89606E+00 -5.56141E-01 +2.15393E+00
 -1.14753E+00 +2.26194E+00 -1.78774E+00 +2.19479E+00 -2.42499E+00 +1.94108E+00 -3.00592E+00 +1.50438E+00
 -3.47983E+00 +9.03052E-01 -3.80261E+00 +1.69024E-01 -3.94029E+00 -6.54591E-01 -3.87169E+00 -1.51666E+00
 -3.59015E+00 -2.36181E+00 -3.10414E+00 -3.13458E+00 -2.43675E+00 -3.78348E+00 -1.62402E+00 -4.26484E+00
 -7.12384E-01 -4.54596E+00 +2.44721E-01 -4.60751E+00 +1.19068E+00 -4.44489E+00 +2.06977E+00 -4.06845E+00
 +2.83115E+00 -3.50271E+00 +3.43239E+00 -2.78439E+00 +3.84240E+00 -1.95973E+00 +4.04344E+00 -1.08101E+00
 +4.03217E+00 -2.02733E-01 +3.81955E+00 +6.22264E-01 +3.42981E+00 +1.34659E+00 +2.89828E+00 +1.93157E+00
 +2.26863E+00 +2.34974E+00 +1.58938E+00 +2.58663E+00 +9.10256E-01 +2.64134E+00 +2.78450E-01 +2.52621E+00
 -2.64824E-01 +2.26551E+00 -6.87232E-01 +1.89316E+00 -9.67488E-01 +1.44987E+00 -1.09664E+00 +9.79791E-01
 -1.07836E+00 +5.26951E-01 -9.28272E-01 +1.31824E-01 -6.72384E-01 -1.71773E-01 -3.44701E-01 -3.59201E-01
 +1.56919E-02 -4.16750E-01 +3.67908E-01 -3.42497E-01 +6.72617E-01 -1.46238E-01 +8.95223E-01 +1.51514E-01
 +1.00862E+00 +5.21349E-01 +9.95321E-01 +9.27455E-01 +8.48800E-01 +1.33058E+00 +5.73954E-01 +1.69125E+00
 +1.86677E-01 +1.97293E+00 -2.87441E-01 +2.14495E+00 -8.15141E-01 +2.18495E+00 -1.35811E+00 +2.08064E+00
 -1.87598E+00 +1.83081E+00 -2.32940E+00 +1.44537E+00 -2.68313E+00 +9.44684E-01 -2.90863E+00 +3.58010E-01
 -2.98629E+00 -2.78704E-01 -2.90683E+00 -9.25497E-01 -2.67198E+00 -1.54136E+00 -2.29431E+00 -2.08723E+00
 -1.79626E+00 -2.52887E+00 -1.20842E+00 -2.83926E+00 -5.67254E-01 -3.00050E+00 +8.75869E-02 -3.00497E+00
 +7.16157E-01 -2.85575E+00 +1.28107E+00 -2.56619E+00 +1.75013E+00 -2.15878E+00 +2.09849E+00 -1.66335E+00
 +2.31029E+00 -1.11474E+00 +2.37956E+00 -5.50187E-01 +2.31033E+00 -6.60268E-03 +2.11610E+00 +4.82118E-01
 +1.81853E+00 +8.87445E-01 +1.44561E+00 +1.18812E+00 +1.02936E+00 +1.37147E+00 +6.03367E-01 +1.43406E+00
 +2.00163E-01 +1.38160E+00 -1.51131E-01 +1.22819E+00 -4.26909E-01 +9.94949E-01 -6.10681E-01 +7.08161E-01
 -6.94090E-01 +3.97049E-01 -6.77274E-01 +9.14152E-02 -5.68575E-01 -1.80704E-01 -3.83612E-01 -3.95187E-01
 -1.43832E-01 -5.33613E-01 +1.25366E-01 -5.84556E-01 +3.96753E-01 -5.44311E-01 +6.43495E-01 -4.16998E-01
 +8.41276E-01 -2.14051E-01 +9.70195E-01 +4.68393E-02 +1.01626E+00 +3.43255E-01 +9.72417E-01 +6.49912E-01
 +8.38966E-01 +9.40701E-01 +6.23471E-01 +1.19075E+00 +3.40054E-01 +1.37838E+00 +8.22133E-03 +1.48669E+00
 -3.48706E-01 +1.50489E+00 -7.05422E-01 +1.42897E+00 -1.03659E+00 +1.26200E+00 -1.31874E+00 +1.01376E+00
 -1.53202E+00 +6.99948E-01 -1.66162E+00 +3.40904E-01 -1.69879E+00 -3.99339E-02 -1.64138E+00 -4.17820E-01
 -1.49388E+00 -7.68528E-01 -1.26695E+00 -1.07010E+00 -9.76551E-01 -1.30440E+00 -6.42648E-01 -1.45832E+00
 -2.87668E-01 -1.52459E+00 +6.51619E-02 -1.50216E+00 +3.93512E-01 -1.39609E+00 +6.77518E-01 -1.21700E+00
 +9.01122E-01 -9.80100E-01 +1.05310E+00 -7.03990E-01 +1.12767E+00 -4.09157E-01 +1.12474E+00 -1.16447E-01
 +1.04965E+00 +1.54456E-01 +9.12572E-01 +3.86411E-01 +7.27576E-01 +5.65955E-01 +5.11420E-01 +6.84121E-01
 +2.82207E-01 +7.36903E-01 +5.79874E-02 +7.25314E-01 -1.44575E-01 +6.55085E-01 -3.11374E-01 +5.36013E-01
 -4.31797E-01 +3.81040E-01 -4.99355E-01 +2.05128E-01 -5.11974E-01 +2.40382E-02 -4.71945E-01 -1.46901E-01
 -3.85543E-01 -2.93937E-01 -2.62361E-01 -4.05869E-01 -1.14429E-01 -4.74784E-01 +4.48239E-02 -4.96511E-01
 +2.01656E-01 -4.70774E-01 +3.43082E-01 -4.01036E-01 +4.57835E-01 -2.94073E-01 +5.37150E-01 -1.59310E-01
 +5.75329E-01 -7.98805E-03 +5.70041E-01 +1.47768E-01 +5.22360E-01 +2.95908E-01 +4.36535E-01 +4.25365E-01
 +3.19540E-01 +5.26846E-01 +1.80431E-01 +5.93450E-01 +2.95869E-02 +6.21084E-01 -1.22123E-01 +6.08639E-01
 -2.64157E-01 +5.57942E-01 -3.87063E-01 +4.73490E-01 -4.83110E-01 +3.61993E-01 -5.46770E-01 +2.31790E-01
 -5.75005E-01 +9.21612E-02 -5.67356E-01 -4.73755E-02 -5.25842E-01 -1.77758E-01 -4.54679E-01 -2.90990E-01
 -3.59861E-01 -3.80645E-01 -2.48640E-01 -4.42218E-01 -1.28944E-01 -4.73319E-01 -8.79305E-03 -4.73705E-01
 +1.04257E-01 -4.45150E-01 +2.03591E-01 -3.91190E-01 +2.83913E-01 -3.16757E-01 +3.41500E-01 -2.27747E-01
 +3.74325E-01 -1.30552E-01 +3.82053E-01 -3.16094E-02 +3.65921E-01 +6.30260E-02 +3.28516E-01 +1.48031E-01
 +2.73497E-01 +2.19085E-01 +2.05259E-01 +2.73044E-01 +1.28594E-01 +3.08016E-01 +4.83630E-02 +3.23345E-01
 -3.07961E-02 +3.19521E-01 -1.04710E-01 +2.98024E-01 -1.69848E-01 +2.61129E-01 -2.23434E-01 +2.11691E-01
 -2.63500E-01 +1.52930E-01 -2.88879E-01 +8.82277E-02 -2.99161E-01 +2.09542E-02 -2.94618E-01 -4.56736E-02
 -2.76105E-01 -1.08699E-01 -2.44971E-01 -1.65496E-01 -2.02958E-01 -2.13820E-01 -1.52123E-01 -2.51831E-01
 -9.47667E-02 -2.78110E-01 -3.33723E-02 -2.91670E-01 +2.94480E-02 -2.91975E-01 +9.10070E-02 -2.78954E-01
 +1.48604E-01 -2.53028E-01 +1.99597E-01 -2.15129E-01 +2.41498E-01 -1.66723E-01 +2.72075E-01 -1.09803E-01
 +2.89481E-01 -4.68735E-02 +2.92380E-01 +1.91120E-02 +2.80080E-01 +8.48418E-02 +2.52642E-01 +1.46784E-01
 +2.10965E-01 +2.01364E-01 +1.56830E-01 +2.45168E-01 +9.28798E-02 +2.75179E-01 +2.25426E-02 +2.89006E-01
 -5.01150E-02 +2.85104E-01 -1.20601E-01 +2.62960E-01 -1.84266E-01 +2.23222E-01 -2.36613E-01 +1.67757E-01
 -2.73628E-01 +9.96191E-02 -2.92107E-01 +2.29270E-02 -2.89947E-01 -5.73492E-02 -2.66388E-01 -1.35689E-01
 -2.22158E-01 -2.06387E-01 -1.59526E-01 -2.63966E-01 -8.22375E-02 -3.03599E-01 +4.67339E-03 -3.21513E-01
 +9.51823E-02 -3.15344E-01 +1.82670E-01 -2.84401E-01 +2.60391E-01 -2.29816E-01 +3.21983E-01 -1.54568E-01
 +3.61974E-01 -6.33569E-02 +3.76252E-01 +3.76618E-02 +3.62458E-01 +1.41271E-01 +3.20257E-01 +2.39693E-01
 +2.51474E-01 +3.25158E-01 +1.60057E-01 +3.90508E-01 +5.18828E-02 +4.29779E-01 -6.56035E-02 +4.38720E-01
 -1.83891E-01 +4.15206E-01 -2.94008E-01 +3.59499E-01 -3.87195E-01 +2.74342E-01 -4.55592E-01 +1.64859E-01
 -4.92882E-01 +3.82641E-02 -4.94847E-01 -9.66028E-02 -4.59782E-01 -2.29885E-01 -3.88731E-01 -3.51428E-01
 -2.85523E-01 -4.51540E-01 -1.56584E-01 -5.21764E-01 -1.05526E-02 -5.55562E-01 +1.42299E-01 -5.48897E-01
 +2.90787E-01 -5.00630E-01 +4.23632E-01 -4.12712E-01 +5.30317E-01 -2.90147E-01 +6.01910E-01 -1.40714E-01
 +6.31791E-01 +2.55250E-02 +6.16233E-01 +1.96920E-01 +5.54768E-01 +3.61056E-01 +4.50322E-01 +5.05673E-01
 +3.09094E-01 +6.19585E-01 +1.40176E-01 +6.93562E-01 -4.50463E-02 +7.21066E-01 -2.33698E-01 +6.98813E-01
 -4.12338E-01 +6.27101E-01 -5.67959E-01 +5.09862E-01 -6.88967E-01 +3.54456E-01 -7.66085E-01 +1.71181E-01
 -7.93085E-01 -2.74380E-02 -7.67320E-01 -2.27550E-01 -6.89975E-01 -4.14992E-01 -5.66046E-01 -5.76354E-01
 -4.04015E-01 -6.99995E-01 -2.15263E-01 -7.76948E-01 -1.32437E-02 -8.01630E-01 +1.87506E-01 -7.72309E-01
 +3.72461E-01 -6.91278E-01 +5.28213E-01 -5.64725E-01 +6.43507E-01 -4.02297E-01 +7.10125E-01 -2.16398E-01
 +7.23547E-01 -2.12625E-02 +6.83334E-01 +1.68129E-01 +5.93202E-01 +3.37202E-01 +4.60775E-01 +4.72921E-01
 +2.97022E-01 +5.64824E-01 +1.15443E-01 +6.05866E-01 -6.89679E-02 +5.93007E-01 -2.40882E-01 +5.27496E-01
 -3.85839E-01 +4.14826E-01 -4.91397E-01 +2.64354E-01 -5.48144E-01 +8.86149E-02 -5.50485E-01 -9.76202E-02
 -4.97139E-01 -2.78478E-01 -3.91315E-01 -4.38217E-01 -2.40532E-01 -5.62470E-01 -5.61043E-02 -6.39398E-01
 +1.47676E-01 -6.60666E-01 +3.54600E-01 -6.22161E-01 +5.47771E-01 -5.24392E-01 +7.10904E-01 -3.72544E-01
 +8.29594E-01 -1.76164E-01 +8.92465E-01 +5.14862E-02 +8.92096E-01 +2.94380E-01 +8.25667E-01 +5.34892E-01
 +6.95251E-01 +7.55113E-01 +5.07745E-01 +9.38194E-01 +2.74429E-01 +1.06964E+00 +1.01859E-02 +1.13841E+00
 -2.67556E-01 +1.13784E+00 -5.40089E-01 +1.06614E+00 -7.88799E-01 +9.26594E-01 -9.96544E-01 +7.27408E-01
 -1.14893E+00 +4.81100E-01 -1.23540E+00 +2.03628E-01 -1.25003E+00 -8.67764E-02 -1.19197E+00 -3.70936E-01
 -1.06553E+00 -6.30147E-01 -8.79863E-01 -8.47555E-01 -6.48294E-01 -1.00941E+00 -3.87300E-01 -1.10606E+00
 -1.15288E-01 -1.13268E+00 +1.48793E-01 -1.08960E+00 +3.86878E-01 -9.82247E-01 +5.83145E-01 -8.20707E-01
 +7.25196E-01 -6.18931E-01 +8.04983E-01 -3.93639E-01 +8.19391E-01 -1.63018E-01 +7.70446E-01 +5.46977E-02
