 Created: 19-Jan-2021
 $NMID
 ID='D:\BASISSIMULATI'
 FMTDAT='(8E13.5)'
 VOLUME=   1.00000E+00
 TRAMP=   1.00000E+00
 $END
 +1.10597E+01 +1.25180E-02 +1.06944E+01 +2.78511E+00 +9.64577E+00 +5.37527E+00 +7.98210E+00 +7.61769E+00
 +5.81068E+00 +9.36952E+00 +3.27115E+00 +1.05195E+01 +5.26453E-01 +1.09952E+01 -2.24760E+00 +1.07670E+01
 -4.87359E+00 +9.85083E+00 -7.18385E+00 +8.30623E+00 -9.03116E+00 +6.23297E+00 -1.02981E+01 +3.76444E+00
 -1.09047E+01 +1.05910E+00 -1.08131E+01 -1.70971E+00 -1.00302E+01 -4.36486E+00 -8.60731E+00 -6.73677E+00
 -6.63628E+00 -8.67422E+00 -4.24404E+00 -1.00540E+01 -1.58420E+00 -1.07888E+01 +1.17276E+00 -1.08326E+01
 +3.85040E+00 -1.01838E+01 +6.27766E+00 -8.88482E+00 +8.29972E+00 -7.01982E+00 +9.78795E+00 -4.70892E+00
 +1.06480E+01 -2.10056E+00 +1.08259E+01 +6.38012E-01 +1.03114E+01 +3.33149E+00 +9.13834E+00 +5.80773E+00
 +7.38285E+00 +7.90875E+00 +5.15809E+00 +9.50081E+00 +2.60701E+00 +1.04829E+01 -1.06746E-01 +1.07932E+01
 -2.80942E+00 +1.04129E+01 -5.32822E+00 +9.36746E+00 -7.50239E+00 +7.72470E+00 -9.19347E+00 +5.59062E+00
 -1.02941E+01 +3.10243E+00 -1.07348E+01 +4.19793E-01 -1.04884E+01 -2.28548E+00 -9.57186E+00 -4.84037E+00
 -8.04472E+00 -7.08178E+00 -6.00562E+00 -8.86687E+00 -3.58574E+00 -1.00822E+01 -9.40382E-01 -1.06510E+01
 +1.76095E+00 -1.05380E+01 +4.34544E+00 -9.75129E+00 +6.64804E+00 -8.34237E+00 +8.52197E+00 -6.40227E+00
 +9.84808E+00 -4.05586E+00 +1.05424E+01 -1.45382E+00 +1.05617E+01 +1.23709E+00 +9.90554E+00 +3.84469E+00
 +8.61713E+00 +6.20236E+00 +6.77977E+00 +8.15978E+00 +4.51181E+00 +9.59240E+00 +1.95894E+00 +1.04095E+01
 -7.15173E-01 +1.05597E+01 -3.33936E+00 +1.00345E+01 -5.74593E+00 +8.86855E+00 -7.78133E+00 +7.13740E+00
 -9.31601E+00 +4.95262E+00 -1.02526E+01 +2.45461E+00 -1.05323E+01 -1.96426E-01 -1.01381E+01 -2.83074E+00
 -9.09625E+00 -5.27993E+00 -7.47448E+00 -7.38768E+00 -5.37736E+00 -9.01978E+00 -2.93971E+00 -1.00726E+01
 -3.17928E-01 -1.04798E+01 +2.32007E+00 -1.02162E+01 +4.80558E+00 -9.29989E+00 +6.97993E+00 -7.79039E+00
 +8.70459E+00 -5.78516E+00 +9.86999E+00 -3.41318E+00 +1.04025E+01 -8.26691E-01 +1.02690E+01 +1.80859E+00
 +9.47923E+00 +4.32410E+00 +8.08457E+00 +6.55919E+00 +6.17519E+00 +8.37139E+00 +3.87398E+00 +9.64550E+00
 +1.32869E+00 +1.03009E+01 -1.29756E+00 +1.02966E+01 -3.83673E+00 +9.63405E+00 -6.12660E+00 +8.35652E+00
 -8.02115E+00 +6.54670E+00 -9.39988E+00 +4.32113E+00 -1.01754E+01 +1.82278E+00 -1.02992E+01 -7.88199E-01
 -9.76421E+00 -3.34468E+00 -8.60579E+00 -5.68330E+00 -6.89894E+00 -7.65487E+00 -4.75368E+00 -9.13391E+00
 -2.30784E+00 -1.00266E+01 +2.81715E-01 -1.02769E+01 +2.84920E+00 -9.86962E+00 +5.23048E+00 -8.83198E+00
 +7.27359E+00 -7.23127E+00 +8.84844E+00 -5.17072E+00 +9.85507E+00 -2.78280E+00 +1.02300E+01 -2.20696E-01
 +9.95028E+00 +2.35149E+00 +9.03478E+00 +4.76930E+00 +7.54306E+00 +6.87836E+00 +5.57139E+00 +8.54434E+00
 +3.24659E+00 +9.66139E+00 +7.17863E-01 +1.01590E+01 -1.85279E+00 +1.00062E+01 -4.30095E+00 +9.21391E+00
 -6.47028E+00 +7.83375E+00 -8.22250E+00 +5.95488E+00 -9.44624E+00 +3.69821E+00 -1.00641E+01 +1.20864E+00
 -1.00375E+01 -1.35431E+00 -9.36917E+00 -3.82664E+00 -8.10284E+00 -6.05043E+00 -6.32042E+00 -7.88387E+00
 -4.13669E+00 -9.21036E+00 -1.69190E+00 -9.94587E+00 +8.57240E-01 -1.00443E+01 +3.34756E+00 -9.50039E+00
 +5.61994E+00 -8.34989E+00 +7.52943E+00 -6.66732E+00 +8.95450E+00 -4.56109E+00 +9.80481E+00 -2.16655E+00
 +1.00269E+01 +3.62767E-01 +9.60750E+00 +2.86491E+00 +8.57451E+00 +5.17996E+00 +6.99489E+00 +7.16017E+00
 +4.97052E+00 +8.67947E+00 +2.63152E+00 +9.64144E+00 +1.27942E-01 +9.98545E+00 -2.37989E+00 +9.69047E+00
 -4.73162E+00 +8.77636E+00 -6.77713E+00 +7.30255E+00 -8.38612E+00 +5.36414E+00 -9.45638E+00 +3.08580E+00
 -9.92035E+00 +6.13739E-01 -9.74931E+00 -1.89368E+00 -8.95518E+00 -4.27609E+00 -7.58972E+00 -6.38136E+00
 -5.74114E+00 -8.07531E+00 -3.52838E+00 -9.25028E+00 -1.09350E+00 -9.83197E+00 +1.40748E+00 -9.78411E+00
 +3.81454E+00 -9.11075E+00 +5.97392E+00 -7.85592E+00 +7.74796E+00 -6.10078E+00 +9.02383E+00 -3.95831E+00
 +9.72073E+00 -1.56613E+00 +9.79501E+00 +9.22439E-01 +9.24291E+00 +3.34812E+00 +8.10070E+00 +5.55592E+00
 +6.44234E+00 +7.40503E+00 +4.37468E+00 +8.77776E+00 +2.03055E+00 +9.58712E+00 -4.39729E-01 +9.78222E+00
 -2.87801E+00 +9.35157E+00 -5.12846E+00 +8.32367E+00 -7.04746E+00 +6.76518E+00 -8.51286E+00 +4.77659E+00
 -9.43166E+00 +2.48572E+00 -9.74598E+00 +3.95120E-02 -9.43667E+00 -2.40538E+00 -8.52449E+00 -4.69265E+00
 -7.06870E+00 -6.67628E+00 -5.16323E+00 -8.22994E+00 -2.93064E+00 -9.25495E+00 -5.14162E-01 -9.68661E+00
 +1.93139E+00 -9.49825E+00 +4.24962E+00 -8.70289E+00 +6.29250E+00 -7.35234E+00 +7.92984E+00 -5.53381E+00
 +9.05759E+00 -3.36432E+00 +9.60446E+00 -9.83121E-01 +9.53637E+00 +1.45720E+00 +8.85866E+00 +3.80051E+00
 +7.61561E+00 +5.89715E+00 +5.88758E+00 +7.61345E+00 +3.78583E+00 +8.84027E+00 +1.44531E+00 +9.49994E+00
 -9.83936E-01 +9.55116E+00 -3.34646E+00 +8.99162E+00 -5.49131E+00 +7.85806E+00 -7.28170E+00 +6.22385E+00
 -8.60369E+00 +4.19426E+00 -9.37351E+00 +1.89969E+00 -9.54280E+00 -5.12746E-01 -9.10168E+00 -2.88861E+00
 -8.07931E+00 -5.07605E+00 -6.54197E+00 -6.93551E+00 -4.58876E+00 -8.34861E+00 -2.34522E+00 -9.22569E+00
 +4.47406E-02 -9.51153E+00 +2.42809E+00 -9.18878E+00 +4.65246E+00 -8.27902E+00 +6.57586E+00 -6.84134E+00
 +8.07580E+00 -4.96851E+00 +9.05704E+00 -2.78093E+00 +9.45765E+00 -4.18982E-01 +9.25292E+00 +1.96605E+00
 +8.45691E+00 +4.22163E+00 +7.12143E+00 +6.20375E+00 +5.33272E+00 +7.78610E+00 +3.20585E+00 +8.86815E+00
 +8.77346E-01 +9.38148E+00 -1.50360E+00 +9.29418E+00 -3.78467E+00 +8.61276E+00 -5.82018E+00 +7.38174E+00
 -7.48036E+00 +5.68067E+00 -8.65966E+00 +3.61906E+00 -9.28343E+00 +1.32930E+00 -9.31266E+00 -1.04187E+00
 -8.74641E+00 -3.34270E+00 -7.62182E+00 -5.42619E+00 -6.01167E+00 -7.15947E+00 -4.01968E+00 -8.43227E+00
 -1.77381E+00 -9.16393E+00 +5.81958E-01 -9.30853E+00 +2.89681E+00 -8.85772E+00 +5.02282E+00 -7.84129E+00
 +6.82434E+00 -6.32509E+00 +8.18670E+00 -4.40686E+00 +9.02349E+00 -2.20987E+00 +9.28201E+00 +1.24960E-01
 +8.94666E+00 +2.44814E+00 +8.03981E+00 +4.61114E+00 +6.62033E+00 +6.47592E+00 +4.77978E+00 +7.92372E+00
 +2.63652E+00 +8.86262E+00 +3.28053E-01 +9.23339E+00 -1.99777E+00 +9.01321E+00 -4.19221E+00 +8.21710E+00
 -6.11516E+00 +6.89685E+00 -7.64411E+00 +5.13770E+00 -8.68191E+00 +3.05282E+00 -9.16297E+00 +7.76025E-01
 -9.05742E+00 -1.54682E+00 -8.37293E+00 -3.76711E+00 -7.15416E+00 -5.74306E+00 -5.47988E+00 -7.34871E+00
 -3.45786E+00 -8.48198E+00 -1.21793E+00 -9.07115E+00 +1.09637E+00 -9.07940E+00 +3.33692E+00 -8.50713E+00
 +5.36061E+00 -7.39182E+00 +7.03838E+00 -5.80565E+00 +8.26349E+00 -3.85077E+00 +8.95833E+00 -1.65275E+00
 +9.07930E+00 +6.47499E-01 +8.61958E+00 +2.90274E+00 +7.60945E+00 +4.96884E+00 +6.11438E+00 +6.71400E+00
 +4.23072E+00 +8.02715E+00 +2.07951E+00 +8.82499E+00 -2.01284E-01 +9.05733E+00 -2.46563E+00 +8.71020E+00
 -4.56877E+00 +7.80671E+00 -6.37649E+00 +6.40549E+00 -7.77368E+00 +4.59691E+00 -8.67164E+00 +2.49726E+00
 -9.01375E+00 +2.41230E-01 -8.77900E+00 -2.02668E+00 -7.98331E+00 -4.16145E+00 -6.67843E+00 -6.02679E+00
 -4.94859E+00 -7.50387E+00 -2.90507E+00 -8.49885E+00 -6.79012E-01 -8.94886E+00 +1.58697E+00 -8.82600E+00
 +3.74792E+00 -8.13902E+00 +5.66585E+00 -6.93272E+00 +7.21851E+00 -5.28506E+00 +8.30719E+00 -3.30206E+00
 +8.86303E+00 -1.11105E+00 +8.85130E+00 +1.14756E+00 +8.27366E+00 +3.32925E+00 +7.16793E+00 +5.29465E+00
 +5.60563E+00 +6.91844E+00 +3.68737E+00 +8.09733E+00 +1.53636E+00 +8.75664E+00 -7.09503E-01 +8.85504E+00
 -2.90648E+00 +8.38711E+00 -4.91417E+00 +7.38366E+00 -6.60452E+00 +5.90970E+00 -7.86993E+00 +4.06019E+00
 -8.63016E+00 +1.95398E+00 -8.83741E+00 -2.73850E-01 -8.47929E+00 -2.48068E+00 -7.57959E+00 -4.52543E+00
 -6.19667E+00 -6.27763E+00 -4.41972E+00 -7.62570E+00 -2.36298E+00 -8.48408E+00 -1.58377E-01 -8.79866E+00
 +2.05289E+00 -8.55018E+00 +4.12943E+00 -7.75541E+00 +5.93868E+00 -6.46603E+00 +7.36539E+00 -4.76524E+00
 +8.31893E+00 -2.76244E+00 +8.73908E+00 -5.86167E-01 +8.59981E+00 +1.62417E+00 +7.91091E+00 +3.72720E+00
 +6.71728E+00 +5.58861E+00 +5.09604E+00 +7.08978E+00 +3.15151E+00 +8.13529E+00 +1.00853E+00 +8.65900E+00
 -1.19556E+00 +8.62826E+00 -3.31976E+00 +8.04589E+00 -5.22836E+00 +6.95000E+00 -6.79968E+00 +5.41145E+00
 -7.93377E+00 +3.52933E+00 -8.55882E+00 +1.42451E+00 -8.63565E+00 -7.68096E-01 -8.16022E+00 -2.90815E+00
 -7.16378E+00 -4.85890E+00 -5.71088E+00 -6.49592E+00 -3.89511E+00 -7.71504E+00 -1.83315E+00 -8.43896E+00
 +3.42788E-01 -8.62217E+00 +2.49339E+00 -8.25382E+00 +4.48119E+00 -7.35831E+00 +6.17936E+00 -5.99373E+00
 +7.47977E+00 -4.24807E+00 +8.29989E+00 -2.23354E+00 +8.58805E+00 -7.93574E-02 +8.32666E+00 +2.07652E+00
 +7.53329E+00 +4.09624E+00 +6.25950E+00 +5.85088E+00 +4.58749E+00 +7.22868E+00 +2.62479E+00 +8.14213E+00
 +4.97351E-01 +8.53356E+00 -1.65855E+00 +8.37875E+00 -3.70502E+00 +7.68847E+00 -5.51139E+00 +6.50769E+00
 -6.96254E+00 +4.91267E+00 -7.96624E+00 +3.00605E+00 -8.45902E+00 +9.10226E-01 -8.41018E+00 -1.24051E+00
 -7.82368E+00 -3.30855E+00 -6.73788E+00 -5.16181E+00 -5.22297E+00 -6.68212E+00 -3.37650E+00 -7.77281E+00
 -1.31703E+00 -8.36481E+00 +8.23403E-01 -8.42105E+00 +2.90783E+00 -7.93878E+00 +4.80307E+00 -6.94967E+00
 +6.38824E+00 -5.51778E+00 +7.56247E+00 -3.73533E+00 +8.25133E+00 -1.71686E+00 +8.41153E+00 +4.08225E-01
 +8.03367E+00 +2.50387E+00 +7.14274E+00 +4.43613E+00 +5.79652E+00 +6.08172E+00 +4.08180E+00 +7.33588E+00
 +2.10879E+00 +8.11903E+00 +4.04196E-03 +8.38184E+00 -2.09766E+00 +8.10831E+00 -4.06194E+00 +7.31679E+00
 -5.76343E+00 +6.05869E+00 -7.09375E+00 +4.41519E+00 -7.96842E+00 +2.49197E+00 -8.33223E+00 +4.12432E-01
 -8.16273E+00 -1.69021E+00 -7.47158E+00 -3.68148E+00 -6.30381E+00 -5.43424E+00 -4.73481E+00 -6.83680E+00
 -2.86555E+00 -7.80002E+00 -8.15997E-01 -8.26302E+00 +1.28251E+00 -8.19697E+00 +3.29572E+00 -7.60692E+00
 +5.09505E+00 -6.53144E+00 +6.56579E+00 -5.04003E+00 +7.61442E+00 -3.22872E+00 +8.17455E+00 -1.21381E+00
 +8.21114E+00 +8.75543E-01 +7.72267E+00 +2.90564E+00 +6.74120E+00 +4.74676E+00 +5.33025E+00 +6.28150E+00
