 Created: 19-Jan-2021
 $NMID
 ID='D:\BASISSIMULATI'
 FMTDAT='(8E13.5)'
 VOLUME=   1.00000E+00
 TRAMP=   1.00000E+00
 $END
 +6.26635E+00 +7.08220E-03 +6.02546E+00 +1.57760E+00 +5.39819E+00 +3.02674E+00 +4.43039E+00 +4.26143E+00
 +3.18976E+00 +5.20391E+00 +1.76110E+00 +5.79676E+00 +2.40402E-01 +6.00643E+00 -1.27170E+00 +5.82513E+00
 -2.67671E+00 +5.27097E+00 -3.88478E+00 +4.38637E+00 -4.82056E+00 +3.23478E+00 -5.42799E+00 +1.89617E+00
 -5.67368E+00 +4.61351E-01 -5.54872E+00 -9.74243E-01 -5.06881E+00 -2.31701E+00 -4.27273E+00 -3.48139E+00
 -3.21927E+00 -4.39538E+00 -1.98293E+00 -5.00507E+00 -6.48550E-01 -5.27785E+00 +6.94531E-01 -5.20407E+00
 +1.95856E+00 -4.79717E+00 +3.06320E+00 -4.09226E+00 +3.94067E+00 -3.14316E+00 +4.53999E+00 -2.01843E+00
 +4.82992E+00 -7.96316E-01 +4.80054E+00 +4.40686E-01 +4.46330E+00 +1.61148E+00 +3.84963E+00 +2.64177E+00
 +3.00829E+00 +3.46878E+00 +2.00156E+00 +4.04520E+00 +9.00633E-01 +4.34177E+00 -2.19408E-01 +4.34876E+00
 -1.28478E+00 +4.07592E+00 -2.22791E+00 +3.55122E+00 -2.99175E+00 +2.81830E+00 -3.53324E+00 +1.93302E+00
 -3.82574E+00 +9.59229E-01 -3.86017E+00 -3.58168E-02 -3.64496E+00 -9.86136E-01 -3.20484E+00 -1.83142E+00
 -2.57846E+00 -2.52090E+00 -1.81525E+00 -3.01638E+00 -9.71580E-01 -3.29429E+00 -1.06639E-01 -3.34672E+00
 +7.21706E-01 -3.18118E+00 +1.46081E+00 -2.81946E+00 +2.06660E+00 -2.29546E+00 +2.50619E+00 -1.65229E+00
 +2.75960E+00 -9.38846E-01 +2.82047E+00 -2.06213E-01 +2.69583E+00 +4.96022E-01 +2.40490E+00 +1.12310E+00
 +1.97712E+00 +1.63795E+00 +1.44953E+00 +2.01333E+00 +8.63752E-01 +2.23320E+00 +2.62822E-01 +2.29319E+00
 -3.11931E-01 +2.20024E+00 -8.23709E-01 +1.97142E+00 -1.24258E+00 +1.63208E+00 -1.54716E+00 +1.21353E+00
 -1.72567E+00 +7.50405E-01 -1.77604E+00 +2.77946E-01 -1.70553E+00 -1.70620E-01 -1.52944E+00 -5.66367E-01
 -1.26948E+00 -8.86505E-01 -9.51671E-01 -1.11563E+00 -6.04068E-01 -1.24636E+00 -2.54470E-01 -1.27925E+00
 +7.16881E-02 -1.22217E+00 +3.53127E-01 -1.08912E+00 +5.74070E-01 -8.98622E-01 +7.25053E-01 -6.71894E-01
 +8.03179E-01 -4.30899E-01 +8.11808E-01 -1.96481E-01 +7.59758E-01 +1.32887E-02 +6.60096E-01 +1.84424E-01
 +5.28644E-01 +3.07896E-01 +3.82351E-01 +3.80033E-01 +2.37662E-01 +4.02410E-01 +1.09028E-01 +3.81297E-01
 +7.68779E-03 +3.26703E-01 -5.91913E-02 +2.51134E-01 -8.89566E-02 +1.68188E-01 -8.34638E-02 +9.11067E-02
 -4.86468E-02 +3.14278E-02 +6.28887E-03 -2.15416E-03 +6.99625E-02 -4.61267E-03 +1.30098E-01 +2.49615E-02
 +1.74866E-01 +8.33229E-02 +1.94164E-01 +1.63441E-01 +1.80721E-01 +2.55238E-01 +1.30917E-01 +3.46623E-01
 +4.52599E-02 +4.24728E-01 -7.15408E-02 +4.77229E-01 -2.10897E-01 +4.93637E-01 -3.61042E-01 +4.66435E-01
 -5.08048E-01 +3.91967E-01 -6.37066E-01 +2.70984E-01 -7.33690E-01 +1.08807E-01 -7.85326E-01 -8.49249E-02
 -7.82435E-01 -2.96898E-01 -7.19558E-01 -5.11115E-01 -5.96015E-01 -7.10159E-01 -4.16217E-01 -8.76616E-01
 -1.89560E-01 -9.94561E-01 +7.01066E-02 -1.05096E+00 +3.45401E-01 -1.03688E+00 +6.16649E-01 -9.48431E-01
 +8.63361E-01 -7.87297E-01 +1.06581E+00 -5.60853E-01 +1.20662E+00 -2.81834E-01 +1.27221E+00 +3.24308E-02
 +1.25397E+00 +3.61169E-01 +1.14912E+00 +6.81616E-01 +9.61150E-01 +9.70660E-01 +6.99720E-01 +1.20656E+00
 +3.80194E-01 +1.37062E+00 +2.26595E-02 +1.44863E+00 -3.49399E-01 +1.43209E+00 -7.10721E-01 +1.31894E+00
 -1.03605E+00 +1.11393E+00 -1.30197E+00 +8.28396E-01 -1.48860E+00 +4.79655E-01 -1.58113E+00 +8.98570E-02
 -1.57096E+00 -3.15465E-01 -1.45643E+00 -7.09145E-01 -1.24306E+00 -1.06427E+00 -9.43335E-01 -1.35608E+00
 -5.75855E-01 -1.56374E+00 -1.64198E-01 -1.67184E+00 +2.64687E-01 -1.67155E+00 +6.82298E-01 -1.56133E+00
 +1.06054E+00 -1.34711E+00 +1.37368E+00 -1.04193E+00 +1.60011E+00 -6.65179E-01 +1.72390E+00 -2.41231E-01
 +1.73592E+00 +2.02123E-01 +1.63453E+00 +6.35586E-01 +1.42567E+00 +1.03034E+00 +1.12257E+00 +1.36000E+00
 +7.44837E-01 +1.60244E+00 +3.17153E-01 +1.74129E+00 -1.32394E-01 +1.76708E+00 -5.74197E-01 +1.67786E+00
 -9.79129E-01 +1.47935E+00 -1.32051E+00 +1.18456E+00 -1.57590E+00 +8.12907E-01 -1.72860E+00 +3.88895E-01
 -1.76876E+00 -5.95453E-02 -1.69402E+00 -5.02930E-01 -1.50965E+00 -9.12208E-01 -1.22813E+00 -1.26070E+00
 -8.68322E-01 -1.52586E+00 -4.54170E-01 -1.69077E+00 -1.30507E-02 -1.74523E+00 +4.26051E-01 -1.68636E+00
 +8.34487E-01 -1.51880E+00 +1.18584E+00 -1.25429E+00 +1.45766E+00 -9.10829E-01 +1.63292E+00 -5.11481E-01
 +1.70106E+00 -8.27489E-02 +1.65868E+00 +3.47190E-01 +1.50964E+00 +7.50362E-01 +1.26473E+00 +1.10084E+00
 +9.40909E-01 +1.37643E+00 +5.60089E-01 +1.56009E+00 +1.47649E-01 +1.64096E+00 -2.69278E-01 +1.61506E+00
 -6.63610E-01 +1.48539E+00 -1.01009E+00 +1.26168E+00 -1.28691E+00 +9.59666E-01 -1.47709E+00 +5.99940E-01
 -1.56954E+00 +2.06574E-01 -1.55964E+00 -1.94523E-01 -1.44951E+00 -5.77318E-01 -1.24773E+00 -9.17352E-01
 -9.68694E-01 -1.19331E+00 -6.31576E-01 -1.38834E+00 -2.59013E-01 -1.49111E+00 +1.24425E-01 -1.49643E+00
 +4.93855E-01 -1.40548E+00 +8.25702E-01 -1.22564E+00 +1.09920E+00 -9.69927E-01 +1.29768E+00 -6.56011E-01
 +1.40960E+00 -3.05036E-01 +1.42918E+00 +5.98217E-02 +1.35666E+00 +4.14880E-01 +1.19823E+00 +7.37487E-01
 +9.65482E-01 +1.00746E+00 +6.74588E-01 +1.20833E+00 +3.45182E-01 +1.32835E+00 -9.67364E-04 +1.36116E+00
 -3.41383E-01 +1.30610E+00 -6.54334E-01 +1.16814E+00 -9.20217E-01 +9.57494E-01 -1.12277E+00 +6.88841E-01
 -1.25004E+00 +3.80331E-01 -1.29511E+00 +5.23640E-02 -1.25640E+00 -2.73756E-01 -1.13774E+00 -5.77190E-01
 -9.47964E-01 -8.38884E-01 -7.00331E-01 -1.04275E+00 -4.11566E-01 -1.17665E+00 -1.00757E-01 -1.23309E+00
 +2.11898E-01 -1.20963E+00 +5.06391E-01 -1.10895E+00 +7.64173E-01 -9.38615E-01 +9.69301E-01 -7.10511E-01
 +1.10942E+00 -4.40025E-01 +1.17648E+00 -1.45021E-01 +1.16720E+00 +1.55325E-01 +1.08318E+00 +4.41761E-01
 +9.30777E-01 +6.96178E-01 +7.20591E-01 +9.02738E-01 +4.66770E-01 +1.04885E+00 +1.86055E-01 +1.12592E+00
 -1.03305E-01 +1.12985E+00 -3.82730E-01 +1.06124E+00 -6.34481E-01 +9.25289E-01 -8.42783E-01 +7.31427E-01
 -9.94790E-01 +4.92660E-01 -1.08138E+00 +2.24712E-01 -1.09767E+00 -5.49954E-02 -1.04331E+00 -3.28465E-01
 -9.22454E-01 -5.78271E-01 -7.43443E-01 -7.88654E-01 -5.18249E-01 -9.46506E-01 -2.61683E-01 -1.04218E+00
 +9.56698E-03 -1.07008E+00 +2.78013E-01 -1.02896E+00 +5.26480E-01 -9.22013E-01 +7.39202E-01 -7.56584E-01
 +9.02807E-01 -5.43716E-01 +1.00716E+00 -2.97400E-01 +1.04598E+00 -3.36727E-02 +1.01722E+00 +2.30423E-01
 +9.23173E-01 +4.77929E-01 +7.70311E-01 +6.93056E-01 +5.68823E-01 +8.62186E-01 +3.31965E-01 +9.74730E-01
 +7.51846E-02 +1.02380E+00 -1.84878E-01 +1.00661E+00 -4.31464E-01 +9.24667E-01 -6.48772E-01 +7.83625E-01
 -8.22973E-01 +5.92914E-01 -9.43089E-01 +3.65113E-01 -1.00169E+00 +1.15128E-01 -9.95347E-01 -1.40787E-01
 -9.24855E-01 -3.86080E-01 -7.95143E-01 -6.04976E-01 -6.14944E-01 -7.83495E-01 -3.96211E-01 -9.10344E-01
 -1.53322E-01 -9.77645E-01 +9.78599E-02 -9.81422E-01 +3.41028E-01 -9.21845E-01 +5.60497E-01 -8.03193E-01
 +7.42218E-01 -6.33557E-01 +8.74689E-01 -4.24289E-01 +9.49687E-01 -1.89243E-01 +9.62791E-01 +5.61480E-02
 +9.13640E-01 +2.95887E-01 +8.05936E-01 +5.14467E-01 +6.47172E-01 +6.97885E-01 +4.48110E-01 +8.34546E-01
 +2.22054E-01 +9.16012E-01 -1.60497E-02 +9.37525E-01 -2.50605E-01 +8.98295E-01 -4.66401E-01 +8.01514E-01
 -6.49613E-01 +6.54112E-01 -7.88698E-01 +4.66259E-01 -8.75138E-01 +2.50667E-01 -9.03968E-01 +2.17170E-02
 -8.74068E-01 -2.05509E-01 -7.88189E-01 -4.16235E-01 -6.52729E-01 -5.96969E-01 -4.77255E-01 -7.36381E-01
 -2.73829E-01 -8.26025E-01 -5.61728E-02 -8.60866E-01 +1.61275E-01 -8.39560E-01 +3.64330E-01 -7.64489E-01
 +5.40002E-01 -6.41545E-01 +6.77347E-01 -4.79674E-01 +7.68158E-01 -2.90228E-01 +8.07472E-01 -8.61605E-02
 +7.93835E-01 +1.18873E-01 +7.29332E-01 +3.11441E-01 +6.19378E-01 +4.79239E-01 +4.72279E-01 +6.11889E-01
 +2.98608E-01 +7.01597E-01 +1.10447E-01 +7.43619E-01 -7.94762E-02 +7.36508E-01 -2.58654E-01 +6.82131E-01
 -4.15646E-01 +5.85454E-01 -5.40826E-01 +4.54128E-01 -6.26984E-01 +2.97887E-01 -6.69749E-01 +1.27833E-01
 -6.67800E-01 -4.43684E-02 -6.22864E-01 -2.07297E-01 -5.39497E-01 -3.50556E-01 -4.24683E-01 -4.65448E-01
 -2.87265E-01 -5.45516E-01 -1.37270E-01 -5.86910E-01 +1.48253E-02 -5.88555E-01 +1.58838E-01 -5.52119E-01
 +2.85575E-01 -4.81791E-01 +3.87438E-01 -3.83888E-01 +4.58880E-01 -2.66319E-01 +4.96711E-01 -1.37962E-01
 +5.00218E-01 -7.99640E-03 +4.71093E-01 +1.14761E-01 +4.13207E-01 +2.22468E-01 +3.32219E-01 +3.08765E-01
 +2.35079E-01 +3.69158E-01 +1.29462E-01 +4.01248E-01 +2.31672E-02 +4.04783E-01 -7.64585E-02 +3.81567E-01
 -1.63034E-01 +3.35200E-01 -2.31563E-01 +2.70707E-01 -2.78720E-01 +1.94076E-01 -3.02999E-01 +1.11744E-01
 -3.04712E-01 +3.00788E-02 -2.85840E-01 -4.51113E-02 -2.49771E-01 -1.08989E-01 -2.00932E-01 -1.58004E-01
 -1.44360E-01 -1.90087E-01 -8.52519E-02 -2.04710E-01 -2.85205E-02 -2.02819E-01 +2.15951E-02 -1.86642E-01
 +6.18427E-02 -1.59408E-01 +9.01671E-02 -1.24987E-01 +1.05804E-01 -8.74998E-02 +1.09256E-01 -5.09233E-02
 +1.02155E-01 -1.87321E-02 +8.70271E-02 +6.39835E-03 +6.69923E-02 +2.28001E-02 +4.54138E-02 +2.99178E-02
 +2.55432E-02 +2.83035E-02 +1.01882E-02 +1.95065E-02 +1.43262E-03 +5.86852E-03 +4.35593E-04 -9.75287E-03
 +7.32551E-03 -2.43063E-02 +2.11980E-02 -3.48833E-02 +4.02171E-02 -3.90383E-02 +6.18088E-02 -3.50611E-02
 +8.29289E-02 -2.21773E-02 +1.00381E-01 -6.57544E-04 +1.11152E-01 +2.81758E-02 +1.12740E-01 +6.20445E-02
 +1.03432E-01 +9.79063E-02 +8.25229E-02 +1.32226E-01 +5.04385E-02 +1.61300E-01 +8.75467E-03 +1.81612E-01
 -3.98863E-02 +1.90175E-01 -9.19634E-02 +1.84850E-01 -1.43351E-01 +1.64581E-01 -1.89659E-01 +1.29562E-01
 -2.26607E-01 +8.12804E-02 -2.50404E-01 +2.24625E-02 -2.58104E-01 -4.31004E-02 -2.47893E-01 -1.10819E-01
 -2.19302E-01 -1.75651E-01 -1.73302E-01 -2.32500E-01 -1.12291E-01 -2.76627E-01 -3.99591E-02 -3.04051E-01
 +3.89579E-02 -3.11898E-01 +1.19015E-01 -2.98668E-01 +1.94462E-01 -2.64405E-01 +2.59685E-01 -2.10738E-01
 +3.09647E-01 -1.40806E-01 +3.40291E-01 -5.90586E-02 +3.48877E-01 +2.90583E-02 +3.34222E-01 +1.17490E-01
 +2.96824E-01 +2.00025E-01 +2.38853E-01 +2.70759E-01 +1.64015E-01 +3.24549E-01 +7.72956E-02 +3.57412E-01
