 Created: 19-Jan-2021
 $NMID
 ID='D:\BASISSIMULATI'
 FMTDAT='(8E13.5)'
 VOLUME=   1.00000E+00
 TRAMP=   1.00000E+00
 $END
 +8.86102E+00 +9.91673E-03 +7.67151E+00 +3.73889E+00 +4.68600E+00 +6.10699E+00 +1.06386E+00 +6.34180E+00
 -1.81144E+00 +4.51943E+00 -2.88682E+00 +1.52634E+00 -1.85845E+00 -1.30423E+00 +7.12866E-01 -2.73363E+00
 +3.63528E+00 -2.11852E+00 +5.57311E+00 +3.30649E-01 +5.59054E+00 +3.63673E+00 +3.53263E+00 +6.45239E+00
 +9.05331E-02 +7.60545E+00 -3.47451E+00 +6.57305E+00 -5.83649E+00 +3.69389E+00 -6.13526E+00 +3.37516E-02
 -4.31901E+00 -3.04060E+00 -1.16136E+00 -4.40694E+00 +2.05247E+00 -3.63272E+00 +4.04327E+00 -1.14146E+00
 +4.04999E+00 +1.96553E+00 +2.13071E+00 +4.35885E+00 -8.67826E-01 +5.01991E+00 -3.65843E+00 +3.65196E+00
 -5.03795E+00 +7.98033E-01 -4.37614E+00 -2.38042E+00 -1.87200E+00 -4.57400E+00 +1.52468E+00 -4.85457E+00
 +4.49411E+00 -3.04992E+00 +5.87531E+00 +1.86243E-01 +5.12971E+00 +3.63623E+00 +2.55355E+00 +6.00558E+00
 -8.45414E-01 +6.43885E+00 -3.75569E+00 +4.85664E+00 -5.08921E+00 +1.97927E+00 -4.41535E+00 -9.70909E-01
 -2.12774E+00 -2.76713E+00 +7.21960E-01 -2.67469E+00 +2.85470E+00 -7.46323E-01 +3.28461E+00 +2.20149E+00
 +1.71941E+00 +4.92035E+00 -1.32010E+00 +6.23500E+00 -4.70840E+00 +5.51770E+00 -7.16625E+00 +2.94109E+00
 -7.77215E+00 -5.91163E-01 -6.32824E+00 -3.80663E+00 -3.43445E+00 -5.57244E+00 -2.42580E-01 -5.34469E+00
 +2.00925E+00 -3.37872E+00 +2.49342E+00 -6.17146E-01 +1.12095E+00 +1.69753E+00 -1.42990E+00 +2.52823E+00
 -3.99450E+00 +1.46267E+00 -5.39736E+00 -1.12166E+00 -4.92988E+00 -4.21195E+00 -2.63793E+00 -6.57006E+00
 +6.95366E-01 -7.23205E+00 +3.86348E+00 -5.89571E+00 +5.71920E+00 -3.04092E+00 +5.63143E+00 +2.64271E-01
 +3.73275E+00 +2.79212E+00 +8.59429E-01 +3.64495E+00 -1.79000E+00 +2.60901E+00 -3.13882E+00 +2.31264E-01
 -2.66326E+00 -2.40997E+00 -5.97809E-01 -4.14624E+00 +2.16638E+00 -4.19322E+00 +4.44711E+00 -2.46697E+00
 +5.25218E+00 +3.83988E-01 +4.18138E+00 +3.24219E+00 +1.58841E+00 +4.97250E+00 -1.56135E+00 +4.87863E+00
 -4.07806E+00 +2.98144E+00 -5.02286E+00 +8.04636E-03 -4.07981E+00 -2.90195E+00 -1.67586E+00 -4.65335E+00
 +1.19769E+00 -4.63093E+00 +3.38832E+00 -2.93881E+00 +4.04653E+00 -3.49134E-01 +2.96415E+00 +2.01727E+00
 +6.51718E-01 +3.14782E+00 -1.87432E+00 +2.54801E+00 -3.50691E+00 +4.39501E-01 -3.49775E+00 -2.33169E+00
 -1.75972E+00 -4.63808E+00 +1.09835E+00 -5.52515E+00 +4.01671E+00 -4.59402E+00 +5.90929E+00 -2.15894E+00
 +6.09606E+00 +8.81945E-01 +4.56969E+00 +3.40858E+00 +1.99058E+00 +4.52685E+00 -5.85391E-01 +3.92167E+00
 -2.13507E+00 +1.97456E+00 -2.07875E+00 -3.99732E-01 -5.08680E-01 -2.12936E+00 +1.85512E+00 -2.42149E+00
 +3.96168E+00 -1.08230E+00 +4.85715E+00 +1.40672E+00 +4.07104E+00 +4.08510E+00 +1.80552E+00 +5.90136E+00
 -1.14668E+00 +6.13524E+00 -3.72088E+00 +4.68435E+00 -5.00572E+00 +2.10125E+00 -4.60367E+00 -6.31996E-01
 -2.78258E+00 -2.49898E+00 -3.59374E-01 -2.85393E+00 +1.63493E+00 -1.67374E+00 +2.37245E+00 +4.42513E-01
 +1.55947E+00 +2.52413E+00 -4.50912E-01 +3.62626E+00 -2.80767E+00 +3.21322E+00 -4.51025E+00 +1.37369E+00
 -4.81443E+00 -1.21732E+00 -3.53226E+00 -3.57222E+00 -1.10621E+00 -4.78838E+00 +1.57019E+00 -4.40869E+00
 +3.51102E+00 -2.60073E+00 +4.03044E+00 -8.42873E-02 +3.01124E+00 +2.16121E+00 +9.42884E-01 +3.29001E+00
 -1.28372E+00 +2.92516E+00 -2.73988E+00 +1.30162E+00 -2.83361E+00 -8.37977E-01 -1.54428E+00 -2.55050E+00
 +5.75181E-01 -3.07691E+00 +2.62725E+00 -2.14880E+00 +3.73549E+00 -9.46306E-02 +3.39864E+00 +2.29535E+00
 +1.69109E+00 +4.08862E+00 -7.69525E-01 +4.58450E+00 -3.07204E+00 +3.59192E+00 -4.37661E+00 +1.50061E+00
 -4.24707E+00 -8.80811E-01 -2.81789E+00 -2.65226E+00 -7.30791E-01 -3.18209E+00 +1.13103E+00 -2.35462E+00
 +2.00191E+00 -6.07420E-01 +1.54088E+00 +1.25420E+00 -3.59829E-02 +2.38835E+00 -2.04898E+00 +2.25860E+00
 -3.63399E+00 +8.49387E-01 -4.09316E+00 -1.33045E+00 -3.17546E+00 -3.45503E+00 -1.17511E+00 -4.71417E+00
 +1.18944E+00 -4.63650E+00 +3.06513E+00 -3.27352E+00 +3.80422E+00 -1.17248E+00 +3.21780E+00 +8.48601E-01
 +1.64234E+00 +2.03096E+00 -2.05041E-01 +1.97662E+00 -1.52168E+00 +8.00740E-01 -1.74447E+00 -9.24253E-01
 -7.73965E-01 -2.40765E+00 +9.91076E-01 -2.96409E+00 +2.82030E+00 -2.29077E+00 +3.94989E+00 -5.87417E-01
 +3.89091E+00 +1.52712E+00 +2.62394E+00 +3.26579E+00 +6.03245E-01 +3.98880E+00 -1.42865E+00 +3.45642E+00
 -2.73925E+00 +1.91858E+00 -2.89611E+00 +7.43438E-03 -1.93248E+00 -1.52099E+00 -3.24048E-01 -2.09062E+00
 +1.21114E+00 -1.53197E+00 +2.00664E+00 -1.41886E-01 +1.71607E+00 +1.44502E+00 +4.48732E-01 +2.51889E+00
 -1.28029E+00 +2.58365E+00 -2.76264E+00 +1.55609E+00 -3.38424E+00 -2.03711E-01 -2.87143E+00 -2.04041E+00
 -1.39735E+00 -3.26796E+00 +4.91948E-01 -3.44288E+00 +2.09938E+00 -2.53654E+00 +2.85555E+00 -9.39148E-01
 +2.54176E+00 +7.03792E-01 +1.36879E+00 +1.75394E+00 -1.17587E-01 +1.83495E+00 -1.26364E+00 +9.77402E-01
 -1.57385E+00 -4.02230E-01 -9.08779E-01 -1.67752E+00 +4.63762E-01 -2.26954E+00 +1.98227E+00 -1.88118E+00
 +3.02164E+00 -6.14443E-01 +3.14538E+00 +1.07427E+00 +2.27848E+00 +2.56047E+00 +7.32860E-01 +3.30234E+00
 -9.22347E-01 +3.05427E+00 -2.09088E+00 +1.95840E+00 -2.38595E+00 +4.79598E-01 -1.77837E+00 -7.87171E-01
 -5.98656E-01 -1.35745E+00 +6.05119E-01 -1.04852E+00 +1.29367E+00 -4.54506E-02 +1.15472E+00 +1.18199E+00
 +2.25571E-01 +2.07548E+00 -1.12743E+00 +2.21621E+00 -2.36148E+00 +1.49284E+00 -2.97825E+00 +1.42782E-01
 -2.72315E+00 -1.34708E+00 -1.68340E+00 -2.43795E+00 -2.47598E-01 -2.75372E+00 +1.05433E+00 -2.22627E+00
 +1.76410E+00 -1.11474E+00 +1.67461E+00 +1.06351E-01 +9.04753E-01 +9.42353E-01 -1.58092E-01 +1.07707E+00
 -1.02189E+00 +4.94854E-01 -1.29191E+00 -5.21024E-01 -8.28873E-01 -1.51031E+00 +1.99354E-01 -2.02629E+00
 +1.39086E+00 -1.81687E+00 +2.27549E+00 -9.23578E-01 +2.50467E+00 +3.39438E-01 +1.98854E+00 +1.51524E+00
 +9.26545E-01 +2.18831E+00 -2.78325E-01 +2.14786E+00 -1.18438E+00 +1.46539E+00 -1.48721E+00 +4.57477E-01
 -1.13595E+00 -4.48397E-01 -3.44661E-01 -8.88566E-01 +5.02843E-01 -7.07304E-01 +1.01378E+00 -1.32380E-02
 +9.46364E-01 +8.72286E-01 +3.04569E-01 +1.55127E+00 -6.68592E-01 +1.71255E+00 -1.59404E+00 +1.25624E+00
 -2.11178E+00 +3.30079E-01 -2.02455E+00 -7.34654E-01 -1.37243E+00 -1.55904E+00 -4.10516E-01 -1.86778E+00
 +4.98806E-01 -1.59462E+00 +1.03300E+00 -9.00866E-01 +1.03585E+00 -1.02354E-01 +5.72948E-01 +4.63122E-01
 -1.03793E-01 +5.72628E-01 -6.65504E-01 +2.03964E-01 -8.43103E-01 -4.62370E-01 -5.35418E-01 -1.12325E+00
 +1.54033E-01 -1.48007E+00 +9.64178E-01 -1.36019E+00 +1.58572E+00 -7.83778E-01 +1.78652E+00 +4.91170E-02
 +1.50198E+00 +8.43413E-01 +8.55085E-01 +1.32914E+00 +1.00543E-01 +1.36725E+00 -4.81778E-01 +9.98891E-01
 -6.99284E-01 +4.20437E-01 -5.19327E-01 -1.02932E-01 -7.42921E-02 -3.47758E-01 +4.00345E-01 -2.21274E-01
 +6.67224E-01 +2.06400E-01 +5.84961E-01 +7.37665E-01 +1.63006E-01 +1.13339E+00 -4.47084E-01 +1.21247E+00
 -1.01790E+00 +9.23888E-01 -1.34067E+00 +3.63161E-01 -1.30840E+00 -2.71350E-01 -9.54285E-01 -7.61898E-01
 -4.31704E-01 -9.58926E-01 +5.35042E-02 -8.36886E-01 +3.28633E-01 -4.96984E-01 +3.21799E-01 -1.18218E-01
 +8.48467E-02 +1.20787E-01 -2.35780E-01 +1.15630E-01 -4.65651E-01 -1.24521E-01 -4.77144E-01 -4.86651E-01
 -2.41047E-01 -8.06266E-01 +1.65290E-01 -9.38611E-01 +5.94520E-01 -8.18231E-01 +8.93167E-01 -4.82661E-01
 +9.64829E-01 -5.21661E-02 +8.06357E-01 +3.23805E-01 +5.03272E-01 +5.29306E-01 +1.88505E-01 +5.26960E-01
 -1.62075E-02 +3.67365E-01 -5.05386E-02 +1.60808E-01 +6.34969E-02 +2.53771E-02 +2.37242E-01 +3.49274E-02
 +3.59023E-01 +1.89303E-01 +3.45362E-01 +4.18519E-01 +1.77134E-01 +6.17389E-01 -9.44372E-02 +6.93959E-01
 -3.73152E-01 +6.09840E-01 -5.61984E-01 +3.94990E-01 -6.05623E-01 +1.31490E-01 -5.12510E-01 -8.51820E-02
 -3.47309E-01 -1.89131E-01 -1.98303E-01 -1.71761E-01 -1.35354E-01 -8.21540E-02 -1.77953E-01 -7.81864E-04
 -2.87789E-01 +6.74952E-04 -3.88811E-01 -1.05511E-01 -4.05027E-01 -2.89293E-01 -2.98232E-01 -4.76688E-01
 -8.79197E-02 -5.84744E-01 +1.56062E-01 -5.61314E-01 +3.44965E-01 -4.10963E-01 +4.12290E-01 -1.94609E-01
 +3.45505E-01 -2.54984E-03 +1.93221E-01 +8.71298E-02 +4.37902E-02 +4.56792E-02 -1.55564E-02 -9.11678E-02
 +5.93794E-02 -2.37852E-01 +2.46291E-01 -2.97768E-01 +4.63030E-01 -2.09136E-01 +6.02656E-01 +2.29762E-02
 +5.82061E-01 +3.23930E-01 +3.82482E-01 +5.78806E-01 +6.29512E-02 +6.81960E-01 -2.60832E-01 +5.85349E-01
 -4.64494E-01 +3.23716E-01 -4.69636E-01 +4.03815E-03 -2.80988E-01 -2.37877E-01 +1.14260E-02 -2.95994E-01
 +2.67880E-01 -1.42554E-01 +3.58449E-01 +1.55527E-01 +2.21336E-01 +4.61273E-01 -1.05738E-01 +6.24479E-01
 -4.96241E-01 +5.47455E-01 -7.85068E-01 +2.31292E-01 -8.38350E-01 -2.18500E-01 -6.13426E-01 -6.31473E-01
 -1.82464E-01 -8.41919E-01 +2.92237E-01 -7.60064E-01 +6.22891E-01 -4.14155E-01 +6.74891E-01 +5.60277E-02
 +4.26352E-01 +4.53626E-01 -1.77751E-02 +6.05969E-01 -4.65052E-01 +4.39083E-01 -7.13838E-01 +1.33729E-02
 -6.38836E-01 -4.96336E-01 -2.47810E-01 -8.70228E-01 +3.15779E-01 -9.34929E-01 +8.27499E-01 -6.39090E-01
 +1.07318E+00 -8.04890E-02 +9.39515E-01 +5.28687E-01 +4.65796E-01 +9.46120E-01 -1.66474E-01 +9.99569E-01
 -7.04030E-01 +6.61470E-01 -9.24953E-01 +6.56565E-02 -7.32347E-01 -5.42863E-01 -1.99023E-01 -9.06380E-01
 +4.57213E-01 -8.61635E-01 +9.59634E-01 -4.11147E-01 +1.08614E+00 +2.72277E-01 +7.63750E-01 +9.11891E-01
 +1.04016E-01 +1.23884E+00 -6.37231E-01 +1.10429E+00 -1.16144E+00 +5.45178E-01 -1.24981E+00 -2.25140E-01
 -8.56409E-01 -8.99829E-01 -1.32379E-01 -1.20273E+00 +6.30803E-01 -1.00346E+00 +1.11784E+00 -3.75536E-01
 +1.11929E+00 +4.28371E-01 +6.21056E-01 +1.07585E+00 -1.84386E-01 +1.28994E+00 -9.71871E-01 +9.65060E-01
 -1.41415E+00 +2.15208E-01 -1.31683E+00 -6.67150E-01 -7.01945E-01 -1.32691E+00 +1.95519E-01 -1.49095E+00
 +1.01899E+00 -1.08250E+00 +1.43397E+00 -2.57599E-01 +1.26612E+00 +6.53596E-01 +5.76679E-01 +1.27843E+00
 -3.57246E-01 +1.35405E+00 -1.15166E+00 +8.37984E-01 -1.47113E+00 -6.92241E-02 -1.16777E+00 -1.00088E+00
 -3.46393E-01 -1.57094E+00 +6.72730E-01 -1.53199E+00 +1.48032E+00 -8.79918E-01 +1.74378E+00 +1.39100E-01
