 Created: 19-Jan-2021
 $NMID
 ID='D:\BASISSIMULATI'
 FMTDAT='(8E13.5)'
 VOLUME=   1.00000E+00
 TRAMP=   1.00000E+00
 $END
 +1.24798E+01 +1.39284E-02 +1.11483E+01 -3.61401E+00 +7.62281E+00 -6.04344E+00 +2.86097E+00 -6.44063E+00
 -1.86879E+00 -4.57743E+00 -5.34996E+00 -8.95017E-01 -6.75953E+00 +3.62891E+00 -5.88907E+00 +7.76770E+00
 -3.18324E+00 +1.04012E+01 +4.10836E-01 +1.08336E+01 +3.73433E+00 +8.98249E+00 +5.75858E+00 +5.38611E+00
 +5.87664E+00 +1.03379E+00 +4.06152E+00 -2.92636E+00 +8.50341E-01 -5.51295E+00 -2.83368E+00 -6.17467E+00
 -5.96214E+00 -4.91863E+00 -7.69882E+00 -2.27370E+00 -7.62656E+00 +8.91483E-01 -5.84205E+00 +3.63476E+00
 -2.89916E+00 +5.20894E+00 +3.73083E-01 +5.25529E+00 +3.11688E+00 +3.87199E+00 +4.68126E+00 +1.54762E+00
 +4.78034E+00 -1.00993E+00 +3.53617E+00 -3.09085E+00 +1.40452E+00 -4.18045E+00 -9.83413E-01 -4.08140E+00
 -3.00935E+00 -2.93409E+00 -4.22959E+00 -1.14080E+00 -4.46744E+00 +7.73099E-01 -3.81949E+00 +2.31332E+00
 -2.58654E+00 +3.14029E+00 -1.16056E+00 +3.13180E+00 +9.25530E-02 +2.37704E+00 +9.20295E-01 +1.11610E+00
 +1.22171E+00 -3.47006E-01 +1.03640E+00 -1.72716E+00 +4.99780E-01 -2.81398E+00 -2.12771E-01 -3.49202E+00
 -9.32050E-01 -3.73101E+00 -1.52030E+00 -3.56074E+00 -1.87603E+00 -3.04696E+00 -1.92805E+00 -2.27848E+00
 -1.63125E+00 -1.36618E+00 -9.72736E-01 -4.45990E-01 +1.16872E-02 +3.25744E-01 +1.21944E+00 +7.93129E-01
 +2.47523E+00 +8.38028E-01 +3.54907E+00 +4.23889E-01 +4.20171E+00 -3.70953E-01 +4.24918E+00 -1.34809E+00
 +3.62750E+00 -2.22235E+00 +2.43418E+00 -2.69116E+00 +9.26680E-01 -2.52304E+00 -5.29336E-01 -1.63860E+00
 -1.55292E+00 -1.55709E-01 -1.85724E+00 +1.62113E+00 -1.34216E+00 +3.27042E+00 -1.38770E-01 +4.36657E+00
 +1.41268E+00 +4.60428E+00 +2.84993E+00 +3.89646E+00 +3.71841E+00 +2.41318E+00 +3.70618E+00 +5.45871E-01
 +2.74271E+00 -1.19627E+00 +1.02963E+00 -2.32939E+00 -1.00847E+00 -2.53549E+00 -2.84117E+00 -1.75796E+00
 -3.98348E+00 -2.21984E-01 -4.13666E+00 +1.62761E+00 -3.27615E+00 +3.25373E+00 -1.65999E+00 +4.18209E+00
 +2.45235E-01 +4.13795E+00 +1.89863E+00 +3.12399E+00 +2.83963E+00 +1.41679E+00 +2.81708E+00 -5.16254E-01
 +1.85552E+00 -2.15357E+00 +2.40543E-01 -3.06868E+00 -1.57010E+00 -3.04799E+00 -3.08152E+00 -2.14389E+00
 -3.90182E+00 -6.50223E-01 -3.84673E+00 +9.89735E-01 -2.98024E+00 +2.31299E+00 -1.58302E+00 +2.96518E+00
 -6.18251E-02 +2.79099E+00 +1.17038E+00 +1.86350E+00 +1.80770E+00 +4.48412E-01 +1.72648E+00 -1.08163E+00
 +1.00438E+00 -2.35461E+00 -1.16812E-01 -3.09654E+00 -1.30894E+00 -3.19292E+00 -2.25035E+00 -2.70138E+00
 -2.70680E+00 -1.81757E+00 -2.58055E+00 -8.09627E-01 -1.91864E+00 +5.72243E-02 -8.84666E-01 +5.84778E-01
 +2.93277E-01 +6.80007E-01 +1.38109E+00 +3.62375E-01 +2.18858E+00 -2.55579E-01 +2.60114E+00 -1.00428E+00
 +2.59074E+00 -1.69814E+00 +2.20926E+00 -2.17227E+00 +1.57029E+00 -2.30951E+00 +8.24984E-01 -2.05687E+00
 +1.35910E-01 -1.43212E+00 -3.49446E-01 -5.21887E-01 -5.24317E-01 +5.28936E-01 -3.45286E-01 +1.53749E+00
 +1.52417E-01 +2.31329E+00 +8.52743E-01 +2.69633E+00 +1.57487E+00 +2.59643E+00 +2.10888E+00 +2.02387E+00
 +2.26637E+00 +1.10039E+00 +1.93490E+00 +4.23318E-02 +1.12054E+00 -8.84978E-01 -3.66568E-02 -1.43354E+00
 -1.28406E+00 -1.44317E+00 -2.31414E+00 -8.95315E-01 -2.84610E+00 +6.88964E-02 -2.70934E+00 +1.17624E+00
 -1.90332E+00 +2.09164E+00 -6.12590E-01 +2.51382E+00 +8.32134E-01 +2.26895E+00 +2.03999E+00 +1.37320E+00
 +2.67037E+00 +4.18702E-02 +2.53565E+00 -1.36195E+00 +1.66395E+00 -2.42761E+00 +2.99934E-01 -2.81822E+00
 -1.16003E+00 -2.37673E+00 -2.28202E+00 -1.18297E+00 -2.72494E+00 +4.58661E-01 -2.34749E+00 +2.10037E+00
 -1.25763E+00 +3.27907E+00 +2.13022E-01 +3.65371E+00 +1.60459E+00 +3.10988E+00 +2.46671E+00 +1.79851E+00
 +2.49735E+00 +9.47714E-02 +1.63952E+00 -1.51184E+00 +1.05077E-01 -2.56405E+00 -1.68344E+00 -2.77528E+00
 -3.21644E+00 -2.11731E+00 -4.04936E+00 -8.29429E-01 -3.93673E+00 +6.54625E-01 -2.90676E+00 +1.83993E+00
 -1.25321E+00 +2.32312E+00 +5.53458E-01 +1.91743E+00 +2.00828E+00 +7.11296E-01 +2.72377E+00 -9.57636E-01
 +2.54481E+00 -2.60505E+00 +1.59142E+00 -3.74720E+00 +2.16874E-01 -4.04724E+00 -1.10515E+00 -3.41576E+00
 -1.92868E+00 -2.03498E+00 -1.97269E+00 -3.00054E-01 -1.20532E+00 +1.30317E+00 +1.50108E-01 +2.34549E+00
 +1.68762E+00 +2.58107E+00 +2.94586E+00 +2.01513E+00 +3.54970E+00 +8.93281E-01 +3.32226E+00 -3.82150E-01
 +2.33367E+00 -1.38105E+00 +8.73319E-01 -1.77860E+00 -6.43666E-01 -1.45152E+00 -1.80480E+00 -5.08862E-01
 -2.32303E+00 +7.49650E-01 -2.11647E+00 +1.93241E+00 -1.32229E+00 +2.67917E+00 -2.43422E-01 +2.76972E+00
 +7.52705E-01 +2.18531E+00 +1.34984E+00 +1.10578E+00 +1.37680E+00 -1.53535E-01 +8.51667E-01 -1.24296E+00
 -3.46765E-02 -1.88448E+00 -9.87258E-01 -1.94989E+00 -1.70377E+00 -1.48858E+00 -1.96774E+00 -6.99486E-01
 -1.70959E+00 +1.40575E-01 -1.01857E+00 +7.67119E-01 -1.05322E-01 +1.00762E+00 +7.70031E-01 +8.26553E-01
 +1.37943E+00 +3.24434E-01 +1.59197E+00 -3.05218E-01 +1.40372E+00 -8.44220E-01 +9.25814E-01 -1.11978E+00
 +3.38389E-01 -1.05412E+00 -1.72157E-01 -6.79744E-01 -4.71048E-01 -1.18865E-01 -5.10297E-01 +4.63227E-01
 -3.32247E-01 +9.13192E-01 -4.37493E-02 +1.13462E+00 +2.27364E-01 +1.10950E+00 +3.77147E-01 +8.91948E-01
 +3.56686E-01 +5.79497E-01 +1.80657E-01 +2.74502E-01 -8.68426E-02 +4.99096E-02 -3.61450E-01 -6.92217E-02
 -5.70478E-01 -1.04034E-01 -6.75784E-01 -1.03305E-01 -6.80284E-01 -1.17176E-01 -6.17685E-01 -1.74278E-01
 -5.31482E-01 -2.71066E-01 -4.52921E-01 -3.76567E-01 -3.87321E-01 -4.49395E-01 -3.14150E-01 -4.59013E-01
 -2.00302E-01 -4.01777E-01 -2.04741E-02 -3.04692E-01 +2.24493E-01 -2.14958E-01 +4.99708E-01 -1.79362E-01
 +7.43084E-01 -2.21903E-01 +8.85341E-01 -3.29131E-01 +8.76074E-01 -4.50012E-01 +7.05911E-01 -5.11707E-01
 +4.15620E-01 -4.46399E-01 +8.74523E-02 -2.19690E-01 -1.79600E-01 +1.50217E-01 -3.02844E-01 +5.90625E-01
 -2.45879E-01 +9.92012E-01 -3.45801E-02 +1.24057E+00 +2.47519E-01 +1.25531E+00 +4.84181E-01 +1.01725E+00
 +5.64352E-01 +5.80104E-01 +4.20795E-01 +5.78552E-02 +5.63946E-02 -4.07887E-01 -4.51287E-01 -6.90952E-01
 -9.69770E-01 -7.20419E-01 -1.35032E+00 -5.04125E-01 -1.47369E+00 -1.27791E-01 -1.28852E+00 +2.70632E-01
 -8.29900E-01 +5.43776E-01 -2.11678E-01 +5.81573E-01 +4.05532E-01 +3.47160E-01 +8.61219E-01 -1.09500E-01
 +1.04235E+00 -6.64846E-01 +9.16724E-01 -1.15795E+00 +5.42075E-01 -1.43876E+00 +4.81668E-02 -1.41359E+00
 -4.02573E-01 -1.07403E+00 -6.63858E-01 -5.00522E-01 -6.49013E-01 +1.60388E-01 -3.56201E-01 +7.38064E-01
 +1.31838E-01 +1.08648E+00 +6.72994E-01 +1.12521E+00 +1.10802E+00 +8.60851E-01 +1.30706E+00 +3.83214E-01
 +1.20683E+00 -1.61985E-01 +8.27992E-01 -6.15441E-01 +2.68295E-01 -8.49030E-01 -3.25761E-01 -8.00339E-01
 -8.00119E-01 -4.87695E-01 -1.03523E+00 -2.31772E-03 -9.77382E-01 +5.19218E-01 -6.51234E-01 +9.33775E-01
 -1.50948E-01 +1.13063E+00 +3.86658E-01 +1.06017E+00 +8.19024E-01 +7.45145E-01 +1.03469E+00 +2.72463E-01
 +9.80628E-01 -2.31422E-01 +6.73535E-01 -6.34349E-01 +1.93221E-01 -8.32489E-01 -3.39459E-01 -7.76077E-01
 -7.93878E-01 -4.80850E-01 -1.06213E+00 -2.30274E-02 -1.08487E+00 +4.80335E-01 -8.64731E-01 +9.00445E-01
 -4.64372E-01 +1.12821E+00 +9.71706E-03 +1.10067E+00 +4.33812E-01 +8.16245E-01 +6.97517E-01 +3.35529E-01
 +7.31167E-01 -2.32721E-01 +5.23590E-01 -7.57163E-01 +1.25887E-01 -1.11523E+00 -3.60028E-01 -1.22298E+00
 -8.05796E-01 -1.05628E+00 -1.08843E+00 -6.57894E-01 -1.12201E+00 -1.28231E-01 -8.81257E-01 +3.98625E-01
 -4.10743E-01 +7.88176E-01 +1.83529E-01 +9.40009E-01 +7.58782E-01 +8.14662E-01 +1.17081E+00 +4.45502E-01
 +1.31128E+00 -6.82087E-02 +1.13719E+00 -5.86034E-01 +6.84312E-01 -9.63010E-01 +6.02966E-02 -1.08881E+00
 -5.81459E-01 -9.18858E-01 -1.08090E+00 -4.88628E-01 -1.31317E+00 +9.34528E-02 -1.22195E+00 +6.73211E-01
 -8.34988E-01 +1.09122E+00 -2.57273E-01 +1.22579E+00 +3.56778E-01 +1.02678E+00 +8.44708E-01 +5.30693E-01
 +1.07984E+00 -1.47300E-01 +1.00553E+00 -8.42589E-01 +6.50392E-01 -1.38377E+00 +1.20412E-01 -1.63728E+00
 -4.29985E-01 -1.54191E+00 -8.39844E-01 -1.12409E+00 -9.85164E-01 -4.89915E-01 -8.12201E-01 +2.03507E-01
 -3.51798E-01 +7.89435E-01 +2.88725E-01 +1.13443E+00 +9.53566E-01 +1.17149E+00 +1.47852E+00 +9.15079E-01
 +1.73246E+00 +4.54752E-01 +1.64957E+00 -7.02241E-02 +1.24450E+00 -5.08026E-01 +6.07236E-01 -7.33369E-01
 -1.20088E-01 -6.78703E-01 -7.78278E-01 -3.50142E-01 -1.22894E+00 +1.75098E-01 -1.38614E+00 +7.68401E-01
 -1.23481E+00 +1.28126E+00 -8.32164E-01 +1.58090E+00 -2.92471E-01 +1.58169E+00 +2.40759E-01 +1.26555E+00
 +6.28820E-01 +6.86876E-01 +7.70433E-01 -3.87652E-02 +6.25857E-01 -7.59777E-01 +2.27178E-01 -1.32215E+00
 -3.27721E-01 -1.60444E+00 -8.96655E-01 -1.54649E+00 -1.32594E+00 -1.16528E+00 -1.48762E+00 -5.53624E-01
 -1.31272E+00 +1.39046E-01 -8.12353E-01 +7.40488E-01 -8.05050E-02 +1.09710E+00 +7.23666E-01 +1.11341E+00
 +1.41151E+00 +7.79462E-01 +1.81097E+00 +1.78158E-01 +1.81201E+00 -5.31222E-01 +1.39936E+00 -1.15097E+00
 +6.62646E-01 -1.49604E+00 -2.20799E-01 -1.44547E+00 -1.02805E+00 -9.79995E-01 -1.54799E+00 -1.94270E-01
 -1.63930E+00 +7.21762E-01 -1.27261E+00 +1.52946E+00 -5.44008E-01 +2.00487E+00 +3.46014E-01 +2.00203E+00
 +1.14434E+00 +1.49800E+00 +1.61468E+00 +6.05704E-01 +1.60575E+00 -4.51319E-01 +1.09824E+00 -1.39677E+00
 +2.15953E-01 -1.97724E+00 -8.03921E-01 -2.03444E+00 -1.67465E+00 -1.55289E+00 -2.14059E+00 -6.68118E-01
 -2.05178E+00 +3.68426E-01 -1.41031E+00 +1.25911E+00 -3.74065E-01 +1.74504E+00 +7.84635E-01 +1.68173E+00
 +1.75454E+00 +1.08299E+00 +2.27372E+00 +1.19463E-01 +2.20495E+00 -9.28776E-01 +1.57587E+00 -1.75233E+00
 +5.71551E-01 -2.10222E+00 -5.18692E-01 -1.86281E+00 -1.38509E+00 -1.08649E+00 -1.78712E+00 +2.06276E-02
 -1.62284E+00 +1.15775E+00 -9.57204E-01 +2.01590E+00 -1.42079E-03 +2.36633E+00 +9.50495E-01 +2.12490E+00
 +1.60873E+00 +1.37367E+00 +1.77235E+00 +3.33929E-01 +1.38669E+00 -7.00587E-01 +5.57012E-01 -1.44994E+00
 -4.84780E-01 -1.72787E+00 -1.44942E+00 -1.49197E+00 -2.07436E+00 -8.50237E-01 -2.19755E+00 -2.35448E-02
 -1.79961E+00 +7.23526E-01 -1.00329E+00 +1.16180E+00 -3.22416E-02 +1.16297E+00 +8.57176E-01 +7.32637E-01
