 Created: 19-Jan-2021
 $NMID
 ID='D:\BASISSIMULATI'
 FMTDAT='(8E13.5)'
 VOLUME=   1.00000E+00
 TRAMP=   1.00000E+00
 $END
 +1.15697E+01 +1.29815E-02 +1.06948E+01 -1.54913E+00 +8.31116E+00 -2.59515E+00 +4.86951E+00 -2.75163E+00
 +1.00377E+00 -1.86303E+00 -2.59857E+00 -3.14235E-02 -5.33376E+00 +2.40276E+00 -6.79791E+00 +4.93450E+00
 -6.85815E+00 +7.00578E+00 -5.66499E+00 +8.13010E+00 -3.60529E+00 +8.00218E+00 -1.20779E+00 +6.56862E+00
 +9.76596E-01 +4.04412E+00 +2.49314E+00 +8.69942E-01 +3.07468E+00 -2.37601E+00 +2.68715E+00 -5.09764E+00
 +1.52147E+00 -6.80201E+00 -6.43490E-02 -7.19755E+00 -1.63755E+00 -6.24896E+00 -2.79548E+00 -4.17799E+00
 -3.25868E+00 -1.41175E+00 -2.93171E+00 +1.50926E+00 -1.91898E+00 +4.04226E+00 -4.93806E-01 +5.74869E+00
 +9.70784E-01 +6.37381E+00 +2.09231E+00 +5.88413E+00 +2.56897E+00 +4.45716E+00 +2.24915E+00 +2.42856E+00
 +1.16511E+00 +2.10680E-01 -4.75540E-01 -1.79801E+00 -2.33739E+00 -3.29245E+00 -4.03190E+00 -4.11294E+00
 -5.20158E+00 -4.26037E+00 -5.59472E+00 -3.87434E+00 -5.11465E+00 -3.18242E+00 -3.83388E+00 -2.43457E+00
 -1.97190E+00 -1.83945E+00 +1.56624E-01 -1.51752E+00 +2.20992E+00 -1.48070E+00 +3.88773E+00 -1.64167E+00
 +4.98534E+00 -1.84790E+00 +5.42236E+00 -1.93038E+00 +5.24226E+00 -1.75356E+00 +4.58552E+00 -1.25372E+00
 +3.64531E+00 -4.56511E-01 +2.61799E+00 +5.29721E-01 +1.66065E+00 +1.54211E+00 +8.65306E-01 +2.40469E+00
 +2.54151E-01 +2.97189E+00 -2.05498E-01 +3.16290E+00 -5.73042E-01 +2.97840E+00 -9.02763E-01 +2.49603E+00
 -1.21817E+00 +1.84688E+00 -1.50014E+00 +1.17960E+00 -1.69201E+00 +6.22318E-01 -1.71979E+00 +2.52471E-01
 -1.52118E+00 +8.22404E-02 -1.07418E+00 +6.30751E-02 -4.16423E-01 +1.07361E-01 +3.51851E-01 +1.20694E-01
 +1.08321E+00 +3.53193E-02 +1.61423E+00 -1.65030E-01 +1.80504E+00 -4.36335E-01 +1.57705E+00 -6.84616E-01
 +9.38678E-01 -7.93135E-01 -8.64785E-03 -6.59460E-01 -1.08723E+00 -2.32254E-01 -2.07980E+00 +4.62778E-01
 -2.77822E+00 +1.31599E+00 -3.03277E+00 +2.14954E+00 -2.78990E+00 +2.75365E+00 -2.10857E+00 +2.93544E+00
 -1.15015E+00 +2.56917E+00 -1.43298E-01 +1.63490E+00 +6.68958E-01 +2.35274E-01 +1.08759E+00 -1.41543E+00
 +1.00770E+00 -3.02935E+00 +4.47919E-01 -4.30296E+00 -4.48831E-01 -4.98234E+00 -1.44448E+00 -4.92121E+00
 -2.25907E+00 -4.11778E+00 -2.63648E+00 -2.72125E+00 -2.40736E+00 -1.00484E+00 -1.53456E+00 +6.89398E-01
 -1.29586E-01 +2.02278E+00 +1.56482E+00 +2.73338E+00 +3.22297E+00 +2.69415E+00 +4.50555E+00 +1.94241E+00
 +5.13460E+00 +6.73472E-01 +4.95734E+00 -8.00799E-01 +3.98413E+00 -2.11998E+00 +2.39117E+00 -2.95472E+00
 +4.86791E-01 -3.08058E+00 -1.35221E+00 -2.42939E+00 -2.76032E+00 -1.10659E+00 -3.46187E+00 +6.29732E-01
 -3.33098E+00 +2.42373E+00 -2.41951E+00 +3.89875E+00 -9.46394E-01 +4.73945E+00 +7.49306E-01 +4.76095E+00
 +2.28174E+00 +3.94980E+00 +3.30189E+00 +2.46765E+00 +3.57327E+00 +6.16871E-01 +3.02298E+00 -1.22441E+00
 +1.75729E+00 -2.68337E+00 +3.81072E-02 -3.47199E+00 -1.77413E+00 -3.44769E+00 -3.29858E+00 -2.64190E+00
 -4.21610E+00 -1.25078E+00 -4.33730E+00 +4.09440E-01 -3.64213E+00 +1.97239E+00 -2.28256E+00 +3.10112E+00
 -5.48425E-01 +3.55981E+00 +1.19579E+00 +3.26219E+00 +2.58908E+00 +2.28660E+00 +3.34989E+00 +8.55024E-01
 +3.33374E+00 -7.18565E-01 +2.56046E+00 -2.09857E+00 +1.20602E+00 -3.00111E+00 -4.38401E-01 -3.25434E+00
 -2.03047E+00 -2.83276E+00 -3.24942E+00 -1.85892E+00 -3.86167E+00 -5.72782E-01 -3.76566E+00 +7.23566E-01
 -3.00694E+00 +1.73326E+00 -1.76174E+00 +2.22907E+00 -2.93558E-01 +2.10097E+00 +1.10640E+00 +1.37718E+00
 +2.18167E+00 +2.14881E-01 +2.76205E+00 -1.13635E+00 +2.79377E+00 -2.38963E+00 +2.34273E+00 -3.28186E+00
 +1.57165E+00 -3.62773E+00 +6.97439E-01 -3.35519E+00 -6.07109E-02 -2.51600E+00 -5.30638E-01 -1.27003E+00
 -6.23068E-01 +1.51887E-01 -3.46851E-01 +1.49761E+00 +1.98734E-01 +2.54475E+00 +8.51673E-01 +3.14227E+00
 +1.42767E+00 +3.23448E+00 +1.76372E+00 +2.86371E+00 +1.75479E+00 +2.15263E+00 +1.37607E+00 +1.27161E+00
 +6.86206E-01 +3.99339E-01 -1.87805E-01 -3.14285E-01 -1.08009E+00 -7.75122E-01 -1.82235E+00 -9.56740E-01
 -2.27898E+00 -8.96139E-01 -2.37343E+00 -6.75871E-01 -2.10057E+00 -3.97969E-01 -1.52357E+00 -1.56544E-01
 -7.56864E-01 -1.55828E-02 +5.98506E-02 +3.31176E-03 +7.90419E-01 -7.87698E-02 +1.32747E+00 -2.08644E-01
 +1.60909E+00 -3.18995E-01 +1.62432E+00 -3.48633E-01 +1.40768E+00 -2.59838E-01 +1.02520E+00 -4.86352E-02
 +5.56357E-01 +2.54075E-01 +7.63529E-02 +5.90291E-01 -3.57079E-01 +8.89136E-01 -7.10101E-01 +1.08372E+00
 -9.71973E-01 +1.12640E+00 -1.14854E+00 +9.98894E-01 -1.25280E+00 +7.15197E-01 -1.29581E+00 +3.17140E-01
 -1.28070E+00 -1.35826E-01 -1.20134E+00 -5.79704E-01 -1.04591E+00 -9.58574E-01 -8.03678E-01 -1.23386E+00
 -4.72964E-01 -1.38839E+00 -6.73318E-02 -1.42506E+00 +3.81977E-01 -1.36099E+00 +8.28538E-01 -1.21959E+00
 +1.21785E+00 -1.02288E+00 +1.49750E+00 -7.86368E-01 +1.62786E+00 -5.17710E-01 +1.59076E+00 -2.19208E-01
 +1.39377E+00 +1.06958E-01 +1.06916E+00 +4.52751E-01 +6.67557E-01 +7.99745E-01 +2.47807E-01 +1.11785E+00
 -1.34476E-01 +1.36813E+00 -4.37122E-01 +1.50951E+00 -6.38018E-01 +1.50774E+00 -7.36752E-01 +1.34465E+00
 -7.51197E-01 +1.02500E+00 -7.10141E-01 +5.79131E-01 -6.44036E-01 +6.02957E-02 -5.76330E-01 -4.63149E-01
 -5.17589E-01 -9.19187E-01 -4.63833E-01 -1.24490E+00 -3.99385E-01 -1.39780E+00 -3.03346E-01 -1.36333E+00
 -1.57843E-01 -1.15690E+00 +4.41989E-02 -8.20091E-01 +2.93942E-01 -4.11927E-01 +5.65645E-01 +2.79325E-03
 +8.20236E-01 +3.65588E-01 +1.01272E+00 +6.34239E-01 +1.10179E+00 +7.88637E-01 +1.05930E+00 +8.31575E-01
 +8.77471E-01 +7.84711E-01 +5.72047E-01 +6.80981E-01 +1.80583E-01 +5.55485E-01 -2.43769E-01 +4.37043E-01
 -6.41686E-01 +3.42330E-01 -9.58291E-01 +2.73744E-01 -1.15273E+00 +2.21194E-01 -1.20479E+00 +1.67047E-01
 -1.11728E+00 +9.27680E-02 -9.14029E-01 -1.45613E-02 -6.34009E-01 -1.57470E-01 -3.23198E-01 -3.26227E-01
 -2.59089E-02 -5.00236E-01 +2.22590E-01 -6.52249E-01 +4.00820E-01 -7.54321E-01 +5.02527E-01 -7.84040E-01
 +5.34932E-01 -7.29594E-01 +5.14569E-01 -5.92578E-01 +4.61934E-01 -3.87994E-01 +3.96260E-01 -1.41594E-01
 +3.31540E-01 +1.14754E-01 +2.74506E-01 +3.48603E-01 +2.24698E-01 +5.32205E-01 +1.76324E-01 +6.46528E-01
 +1.21191E-01 +6.83392E-01 +5.18893E-02 +6.45545E-01 -3.55309E-02 +5.44938E-01 -1.39936E-01 +3.99767E-01
 -2.54759E-01 +2.30990E-01 -3.68844E-01 +5.89965E-02 -4.68193E-01 -9.90526E-02 -5.38191E-01 -2.30941E-01
 -5.65908E-01 -3.30093E-01 -5.42143E-01 -3.95359E-01 -4.62982E-01 -4.30088E-01 -3.30740E-01 -4.40709E-01
 -1.54223E-01 -4.35018E-01 +5.17387E-02 -4.20379E-01 +2.67528E-01 -4.02028E-01 +4.70723E-01 -3.81724E-01
 +6.38738E-01 -3.57001E-01 +7.51891E-01 -3.21289E-01 +7.96489E-01 -2.65078E-01 +7.67388E-01 -1.78142E-01
 +6.69439E-01 -5.25544E-02 +5.17322E-01 +1.14000E-01 +3.33505E-01 +3.15388E-01 +1.44476E-01 +5.35489E-01
 -2.41976E-02 +7.48676E-01 -1.53001E-01 +9.22696E-01 -2.32656E-01 +1.02380E+00 -2.66217E-01 +1.02342E+00
 -2.68344E-01 +9.05039E-01 -2.61571E-01 +6.69856E-01 -2.70187E-01 +3.39494E-01 -3.12993E-01 -4.51568E-02
 -3.96694E-01 -4.29405E-01 -5.11754E-01 -7.53857E-01 -6.32135E-01 -9.65587E-01 -7.19576E-01 -1.02911E+00
 -7.31934E-01 -9.34688E-01 -6.34042E-01 -7.01803E-01 -4.08687E-01 -3.76620E-01 -6.49220E-02 -2.34486E-02
 +3.58718E-01 +2.88301E-01 +7.97649E-01 +4.99025E-01 +1.17139E+00 +5.72383E-01 +1.39891E+00 +5.04077E-01
 +1.41625E+00 +3.23570E-01 +1.19259E+00 +8.78790E-02 +7.40841E-01 -1.31602E-01 +1.19947E-01 -2.66556E-01
 -5.72690E-01 -2.69537E-01 -1.21768E+00 -1.27798E-01 -1.69625E+00 +1.30519E-01 -1.91442E+00 +4.39932E-01
 -1.82359E+00 +7.10850E-01 -1.43274E+00 +8.50048E-01 -8.09060E-01 +7.84055E-01 -6.62211E-02 +4.80061E-01
 +6.57794E-01 -4.08711E-02 +1.22890E+00 -7.02098E-01 +1.54520E+00 -1.38260E+00 +1.55908E+00 -1.93955E+00
 +1.28795E+00 -2.23805E+00 +8.10796E-01 -2.18171E+00 +2.50864E-01 -1.73732E+00 -2.52132E-01 -9.47543E-01
 -5.74214E-01 +7.19025E-02 -6.36589E-01 +1.15108E+00 -4.25423E-01 +2.09740E+00 +2.95892E-03 +2.73380E+00
 +5.33234E-01 +2.93556E+00 +1.01663E+00 +2.65776E+00 +1.30555E+00 +1.94693E+00 +1.28956E+00 +9.34074E-01
 +9.24520E-01 -1.90351E-01 +2.47746E-01 -1.21444E+00 -6.24944E-01 -1.94804E+00 -1.52045E+00 -2.26196E+00
 -2.24393E+00 -2.11463E+00 -2.62121E+00 -1.56024E+00 -2.53892E+00 -7.36391E-01 -1.97317E+00 +1.66324E-01
 -9.99970E-01 +9.46247E-01 +2.15688E-01 +1.43498E+00 +1.45040E+00 +1.53430E+00 +2.46663E+00 +1.23745E+00
 +3.06155E+00 +6.29874E-01 +3.10984E+00 -1.30817E-01 +2.59138E+00 -8.51306E-01 +1.59730E+00 -1.34740E+00
 +3.12931E-01 -1.48710E+00 -1.01904E+00 -1.22217E+00 -2.14762E+00 -6.00901E-01 -2.86437E+00 +2.41089E-01
 -3.04520E+00 +1.11012E+00 -2.67434E+00 +1.79756E+00 -1.84544E+00 +2.12714E+00 -7.39709E-01 +1.99599E+00
 +4.13899E-01 +1.40001E+00 +1.38771E+00 +4.37837E-01 +2.00281E+00 -7.07915E-01 +2.16482E+00 -1.80804E+00
 +1.88034E+00 -2.63493E+00 +1.25103E+00 -3.01089E+00 +4.47087E-01 -2.84632E+00 -3.33468E-01 -2.15922E+00
 -9.10316E-01 -1.07201E+00 -1.16088E+00 +2.13561E-01 -1.04603E+00 +1.45803E+00 -6.16091E-01 +2.43304E+00
 +3.86060E-03 +2.96713E+00 +6.45384E-01 +2.97858E+00 +1.13737E+00 +2.48885E+00 +1.34645E+00 +1.61421E+00
 +1.20792E+00 +5.38102E-01 +7.40292E-01 -5.29205E-01 +4.04487E-02 -1.39449E+00 -7.39072E-01 -1.91944E+00
 -1.42518E+00 -2.04466E+00 -1.86347E+00 -1.79539E+00 -1.95262E+00 -1.26874E+00 -1.66632E+00 -6.06453E-01
 -1.05798E+00 +3.99003E-02 -2.47909E-01 +5.42856E-01 +6.04035E-01 +8.24558E-01 +1.33334E+00 +8.68539E-01
 +1.80552E+00 +7.16067E-01 +1.94270E+00 +4.49084E-01 +1.73670E+00 +1.64839E-01 +1.24639E+00 -5.09530E-02
 +5.80748E-01 -1.45654E-01 -1.27559E-01 -1.10839E-01 -7.51477E-01 +1.91848E-02 -1.19492E+00 +1.80381E-01
 -1.40865E+00 +2.99522E-01 -1.39381E+00 +3.16452E-01 -1.19352E+00 +2.02073E-01 -8.75789E-01 -3.27155E-02
 -5.12957E-01 -3.39311E-01 -1.63383E-01 -6.44169E-01 +1.39917E-01 -8.68460E-01 +3.91191E-01 -9.49283E-01
 +6.04733E-01 -8.56711E-01 +8.01458E-01 -6.02120E-01 +9.93920E-01 -2.35555E-01 +1.17484E+00 +1.67155E-01
 +1.31317E+00 +5.24081E-01 +1.35946E+00 +7.68398E-01 +1.25962E+00 +8.65363E-01 +9.73432E-01 +8.20419E-01
