 Created: 19-Jan-2021
 $NMID
 ID='D:\BASISSIMULATI'
 FMTDAT='(8E13.5)'
 VOLUME=   1.00000E+00
 TRAMP=   1.00000E+00
 $END
 +1.45424E+01 +1.40044E-01 +1.15796E+01 +8.36078E+00 +4.29030E+00 +1.29226E+01 -4.01277E+00 +1.19742E+01
 -9.63025E+00 +6.21369E+00 -1.02030E+01 -1.47615E+00 -5.78783E+00 -7.41626E+00 +1.22064E+00 -8.87630E+00
 +7.27464E+00 -5.34438E+00 +9.38708E+00 +1.27748E+00 +6.55192E+00 +7.63339E+00 +1.94161E-01 +1.05572E+01
 -6.55629E+00 +8.60360E+00 -1.04070E+01 +2.73177E+00 -9.51141E+00 -4.18290E+00 -4.36514E+00 -8.76501E+00
 +2.44014E+00 -8.79454E+00 +7.48407E+00 -4.29897E+00 +8.19160E+00 +2.44695E+00 +4.10338E+00 +8.01512E+00
 -2.87272E+00 +9.48530E+00 -9.35446E+00 +5.87408E+00 -1.20970E+01 -1.35792E+00 -9.55315E+00 -8.96801E+00
 -2.63393E+00 -1.34503E+01 +5.69460E+00 -1.26889E+01 +1.17895E+01 -6.95931E+00 +1.30290E+01 +1.19797E+00
 +9.02580E+00 +8.16794E+00 +1.78380E+00 +1.09493E+01 -5.26818E+00 +8.53852E+00 -8.90025E+00 +2.35926E+00
 -7.58781E+00 -4.45668E+00 -2.18886E+00 -8.58199E+00 +4.51818E+00 -8.07284E+00 +9.20088E+00 -3.26252E+00
 +9.57966E+00 +3.44686E+00 +5.50391E+00 +8.77995E+00 -1.01170E+00 +1.01857E+01 -6.79601E+00 +7.06390E+00
 -9.07852E+00 +1.03485E+00 -6.83887E+00 -4.87119E+00 -1.29778E+00 -7.70425E+00 +4.68346E+00 -6.04135E+00
 +8.00122E+00 -6.89753E-01 +6.82815E+00 +5.69195E+00 +1.51909E+00 +9.87178E+00 -5.53275E+00 +9.60613E+00
 -1.10214E+01 +4.73502E+00 -1.22973E+01 -2.71461E+00 -8.63018E+00 -9.46761E+00 -1.56513E+00 -1.25337E+01
 +5.79711E+00 -1.06056E+01 +1.02491E+01 -4.66041E+00 +9.96629E+00 +2.51597E+00 +5.33391E+00 +7.64770E+00
 -1.27375E+00 +8.50100E+00 -6.64390E+00 +4.90325E+00 -8.25020E+00 -1.22509E+00 -5.42525E+00 -6.82631E+00
 +3.69671E-01 -9.18029E+00 +6.29073E+00 -7.18969E+00 +9.50175E+00 -1.86637E+00 +8.53433E+00 +4.19991E+00
 +3.96737E+00 +8.12065E+00 -1.89007E+00 +8.11099E+00 -6.14710E+00 +4.33931E+00 -6.74753E+00 -1.17876E+00
 -3.46877E+00 -5.58147E+00 +1.97575E+00 -6.56656E+00 +6.77454E+00 -3.52044E+00 +8.38754E+00 +2.17279E+00
 +5.78545E+00 +7.78827E+00 -3.65066E-02 +1.05651E+01 -6.51546E+00 +9.03121E+00 -1.07274E+01 +3.71556E+00
 -1.07656E+01 -3.09137E+00 -6.63573E+00 -8.40980E+00 -2.44670E-01 -9.96309E+00 +5.50370E+00 -7.22919E+00
 +8.07095E+00 -1.65781E+00 +6.45668E+00 +4.03970E+00 +1.63096E+00 +7.18032E+00 -3.96619E+00 +6.36233E+00
 -7.60639E+00 +2.09024E+00 -7.56511E+00 -3.51225E+00 -3.91052E+00 -7.74829E+00 +1.57550E+00 -8.64213E+00
 +6.28971E+00 -5.86126E+00 +8.07243E+00 -8.34140E-01 +6.23359E+00 +3.97796E+00 +1.85278E+00 +6.29113E+00
 -2.77893E+00 +5.10241E+00 -5.29400E+00 +1.15775E+00 -4.40654E+00 -3.43261E+00 -5.34963E-01 -6.23614E+00
 +4.40514E+00 -5.68903E+00 +7.93155E+00 -1.86161E+00 +8.19675E+00 +3.56671E+00 +4.88200E+00 +8.10584E+00
 -6.41780E-01 +9.63987E+00 -5.95818E+00 +7.43059E+00 -8.74243E+00 +2.46349E+00 -7.84767E+00 -3.02244E+00
 -3.82673E+00 -6.59031E+00 +1.35031E+00 -6.74107E+00 +5.23887E+00 -3.59246E+00 +6.06827E+00 +1.21152E+00
 +3.55160E+00 +5.30500E+00 -1.01853E+00 +6.72580E+00 -5.41884E+00 +4.82519E+00 -7.56678E+00 +5.36749E-01
 -6.49849E+00 -4.10845E+00 -2.79226E+00 -6.97374E+00 +1.75103E+00 -6.83336E+00 +5.00143E+00 -3.92923E+00
 +5.52867E+00 +1.87052E-01 +3.27144E+00 +3.43640E+00 -4.65899E-01 +4.23129E+00 -3.67508E+00 +2.23835E+00
 -4.63485E+00 -1.47734E+00 -2.74973E+00 -4.98594E+00 +1.16424E+00 -6.43853E+00 +5.27702E+00 -4.96559E+00
 +7.62680E+00 -1.09793E+00 +7.05930E+00 +3.48580E+00 +3.77551E+00 +6.75722E+00 -7.68486E-01 +7.29576E+00
 -4.55412E+00 +4.94923E+00 -5.94929E+00 +8.88680E-01 -4.46169E+00 -2.95941E+00 -9.44334E-01 -4.82528E+00
 +2.83341E+00 -3.91663E+00 +5.03470E+00 -7.63308E-01 +4.61550E+00 +3.06584E+00 +1.79111E+00 +5.72629E+00
 -2.10113E+00 +5.97017E+00 -5.26301E+00 +3.71356E+00 -6.29451E+00 +3.90781E-02 -4.83938E+00 -3.35233E+00
 -1.71722E+00 -4.96581E+00 +1.50669E+00 -4.21428E+00 +3.29411E+00 -1.66704E+00 +2.87174E+00 +1.26148E+00
 +5.82862E-01 +3.02009E+00 -2.30643E+00 +2.67794E+00 -4.24137E+00 +3.66814E-01 -4.14006E+00 -2.79692E+00
 -1.91504E+00 -5.26307E+00 +1.49018E+00 -5.79890E+00 +4.55869E+00 -4.07851E+00 +5.92526E+00 -8.31987E-01
 +5.01916E+00 +2.50902E+00 +2.32151E+00 +4.49211E+00 -8.77833E-01 +4.32305E+00 -3.09875E+00 +2.22201E+00
 -3.36536E+00 -7.03771E-01 -1.64771E+00 -3.00013E+00 +1.15082E+00 -3.55483E+00 +3.64289E+00 -2.10750E+00
 +4.62021E+00 +6.53961E-01 +3.61275E+00 +3.44402E+00 +1.08431E+00 +4.99918E+00 -1.81628E+00 +4.66675E+00
 -3.81696E+00 +2.68673E+00 -4.12229E+00 +4.37449E-02 -2.76673E+00 -2.02667E+00 -5.62583E-01 -2.63244E+00
 +1.31950E+00 -1.63475E+00 +1.92596E+00 +3.15216E-01 +9.73062E-01 +2.11840E+00 -1.03514E+00 +2.77409E+00
 -3.07016E+00 +1.86370E+00 -4.08720E+00 -2.56969E-01 -3.52933E+00 -2.64094E+00 -1.58733E+00 -4.21157E+00
 +9.01985E-01 -4.27575E+00 +2.86156E+00 -2.84385E+00 +3.48391E+00 -6.09748E-01 +2.60124E+00 +1.39054E+00
 +7.44971E-01 +2.27180E+00 -1.12425E+00 +1.70771E+00 -2.07953E+00 +6.46527E-02 -1.66007E+00 -1.79292E+00
 -7.12430E-02 -2.92376E+00 +1.93378E+00 -2.75242E+00 +3.42398E+00 -1.32526E+00 +3.72970E+00 +7.33406E-01
 +2.74285E+00 +2.53306E+00 +9.42796E-01 +3.34013E+00 -8.53023E-01 +2.90967E+00 -1.88537E+00 +1.57386E+00
 -1.80394E+00 +5.58625E-02 -8.09486E-01 -8.91463E-01 +4.70856E-01 -8.44128E-01 +1.30461E+00 +1.06409E-01
 +1.21128E+00 +1.41978E+00 +1.85013E-01 +2.38440E+00 -1.31746E+00 +2.46607E+00 -2.60880E+00 +1.55950E+00
 -3.10435E+00 +2.71634E-02 -2.59532E+00 -1.48469E+00 -1.33488E+00 -2.35738E+00 +9.61633E-02 -2.28688E+00
 +1.07209E+00 -1.41220E+00 +1.21478E+00 -2.31412E-01 +5.58261E-01 +6.46819E-01 -4.86450E-01 +7.92596E-01
 -1.34089E+00 +1.48033E-01 -1.53758E+00 -9.61738E-01 -9.34074E-01 -1.99654E+00 +2.34068E-01 -2.46139E+00
 +1.47822E+00 -2.13333E+00 +2.29253E+00 -1.15105E+00 +2.38533E+00 +6.72960E-02 +1.79873E+00 +1.03045E+00
 +8.67300E-01 +1.40203E+00 +4.41778E-02 +1.14277E+00 -3.16518E-01 +5.05960E-01 -1.17039E-01 -1.02748E-01
 +4.56665E-01 -3.27656E-01 +1.04239E+00 -2.88396E-02 +1.28524E+00 +6.63781E-01 +1.00672E+00 +1.42660E+00
 +2.80900E-01 +1.90505E+00 -6.12164E-01 +1.88135E+00 -1.32646E+00 +1.36859E+00 -1.61229E+00 +5.91805E-01
 -1.42369E+00 -1.27877E-01 -9.24814E-01 -5.25895E-01 -3.98857E-01 -5.10348E-01 -1.08594E-01 -1.90257E-01
 -1.76361E-01 +1.90931E-01 -5.37606E-01 +3.79081E-01 -9.84054E-01 +2.29064E-01 -1.26993E+00 -2.34408E-01
 -1.22764E+00 -8.38244E-01 -8.39249E-01 -1.34847E+00 -2.34672E-01 -1.57846E+00 +3.76301E-01 -1.46701E+00
 +8.01568E-01 -1.09360E+00 +9.47084E-01 -6.29749E-01 +8.45554E-01 -2.54777E-01 +6.25930E-01 -7.73345E-02
 +4.43774E-01 -9.73472E-02 +4.08120E-01 -2.20872E-01 +5.38018E-01 -3.15012E-01 +7.64598E-01 -2.73475E-01
 +9.72054E-01 -6.22018E-02 +1.05429E+00 +2.72668E-01 +9.60100E-01 +6.32926E-01 +7.08627E-01 +9.15115E-01
 +3.72881E-01 +1.05291E+00 +4.33587E-02 +1.03755E+00 -2.09399E-01 +9.11311E-01 -3.57411E-01 +7.41654E-01
 -4.16572E-01 +5.90420E-01 -4.30546E-01 +4.91637E-01 -4.47499E-01 +4.44810E-01 -5.00327E-01 +4.22601E-01
 -5.96740E-01 +3.86421E-01 -7.19955E-01 +3.02441E-01 -8.36769E-01 +1.52938E-01 -9.08748E-01 -5.86668E-02
 -9.03404E-01 -3.08480E-01 -8.03670E-01 -5.57413E-01 -6.14387E-01 -7.60369E-01 -3.63979E-01 -8.78448E-01
 -9.92514E-02 -8.91800E-01 +1.27368E-01 -8.08798E-01 +2.75535E-01 -6.66539E-01 +3.33399E-01 -5.19782E-01
 +3.24843E-01 -4.20318E-01 +3.01985E-01 -3.94228E-01 +3.23509E-01 -4.27520E-01 +4.26725E-01 -4.68688E-01
 +6.06036E-01 -4.49745E-01 +8.09424E-01 -3.18187E-01 +9.57197E-01 -6.55778E-02 +9.76578E-01 +2.61813E-01
 +8.36906E-01 +5.77675E-01 +5.68145E-01 +7.91091E-01 +2.52020E-01 +8.47282E-01 -1.22045E-02 +7.54107E-01
 -1.52422E-01 +5.80227E-01 -1.57573E-01 +4.23935E-01 -8.33858E-02 +3.66226E-01 -2.55636E-02 +4.30462E-01
 -7.20596E-02 +5.68965E-01 -2.57164E-01 +6.84555E-01 -5.40395E-01 +6.77913E-01 -8.21861E-01 +4.98326E-01
 -9.88043E-01 +1.72644E-01 -9.66468E-01 -2.02892E-01 -7.62463E-01 -5.05336E-01 -4.59117E-01 -6.42318E-01
 -1.79291E-01 -5.96043E-01 -2.73795E-02 -4.31877E-01 -3.90944E-02 -2.66380E-01 -1.64320E-01 -2.09701E-01
 -2.92187E-01 -3.10374E-01 -3.06702E-01 -5.29952E-01 -1.45818E-01 -7.60612E-01 +1.65389E-01 -8.77664E-01
 +5.24335E-01 -8.01371E-01 +7.99142E-01 -5.37449E-01 +8.91907E-01 -1.75846E-01 +7.85720E-01 +1.51963E-01
 +5.51915E-01 +3.36228E-01 +3.13771E-01 +3.41268E-01 +1.84690E-01 +2.20774E-01 +2.11796E-01 +8.83417E-02
 +3.53312E-01 +5.80642E-02 +5.01139E-01 +1.85135E-01 +5.37246E-01 +4.36534E-01 +3.95316E-01 +7.06713E-01
 +9.63454E-02 +8.70417E-01 -2.59958E-01 +8.45896E-01 -5.43708E-01 +6.36409E-01 -6.58704E-01 +3.28920E-01
 -5.89185E-01 +5.06561E-02 -4.05745E-01 -9.43027E-02 -2.27549E-01 -7.60503E-02 -1.60367E-01 +4.84979E-02
 -2.42298E-01 +1.67595E-01 -4.25086E-01 +1.74583E-01 -6.00508E-01 +2.46283E-02 -6.57975E-01 -2.41159E-01
 -5.43262E-01 -5.16757E-01 -2.87630E-01 -6.86378E-01 +8.00140E-03 -6.84864E-01 +2.25646E-01 -5.31488E-01
 +2.92020E-01 -3.19173E-01 +2.16740E-01 -1.64467E-01 +8.63615E-02 -1.44532E-01 +1.67873E-02 -2.54690E-01
 +8.88702E-02 -4.09686E-01 +3.01496E-01 -4.89004E-01 +5.67923E-01 -4.02964E-01 +7.58691E-01 -1.44616E-01
 +7.69578E-01 +2.01014E-01 +5.78993E-01 +4.96839E-01 +2.63659E-01 +6.23246E-01 -3.73986E-02 +5.41211E-01
 -1.93301E-01 +3.15088E-01 -1.49997E-01 +8.14032E-02 +3.94829E-02 -2.17727E-02 +2.40763E-01 +7.12439E-02
 +3.08346E-01 +3.15801E-01 +1.64633E-01 +5.76673E-01 -1.54101E-01 +6.97435E-01 -5.10843E-01 +5.84597E-01
 -7.35876E-01 +2.62196E-01 -7.16061E-01 -1.33792E-01 -4.58800E-01 -4.21368E-01 -9.51909E-02 -4.66832E-01
 +1.82681E-01 -2.58875E-01 +2.20758E-01 +7.81164E-02 -1.20563E-02 +3.42159E-01 -3.98827E-01 +3.56747E-01
 -7.26291E-01 +6.72638E-02 -7.90913E-01 -4.20383E-01 -5.07121E-01 -8.82758E-01 +3.86181E-02 -1.08619E+00
 +6.19332E-01 -9.06570E-01 +9.73556E-01 -4.00448E-01 +9.35588E-01 +2.12153E-01 +5.24450E-01 +6.49378E-01
 -5.63029E-02 +7.06291E-01 -5.12612E-01 +3.61765E-01 -6.04650E-01 -2.02688E-01 -2.71033E-01 -6.86209E-01
 +3.31828E-01 -8.16626E-01 +8.99425E-01 -4.90955E-01 +1.12770E+00 +1.63558E-01 +8.68567E-01 +8.42796E-01
