 Created: 16-Jan-2021
 $NMID
 ID='D:\BASISSIMULATI'
 FMTDAT='(8E13.5)'
 VOLUME=   1.00000E+00
 TRAMP=   1.00000E+00
 $END
 +4.40489E+01 +8.18228E+00 +2.87695E+01 +3.25046E+01 +1.45866E+00 +3.93673E+01 -2.18293E+01 +2.55821E+01
 -2.77350E+01 +4.86122E-01 -1.37890E+01 -1.99431E+01 +1.02630E+01 -2.30279E+01 +2.87281E+01 -7.09624E+00
 +2.97437E+01 +1.78046E+01 +1.23851E+01 +3.64257E+01 -1.32017E+01 +3.77668E+01 -3.24239E+01 +2.15049E+01
 -3.52136E+01 -2.39832E+00 -2.17218E+01 -2.02780E+01 -1.47501E+00 -2.31248E+01 +1.30213E+01 -1.15139E+01
 +1.39184E+01 +5.60496E+00 +2.18309E+00 +1.69896E+01 -1.38869E+01 +1.59367E+01 -2.43156E+01 +3.69331E+00
 -2.34258E+01 -1.22033E+01 -1.25480E+01 -2.30495E+01 +1.71010E+00 -2.40736E+01 +1.19790E+01 -1.65051E+01
 +1.43427E+01 -5.87098E+00 +9.84092E+00 +1.84898E+00 +2.87938E+00 +3.57570E+00 -1.91054E+00 +1.43422E-01
 -2.20495E+00 -5.10306E+00 +1.40468E+00 -8.73482E+00 +6.56725E+00 -9.01449E+00 +1.08960E+01 -6.18715E+00
 +1.30625E+01 -1.61959E+00 +1.28558E+01 +3.24874E+00 +1.06498E+01 +7.40014E+00 +6.98603E+00 +1.01421E+01
 +2.59496E+00 +1.09164E+01 -1.41686E+00 +9.45795E+00 -3.71382E+00 +6.24222E+00 -3.39475E+00 +2.70983E+00
 -7.78549E-01 +7.98412E-01 +2.38138E+00 +1.85314E+00 +3.65910E+00 +5.58903E+00 +1.39199E+00 +9.92301E+00
 -4.10677E+00 +1.19957E+01 -1.04506E+01 +9.87589E+00 -1.44188E+01 +3.88160E+00 -1.38536E+01 -3.40327E+00
 -9.03296E+00 -8.53589E+00 -2.60569E+00 -9.22992E+00 +1.93021E+00 -5.73012E+00 +2.29132E+00 -6.70818E-01
 -1.25651E+00 +2.50896E+00 -6.10773E+00 +1.61685E+00 -8.91859E+00 -3.02940E+00 -7.59635E+00 -8.86632E+00
 -2.47134E+00 -1.26600E+01 +4.00359E+00 -1.23930E+01 +8.76195E+00 -8.33407E+00 +9.87554E+00 -2.72265E+00
 +7.51530E+00 +1.63775E+00 +3.64086E+00 +2.96998E+00 +7.24780E-01 +1.37228E+00 +3.41354E-01 -1.47123E+00
 +2.42867E+00 -3.41633E+00 +5.54437E+00 -3.08216E+00 +7.82986E+00 -4.83959E-01 +8.04575E+00 +3.17732E+00
 +6.10853E+00 +6.31127E+00 +2.93594E+00 +7.78916E+00 -1.78892E-01 +7.39420E+00 -2.23998E+00 +5.72886E+00
 -2.91977E+00 +3.75728E+00 -2.52928E+00 +2.30302E+00 -1.72045E+00 +1.75093E+00 -1.14234E+00 +2.01776E+00
 -1.20978E+00 +2.70302E+00 -2.02033E+00 +3.28936E+00 -3.37307E+00 +3.31410E+00 -4.84120E+00 +2.50066E+00
 -5.89016E+00 +8.56844E-01 -6.05060E+00 -1.28353E+00 -5.11967E+00 -3.32910E+00 -3.30442E+00 -4.63674E+00
 -1.20167E+00 -4.80018E+00 +4.29989E-01 -3.88291E+00 +1.02912E+00 -2.44493E+00 +5.40582E-01 -1.30326E+00
 -5.13660E-01 -1.11900E+00 -1.27690E+00 -2.02543E+00 -1.01036E+00 -3.51650E+00 +4.83455E-01 -4.68532E+00
 +2.71123E+00 -4.70475E+00 +4.71690E+00 -3.29305E+00 +5.57938E+00 -9.00173E-01 +4.91216E+00 +1.50285E+00
 +3.08533E+00 +2.92785E+00 +1.03892E+00 +2.89428E+00 -2.16796E-01 +1.68454E+00 -1.42116E-01 +1.85916E-01
 +1.04704E+00 -5.96335E-01 +2.50620E+00 -8.81919E-02 +3.23067E+00 +1.54189E+00 +2.60769E+00 +3.47789E+00
 +7.51317E-01 +4.70202E+00 -1.55920E+00 +4.54575E+00 -3.29923E+00 +3.04644E+00 -3.74473E+00 +9.19837E-01
 -2.84791E+00 -8.30537E-01 -1.24331E+00 -1.44992E+00 +1.11453E-01 -8.22911E-01 +4.58925E-01 +4.89237E-01
 -3.57525E-01 +1.57673E+00 -1.82934E+00 +1.68814E+00 -3.08099E+00 +6.36477E-01 -3.35861E+00 -1.11361E+00
 -2.43711E+00 -2.71561E+00 -7.26381E-01 -3.40906E+00 +9.70455E-01 -2.92303E+00 +1.90061E+00 -1.59774E+00
 +1.75595E+00 -1.71184E-01 +8.06188E-01 +6.35697E-01 -2.85900E-01 +4.98013E-01 -8.45886E-01 -3.72367E-01
 -5.45830E-01 -1.38235E+00 +4.50382E-01 -1.90160E+00 +1.61192E+00 -1.59567E+00 +2.34373E+00 -5.75140E-01
 +2.29205E+00 +6.95711E-01 +1.49855E+00 +1.65646E+00 +3.46555E-01 +1.92694E+00 -6.47388E-01 +1.46859E+00
 -1.08016E+00 +5.72779E-01 -8.33639E-01 -2.95605E-01 -1.08926E-01 -7.15680E-01 +6.76580E-01 -4.96052E-01
 +1.08033E+00 +2.41908E-01 +8.38482E-01 +1.11409E+00 +7.32210E-04 +1.64278E+00 -1.06879E+00 +1.48387E+00
 -1.84371E+00 +6.15017E-01 -1.89048E+00 -6.15153E-01 -1.11065E+00 -1.62708E+00 +1.64758E-01 -1.89643E+00
 +1.30729E+00 -1.24961E+00 +1.70970E+00 +5.65558E-04 +1.13205E+00 +1.18226E+00 -1.25727E-01 +1.61534E+00
 -1.34890E+00 +1.00427E+00 -1.78894E+00 -3.56648E-01 -1.09893E+00 -1.70666E+00 +4.31171E-01 -2.22686E+00
 +1.99496E+00 -1.51404E+00 +2.70062E+00 +1.54789E-01 +2.07974E+00 +1.93626E+00 +3.81841E-01 +2.86861E+00
 -1.52711E+00 +2.41214E+00 -2.62299E+00 +7.76298E-01 -2.29321E+00 -1.16253E+00 -7.00191E-01 -2.32317E+00
 +1.27394E+00 -2.01752E+00 +2.48787E+00 -3.55993E-01 +2.16829E+00 +1.77318E+00 +3.63961E-01 +3.15878E+00
 -2.03264E+00 +2.92575E+00 -3.73162E+00 +1.04564E+00 -3.74059E+00 -1.59251E+00 -1.93890E+00 -3.61820E+00
 +7.96623E-01 -3.91454E+00 +3.01754E+00 -2.26256E+00 +3.48346E+00 +4.75117E-01 +1.88079E+00 +2.77188E+00
 -9.35133E-01 +3.26579E+00 -3.35317E+00 +1.55519E+00 -3.88787E+00 -1.50311E+00 -2.05177E+00 -4.20693E+00
 +1.29474E+00 -4.94547E+00 +4.36144E+00 -3.14510E+00 +5.41974E+00 +3.35879E-01 +3.81520E+00 +3.63427E+00
 +3.98101E-01 +4.92472E+00 -2.91588E+00 +3.48791E+00 -4.23272E+00 +1.66143E-01 -2.78955E+00 -3.09052E+00
 +5.76948E-01 -4.34517E+00 +3.89901E+00 -2.80759E+00 +5.21846E+00 +6.96753E-01 +3.72450E+00 +4.20658E+00
 +2.12410E-01 +5.76706E+00 -3.40080E+00 +4.55028E+00 -5.19792E+00 +1.29423E+00 -4.34180E+00 -2.17496E+00
 -1.48729E+00 -4.01814E+00 +1.67496E+00 -3.40006E+00 +3.41940E+00 -8.69866E-01 +2.91709E+00 +2.05490E+00
 +5.84614E-01 +3.78583E+00 -2.26947E+00 +3.49039E+00 -4.20910E+00 +1.41401E+00 -4.37714E+00 -1.38499E+00
 -2.80055E+00 -3.63792E+00 -2.42348E-01 -4.44074E+00 +2.21219E+00 -3.55678E+00 +3.59295E+00 -1.41533E+00
 +3.36406E+00 +1.09023E+00 +1.59812E+00 +2.90239E+00 -9.96014E-01 +3.15716E+00 -3.24235E+00 +1.56146E+00
 -3.91972E+00 -1.33836E+00 -2.36644E+00 -4.20833E+00 +1.00633E+00 -5.44051E+00 +4.66873E+00 -4.00472E+00
 +6.60478E+00 -2.02834E-01 +5.42460E+00 +4.21167E+00 +1.34803E+00 +6.81072E+00 -3.62999E+00 +5.86989E+00
 -6.68248E+00 +1.56166E+00 -5.79156E+00 -3.86362E+00 -1.12437E+00 -7.20329E+00 +4.80150E+00 -6.19474E+00
 +8.43637E+00 -1.04069E+00 +7.32149E+00 +5.47066E+00 +1.72626E+00 +9.47942E+00 -5.30324E+00 +8.37894E+00
 -9.64726E+00 +2.52515E+00 -8.60321E+00 -4.80757E+00 -2.62654E+00 -9.30343E+00 +4.82059E+00 -8.21972E+00
 +9.29657E+00 -2.11987E+00 +8.07202E+00 +5.39220E+00 +1.81890E+00 +9.81835E+00 -5.76896E+00 +8.48639E+00
 -1.02031E+01 +2.16415E+00 -8.90088E+00 -5.42498E+00 -2.69932E+00 -9.86734E+00 +4.71687E+00 -8.69267E+00
 +9.07243E+00 -2.77149E+00 +8.02575E+00 +4.32123E+00 +2.43996E+00 +8.50691E+00 -4.28768E+00 +7.58064E+00
 -8.32374E+00 +2.35404E+00 -7.59780E+00 -4.01604E+00 -2.82239E+00 -7.97846E+00 +3.14309E+00 -7.58523E+00
 +7.05663E+00 -3.40036E+00 +7.07346E+00 +2.06459E+00 +3.56101E+00 +5.89396E+00 -1.35845E+00 +6.32232E+00
 -5.10333E+00 +3.47659E+00 -5.96058E+00 -9.41827E-01 -3.77796E+00 -4.68462E+00 +1.86011E-01 -6.06312E+00
 +4.00929E+00 -4.61445E+00 +6.00182E+00 -1.14186E+00 +5.36833E+00 +2.74703E+00 +2.45552E+00 +5.33906E+00
 -1.42607E+00 +5.49562E+00 -4.52147E+00 +3.11675E+00 -5.34617E+00 -7.61418E-01 -3.37078E+00 -4.32515E+00
 +6.18676E-01 -5.74646E+00 +4.73693E+00 -4.08613E+00 +6.82047E+00 +9.96349E-02 +5.54110E+00 +4.85037E+00
 +1.24006E+00 +7.68450E+00 -4.05378E+00 +6.91084E+00 -7.56915E+00 +2.66957E+00 -7.28554E+00 -2.95371E+00
 -3.15976E+00 -6.93164E+00 +2.67558E+00 -6.95126E+00 +6.96765E+00 -2.80504E+00 +7.14254E+00 +3.33512E+00
 +2.84115E+00 +8.01673E+00 -3.73804E+00 +8.42861E+00 -8.97070E+00 +4.06340E+00 -9.83139E+00 -2.87568E+00
 -5.66561E+00 -8.62853E+00 +1.34345E+00 -9.98629E+00 +7.34007E+00 -6.15673E+00 +8.96931E+00 +7.13338E-01
 +5.32004E+00 +6.70575E+00 -1.50227E+00 +8.35276E+00 -7.53847E+00 +4.64246E+00 -9.23077E+00 -2.36414E+00
 -5.47556E+00 -8.68553E+00 +1.72257E+00 -1.06938E+01 +8.38845E+00 -7.19870E+00 +1.08547E+01 -1.29655E-01
 +7.85950E+00 +6.58385E+00 +1.24471E+00 +9.27962E+00 -5.14303E+00 +6.65394E+00 -7.69250E+00 +4.62910E-01
 -5.09112E+00 -5.55420E+00 +9.84778E-01 -7.87084E+00 +6.92166E+00 -5.18592E+00 +9.30178E+00 +9.10584E-01
 +6.84237E+00 +6.95982E+00 +1.02398E+00 +9.68338E+00 -4.89483E+00 +7.82501E+00 -7.82020E+00 +2.73090E+00
 -6.54343E+00 -2.58911E+00 -2.26446E+00 -5.27348E+00 +2.28835E+00 -4.18620E+00 +4.51591E+00 -3.78293E-01
 +3.36397E+00 +3.71983E+00 -2.77999E-01 +5.77936E+00 -4.29512E+00 +4.81324E+00 -6.63083E+00 +1.51697E+00
 -6.34248E+00 -2.34176E+00 -3.89286E+00 -4.99110E+00 -6.67170E-01 -5.52177E+00 +1.86487E+00 -4.14159E+00
 +2.82821E+00 -1.83757E+00 +2.17469E+00 +2.23053E-01 +5.05626E-01 +1.19197E+00 -1.28619E+00 +7.67052E-01
 -2.34923E+00 -8.12383E-01 -2.11466E+00 -2.88665E+00 -4.73004E-01 -4.56058E+00 +2.11943E+00 -4.97800E+00
 +4.69887E+00 -3.68418E+00 +6.11839E+00 -9.45159E-01 +5.59454E+00 +2.20688E+00 +3.21953E+00 +4.36087E+00
 +8.64607E-02 +4.44952E+00 -2.17001E+00 +2.42942E+00 -2.25855E+00 -5.37849E-01 -5.12708E-02 -2.62242E+00
 +3.20173E+00 -2.35533E+00 +5.48735E+00 +4.39926E-01 +5.18172E+00 +4.41809E+00 +2.06584E+00 +7.40067E+00
 -2.44386E+00 +7.62719E+00 -6.04723E+00 +4.82901E+00 -6.88390E+00 +4.52790E-01 -4.64167E+00 -3.13927E+00
 -7.69003E-01 -4.03779E+00 +2.35507E+00 -1.90900E+00 +2.80849E+00 +1.80316E+00 +2.48544E-01 +4.71843E+00
 -3.89082E+00 +4.90486E+00 -7.23159E+00 +1.99239E+00 -7.81536E+00 -2.62381E+00 -5.20575E+00 -6.58663E+00
 -7.12251E-01 -7.90535E+00 +3.36407E+00 -6.04935E+00 +5.01385E+00 -2.20842E+00 +3.61071E+00 +1.39629E+00
 +2.23724E-01 +2.74662E+00 -2.99528E+00 +1.12664E+00 -3.99988E+00 -2.49795E+00 -1.97069E+00 -6.01024E+00
 +2.22474E+00 -7.29290E+00 +6.47881E+00 -5.38886E+00 +8.57003E+00 -1.05306E+00 +7.37930E+00 +3.61437E+00
 +3.54033E+00 +6.28495E+00 -8.56210E-01 +5.68797E+00 -3.38753E+00 +2.35995E+00 -2.66589E+00 -1.59505E+00
 +8.18688E-01 -3.65778E+00 +4.90200E+00 -2.34981E+00 +6.94513E+00 +1.84137E+00 +5.38328E+00 +6.65262E+00
 +7.17675E-01 +9.30889E+00 -4.68452E+00 +8.16310E+00 -7.93099E+00 +3.73462E+00 -7.32595E+00 -1.52389E+00
 -3.42992E+00 -4.65127E+00 +1.22899E+00 -3.96513E+00 +3.66578E+00 -1.13881E-01 +2.26964E+00 +4.28815E+00
 -2.18197E+00 +6.25377E+00 -6.98058E+00 +4.27203E+00 -9.15196E+00 -7.44349E-01 -7.29396E+00 -6.01845E+00
