 Created: 16-Jan-2021
 $NMID
 ID='D:\BASISSIMULATI'
 FMTDAT='(8E13.5)'
 VOLUME=   1.00000E+00
 TRAMP=   1.00000E+00
 $END
 +3.73647E+01 +5.71721E+00 +2.03175E+01 +3.18186E+01 -1.05071E+01 +3.62111E+01 -3.41073E+01 +1.59615E+01
 -3.44481E+01 -1.50945E+01 -1.13561E+01 -3.58051E+01 +1.94025E+01 -3.21087E+01 +3.68861E+01 -6.58096E+00
 +2.92356E+01 +2.33592E+01 +1.71792E+00 +3.73350E+01 -2.68992E+01 +2.58801E+01 -3.71474E+01 -3.14993E+00
 -2.21018E+01 -2.99645E+01 +7.93985E+00 -3.63296E+01 +3.25054E+01 -1.79670E+01 +3.48987E+01 +1.25709E+01
 +1.35476E+01 +3.44812E+01 -1.69651E+01 +3.28821E+01 -3.58614E+01 +8.92028E+00 -3.03170E+01 -2.10491E+01
 -4.16459E+00 -3.66254E+01 +2.47550E+01 -2.72497E+01 +3.67634E+01 +6.38015E-01 +2.37348E+01 +2.80217E+01
 -5.40570E+00 +3.62761E+01 -3.07961E+01 +1.98343E+01 -3.51749E+01 -1.00576E+01 -1.56164E+01 -3.30333E+01
 +1.45154E+01 -3.34817E+01 +3.46981E+01 -1.11544E+01 +3.12281E+01 +1.87042E+01 +6.52520E+00 +3.57650E+01
 -2.25542E+01 +2.84553E+01 -3.62190E+01 +1.80837E+00 -2.52130E+01 -2.60018E+01 +2.91553E+00 -3.60554E+01
 +2.89903E+01 -2.15586E+01 +3.52801E+01 +7.56621E+00 +1.75563E+01 +3.14713E+01 -1.20650E+01 +3.39093E+01
 -3.34052E+01 +1.32757E+01 -3.19693E+01 -1.63363E+01 -8.79113E+00 -3.47619E+01 +2.03087E+01 -2.94959E+01
 +3.55213E+01 -4.17965E+00 +2.65338E+01 +2.39161E+01 -4.79716E-01 +3.56733E+01 -2.70991E+01 +2.31357E+01
 -3.52186E+01 -5.10757E+00 -1.93616E+01 -2.98057E+01 +9.62544E+00 -3.41677E+01 +3.19925E+01 -1.52776E+01
 +3.25417E+01 +1.39571E+01 +1.09544E+01 +3.36247E+01 -1.80300E+01 +3.03710E+01 -3.46775E+01 +6.46685E+00
 -2.76952E+01 -2.17761E+01 -1.89191E+00 -3.51359E+01 +2.51335E+01 -2.45623E+01 +3.49950E+01 +2.69224E+00
 +2.10278E+01 +2.80471E+01 -7.20766E+00 +3.42604E+01 -3.04696E+01 +1.71538E+01 -3.29474E+01 -1.15780E+01
 -1.30078E+01 -3.23622E+01 +1.57297E+01 -3.10812E+01 +3.36956E+01 -8.66164E+00 +2.86963E+01 +1.95934E+01
 +4.19007E+00 +3.44499E+01 -2.31048E+01 +2.58359E+01 -3.46151E+01 -3.30253E-01 -2.25509E+01 -2.62061E+01
 +4.82231E+00 -3.41913E+01 +2.88466E+01 -1.88993E+01 +3.31889E+01 +9.20991E+00 +1.49448E+01 +3.09838E+01
 -1.34190E+01 +3.16276E+01 -3.25840E+01 +1.07563E+01 -2.95368E+01 -1.73791E+01 -6.40611E+00 -3.36225E+01
 +2.10241E+01 -2.69547E+01 +3.40846E+01 -1.96886E+00 +2.39277E+01 +2.42936E+01 -2.47959E+00 +3.39653E+01
 -2.71339E+01 +2.05093E+01 -3.32696E+01 -6.86362E+00 -1.67596E+01 -2.94991E+01 +1.11091E+01 -3.20122E+01
 +3.13512E+01 -1.27440E+01 +3.02172E+01 +1.51445E+01 +8.53196E+00 +3.26615E+01 -1.89024E+01 +2.79178E+01
 -3.34102E+01 +4.19613E+00 -2.51557E+01 -2.23203E+01 +1.89243E-01 -3.35877E+01 +2.53419E+01 -2.19801E+01
 +3.31936E+01 +4.54941E+00 +1.84470E+01 +2.79178E+01 -8.81043E+00 +3.22375E+01 -3.00065E+01 +1.46182E+01
 -3.07386E+01 -1.29004E+01 -1.05602E+01 -3.15749E+01 +1.67507E+01 -2.87250E+01 +3.25991E+01 -6.34318E+00
 +2.62334E+01 +2.02971E+01 +2.03954E+00 +3.30643E+01 -2.34809E+01 +2.33087E+01 -3.29654E+01 -2.27718E+00
 -2.00026E+01 -2.62499E+01 +6.53356E+00 -3.23070E+01 +2.85590E+01 -1.63733E+01 +3.11030E+01 +1.06576E+01
 +1.24841E+01 +3.03713E+01 -1.45799E+01 +2.93766E+01 -3.16586E+01 +8.40221E+00 -2.71599E+01 -1.82348E+01
 -4.19807E+00 -3.24015E+01 +2.15617E+01 -2.44928E+01 +3.25903E+01 +5.63165E-02 +2.14230E+01 +2.45055E+01
 -4.28841E+00 +3.22244E+01 -2.70182E+01 +1.80046E+01 -3.13129E+01 -8.42643E+00 -1.42975E+01 -2.90594E+01
 +1.24005E+01 -2.98741E+01 +3.05966E+01 -1.03661E+01 +2.79349E+01 +1.61441E+01 +6.27824E+00 +3.16063E+01
 -1.95945E+01 +2.55308E+01 -3.20740E+01 +2.10425E+00 -2.27050E+01 -2.26948E+01 +2.08456E+00 -3.19944E+01
 +2.53940E+01 -1.95077E+01 +3.13717E+01 +6.21696E+00 +1.59950E+01 +2.76482E+01 -1.02230E+01 +3.02191E+01
 -2.94214E+01 +1.22282E+01 -2.85589E+01 -1.40353E+01 -8.27252E+00 -3.06859E+01 +1.75900E+01 -2.64219E+01
 +3.14227E+01 -4.19612E+00 +2.38467E+01 +2.08281E+01 +6.88793E-02 +3.16220E+01 -2.36961E+01 +2.08792E+01
 -3.12831E+01 -4.03884E+00 -1.75720E+01 -2.61471E+01 +8.05735E+00 -3.04144E+01 +2.81416E+01 -1.39828E+01
 +2.90333E+01 +1.19188E+01 +1.01740E+01 +2.96481E+01 -1.55584E+01 +2.71659E+01 -3.06433E+01 +6.21146E+00
 -2.48464E+01 -1.89155E+01 -2.16328E+00 -3.11129E+01 +2.19344E+01 -2.21164E+01 +3.10516E+01 +1.90135E+00
 +1.90243E+01 +2.45655E+01 -5.91331E+00 +3.04630E+01 -2.67660E+01 +1.56245E+01 -2.93599E+01 -9.80468E+00
 -1.19763E+01 -2.85008E+01 +1.35100E+01 -2.77635E+01 +2.97427E+01 -8.14299E+00 +2.57034E+01 +1.69672E+01
 +4.19053E+00 +3.04731E+01 -2.01188E+01 +2.32170E+01 -3.06821E+01 +1.86685E-01 -2.03486E+01 -2.29128E+01
 +3.80025E+00 -3.03688E+01 +2.53035E+01 -1.71489E+01 +2.95411E+01 +7.70264E+00 +1.36739E+01 +2.72524E+01
 -1.14546E+01 +2.82157E+01 -2.87285E+01 +9.98402E+00 -2.64176E+01 -1.49931E+01 -6.14302E+00 -2.97091E+01
 +1.82592E+01 -2.41797E+01 +3.01801E+01 -2.21692E+00 +2.15423E+01 +2.11987E+01 -1.72716E+00 +3.01360E+01
 -2.37633E+01 +1.85521E+01 -2.95802E+01 -5.62212E+00 -1.52616E+01 -2.59114E+01 +9.40204E+00 -2.85246E+01
 +2.76085E+01 -1.17285E+01 +2.69896E+01 +1.30033E+01 +8.01374E+00 +2.88280E+01 -1.63655E+01 +2.50039E+01
 -2.95516E+01 +4.18150E+00 -2.26033E+01 -1.94329E+01 -2.97427E-01 -2.97696E+01 +2.21548E+01 -1.98308E+01
 +2.94807E+01 +3.57222E+00 +1.67352E+01 +2.44866E+01 -7.36178E+00 +2.86924E+01 -2.63907E+01 +1.33709E+01
 -2.74207E+01 -1.10073E+01 -9.79622E+00 -2.78369E+01 +1.44475E+01 -2.56894E+01 +2.88030E+01 -6.07308E+00
 +2.35304E+01 +1.76250E+01 +2.26543E+00 +2.92749E+01 -2.04871E+01 +2.09825E+01 -2.92470E+01 -1.56162E+00
 -1.80908E+01 -2.29869E+01 +5.34294E+00 -2.87224E+01 +2.50836E+01 -1.49063E+01 +2.77125E+01 +9.01454E+00
 +1.14846E+01 +2.67436E+01 -1.25146E+01 +2.62369E+01 -2.79409E+01 +7.88486E+00 -2.43229E+01 -1.57845E+01
 -4.16924E+00 -2.86576E+01 +1.87698E+01 -2.20053E+01 +2.88838E+01 -4.01420E-01 +1.93254E+01 +2.14213E+01
 -3.35433E+00 +2.86182E+01 -2.36955E+01 +1.63307E+01 -2.78677E+01 -7.03426E+00 -1.30735E+01 -2.55558E+01
 +1.05762E+01 -2.66475E+01 +2.69726E+01 -9.61061E+00 +2.49808E+01 +1.39208E+01 +6.00177E+00 +2.79241E+01
 -1.70120E+01 +2.28980E+01 -2.83963E+01 +2.30906E+00 -2.04366E+01 -1.97988E+01 +1.40436E+00 -2.83838E+01
 +2.22352E+01 -1.76403E+01 +2.78892E+01 +5.07530E+00 +1.45584E+01 +2.42817E+01 -8.64162E+00 +2.69232E+01
 -2.59053E+01 +1.12447E+01 -2.55046E+01 -1.20432E+01 -7.75645E+00 -2.70808E+01 +1.52232E+01 -2.36599E+01
 +2.77902E+01 -4.15396E+00 +2.14225E+01 +1.81286E+01 +4.98966E-01 +2.80240E+01 -2.07114E+01 +1.88323E+01
 -2.77805E+01 -3.14618E+00 -1.59352E+01 -2.29295E+01 +6.71961E+00 -2.70662E+01 +2.47468E+01 -1.27819E+01
 +2.58958E+01 +1.01610E+01 +9.42725E+00 +2.61346E+01 -1.34124E+01 +2.42912E+01 -2.70715E+01 +5.92926E+00
 -2.22820E+01 -1.64197E+01 -2.34807E+00 -2.75437E+01 +1.91330E+01 -1.99043E+01 +2.75457E+01 +1.25505E+00
 +1.72004E+01 +2.15076E+01 -4.81878E+00 +2.70796E+01 -2.35049E+01 +1.42178E+01 -2.61559E+01 -8.28278E+00
 -1.10087E+01 -2.50929E+01 +1.15887E+01 -2.47924E+01 +2.62466E+01 -7.62860E+00 +2.30145E+01 +1.46812E+01
 +4.13585E+00 +2.69486E+01 -1.75087E+01 +2.08546E+01 -2.71893E+01 +5.90354E-01 -1.83512E+01 -2.00246E+01
 +2.94740E+00 -2.69669E+01 +2.21877E+01 -1.55486E+01 +2.62874E+01 +6.41734E+00 +1.24959E+01 +2.39630E+01
 -9.76086E+00 +2.51647E+01 -2.53223E+01 +9.24616E+00 -2.36202E+01 -1.29218E+01 -5.85567E+00 -2.62446E+01
 +1.58473E+01 -2.16821E+01 +2.67163E+01 -2.38269E+00 +1.93854E+01 +1.84890E+01 -1.11335E+00 +2.67319E+01
 -2.08033E+01 +1.67708E+01 -2.62932E+01 -4.57295E+00 -1.38844E+01 -2.27526E+01 +7.93751E+00 -2.54100E+01
 +2.43055E+01 -1.07767E+01 +2.40996E+01 +1.11504E+01 +7.50138E+00 +2.54377E+01 -1.41577E+01 +2.23863E+01
 -2.61321E+01 +4.11509E+00 -2.03012E+01 -1.69094E+01 -6.75862E-01 -2.63791E+01 +1.93600E+01 -1.78818E+01
 +2.61767E+01 +2.75760E+00 +1.51706E+01 +2.14694E+01 -6.12700E+00 +2.55305E+01 -2.32035E+01 +1.22154E+01
 -2.44539E+01 -9.37542E+00 -9.06737E+00 -2.45347E+01 +1.24483E+01 -2.29672E+01 +2.54425E+01 -5.78113E+00
 +2.10978E+01 +1.52942E+01 +2.41315E+00 +2.59134E+01 -1.78661E+01 +1.88794E+01 -2.59417E+01 -9.78946E-01
 -1.63513E+01 -2.01215E+01 +4.33740E+00 -2.55292E+01 +2.20238E+01 -1.35581E+01 +2.46850E+01 +7.60533E+00
 +1.05485E+01 +2.35424E+01 -1.07277E+01 +2.34257E+01 -2.46534E+01 +7.37488E+00 -2.17747E+01 -1.36521E+01
 -4.09185E+00 -2.53400E+01 +1.63299E+01 -1.97620E+01 +2.55927E+01 -7.55759E-01 +1.74238E+01 +1.87169E+01
 -2.57644E+00 +2.54093E+01 -2.07739E+01 +1.48012E+01 -2.47951E+01 -5.84817E+00 -1.19403E+01 -2.24677E+01
 +9.00413E+00 -2.37628E+01 +2.37713E+01 -8.89091E+00 +2.23319E+01 +1.19913E+01 +5.70577E+00 +2.46645E+01
 -1.47598E+01 +2.05288E+01 -2.51342E+01 +2.43965E+00 -1.83861E+01 -1.72636E+01 +8.51532E-01 -2.51745E+01
 +1.94616E+01 -1.59416E+01 +2.47870E+01 +4.11175E+00 +1.32386E+01 +2.13179E+01 -7.28576E+00 +2.39803E+01
 -2.28028E+01 +1.03243E+01 -2.27702E+01 -1.03201E+01 -7.24917E+00 -2.38928E+01 +1.31639E+01 -2.11794E+01
 +2.45715E+01 -4.06630E+00 +1.92367E+01 +1.57698E+01 +8.30301E-01 +2.48293E+01 -1.80947E+01 +1.69769E+01
 -2.46639E+01 -2.40358E+00 -1.44401E+01 -2.01005E+01 +5.58040E+00 -2.40804E+01 +2.17548E+01 -1.16706E+01
 +2.30908E+01 +8.64650E+00 +8.71681E+00 +2.30312E+01 -1.15503E+01 +2.17137E+01 -2.39099E+01 +5.62969E+00
 -1.99747E+01 -1.42434E+01 -2.46242E+00 -2.43781E+01 +1.66809E+01 -1.79051E+01 +2.44297E+01 +7.30812E-01
 +1.55417E+01 +1.88229E+01 -3.89562E+00 +2.40660E+01 -2.06343E+01 +1.29260E+01 -2.32953E+01 -6.97837E+00
 -1.01039E+01 -2.20861E+01 +9.92711E+00 -2.21327E+01 +2.31553E+01 -7.12431E+00 +2.05999E+01 +1.26924E+01
 +4.03859E+00 +2.38259E+01 -1.52282E+01 +1.87248E+01 -2.40883E+01 +8.99734E-01 -1.65410E+01 -1.74926E+01
 +2.23867E+00 -2.39401E+01 +1.94485E+01 -1.40872E+01 +2.33860E+01 +5.32330E+00 +1.14063E+01 +2.10641E+01
 -8.30204E+00 +2.24374E+01 -2.23138E+01 +8.54506E+00 -2.11123E+01 -1.11248E+01 -5.55302E+00 -2.31781E+01
 +1.37444E+01 -1.94352E+01 +2.36443E+01 -2.48164E+00 +1.74363E+01 +1.61174E+01 -6.16503E-01 +2.37065E+01
 -1.82046E+01 +1.51512E+01 -2.33656E+01 -3.68864E+00 -1.26201E+01 -1.99721E+01 +6.68270E+00 -2.26295E+01
