 Created: 16-Jan-2021
 $NMID
 ID='D:\BASISSIMULATI'
 FMTDAT='(8E13.5)'
 VOLUME=   1.00000E+00
 TRAMP=   1.00000E+00
 $END
 +3.95500E+01 +5.93713E+00 +2.10139E+01 +3.25974E+01 -1.05616E+01 +3.31491E+01 -2.80152E+01 +8.67387E+00
 -1.73444E+01 -1.78064E+01 +1.00535E+01 -2.21390E+01 +2.79254E+01 -6.14049E-01 +1.88436E+01 +2.69475E+01
 -1.02376E+01 +3.51492E+01 -3.43451E+01 +1.57801E+01 -3.28626E+01 -1.49689E+01 -7.79997E+00 -3.11007E+01
 +1.82768E+01 -1.99706E+01 +2.25762E+01 +6.72041E+00 +2.34238E+00 +2.37434E+01 -2.30016E+01 +1.50646E+01
 -2.95135E+01 -1.19225E+01 -1.02108E+01 -3.32359E+01 +1.88215E+01 -2.98597E+01 +3.29453E+01 -4.62787E+00
 +2.09194E+01 +2.05406E+01 -5.35235E+00 +2.43370E+01 -2.17851E+01 +4.93130E+00 -1.37417E+01 -1.87656E+01
 +1.10750E+01 -2.43190E+01 +2.98204E+01 -5.87457E+00 +2.50981E+01 +2.07926E+01 +4.21080E-01 +3.25635E+01
 -2.31452E+01 +1.96011E+01 -2.58917E+01 -6.12569E+00 -6.87680E+00 -2.18159E+01 +1.56170E+01 -1.42473E+01
 +2.07129E+01 +8.67502E+00 +3.59094E+00 +2.53543E+01 -2.04604E+01 +1.99974E+01 -2.99538E+01 -3.36791E+00
 -1.64087E+01 -2.47283E+01 +8.31030E+00 -2.60647E+01 +2.28388E+01 -7.25736E+00 +1.53892E+01 +1.41728E+01
 -6.03002E+00 +1.89661E+01 -2.11637E+01 +3.25770E+00 -1.57898E+01 -1.82952E+01 +5.70964E+00 -2.59073E+01
 +2.45453E+01 -1.23688E+01 +2.44364E+01 +1.07464E+01 +5.98309E+00 +2.36559E+01 -1.42085E+01 +1.60113E+01
 -1.85619E+01 -4.18417E+00 -4.09875E+00 -1.81096E+01 +1.52780E+01 -1.30825E+01 +2.15258E+01 +6.30619E+00
 +8.59989E+00 +2.26271E+01 -1.23997E+01 +2.13441E+01 -2.33938E+01 +3.64346E+00 -1.54475E+01 -1.49462E+01
 +3.56882E+00 -1.85938E+01 +1.63678E+01 -5.13569E+00 +1.17789E+01 +1.23941E+01 -5.52564E+00 +1.77220E+01
 -1.95810E+01 +5.85919E+00 -1.75685E+01 -1.27338E+01 -1.10944E+00 -2.17681E+01 +1.55029E+01 -1.36624E+01
 +1.82266E+01 +3.99286E+00 +5.62518E+00 +1.55457E+01 -1.02527E+01 +1.13097E+01 -1.49248E+01 -4.07984E+00
 -4.35392E+00 -1.62058E+01 +1.17825E+01 -1.39200E+01 +1.90381E+01 +8.75864E-01 +1.10959E+01 +1.52631E+01
 -4.89127E+00 +1.70037E+01 -1.50011E+01 +5.28020E+00 -1.09930E+01 -8.96616E+00 +2.65292E+00 -1.30646E+01
 +1.31389E+01 -3.82863E+00 +1.09303E+01 +9.97034E+00 -1.93736E+00 +1.57536E+01 -1.40345E+01 +8.35996E+00
 -1.49109E+01 -5.65179E+00 -4.24081E+00 -1.41656E+01 +8.26593E+00 -1.03295E+01 +1.17618E+01 +1.65544E+00
 +3.80985E+00 +1.06767E+01 -7.83499E+00 +8.75198E+00 -1.24671E+01 -2.08670E+00 -5.96404E+00 -1.19873E+01
 +5.85535E+00 -1.22450E+01 +1.27337E+01 -2.88554E+00 +9.12883E+00 +7.72968E+00 -1.16830E+00 +1.05739E+01
 -8.78928E+00 +3.85195E+00 -7.23777E+00 -5.80076E+00 +1.58637E+00 -9.54452E+00 +9.47611E+00 -4.17508E+00
 +9.40947E+00 +5.35875E+00 +1.61904E+00 +1.06850E+01 -6.98537E+00 +7.47249E+00 -9.17591E+00 -1.03128E+00
 -3.68155E+00 -7.25112E+00 +4.07915E+00 -6.10129E+00 +7.11441E+00 +7.73753E-01 +3.01763E+00 +6.86277E+00
 -4.24712E+00 +6.74957E+00 -8.19629E+00 +7.31605E-01 -5.59577E+00 -5.81840E+00 +9.81276E-01 -7.42836E+00
 +5.78701E+00 -3.22478E+00 +5.05985E+00 +2.68150E+00 +6.84123E-02 +5.11759E+00 -4.40853E+00 +2.35309E+00
 -4.47348E+00 -2.73258E+00 -3.51867E-01 -5.52706E+00 +4.18609E+00 -3.76930E+00 +5.36086E+00 +7.65352E-01
 +2.56351E+00 +4.17287E+00 -1.48477E+00 +3.91680E+00 -3.38840E+00 +7.72186E-01 -1.97044E+00 -2.23855E+00
 +1.06107E+00 -2.64115E+00 +2.93037E+00 -4.59525E-01 +2.21935E+00 +2.18418E+00 -2.06946E-01 +3.12186E+00
 -2.28542E+00 +1.87292E+00 -2.59355E+00 -3.01333E-01 -1.29835E+00 -1.72764E+00 +3.45388E-01 -1.65793E+00
 +1.18421E+00 -5.54594E-01 +9.19402E-01 +5.93934E-01 -1.23013E-03 +1.07967E+00 -9.24362E-01 +7.58619E-01
 -1.36181E+00 -1.24087E-01 -1.05870E+00 -1.13741E+00 -3.55177E-02 -1.73023E+00 +1.26216E+00 -1.39110E+00
 +1.98795E+00 -6.11818E-02 +1.40450E+00 +1.52602E+00 -3.58130E-01 +2.13573E+00 -2.06410E+00 +1.01537E+00
 -2.18381E+00 -1.20726E+00 -2.88984E-01 -2.72164E+00 +2.24720E+00 -1.98053E+00 +3.16179E+00 +7.44178E-01
 +1.29824E+00 +3.24429E+00 -2.07122E+00 +3.12798E+00 -4.03658E+00 +7.63863E-02 -2.55632E+00 -3.51717E+00
 +1.47844E+00 -4.41061E+00 +4.68175E+00 -1.45530E+00 +4.04020E+00 +3.05893E+00 -2.16835E-01 +5.14787E+00
 -4.47589E+00 +2.67928E+00 -4.77058E+00 -2.43821E+00 -4.58043E-01 -5.63879E+00 +4.86142E+00 -3.71251E+00
 +6.31115E+00 +2.07474E+00 +2.16276E+00 +6.76329E+00 -4.29660E+00 +5.99101E+00 -7.41052E+00 +7.63508E-02
 -4.20261E+00 -5.92986E+00 +2.68867E+00 -6.57648E+00 +7.07032E+00 -1.01916E+00 +4.68495E+00 +5.89795E+00
 -2.72932E+00 +7.75163E+00 -8.66114E+00 +2.37006E+00 -7.52926E+00 -5.90075E+00 +1.31689E-01 -9.80249E+00
 +7.81735E+00 -5.65631E+00 +8.69497E+00 +3.08037E+00 +1.84250E+00 +8.62497E+00 -6.62342E+00 +5.79443E+00
 -8.82574E+00 -3.11524E+00 -2.27623E+00 -1.00787E+01 +7.58003E+00 -8.43038E+00 +1.19739E+01 +9.63500E-01
 +6.67264E+00 +1.01504E+01 -3.96646E+00 +1.10364E+01 -1.06218E+01 +2.74920E+00 -7.31110E+00 -7.29899E+00
 +3.03263E+00 -9.87246E+00 +1.09163E+01 -2.28356E+00 +8.72243E+00 +8.90257E+00 -2.25398E+00 +1.35121E+01
 -1.26428E+01 +6.90650E+00 -1.32269E+01 -5.59213E+00 -3.31360E+00 -1.31930E+01 +8.37412E+00 -9.25127E+00
 +1.13423E+01 +2.58523E+00 +2.81530E+00 +1.14049E+01 -9.51304E+00 +8.76350E+00 -1.41763E+01 -3.53813E+00
 -6.26790E+00 -1.47662E+01 +7.88406E+00 -1.47309E+01 +1.61139E+01 -3.04400E+00 +1.12638E+01 +1.02607E+01
 -2.22573E+00 +1.35438E+01 -1.20767E+01 +4.05485E+00 -9.13717E+00 -9.37868E+00 +4.22460E+00 -1.41070E+01
 +1.59805E+01 -5.07597E+00 +1.51201E+01 +1.03670E+01 +1.66904E+00 +1.87998E+01 -1.30530E+01 +1.27099E+01
 -1.63933E+01 -2.59706E+00 -5.74778E+00 -1.35376E+01 +8.91649E+00 -1.03736E+01 +1.38694E+01 +3.90440E+00
 +4.01148E+00 +1.60469E+01 -1.23007E+01 +1.43650E+01 -2.05230E+01 -6.18252E-01 -1.29449E+01 -1.63526E+01
 +4.20723E+00 -1.93261E+01 +1.61255E+01 -7.20907E+00 +1.26181E+01 +8.88759E+00 -2.64292E+00 +1.42546E+01
 -1.52549E+01 +3.83945E+00 -1.29754E+01 -1.30154E+01 +3.12021E+00 -2.07800E+01 +1.93349E+01 -1.16869E+01
 +2.14670E+01 +7.09046E+00 +7.58601E+00 +1.96292E+01 -1.00608E+01 +1.54344E+01 -1.58962E+01 -1.07527E+00
 -5.00856E+00 -1.44046E+01 +1.22958E+01 -1.18682E+01 +1.96266E+01 +4.87337E+00 +9.27375E+00 +2.10775E+01
 -1.06514E+01 +2.20223E+01 -2.32498E+01 +6.28403E+00 -1.78876E+01 -1.27881E+01 +2.03204E-01 -1.88815E+01
 +1.44988E+01 -7.33206E+00 +1.19769E+01 +1.06029E+01 -5.09111E+00 +1.77814E+01 -2.10190E+01 +6.63654E+00
 -2.07181E+01 -1.38218E+01 -3.34650E+00 -2.58774E+01 +1.67151E+01 -1.89222E+01 +2.25786E+01 +9.47052E-01
 +9.94736E+00 +1.62584E+01 -8.97545E+00 +1.37706E+01 -1.63928E+01 -3.60192E+00 -4.94924E+00 -1.93177E+01
 +1.55028E+01 -1.80475E+01 +2.65901E+01 +4.31371E-01 +1.78767E+01 +2.08126E+01 -3.65538E+00 +2.58129E+01
 -1.96982E+01 +1.16267E+01 -1.69306E+01 -8.60785E+00 +1.04268E+00 -1.65388E+01 +1.68963E+01 -5.08920E+00
 +1.51610E+01 +1.50993E+01 -3.76036E+00 +2.51401E+01 -2.37640E+01 +1.48818E+01 -2.73551E+01 -7.83016E+00
 -1.13265E+01 -2.39987E+01 +1.02828E+01 -2.03824E+01 +1.86870E+01 -1.33291E+00 +7.16894E+00 +1.51043E+01
 -1.28776E+01 +1.34069E+01 -2.21691E+01 -5.40293E+00 -1.09132E+01 -2.45537E+01 +1.22415E+01 -2.65044E+01
 +2.77818E+01 -8.71910E+00 +2.27123E+01 +1.39356E+01 +2.17969E+00 +2.23909E+01 -1.51238E+01 +1.03912E+01
 -1.37169E+01 -9.93723E+00 +4.75836E+00 -1.90080E+01 +2.29755E+01 -7.43397E+00 +2.34783E+01 +1.54170E+01
 +4.43057E+00 +2.96934E+01 -1.85881E+01 +2.27959E+01 -2.64037E+01 +6.86328E-01 -1.33349E+01 -1.73991E+01
 +7.77505E+00 -1.61359E+01 +1.71236E+01 +2.19419E+00 +5.76644E+00 +1.97961E+01 -1.62927E+01 +1.93939E+01
 -2.90251E+01 -1.60513E-01 -2.03416E+01 -2.27181E+01 +3.00486E+00 -2.91866E+01 +2.13742E+01 -1.45625E+01
 +1.97399E+01 +7.62545E+00 +1.06040E+00 +1.74596E+01 -1.64680E+01 +6.48835E+00 -1.58209E+01 -1.47146E+01
 +3.49421E+00 -2.60718E+01 +2.49095E+01 -1.60740E+01 +2.95861E+01 +7.80356E+00 +1.32707E+01 +2.56883E+01
 -9.88938E+00 +2.30061E+01 -1.99914E+01 +3.43103E+00 -9.14823E+00 -1.45068E+01 +1.15380E+01 -1.41034E+01
 +2.20371E+01 +4.50956E+00 +1.14522E+01 +2.44796E+01 -1.21182E+01 +2.73585E+01 -2.87524E+01 +9.66958E+00
 -2.44735E+01 -1.39309E+01 -3.68958E+00 -2.37146E+01 +1.48239E+01 -1.24484E+01 +1.47691E+01 +8.26434E+00
 -3.11060E+00 +1.85193E+01 -2.17834E+01 +8.04590E+00 -2.32876E+01 -1.45404E+01 -4.90411E+00 -2.94388E+01
 +1.83455E+01 -2.33833E+01 +2.70817E+01 -1.49413E+00 +1.48147E+01 +1.73301E+01 -6.38425E+00 +1.73083E+01
 -1.68184E+01 -1.95404E-01 -6.86209E+00 -1.80480E+01 +1.44442E+01 -1.88372E+01 +2.75595E+01 -5.53725E-01
 +1.99972E+01 +2.15729E+01 -2.47630E+00 +2.86787E+01 -2.09946E+01 +1.50826E+01 -2.04214E+01 -6.73554E+00
 -2.76093E+00 -1.73903E+01 +1.48203E+01 -7.93816E+00 +1.55091E+01 +1.22224E+01 -2.04901E+00 +2.39130E+01
 -2.25634E+01 +1.54532E+01 -2.78228E+01 -6.84600E+00 -1.29796E+01 -2.43221E+01 +9.17485E+00 -2.26105E+01
 +1.96966E+01 -4.36326E+00 +1.03810E+01 +1.32964E+01 -9.06236E+00 +1.42113E+01 -1.98943E+01 -2.36004E+00
 -1.12406E+01 -2.11871E+01 +1.01582E+01 -2.48074E+01 +2.60100E+01 -9.18808E+00 +2.28245E+01 +1.26994E+01
 +3.88023E+00 +2.25007E+01 -1.38454E+01 +1.28123E+01 -1.49273E+01 -6.38762E+00 +7.85349E-01 -1.68686E+01
 +1.82140E+01 -8.55782E+00 +2.07051E+01 +1.14836E+01 +4.98802E+00 +2.54746E+01 -1.59350E+01 +2.08632E+01
 -2.44458E+01 +1.49402E+00 -1.39900E+01 -1.59317E+01 +5.24309E+00 -1.68139E+01 +1.56118E+01 -1.58354E+00
 +7.85057E+00 +1.49063E+01 -1.07474E+01 +1.68501E+01 -2.30190E+01 +1.67225E+00 -1.73747E+01 -1.77402E+01
 +1.86931E+00 -2.46302E+01 +1.84361E+01 -1.33100E+01 +1.86463E+01 +5.90581E+00 +3.50214E+00 +1.60630E+01
 -1.24420E+01 +8.72421E+00 -1.42639E+01 -8.65298E+00 -2.07632E-02 -1.96018E+01 +1.76429E+01 -1.34892E+01
 +2.29217E+01 +5.00987E+00 +1.09745E+01 +2.01906E+01 -7.87225E+00 +1.93746E+01 -1.74660E+01 +4.10582E+00
 -1.02261E+01 -1.14466E+01 +6.28347E+00 -1.32890E+01 +1.63556E+01 -6.19114E-02 +1.02948E+01 +1.59338E+01
 -6.97829E+00 +1.99014E+01 -2.04612E+01 +7.79439E+00 -1.85277E+01 -1.01806E+01 -3.20491E+00 -1.87878E+01
 +1.18286E+01 -1.13251E+01 +1.35639E+01 +4.60038E+00 +1.18827E+00 +1.41042E+01 -1.34229E+01 +8.41075E+00
