 Created: 16-Jan-2021
 $NMID
 ID='D:\BASISSIMULATI'
 FMTDAT='(8E13.5)'
 VOLUME=   1.00000E+00
 TRAMP=   1.00000E+00
 $END
 +4.71334E+01 +7.07552E+00 +4.46195E+01 +1.64166E+01 +3.98711E+01 +2.48321E+01 +3.32127E+01 +3.17664E+01
 +2.51063E+01 +3.67728E+01 +1.61161E+01 +3.95465E+01 +6.86544E+00 +3.99469E+01 -2.00993E+00 +3.80068E+01
 -9.91020E+00 +3.39286E+01 -1.63159E+01 +2.80672E+01 -2.08260E+01 +2.09016E+01 -2.31864E+01 +1.29967E+01
 -2.33071E+01 +4.96007E+00 -2.12655E+01 -2.60543E+00 -1.72984E+01 -9.14669E+00 -1.17798E+01 -1.42015E+01
 -5.19017E+00 -1.74319E+01 +1.92281E+00 -1.86468E+01 +8.98798E+00 -1.78135E+01 +1.54551E+01 -1.50559E+01
 +2.08367E+01 -1.06412E+01 +2.47444E+01 -4.95470E+00 +2.69159E+01 +1.53319E+00 +2.72322E+01 +8.30630E+00
 +2.57224E+01 +1.48447E+01 +2.25568E+01 +2.06658E+01 +1.80289E+01 +2.53616E+01 +1.25280E+01 +2.86289E+01
 +6.50451E+00 +3.02900E+01 +4.31954E-01 +3.03029E+01 -5.23278E+00 +2.87606E+01 -1.00861E+01 +2.58782E+01
 -1.38094E+01 +2.19718E+01 -1.61924E+01 +1.74281E+01 -1.71477E+01 +1.26706E+01 -1.67136E+01 +8.12174E+00
 -1.50475E+01 +4.16799E+00 -1.24086E+01 +1.12727E+00 -9.13298E+00 -7.76233E-01 -5.60210E+00 -1.42896E+00
 -2.20890E+00 -8.35200E-01 +6.76956E-01 +8.86007E-01 +2.74097E+00 +3.51357E+00 +3.75041E+00 +6.74564E+00
 +3.57356E+00 +1.02274E+01 +2.18992E+00 +1.35829E+01 -3.09140E-01 +1.64486E+01 -3.72942E+00 +1.85048E+01
 -7.79151E+00 +1.95036E+01 -1.21556E+01 +1.92901E+01 -1.64512E+01 +1.78157E+01 -2.03089E+01 +1.51419E+01
 -2.33928E+01 +1.14351E+01 -2.54284E+01 +6.95263E+00 -2.62264E+01 +2.02070E+00 -2.56990E+01 -2.99268E+00
 -2.38672E+01 -7.70858E+00 -2.08594E+01 -1.17686E+01 -1.69009E+01 -1.48648E+01 -1.22961E+01 -1.67646E+01
 -7.40295E+00 -1.73307E+01 -2.60478E+00 -1.65316E+01 +1.72119E+00 -1.44447E+01 +5.23395E+00 -1.12502E+01
 +7.65598E+00 -7.21632E+00 +8.79526E+00 -2.67802E+00 +8.56028E+00 +1.98949E+00 +6.96704E+00 +6.40052E+00
 +4.13737E+00 +1.01892E+01 +2.88997E-01 +1.30378E+01 -4.28195E+00 +1.47013E+01 -9.22433E+00 +1.50260E+01
 -1.41595E+01 +1.39602E+01 -1.87105E+01 +1.15579E+01 -2.25312E+01 +7.97311E+00 -2.53320E+01 +3.44717E+00
 -2.69013E+01 -1.71067E+00 -2.71204E+01 -7.14776E+00 -2.59710E+01 -1.24953E+01 -2.35350E+01 -1.73965E+01
 -1.99863E+01 -2.15333E+01 -1.55757E+01 -2.46493E+01 -1.06110E+01 -2.65680E+01 -5.43160E+00 -2.72039E+01
 -3.83030E-01 -2.65666E+01 +4.20968E+00 -2.47581E+01 +8.06571E+00 -2.19618E+01 +1.09684E+01 -1.84267E+01
 +1.27794E+01 -1.44463E+01 +1.34470E+01 -1.03353E+01 +1.30068E+01 -6.40444E+00 +1.15760E+01 -2.93758E+00
 +9.34166E+00 -1.70581E-01 +6.54368E+00 +1.72486E+00 +3.45439E+00 +2.65197E+00 +3.56258E-01 +2.59352E+00
 -2.48033E+00 +1.61003E+00 -4.81766E+00 -1.68037E-01 -6.46784E+00 -2.55328E+00 -7.30553E+00 -5.31830E+00
 -7.27516E+00 -8.21522E+00 -6.39242E+00 -1.09960E+01 -4.74005E+00 -1.34322E+01 -2.45848E+00 -1.53317E+01
 +2.67792E-01 -1.65533E+01 +3.22669E+00 -1.70148E+01 +6.19668E+00 -1.66977E+01 +8.96487E+00 -1.56456E+01
 +1.13437E+01 -1.39581E+01 +1.31847E+01 -1.17804E+01 +1.43889E+01 -9.28952E+00 +1.49128E+01 -6.67875E+00
 +1.47688E+01 -4.14121E+00 +1.40222E+01 -1.85431E+00 +1.27836E+01 +3.40050E-02 +1.11975E+01 +1.41591E+00
 +9.42933E+00 +2.23074E+00 +7.65094E+00 +2.46782E+00 +6.02622E+00 +2.16516E+00 +4.69813E+00 +1.40422E+00
 +3.77786E+00 +3.01335E-01 +3.33709E+00 -1.00325E+00 +3.40384E+00 -2.35790E+00 +3.96196E+00 -3.61243E+00
 +4.95436E+00 -4.63025E+00 +6.28926E+00 -5.29895E+00 +7.84909E+00 -5.53831E+00 +9.50101E+00 -5.30551E+00
 +1.11082E+01 -4.59692E+00 +1.25408E+01 -3.44682E+00 +1.36862E+01 -1.92299E+00 +1.44566E+01 -1.19936E-01
 +1.47953E+01 +1.84967E+00 +1.46793E+01 +3.86460E+00 +1.41196E+01 +5.80483E+00 +1.31583E+01 +7.56060E+00
 +1.18641E+01 +9.04028E+00 +1.03258E+01 +1.01762E+01 +8.64379E+00 +1.09283E+01 +6.92245E+00 +1.12856E+01
 +5.26192E+00 +1.12648E+01 +3.75104E+00 +1.09076E+01 +2.46162E+00 +1.02755E+01 +1.44447E+00 +9.44398E+00
 +7.27389E-01 +8.49588E+00 +3.14986E-01 +7.51487E+00 +1.90389E-01 +6.57932E+00 +3.18360E-01 +5.75720E+00
 +6.49523E-01 +5.10223E+00 +1.12522E+00 +4.65154E+00 +1.68253E+00 +4.42479E+00 +2.25904E+00 +4.42472E+00
 +2.79701E+00 +4.63886E+00 +3.24660E+00 +5.04222E+00 +3.56812E+00 +5.60041E+00 +3.73314E+00 +6.27308E+00
 +3.72468E+00 +7.01714E+00 +3.53646E+00 +7.78972E+00 +3.17161E+00 +8.55038E+00 +2.64096E+00 +9.26281E+00
 +1.96125E+00 +9.89578E+00 +1.15342E+00 +1.04235E+01 +2.41160E-01 +1.08254E+01 -7.50093E-01 +1.10859E+01
 -1.79388E+00 +1.11941E+01 -2.86302E+00 +1.11428E+01 -3.92974E+00 +1.09290E+01 -4.96570E+00 +1.05535E+01
 -5.94216E+00 +1.00214E+01 -6.83031E+00 +9.34305E+00 -7.60208E+00 +8.53402E+00 -8.23123E+00 +7.61619E+00
 -8.69500E+00 +6.61778E+00 -8.97588E+00 +5.57319E+00 -9.06366E+00 +4.52215E+00 -8.95731E+00 +3.50814E+00
 -8.66654E+00 +2.57618E+00 -8.21272E+00 +1.76993E+00 -7.62898E+00 +1.12838E+00 -6.95935E+00 +6.82411E-01
 -6.25670E+00 +4.51479E-01 -5.57973E+00 +4.40813E-01 -4.98901E+00 +6.39501E-01 -4.54233E+00 +1.01971E+00
 -4.28981E+00 +1.53731E+00 -4.26915E+00 +2.13394E+00 -4.50137E+00 +2.74056E+00 -4.98773E+00 +3.28225E+00
 -5.70795E+00 +3.68397E+00 -6.62025E+00 +3.87683E+00 -7.66315E+00 +3.80435E+00 -8.75925E+00 +3.42816E+00
 -9.82058E+00 +2.73253E+00 -1.07553E+01 +1.72730E+00 -1.14752E+01 +4.48827E-01 -1.19035E+01 -1.04141E+00
 -1.19819E+01 -2.66036E+00 -1.16769E+01 -4.30911E+00 -1.09842E+01 -5.88030E+00 -9.93014E+00 -7.26677E+00
 -8.57210E+00 -8.37064E+00 -6.99470E+00 -9.11210E+00 -5.30428E+00 -9.43723E+00 -3.62098E+00 -9.32385E+00
 -2.06918E+00 -8.78506E+00 -7.67117E-01 -7.86985E+00 +1.83505E-01 -6.66066E+00 +7.07000E-01 -5.26795E+00
 +7.61401E-01 -3.82204E+00 +3.43629E-01 -2.46289E+00 -5.08449E-01 -1.32853E+00 -1.71738E+00 -5.43175E-01
 -3.17096E+00 -2.05906E-01 -4.73024E+00 -3.81063E-01 -6.24021E+00 -1.09115E+00 -7.54232E+00 -2.31300E+00
 -8.48779E+00 -3.97773E+00 -8.95077E+00 -5.97448E+00 -8.83994E+00 -8.15799E+00 -8.10782E+00 -1.03593E+01
 -6.75668E+00 -1.23990E+01 -4.84043E+00 -1.41018E+01 -2.46238E+00 -1.53113E+01 +2.31365E-01 -1.59038E+01
 +3.06225E+00 -1.58001E+01 +5.83276E+00 -1.49735E+01 +8.34193E+00 -1.34542E+01 +1.04018E+01 -1.13289E+01
 +1.18530E+01 -8.73582E+00 +1.25793E+01 -5.85522E+00 +1.25178E+01 -2.89615E+00 +1.16667E+01 -8.04527E-02
 +1.00865E+01 +2.37480E+00 +7.89791E+00 +4.27504E+00 +5.27316E+00 +5.46453E+00 +2.42419E+00 +5.84010E+00
 -4.13508E-01 +5.36094E+00 -2.99912E+00 +4.05354E+00 -5.10565E+00 +2.01140E+00 -6.53845E+00 -6.10718E-01
 -7.15155E+00 -3.60765E+00 -6.86051E+00 -6.73895E+00 -5.65050E+00 -9.74718E+00 -3.57908E+00 -1.23780E+01
 -7.73175E-01 -1.44004E+01 +2.57954E+00 -1.56253E+01 +6.24429E+00 -1.59217E+01 +9.95682E+00 -1.52273E+01
 +1.34436E+01 -1.35555E+01 +1.64434E+01 -1.09948E+01 +1.87275E+01 -7.70345E+00 +2.01183E+01 -3.89783E+00
 +2.05042E+01 +1.63755E-01 +1.98482E+01 +4.20075E+00 +1.81924E+01 +7.93205E+00 +1.56547E+01 +1.10980E+01
 +1.24207E+01 +1.34806E+01 +8.72913E+00 +1.49214E+01 +4.85388E+00 +1.53334E+01 +1.08229E+00 +1.47086E+01
 -2.30714E+00 +1.31190E+01 -5.06674E+00 +1.07106E+01 -6.99916E+00 +7.69216E+00 -7.97296E+00 +4.31897E+00
 -7.93296E+00 +8.72185E-01 -6.90447E+00 -2.36329E+00 -4.99110E+00 -5.12153E+00 -2.36627E+00 -7.17675E+00
 +7.40883E-01 -8.36124E+00 +4.06415E+00 -8.57863E+00 +7.32180E+00 -7.81132E+00 +1.02394E+01 -6.12155E+00
 +1.25719E+01 -3.64603E+00 +1.41238E+01 -5.84456E-01 +1.47640E+01 +2.81707E+00 +1.44373E+01 +6.28637E+00
 +1.31675E+01 +9.54762E+00 +1.10558E+01 +1.23440E+01 +8.27169E+00 +1.44589E+01 +5.03865E+00 +1.57335E+01
 +1.61557E+00 +1.60798E+01 -1.72508E+00 +1.54874E+01 -4.72003E+00 +1.40246E+01 -7.13718E+00 +1.18319E+01
 -8.79504E+00 +9.11039E+00 -9.57790E+00 +6.10447E+00 -9.44555E+00 +3.08133E+00 -8.43669E+00 +3.08286E-01
 -6.66569E+00 -1.96991E+00 -4.31306E+00 -3.55187E+00 -1.61030E+00 -4.29689E+00 +1.17958E+00 -4.13716E+00
 +3.78431E+00 -3.08401E+00 +5.94548E+00 -1.22745E+00 +7.44065E+00 +1.27080E+00 +8.10262E+00 +4.19041E+00
 +7.83423E+00 +7.27051E+00 +6.61739E+00 +1.02313E+01 +4.51563E+00 +1.27975E+01 +1.66989E+00 +1.47216E+01
 -1.71224E+00 +1.58049E+01 -5.37285E+00 +1.59151E+01 -9.02439E+00 +1.49981E+01 -1.23731E+01 +1.30838E+01
 -1.51431E+01 +1.02853E+01 -1.70993E+01 +6.79046E+00 -1.80677E+01 +2.84798E+00 -1.79498E+01 -1.25180E+00
 -1.67326E+01 -5.19997E+00 -1.44903E+01 -8.69359E+00 -1.13803E+01 -1.14602E+01 -7.63109E+00 -1.32802E+01
 -3.52566E+00 -1.40049E+01 +6.20666E-01 -1.35695E+01 +4.48467E+00 -1.19994E+01 +7.76071E+00 -9.40881E+00
 +1.01850E+01 -5.99356E+00 +1.15567E+01 -2.01595E+00 +1.17545E+01 +2.21480E+00 +1.07467E+01 +6.36632E+00
 +8.59441E+00 +1.01088E+01 +5.44755E+00 +1.31407E+01 +1.53399E+00 +1.52122E+01 -2.85776E+00 +1.61448E+01
 -7.40047E+00 +1.58459E+01 -1.17533E+01 +1.43158E+01 -1.55878E+01 +1.16481E+01 -1.86134E+01 +8.02296E+00
 -2.05998E+01 +3.69315E+00 -2.13944E+01 -1.03526E+00 -2.09339E+01 -5.82638E+00 -1.92495E+01 -1.03403E+01
 -1.64634E+01 -1.42592E+01 -1.27798E+01 -1.73114E+01 -8.46846E+00 -1.92923E+01 -3.84352E+00 -2.00790E+01
 +7.60718E-01 -1.96401E+01 +5.01579E+00 -1.80363E+01 +8.62431E+00 -1.54155E+01 +1.13426E+01 -1.20005E+01
 +1.29988E+01 -8.07045E+00 +1.35058E+01 -3.93893E+00 +1.28661E+01 +7.10505E-02 +1.11714E+01 +3.65239E+00
 +8.59342E+00 +6.53769E+00 +5.36943E+00 +8.51976E+00 +1.78274E+00 +9.46700E+00 -1.86063E+00 +9.33267E+00
 -5.25657E+00 +8.15736E+00 -8.12710E+00 +6.06431E+00 -1.02423E+01 +3.24827E+00 -1.14379E+01 -4.12697E-02
 -1.16277E+01 -3.52106E+00 -1.08093E+01 -6.89759E+00 -9.06302E+00 -9.89107E+00 -6.54399E+00 -1.22581E+01
 -3.46868E+00 -1.38109E+01 -9.60677E-02 -1.44325E+01 +3.29421E+00 -1.40846E+01 +6.42521E+00 -1.28105E+01
 +9.04560E+00 -1.07301E+01 +1.09503E+01 -8.02939E+00 +1.19969E+01 -4.94393E+00 +1.21173E+01 -1.73899E+00
 +1.13224E+01 +1.31302E+00 +9.70057E+00 +3.95536E+00 +7.41005E+00 +5.96841E+00 +4.66493E+00 +7.18787E+00
 +1.71703E+00 +7.51830E+00 -1.16540E+00 +6.94087E+00 -3.72032E+00 +5.51474E+00 -5.71383E+00 +3.37191E+00
 -6.95980E+00 +7.06144E-01 -7.33547E+00 -2.24331E+00 -6.79179E+00 -5.21164E+00 -5.35759E+00 -7.93056E+00
