 Created: 16-Jan-2021
 $NMID
 ID='D:\BASISSIMULATI'
 FMTDAT='(8E13.5)'
 VOLUME=   1.00000E+00
 TRAMP=   1.00000E+00
 $END
 +2.83909E+01 +5.03676E+00 +2.27042E+01 +1.73126E+01 +1.16945E+01 +2.48240E+01 -1.17293E+00 +2.55341E+01
 -1.19254E+01 +1.96814E+01 -1.74480E+01 +9.65240E+00 -1.65283E+01 -8.91189E-01 -1.02179E+01 -8.31439E+00
 -1.39353E+00 -1.02728E+01 +6.31118E+00 -6.49487E+00 +9.81523E+00 +1.18456E+00 +7.67278E+00 +9.53337E+00
 +5.52787E-01 +1.51081E+01 -9.03889E+00 +1.54862E+01 -1.76779E+01 +1.01101E+01 -2.22405E+01 +4.56166E-01
 -2.09869E+01 -1.05115E+01 -1.41349E+01 -1.93896E+01 -3.73862E+00 -2.35052E+01 +7.06021E+00 -2.17953E+01
 +1.51257E+01 -1.51011E+01 +1.83737E+01 -5.80037E+00 +1.64108E+01 +3.06793E+00 +1.05637E+01 +8.86038E+00
 +3.32115E+00 +1.01936E+01 -2.59231E+00 +7.32832E+00 -5.16773E+00 +1.96652E+00 -3.76082E+00 -3.43658E+00
 +7.69674E-01 -6.57963E+00 +6.45226E+00 -6.11577E+00 +1.09559E+01 -2.07624E+00 +1.24250E+01 +4.20687E+00
 +1.01034E+01 +1.06219E+01 +4.54620E+00 +1.50374E+01 -2.62726E+00 +1.60244E+01 -9.32615E+00 +1.32991E+01
 -1.37024E+01 +7.75266E+00 -1.47365E+01 +1.08674E+00 -1.25075E+01 -4.79416E+00 -8.07817E+00 -8.41216E+00
 -3.06577E+00 -9.15457E+00 +9.36134E-01 -7.39027E+00 +2.87777E+00 -4.25099E+00 +2.54751E+00 -1.17820E+00
 +5.60833E-01 +5.94061E-01 -1.92698E+00 +4.42514E-01 -3.66580E+00 -1.48058E+00 -3.75271E+00 -4.35659E+00
 -1.92451E+00 -7.02566E+00 +1.38401E+00 -8.40348E+00 +5.21775E+00 -7.84593E+00 +8.43946E+00 -5.34615E+00
 +1.01071E+01 -1.51209E+00 +9.76630E+00 +2.65289E+00 +7.56978E+00 +6.08281E+00 +4.19789E+00 +7.98199E+00
 +6.17725E-01 +8.05284E+00 -2.23282E+00 +6.55359E+00 -3.73242E+00 +4.17814E+00 -3.74674E+00 +1.80607E+00
 -2.63462E+00 +2.08345E-01 -1.09618E+00 -1.96382E-01 +8.20054E-02 +5.40012E-01 +2.99966E-01 +1.93541E+00
 -6.52628E-01 +3.25856E+00 -2.52720E+00 +3.78953E+00 -4.70145E+00 +3.07388E+00 -6.39014E+00 +1.08762E+00
 -6.91248E+00 -1.74108E+00 -5.92859E+00 -4.66173E+00 -3.56630E+00 -6.84165E+00 -3.94860E-01 -7.63883E+00
 +2.74883E+00 -6.81730E+00 +5.02646E+00 -4.63222E+00 +5.87005E+00 -1.75343E+00 +5.16809E+00 +9.50205E-01
 +3.30165E+00 +2.69609E+00 +1.01522E+00 +3.04736E+00 -8.37108E-01 +2.05793E+00 -1.58536E+00 +2.51109E-01
 -9.77154E-01 -1.56384E+00 +7.31122E-01 -2.57680E+00 +2.85971E+00 -2.26635E+00 +4.54103E+00 -5.92952E-01
 +5.02596E+00 +1.97374E+00 +3.95498E+00 +4.60596E+00 +1.49869E+00 +6.39791E+00 -1.68357E+00 +6.67917E+00
 -4.65561E+00 +5.25289E+00 -6.51543E+00 +2.47488E+00 -6.69897E+00 -8.55419E-01 -5.17179E+00 -3.75614E+00
 -2.44223E+00 -5.38713E+00 +6.08343E-01 -5.32636E+00 +3.01987E+00 -3.70432E+00 +4.07149E+00 -1.15185E+00
 +3.51496E+00 +1.41886E+00 +1.64591E+00 +3.12372E+00 -8.08146E-01 +3.40054E+00 -2.94147E+00 +2.18882E+00
 -3.97716E+00 -6.19332E-02 -3.52363E+00 -2.55353E+00 -1.69689E+00 -4.41158E+00 +9.27430E-01 -4.97559E+00
 +3.51076E+00 -4.01096E+00 +5.22746E+00 -1.77688E+00 +5.52785E+00 +1.06603E+00 +4.30509E+00 +3.67218E+00
 +1.91756E+00 +5.27753E+00 -9.33384E-01 +5.43081E+00 -3.42516E+00 +4.12013E+00 -4.86293E+00 +1.76191E+00
 -4.87965E+00 -9.36816E-01 -3.53108E+00 -3.19532E+00 -1.26395E+00 -4.38775E+00 +1.22660E+00 -4.21747E+00
 +3.20431E+00 -2.79084E+00 +4.10319E+00 -5.74810E-01 +3.68473E+00 +1.74502E+00 +2.10021E+00 +3.46404E+00
 -1.56450E-01 +4.06047E+00 -2.39103E+00 +3.34525E+00 -3.90814E+00 +1.51956E+00 -4.21391E+00 -8.76761E-01
 -3.16661E+00 -3.11460E+00 -1.03147E+00 -4.48499E+00 +1.58091E+00 -4.51226E+00 +3.88175E+00 -3.10956E+00
 +5.13476E+00 -6.26942E-01 +4.88602E+00 +2.23050E+00 +3.12225E+00 +4.59982E+00 +3.02463E-01 +5.72056E+00
 -2.75764E+00 +5.18120E+00 -5.12349E+00 +3.07127E+00 -6.03441E+00 -1.79840E-02 -5.15910E+00 -3.15660E+00
 -2.72631E+00 -5.36090E+00 +5.22439E-01 -5.91382E+00 +3.55444E+00 -4.61476E+00 +5.37779E+00 -1.86908E+00
 +5.37690E+00 +1.42333E+00 +3.53597E+00 +4.15406E+00 +4.66715E-01 +5.37717E+00 -2.77956E+00 +4.64041E+00
 -5.06041E+00 +2.15887E+00 -5.53625E+00 -1.23725E+00 -3.97309E+00 -4.37204E+00 -8.43342E-01 -6.12388E+00
 +2.81822E+00 -5.81943E+00 +5.76079E+00 -3.48164E+00 +6.94927E+00 +1.60691E-01 +5.93043E+00 +3.91182E+00
 +3.00163E+00 +6.51749E+00 -8.81992E-01 +7.10109E+00 -4.43373E+00 +5.47278E+00 -6.48176E+00 +2.19946E+00
 -6.37824E+00 -1.59203E+00 -4.22443E+00 -4.61049E+00 -8.30647E-01 -5.85433E+00 +2.57556E+00 -4.96169E+00
 +4.78813E+00 -2.33114E+00 +5.05048E+00 +1.02953E+00 +3.31901E+00 +3.87103E+00 +2.68395E-01 +5.15261E+00
 -2.96054E+00 +4.41197E+00 -5.17694E+00 +1.92244E+00 -5.56759E+00 -1.41636E+00 -3.98186E+00 -4.41077E+00
 -9.73616E-01 -6.00469E+00 +2.41022E+00 -5.65291E+00 +5.01278E+00 -3.50287E+00 +5.97985E+00 -3.24043E-01
 +5.05243E+00 +2.78297E+00 +2.63766E+00 +4.78639E+00 -3.60698E-01 +5.08493E+00 -2.88278E+00 +3.70214E+00
 -4.09542E+00 +1.24970E+00 -3.67765E+00 -1.31836E+00 -1.90998E+00 -3.06323E+00 +4.56301E-01 -3.39713E+00
 +2.49288E+00 -2.27718E+00 +3.43780E+00 -1.94058E-01 +2.96236E+00 +2.03070E+00 +1.26911E+00 +3.55633E+00
 -1.00550E+00 +3.82567E+00 -3.03879E+00 +2.75124E+00 -4.12276E+00 +7.23981E-01 -3.90803E+00 -1.54800E+00
 -2.50735E+00 -3.30363E+00 -4.30632E-01 -3.99587E+00 +1.61451E+00 -3.46730E+00 +2.97783E+00 -1.97879E+00
 +3.28397E+00 -9.16588E-02 +2.53963E+00 +1.54486E+00 +1.10192E+00 +2.42013E+00 -4.70044E-01 +2.32368E+00
 -1.62006E+00 +1.39198E+00 -1.98185E+00 +3.47162E-02 -1.48707E+00 -1.22429E+00 -3.65503E-01 -1.93062E+00
 +9.52483E-01 -1.84487E+00 +1.99055E+00 -1.00666E+00 +2.38321E+00 +2.95495E-01 +1.98574E+00 +1.63002E+00
 +9.07913E-01 +2.56422E+00 -5.31197E-01 +2.79648E+00 -1.90715E+00 +2.24120E+00 -2.81826E+00 +1.04643E+00
 -3.00087E+00 -4.55391E-01 -2.40151E+00 -1.84598E+00 -1.18931E+00 -2.74061E+00 +2.92742E-01 -2.89672E+00
 +1.62452E+00 -2.28350E+00 +2.42853E+00 -1.09379E+00 +2.48158E+00 +3.07124E-01 +1.78679E+00 +1.48525E+00
 +5.82310E-01 +2.06847E+00 -7.21764E-01 +1.86730E+00 -1.66607E+00 +9.47540E-01 -1.89147E+00 -3.73897E-01
 -1.26917E+00 -1.61740E+00 +3.50047E-02 -2.29324E+00 +1.59213E+00 -2.07308E+00 +2.83763E+00 -9.22341E-01
 +3.26016E+00 +8.58599E-01 +2.59071E+00 +2.70926E+00 +9.22879E-01 +3.98550E+00 -1.28697E+00 +4.18335E+00
 -3.35173E+00 +3.13246E+00 -4.58155E+00 +1.08441E+00 -4.53154E+00 -1.34637E+00 -3.17837E+00 -3.37975E+00
 -9.53855E-01 -4.34226E+00 +1.38810E+00 -3.91805E+00 +3.03285E+00 -2.28205E+00 +3.40439E+00 -5.70034E-02
 +2.39153E+00 +1.90089E+00 +4.09770E-01 +2.81634E+00 -1.73440E+00 +2.29504E+00 -3.13610E+00 +4.93381E-01
 -3.13763E+00 -1.91488E+00 -1.59664E+00 -3.97303E+00 +1.03077E+00 -4.79702E+00 +3.83369E+00 -3.92108E+00
 +5.77231E+00 -1.49904E+00 +6.06886E+00 +1.72310E+00 +4.51543E+00 +4.66347E+00 +1.57598E+00 +6.30014E+00
 -1.76534E+00 +6.05929E+00 -4.36084E+00 +4.04523E+00 -5.33040E+00 +1.01737E+00 -4.40250E+00 -1.88585E+00
 -2.02975E+00 -3.57746E+00 +7.73413E-01 -3.44429E+00 +2.81656E+00 -1.59644E+00 +3.19884E+00 +1.15930E+00
 +1.67474E+00 +3.62023E+00 -1.22644E+00 +4.65358E+00 -4.38219E+00 +3.65032E+00 -6.49784E+00 +7.88387E-01
 -6.61010E+00 -3.00380E+00 -4.47839E+00 -6.37897E+00 -7.07613E-01 -8.07754E+00 +3.45400E+00 -7.41673E+00
 +6.57292E+00 -4.57124E+00 +7.57345E+00 -5.29991E-01 +6.15714E+00 +3.26312E+00 +2.93215E+00 +5.45358E+00
 -8.05209E-01 +5.29892E+00 -3.56076E+00 +2.96629E+00 -4.22088E+00 -5.16407E-01 -2.49673E+00 -3.64519E+00
 +9.41761E-01 -5.01975E+00 +4.70154E+00 -3.89787E+00 +7.18994E+00 -5.09224E-01 +7.23050E+00 +3.99898E+00
 +4.53571E+00 +7.97277E+00 -1.48795E-01 +9.86901E+00 -5.29198E+00 +8.84774E+00 -9.13089E+00 +5.11190E+00
 -1.03254E+01 -1.40618E-01 -8.46682E+00 -5.14193E+00 -4.24545E+00 -8.20173E+00 +7.93271E-01 -8.33592E+00
 +4.81646E+00 -5.63829E+00 +6.38619E+00 -1.25176E+00 +5.00046E+00 +3.05475E+00 +1.28756E+00 +5.54873E+00
 -3.22269E+00 +5.18882E+00 -6.66846E+00 +2.02599E+00 -7.55551E+00 -2.80141E+00 -5.32587E+00 -7.47986E+00
 -5.82441E-01 -1.01887E+01 +5.11602E+00 -9.77680E+00 +9.81510E+00 -6.19639E+00 +1.18737E+01 -5.33110E-01
 +1.05604E+01 +5.37924E+00 +6.31748E+00 +9.61685E+00 +5.98246E-01 +1.08546E+01 -4.66199E+00 +8.83315E+00
 -7.74364E+00 +4.43590E+00 -7.75400E+00 -6.48565E-01 -4.93017E+00 -4.55009E+00 -5.28055E-01 -5.89591E+00
 +3.65571E+00 -4.29738E+00 +5.94890E+00 -4.71172E-01 +5.41141E+00 +4.04243E+00 +2.16646E+00 +7.45403E+00
 -2.65866E+00 +8.37882E+00 -7.35234E+00 +6.33187E+00 -1.02396E+01 +1.89055E+00 -1.02764E+01 -3.52594E+00
 -7.40569E+00 -8.17091E+00 -2.55480E+00 -1.05866E+01 +2.71342E+00 -1.01006E+01 +6.76076E+00 -7.02977E+00
 +8.43923E+00 -2.53139E+00 +7.46268E+00 +1.83377E+00 +4.46117E+00 +4.65974E+00 +7.13080E-01 +5.17383E+00
 -2.33669E+00 +3.47062E+00 -3.59295E+00 +4.30831E-01 -2.67826E+00 -2.63138E+00 -3.10537E-02 -4.45561E+00
 +3.28701E+00 -4.27981E+00 +5.99241E+00 -2.08903E+00 +7.03923E+00 +1.40809E+00 +5.97439E+00 +5.05270E+00
 +3.07114E+00 +7.65115E+00 -7.92718E-01 +8.38162E+00 -4.45596E+00 +7.05313E+00 -6.87315E+00 +4.13737E+00
 -7.45193E+00 +5.75986E-01 -6.21809E+00 -2.55724E+00 -3.76407E+00 -4.41663E+00 -1.01239E+00 -4.64461E+00
 +1.11439E+00 -3.45149E+00 +2.00063E+00 -1.50054E+00 +1.52086E+00 +3.50110E-01 +4.67711E-02 +1.35305E+00
 -1.71255E+00 +1.12041E+00 -2.97361E+00 -2.62839E-01 -3.15157E+00 -2.28993E+00 -2.05314E+00 -4.22119E+00
 +6.91704E-02 -5.34125E+00 +2.61162E+00 -5.19744E+00 +4.82479E+00 -3.74331E+00 +6.05884E+00 -1.34561E+00
 +5.96863E+00 +1.34154E+00 +4.61498E+00 +3.59010E+00 +2.43395E+00 +4.82838E+00 +8.80821E-02 +4.81476E+00
 -1.74983E+00 +3.70185E+00 -2.61056E+00 +1.97338E+00 -2.37192E+00 +2.76537E-01 -1.28732E+00 -7.95262E-01
 +1.08602E-01 -8.98858E-01 +1.18642E+00 -5.38183E-02 +1.43976E+00 +1.36604E+00 +6.63318E-01 +2.76027E+00
 -9.68290E-01 +3.50814E+00 -2.94939E+00 +3.18652E+00 -4.60652E+00 +1.72657E+00 -5.32473E+00 -5.45271E-01
 -4.76229E+00 -3.00008E+00 -2.98066E+00 -4.90604E+00 -4.42136E-01 -5.67119E+00 +2.12925E+00 -5.04796E+00
 +3.98108E+00 -3.22811E+00 +4.58385E+00 -7.91097E-01 +3.81437E+00 +1.48166E+00 +2.00536E+00 +2.86748E+00
 -1.60491E-01 +2.95052E+00 -1.88061E+00 +1.77038E+00 -2.51069E+00 -1.83624E-01 -1.79506E+00 -2.13577E+00
