 Created: 16-Jan-2021
 $NMID
 ID='D:\BASISSIMULATI'
 FMTDAT='(8E13.5)'
 VOLUME=   1.00000E+00
 TRAMP=   1.00000E+00
 $END
 +6.52882E+01 +1.01111E+01 +3.47236E+01 +5.21593E+01 -1.50451E+01 +5.22384E+01 -4.14676E+01 +1.46767E+01
 -2.64198E+01 -2.36776E+01 +9.27613E+00 -3.01538E+01 +2.96377E+01 -6.16664E+00 +1.98315E+01 +1.86500E+01
 -2.08844E+00 +1.97561E+01 -8.27708E+00 +2.66748E+00 +7.11415E+00 -5.96152E+00 +2.17664E+01 +9.78144E+00
 +1.09483E+01 +3.53331E+01 -2.28420E+01 +3.99610E+01 -4.89334E+01 +1.05205E+01 -3.87538E+01 -3.12617E+01
 +3.43317E+00 -4.75331E+01 +4.16829E+01 -2.13342E+01 +4.16640E+01 +2.54392E+01 +3.42089E+00 +5.18383E+01
 -3.89295E+01 +3.61958E+01 -5.00002E+01 -4.74171E+00 -2.56232E+01 -3.39782E+01 +6.53401E+00 -3.04045E+01
 +1.69372E+01 -6.54888E+00 +3.01974E+00 +8.32274E+00 -1.20254E+01 +2.53732E-01 -7.21636E+00 -1.61855E+01
 +1.24037E+01 -1.64148E+01 +2.16371E+01 +4.88522E+00 +4.08757E+00 +2.58741E+01 -2.72544E+01 +2.01725E+01
 -4.07509E+01 -1.35862E+01 -1.81850E+01 -4.69461E+01 +2.47921E+01 -4.80191E+01 +5.16722E+01 -1.30875E+01
 +3.94570E+01 +2.86051E+01 +3.86373E-01 +4.21448E+01 -3.03743E+01 +1.93882E+01 -2.83830E+01 -1.52113E+01
 -1.38614E+00 -3.00314E+01 +2.16354E+01 -1.65115E+01 +2.09408E+01 +5.80065E+00 +4.26214E+00 +1.25791E+01
 -4.83447E+00 +6.87593E-01 +5.52154E+00 -1.03655E+01 +2.20922E+01 -1.91389E+00 +2.14709E+01 +2.14495E+01
 -2.88675E+00 +3.51103E+01 -3.08845E+01 +2.04722E+01 -3.46430E+01 -1.35641E+01 -7.20312E+00 -3.69099E+01
 +2.85976E+01 -2.70545E+01 +4.09245E+01 +8.45794E+00 +1.91049E+01 +3.86340E+01 -1.67194E+01 +3.82932E+01
 -3.56089E+01 +1.09882E+01 -2.50601E+01 -1.65109E+01 -5.85703E-01 -2.14012E+01 +1.24770E+01 -5.77511E+00
 +4.95121E+00 +8.93266E+00 -9.09839E+00 +6.40915E+00 -1.01295E+01 -7.60257E+00 +4.34448E+00 -1.32602E+01
 +1.67998E+01 -3.25940E-02 +9.32513E+00 +2.01026E+01 -1.53715E+01 +2.42658E+01 -3.44390E+01 +3.22808E+00
 -2.72488E+01 -2.69780E+01 +3.03376E+00 -3.92336E+01 +3.10385E+01 -2.15785E+01 +3.28989E+01 +1.08028E+01
 +8.63972E+00 +2.99145E+01 -1.87365E+01 +2.12558E+01 -2.59005E+01 -3.84726E+00 -1.06117E+01 -2.11848E+01
 +8.82936E+00 -1.77334E+01 +1.39290E+01 -2.44943E+00 +4.33155E+00 +5.88104E+00 -4.30194E+00 -4.06107E-01
 +7.57888E-01 -1.04707E+01 +1.45448E+01 -8.30662E+00 +1.97041E+01 +8.20953E+00 +6.05333E+00 +2.34238E+01
 -1.67038E+01 +1.97781E+01 -2.71602E+01 -3.01015E+00 -1.34762E+01 -2.57609E+01 +1.39310E+01 -2.75946E+01
 +3.14711E+01 -6.10063E+00 +2.44387E+01 +2.02134E+01 +3.02348E-01 +2.94871E+01 -1.94317E+01 +1.65258E+01
 -1.99527E+01 -4.11253E+00 -5.72328E+00 -1.38310E+01 +6.60926E+00 -7.80481E+00 +6.23745E+00 +2.75200E+00
 -1.88867E+00 +4.66131E+00 -4.69754E+00 -2.67901E+00 +3.14025E+00 -7.65044E+00 +1.26635E+01 -5.78071E-01
 +1.04484E+01 +1.41079E+01 -5.83458E+00 +2.12092E+01 -2.30274E+01 +1.04990E+01 -2.45383E+01 -1.15392E+01
 -6.91974E+00 -2.65407E+01 +1.58803E+01 -2.13215E+01 +2.51010E+01 -3.52351E-01 +1.42652E+01 +1.85576E+01
 -5.75100E+00 +2.08176E+01 -1.79144E+01 +7.54207E+00 -1.47644E+01 -7.53661E+00 -3.36942E+00 -1.23716E+01
 +4.05458E+00 -7.21355E+00 +2.99355E+00 -1.61680E+00 -3.71641E-01 -2.48488E+00 +1.91913E+00 -6.56696E+00
 +9.37466E+00 -5.15595E+00 +1.29620E+01 +4.74438E+00 +5.29102E+00 +1.54092E+01 -1.00177E+01 +1.54430E+01
 -2.02036E+01 +1.81960E+00 -1.51958E+01 -1.56895E+01 +2.31750E+00 -2.27034E+01 +1.87195E+01 -1.32700E+01
 +2.15149E+01 +4.85871E+00 +9.98813E+00 +1.75377E+01 -5.34316E+00 +1.66951E+01 -1.30550E+01 +6.10577E+00
 -1.03997E+01 -4.04859E+00 -3.44352E+00 -7.27187E+00 +8.45172E-01 -5.30026E+00 +1.49845E+00 -3.67033E+00
 +2.60703E+00 -4.34856E+00 +6.68700E+00 -3.78849E+00 +1.04491E+01 +1.85716E+00 +7.95889E+00 +1.06881E+01
 -2.21038E+00 +1.53648E+01 -1.37887E+01 +1.00079E+01 -1.75290E+01 -3.29535E+00 -9.56013E+00 -1.52475E+01
 +4.74757E+00 -1.70117E+01 +1.51591E+01 -7.63016E+00 +1.50075E+01 +5.58365E+00 +5.95202E+00 +1.35681E+01
 -4.65163E+00 +1.25624E+01 -1.04003E+01 +5.60191E+00 -1.00830E+01 -1.70668E+00 -6.46987E+00 -6.11916E+00
 -2.28956E+00 -7.83078E+00 +1.90015E+00 -7.91757E+00 +6.29912E+00 -6.02876E+00 +9.53439E+00 -1.14784E+00
 +8.82088E+00 +5.81187E+00 +2.81732E+00 +1.11143E+01 -5.97944E+00 +1.06699E+01 -1.22440E+01 +3.72597E+00
 -1.17201E+01 -5.89135E+00 -4.54498E+00 -1.23527E+01 +4.90167E+00 -1.19808E+01 +1.12510E+01 -5.49391E+00
 +1.15746E+01 +3.09560E+00 +6.50309E+00 +9.40345E+00 -1.00119E+00 +1.09251E+01 -7.52815E+00 +7.54160E+00
 -1.04572E+01 +9.58229E-01 -8.58789E+00 -5.99127E+00 -2.63944E+00 -1.01601E+01 +4.65155E+00 -9.40863E+00
 +9.58768E+00 -4.00305E+00 +9.61821E+00 +3.17716E+00 +5.02574E+00 +8.30076E+00 -1.35449E+00 +9.04807E+00
 -6.24677E+00 +5.83751E+00 -7.98512E+00 +8.78802E-01 -6.78010E+00 -3.74922E+00 -3.48596E+00 -6.99363E+00
 +1.27697E+00 -8.16903E+00 +6.52815E+00 -6.25251E+00 +9.96595E+00 -7.14703E-01 +8.69098E+00 +6.69955E+00
 +1.85442E+00 +1.17021E+01 -7.27910E+00 +1.01667E+01 -1.27039E+01 +1.98398E+00 -1.02269E+01 -7.78990E+00
 -1.32917E+00 -1.23981E+01 +7.61122E+00 -8.87434E+00 +1.05219E+01 -5.18209E-01 +6.60038E+00 +6.16563E+00
 +3.52180E-01 +7.23621E+00 -3.19599E+00 +4.21718E+00 -3.15937E+00 +1.45736E+00 -2.60416E+00 +1.02187E+00
 -4.01170E+00 +7.45674E-01 -5.68741E+00 -2.42206E+00 -3.46673E+00 -7.63258E+00 +3.84270E+00 -9.70632E+00
 +1.14342E+01 -4.31362E+00 +1.20356E+01 +6.40930E+00 +3.19398E+00 +1.42614E+01 -9.13017E+00 +1.20362E+01
 -1.50672E+01 +6.90769E-01 -9.73667E+00 -1.07876E+01 +2.07835E+00 -1.33024E+01 +1.03468E+01 -5.89527E+00
 +9.15805E+00 +3.80080E+00 +1.79934E+00 +7.34108E+00 -3.42525E+00 +3.57639E+00 -2.11542E+00 -1.13170E+00
 +1.97426E+00 -5.60768E-01 +1.79728E+00 +4.19795E+00 -4.34721E+00 +5.93466E+00 -1.00106E+01 -1.94326E-01
 -7.19710E+00 -1.01014E+01 +4.29920E+00 -1.37805E+01 +1.50446E+01 -5.52720E+00 +1.44727E+01 +9.11795E+00
 +1.64723E+00 +1.75310E+01 -1.28567E+01 +1.18776E+01 -1.65251E+01 -3.01475E+00 -6.77960E+00 -1.39864E+01
 +6.71845E+00 -1.20883E+01 +1.17452E+01 -8.74607E-01 +5.41732E+00 +7.84533E+00 -3.73472E+00 +6.30503E+00
 -5.43082E+00 -1.62845E+00 +1.25621E+00 -5.37491E+00 +7.15860E+00 +2.94179E-01 +3.47587E+00 +9.06239E+00
 -7.76699E+00 +9.68075E+00 -1.48248E+01 -1.35268E+00 -8.39363E+00 -1.46804E+01 +7.70209E+00 -1.66932E+01
 +1.89697E+01 -3.58627E+00 +1.41857E+01 +1.37096E+01 -3.06475E+00 +1.94606E+01 -1.72765E+01 +8.42390E+00
 -1.59078E+01 -8.90538E+00 -1.44680E+00 -1.66082E+01 +1.15209E+01 -8.91887E+00 +1.12018E+01 +4.68145E+00
 +1.64185E-01 +9.87829E+00 -8.20962E+00 +2.49058E+00 -4.44651E+00 -7.62546E+00 +6.74569E+00 -7.73075E+00
 +1.16342E+01 +3.48790E+00 +2.71123E+00 +1.38614E+01 -1.22293E+01 +1.05445E+01 -1.73322E+01 -5.59254E+00
 -5.26662E+00 -1.94785E+01 +1.40969E+01 -1.65734E+01 +2.25499E+01 +1.95005E+00 +1.15428E+01 +1.94362E+01
 -8.92356E+00 +1.97662E+01 -1.98709E+01 +3.22651E+00 -1.19637E+01 -1.38992E+01 +5.62772E+00 -1.56879E+01
 +1.50497E+01 -2.24448E+00 +8.05908E+00 +1.12384E+01 -6.08078E+00 +1.07952E+01 -1.11007E+01 -1.74705E+00
 -1.41857E+00 -1.11718E+01 +1.17277E+01 -5.64393E+00 +1.23519E+01 +9.96415E+00 -2.62101E+00 +1.85905E+01
 -1.89551E+01 +9.03889E+00 -1.92205E+01 -1.12840E+01 -1.18445E+00 -2.27795E+01 +1.87764E+01 -1.32912E+01
 +2.14245E+01 +9.03766E+00 +3.91213E+00 +2.32269E+01 -1.71299E+01 +1.60854E+01 -2.20492E+01 -4.82331E+00
 -7.56039E+00 -1.90703E+01 +1.06101E+01 -1.40099E+01 +1.43180E+01 +2.95326E+00 +1.56075E+00 +1.28902E+01
 -1.21669E+01 +5.52845E+00 -1.08958E+01 -1.00884E+01 +4.45765E+00 -1.56080E+01 +1.68224E+01 -3.46418E+00
 +1.12480E+01 +1.42781E+01 -8.44275E+00 +1.80653E+01 -2.24881E+01 +1.66184E+00 -1.52086E+01 -2.02017E+01
 +8.26808E+00 -2.59145E+01 +2.61885E+01 -8.84613E+00 +2.15533E+01 +1.54294E+01 -8.78745E-01 +2.42807E+01
 -1.93522E+01 +1.03764E+01 -1.68749E+01 -1.14186E+01 +2.17943E+00 -1.95077E+01 +1.74165E+01 -7.39231E+00
 +1.38708E+01 +1.05213E+01 -2.80544E+00 +1.48016E+01 -1.30737E+01 +1.70379E+00 -4.85608E+00 -1.30568E+01
 +1.31304E+01 -1.14235E+01 +2.03258E+01 +7.06447E+00 +6.41288E+00 +2.37812E+01 -1.66990E+01 +2.00731E+01
 -2.60765E+01 -2.71475E+00 -1.11503E+01 -2.33478E+01 +1.47557E+01 -2.15106E+01 +2.70236E+01 +1.64069E+00
 +1.40405E+01 +2.42626E+01 -1.14028E+01 +2.53823E+01 -2.51677E+01 +5.42084E+00 -1.58778E+01 -1.50440E+01
 +4.49108E+00 -1.66661E+01 +1.40075E+01 -6.83463E-01 +3.86084E+00 +1.35387E+01 -1.29802E+01 +9.73976E+00
 -1.63424E+01 -7.76572E+00 -1.06279E+00 -1.88205E+01 +1.68094E+01 -9.39796E+00 +1.67178E+01 +1.24439E+01
 -4.08019E+00 +2.38719E+01 -2.61893E+01 +1.08327E+01 -2.69763E+01 -1.64701E+01 -3.72436E+00 -3.26602E+01
 +2.28015E+01 -2.21624E+01 +2.84467E+01 +5.16971E+00 +9.29107E+00 +2.37368E+01 -1.50189E+01 +1.74241E+01
 -2.13598E+01 -5.15255E+00 -5.96004E+00 -2.05170E+01 +1.31701E+01 -1.46606E+01 +1.60503E+01 +3.39713E+00
 +1.70839E+00 +1.24490E+01 -1.15788E+01 +2.42534E+00 -6.71376E+00 -1.46207E+01 +1.29778E+01 -1.75568E+01
 +2.63735E+01 +4.91596E-01 +1.67575E+01 +2.33659E+01 -9.52732E+00 +2.75591E+01 -2.79405E+01 +6.64155E+00
 -1.99174E+01 -2.09008E+01 +8.07418E+00 -2.91054E+01 +3.02462E+01 -1.00151E+01 +2.65276E+01 +1.85084E+01
 +1.79300E+00 +3.05198E+01 -1.98860E+01 +1.72568E+01 -1.96647E+01 -5.47729E+00 -1.95055E+00 -1.46572E+01
 +1.19466E+01 -3.66354E+00 +7.11345E+00 +1.21914E+01 -9.44786E+00 +1.33407E+01 -1.72022E+01 -2.33778E+00
 -5.14754E+00 -1.69715E+01 +1.51938E+01 -1.21140E+01 +2.10898E+01 +1.04121E+01 +2.80824E+00 +2.86714E+01
 -2.46626E+01 +2.24441E+01 -3.52973E+01 -5.44510E+00 -1.78242E+01 -3.05584E+01 +1.25242E+01 -3.02485E+01
 +2.84893E+01 -5.69941E+00 +1.71015E+01 +1.95377E+01 -8.50628E+00 +2.28655E+01 -2.32291E+01 +4.16649E+00
 -1.51543E+01 -1.58483E+01 +3.90449E+00 -1.78777E+01 +1.25258E+01 -3.42600E+00 +2.89783E+00 +8.44385E+00
 -1.14171E+01 +2.80409E+00 -1.10427E+01 -1.44144E+01 +7.18367E+00 -2.25863E+01 +2.54653E+01 -9.02590E+00
 +2.31767E+01 +1.59705E+01 -7.89081E-01 +2.81494E+01 -2.50727E+01 +1.38004E+01 -2.61938E+01 -1.53558E+01
 -1.95267E+00 -3.26254E+01 +2.58952E+01 -2.20933E+01 +3.26169E+01 +6.09094E+00 +1.41293E+01 +2.61155E+01
