 Created: 16-Jan-2021
 $NMID
 ID='D:\BASISSIMULATI'
 FMTDAT='(8E13.5)'
 VOLUME=   1.00000E+00
 TRAMP=   1.00000E+00
 $END
 +1.49182E+02 +2.28384E+01 +1.27019E+02 +7.97192E+01 +8.34778E+01 +1.21993E+02 +2.68574E+01 +1.42064E+02
 -3.21261E+01 +1.36658E+02 -8.24464E+01 +1.07421E+02 -1.14921E+02 +6.05526E+01 -1.23985E+02 +5.54298E+00
 -1.08736E+02 -4.67300E+01 -7.30481E+01 -8.61589E+01 -2.47353E+01 -1.05390E+02 +2.60532E+01 -1.01238E+02
 +6.88875E+01 -7.52576E+01 +9.51419E+01 -3.33606E+01 +9.96962E+01 +1.54308E+01 +8.19141E+01 +6.08397E+01
 +4.57116E+01 +9.34204E+01 -1.29087E+00 +1.06453E+02 -4.93523E+01 +9.72704E+01 -8.86058E+01 +6.77483E+01
 -1.11057E+02 +2.38798E+01 -1.12184E+02 -2.54832E+01 -9.18181E+01 -7.04528E+01 -5.41322E+01 -1.02120E+02
 -6.75158E+00 -1.14350E+02 +4.08303E+01 -1.05001E+02 +7.92008E+01 -7.63164E+01 +1.00943E+02 -3.44203E+01
 +1.02125E+02 +1.19712E+01 +8.30700E+01 +5.33591E+01 +4.82449E+01 +8.14157E+01 +5.30269E+00 +9.06852E+01
 -3.65218E+01 +7.96828E+01 -6.83326E+01 +5.11720E+01 -8.34137E+01 +1.15654E+01 -7.86140E+01 -3.04230E+01
 -5.49924E+01 -6.55968E+01 -1.75938E+01 -8.61920E+01 +2.55978E+01 -8.74952E+01 +6.53132E+01 -6.88325E+01
 +9.29187E+01 -3.37267E+01 +1.02211E+02 +1.08091E+01 +9.07165E+01 +5.56997E+01 +6.02305E+01 +9.16634E+01
 +1.64819E+01 +1.11120E+02 -3.20081E+01 +1.09755E+02 -7.56438E+01 +8.74326E+01 -1.05699E+02 +4.82497E+01
 -1.16097E+02 -2.61570E-01 -1.04651E+02 -4.86373E+01 -7.35378E+01 -8.73824E+01 -2.88696E+01 -1.08884E+02
 +2.05146E+01 -1.08953E+02 +6.48204E+01 -8.76745E+01 +9.52642E+01 -4.94041E+01 +1.05840E+02 -1.89860E+00
 +9.45308E+01 +4.52379E+01 +6.37152E+01 +8.24817E+01 +1.96944E+01 +1.02304E+02 -2.85733E+01 +1.00683E+02
 -7.12715E+01 +7.79174E+01 -9.96982E+01 +3.85615E+01 -1.08013E+02 -9.48411E+00 -9.44122E+01 -5.65606E+01
 -6.14856E+01 -9.31884E+01 -1.57006E+01 -1.11968E+02 +3.38982E+01 -1.09060E+02 +7.75014E+01 -8.49499E+01
 +1.06497E+02 -4.43462E+01 +1.15190E+02 +4.77154E+00 +1.01931E+02 +5.27543E+01 +6.94307E+01 +9.02153E+01
 +2.42041E+01 +1.09903E+02 -2.47510E+01 +1.08140E+02 -6.77637E+01 +8.55358E+01 -9.64271E+01 +4.68414E+01
 -1.05273E+02 -2.84673E-02 -9.28450E+01 -4.56032E+01 -6.19655E+01 -8.07667E+01 -1.91339E+01 -9.85862E+01
 +2.68060E+01 -9.56912E+01 +6.64658E+01 -7.29264E+01 +9.18103E+01 -3.51522E+01 +9.77726E+01 +9.76532E+00
 +8.32596E+01 +5.25645E+01 +5.13503E+01 +8.44722E+01 +8.64816E+00 +9.89793E+01 -3.60757E+01 +9.31495E+01
 -7.36723E+01 +6.81984E+01 -9.64732E+01 +2.92293E+01 -9.98410E+01 -1.58175E+01 -8.30998E+01 -5.77859E+01
 -4.96598E+01 -8.81661E+01 -6.31256E+00 -1.00819E+02 +3.81557E+01 -9.32136E+01 +7.47510E+01 -6.69316E+01
 +9.60951E+01 -2.73343E+01 +9.79164E+01 +1.75329E+01 +7.99064E+01 +5.85775E+01 +4.57724E+01 +8.75041E+01
 +2.47588E+00 +9.84919E+01 -4.11854E+01 +8.93664E+01 -7.63633E+01 +6.20298E+01 -9.59500E+01 +2.20647E+01
 -9.60116E+01 -2.24055E+01 -7.65754E+01 -6.23678E+01 -4.16129E+01 -8.97458E+01 +1.77497E+00 -9.90305E+01
 +4.48039E+01 -8.83883E+01 +7.87884E+01 -6.00201E+01 +9.68987E+01 -1.97039E+01 +9.55371E+01 +2.43851E+01
 +7.50557E+01 +6.33366E+01 +3.96723E+01 +8.93107E+01 -3.39530E+00 +9.71217E+01 -4.54005E+01 +8.52788E+01
 -7.78439E+01 +5.62764E+01 -9.41939E+01 +1.60762E+01 -9.12037E+01 -2.71116E+01 -6.95590E+01 -6.44987E+01
 -3.37267E+01 -8.85018E+01 +8.96123E+00 -9.42756E+01 +4.98026E+01 -8.06875E+01 +8.04933E+01 -5.05365E+01
 +9.48097E+01 -9.97483E+00 +8.98652E+01 +3.27486E+01 +6.66865E+01 +6.89666E+01 +2.99949E+01 +9.13527E+01
 -1.27604E+01 +9.54035E+01 -5.29213E+01 +8.03451E+01 -8.23804E+01 +4.92803E+01 -9.52250E+01 +8.54918E+00
 -8.89324E+01 -3.35660E+01 -6.48741E+01 -6.85280E+01 -2.80290E+01 -8.92796E+01 +1.40367E+01 -9.16758E+01
 +5.27124E+01 -7.53216E+01 +8.00970E+01 -4.36473E+01 +9.06068E+01 -3.20622E+00 +8.21105E+01 +3.76615E+01
 +5.63635E+01 +7.05277E+01 +1.86511E+01 +8.85924E+01 -2.32841E+01 +8.80690E+01 -6.08145E+01 +6.89592E+01
 -8.61804E+01 +3.50585E+01 -9.40677E+01 -6.80661E+00 -8.26918E+01 -4.81573E+01 -5.41677E+01 -8.05760E+01
 -1.40918E+01 -9.74101E+01 +2.95803E+01 -9.51197E+01 +6.81339E+01 -7.39993E+01 +9.38485E+01 -3.81251E+01
 +1.01553E+02 +5.45855E+00 +8.96658E+01 +4.81518E+01 +6.05164E+01 +8.15240E+01 +1.98755E+01 +9.90039E+01
 -2.42017E+01 +9.71954E+01 -6.29921E+01 +7.65536E+01 -8.88528E+01 +4.12873E+01 -9.67482E+01 -1.49248E+00
 -8.52521E+01 -4.32041E+01 -5.68220E+01 -7.55184E+01 -1.72936E+01 -9.20267E+01 +2.53003E+01 -8.95185E+01
 +6.23489E+01 -6.86125E+01 +8.63922E+01 -3.36184E+01 +9.26123E+01 +8.34298E+00 +7.97891E+01 +4.87792E+01
 +5.05293E+01 +7.95353E+01 +1.07270E+01 +9.44277E+01 -3.16336E+01 +9.04749E+01 -6.80889E+01 +6.84789E+01
 -9.13944E+01 +3.28445E+01 -9.69694E+01 -9.32352E+00 -8.37980E+01 -4.96614E+01 -5.46087E+01 -8.02301E+01
 -1.53001E+01 -9.51039E+01 +2.62669E+01 -9.15426E+01 +6.18639E+01 -7.05154E+01 +8.45511E+01 -3.64727E+01
 +9.00629E+01 +3.58152E+00 +7.76418E+01 +4.15259E+01 +5.01581E+01 +6.97732E+01 +1.34934E+01 +8.28009E+01
 -2.46805E+01 +7.82522E+01 -5.64782E+01 +5.73866E+01 -7.54090E+01 +2.47921E+01 -7.76914E+01 -1.25773E+01
 -6.30078E+01 -4.68409E+01 -3.45481E+01 -7.08119E+01 +1.66232E+00 -7.94674E+01 +3.80120E+01 -7.09711E+01
 +6.68713E+01 -4.70400E+01 +8.21599E+01 -1.25834E+01 +8.05932E+01 +2.53094E+01 +6.23543E+01 +5.88267E+01
 +3.10564E+01 +8.10360E+01 -6.99705E+00 +8.73056E+01 -4.41005E+01 +7.62541E+01 -7.27215E+01 +5.00366E+01
 -8.70398E+01 +1.39082E+01 -8.41387E+01 -2.48456E+01 -6.46033E+01 -5.83922E+01 -3.24068E+01 -7.99490E+01
 +5.89493E+00 -8.51673E+01 +4.24951E+01 -7.30226E+01 +6.99242E+01 -4.60289E+01 +8.25719E+01 -9.73384E+00
 +7.78338E+01 +2.84046E+01 +5.66488E+01 +6.05310E+01 +2.33182E+01 +7.99895E+01 -1.53582E+01 +8.26804E+01
 -5.14541E+01 +6.79021E+01 -7.75211E+01 +3.85061E+01 -8.80988E+01 +3.32702E-01 -8.08282E+01 -3.89574E+01
 -5.69400E+01 -7.14235E+01 -2.10203E+01 -9.04438E+01 +1.98993E+01 -9.20523E+01 +5.77466E+01 -7.57439E+01
 +8.50233E+01 -4.45838E+01 +9.63064E+01 -4.60180E+00 +8.93338E+01 +3.64090E+01 +6.54565E+01 +7.04466E+01
 +2.93675E+01 +9.08947E+01 -1.18386E+01 +9.38386E+01 -5.00831E+01 +7.88378E+01 -7.79154E+01 +4.90023E+01
 -8.99935E+01 +1.03590E+01 -8.41384E+01 -2.93634E+01 -6.17515E+01 -6.22842E+01 -2.75133E+01 -8.19449E+01
 +1.15723E+01 -8.45899E+01 +4.75942E+01 -6.99003E+01 +7.33248E+01 -4.10336E+01 +8.36638E+01 -3.96716E+00
 +7.66473E+01 +3.37214E+01 +5.38199E+01 +6.43874E+01 +1.99005E+01 +8.18564E+01 -1.81894E+01 +8.26566E+01
 -5.27338E+01 +6.66989E+01 -7.67819E+01 +3.72725E+01 -8.55436E+01 +3.58731E-01 -7.73404E+01 -3.65932E+01
 -5.39228E+01 -6.61787E+01 -2.00928E+01 -8.25318E+01 +1.72871E+01 -8.24987E+01 +5.06956E+01 -6.62562E+01
 +7.34785E+01 -3.72510E+01 +8.11896E+01 -1.47891E+00 +7.24760E+01 +3.37493E+01 +4.93305E+01 +6.13007E+01
 +1.66639E+01 +7.56686E+01 -1.87140E+01 +7.40825E+01 -4.94937E+01 +5.70551E+01 -6.93601E+01 +2.82599E+01
 -7.42774E+01 -6.23606E+00 -6.33046E+01 -3.92230E+01 -3.87765E+01 -6.38281E+01 -5.81589E+00 -7.49221E+01
 +2.87215E+01 -7.01658E+01 +5.76540E+01 -5.04854E+01 +7.49447E+01 -1.98805E+01 +7.69367E+01 +1.53951E+01
 +6.31025E+01 +4.81110E+01 +3.61543E+01 +7.15371E+01 +1.49432E+00 +8.08177E+01 -3.38825E+01 +7.39643E+01
 -6.28107E+01 +5.22651E+01 -7.94111E+01 +2.00283E+01 -8.02877E+01 -1.62883E+01 -6.52202E+01 -4.93850E+01
 -3.72132E+01 -7.25987E+01 -1.89126E+00 -8.12540E+01 +3.36376E+01 -7.36109E+01 +6.22183E+01 -5.12198E+01
 +7.80960E+01 -1.86091E+01 +7.80791E+01 +1.76283E+01 +6.21854E+01 +5.01671E+01 +3.36382E+01 +7.24287E+01
 -1.78448E+00 +7.99097E+01 -3.69163E+01 +7.10903E+01 -6.46494E+01 +4.77406E+01 -7.93678E+01 +1.45619E+01
 -7.80788E+01 -2.17619E+01 -6.10151E+01 -5.39132E+01 -3.15853E+01 -7.54148E+01 +4.31563E+00 -8.19338E+01
 +3.94954E+01 -7.21506E+01 +6.69129E+01 -4.80209E+01 +8.10946E+01 -1.43766E+01 +7.92311E+01 +2.20513E+01
 +6.17362E+01 +5.39896E+01 +3.21552E+01 +7.50859E+01 -3.55660E+00 +8.11827E+01 -3.82386E+01 +7.11455E+01
 -6.49684E+01 +4.70802E+01 -7.84527E+01 +1.38972E+01 -7.60851E+01 -2.16873E+01 -5.84598E+01 -5.25108E+01
 -2.92371E+01 -7.24084E+01 +5.60730E+00 -7.74504E+01 +3.89977E+01 -6.67241E+01 +6.41904E+01 -4.25042E+01
 +7.61337E+01 -9.77934E+00 +7.24802E+01 +2.47675E+01 +5.40497E+01 +5.41168E+01 +2.46500E+01 +7.23329E+01
 -9.70515E+00 +7.57602E+01 -4.20216E+01 +6.37541E+01 -6.57436E+01 +3.88000E+01 -7.60798E+01 +5.99934E+00
 -7.09669E+01 -2.79722E+01 -5.14787E+01 -5.62212E+01 -2.15995E+01 -7.30333E+01 +1.25918E+01 -7.50268E+01
 +4.41582E+01 -6.18303E+01 +6.67116E+01 -3.61504E+01 +7.57044E+01 -3.21481E+00 +6.93455E+01 +3.02919E+01
 +4.89555E+01 +5.75853E+01 +1.86919E+01 +7.31541E+01 -1.52996E+01 +7.38724E+01 -4.61331E+01 +5.96260E+01
 -6.75774E+01 +3.33281E+01 -7.53149E+01 +3.22728E-01 -6.78100E+01 -3.27026E+01 -4.66123E+01 -5.90721E+01
 -1.60359E+01 -7.34721E+01 +1.77205E+01 -7.30214E+01 +4.78313E+01 -5.78473E+01 +6.82257E+01 -3.10524E+01
 +7.48129E+01 +1.92136E+00 +6.63033E+01 +3.43986E+01 +4.44613E+01 +5.98237E+01 +1.37401E+01 +7.30854E+01
 -1.96266E+01 +7.15458E+01 -4.88896E+01 +5.55660E+01 -6.81507E+01 +2.84247E+01 -7.35518E+01 -4.35423E+00
 -6.40491E+01 -3.61251E+01 -4.16155E+01 -6.04677E+01 -1.08318E+01 -7.24851E+01 +2.20481E+01 -6.97887E+01
 +5.03669E+01 -5.29741E+01 +6.84128E+01 -2.54902E+01 +7.25712E+01 +7.06718E+00 +6.20503E+01 +3.80952E+01
 +3.90315E+01 +6.13233E+01 +8.21826E+00 +7.20818E+01 -2.41241E+01 +6.82422E+01 -5.14430E+01 +5.06404E+01
 -6.82264E+01 +2.28976E+01 -7.11173E+01 -9.32181E+00 -5.95876E+01 -3.94649E+01 -3.60369E+01 -6.14215E+01
 -5.29753E+00 -7.07629E+01 +2.63520E+01 -6.56355E+01 +5.24651E+01 -4.71310E+01 +6.77363E+01 -1.90584E+01
 +6.90761E+01 +1.28355E+01 +5.62346E+01 +4.20359E+01 +3.18473E+01 +6.25850E+01 +8.96806E-01 +7.02908E+01
 -3.03021E+01 +6.35765E+01 -5.53856E+01 +4.37984E+01 -6.92321E+01 +1.49686E+01 -6.90014E+01 -1.70601E+01
 -5.47097E+01 -4.57822E+01 -2.92257E+01 -6.53581E+01 +2.31120E+00 -7.17974E+01 +3.35313E+01 -6.37665E+01
 +5.81241E+01 -4.28586E+01 +7.11146E+01 -1.32708E+01 +6.98685E+01 +1.90446E+01 +5.46240E+01 +4.75830E+01
