 Created: 16-Jan-2021
 $NMID
 ID='D:\BASISSIMULATI'
 FMTDAT='(8E13.5)'
 VOLUME=   1.00000E+00
 TRAMP=   1.00000E+00
 $END
 +7.46566E+01 +1.14313E+01 +6.44891E+01 +2.66962E+01 +4.15918E+01 +3.78461E+01 +1.17821E+01 +4.37890E+01
 -1.73708E+01 +4.40654E+01 -3.87270E+01 +3.88594E+01 -4.76063E+01 +2.90701E+01 -4.30526E+01 +1.63725E+01
 -2.79626E+01 +3.13845E+00 -8.06883E+00 -7.88871E+00 +9.87939E+00 -1.41824E+01 +2.01550E+01 -1.41638E+01
 +1.96881E+01 -7.84611E+00 +8.82399E+00 +2.87605E+00 -8.97151E+00 +1.44874E+01 -2.83037E+01 +2.26937E+01
 -4.35164E+01 +2.36633E+01 -5.03014E+01 +1.53135E+01 -4.67819E+01 -1.78728E+00 -3.38032E+01 -2.42528E+01
 -1.44390E+01 -4.65901E+01 +7.04643E+00 -6.26515E+01 +2.64017E+01 -6.74254E+01 +4.03895E+01 -5.86218E+01
 +4.73375E+01 -3.75335E+01 +4.71815E+01 -8.85551E+00 +4.11096E+01 +2.05329E+01 +3.10237E+01 +4.34898E+01
 +1.90297E+01 +5.46612E+01 +7.09166E+00 +5.20323E+01 -3.13114E+00 +3.74918E+01 -1.03424E+01 +1.62281E+01
 -1.36713E+01 -4.85988E+00 -1.28078E+01 -1.92447E+01 -8.19408E+00 -2.27037E+01 -1.16335E+00 -1.45155E+01
 +6.11652E+00 +2.42887E+00 +1.10016E+01 +2.26002E+01 +1.10265E+01 +3.95592E+01 +4.70801E+00 +4.78830E+01
 -7.75908E+00 +4.47024E+01 -2.41983E+01 +3.04093E+01 -4.07380E+01 +8.37768E+00 -5.27067E+01 -1.61496E+01
 -5.59375E+01 -3.76112E+01 -4.81078E+01 -5.16215E+01 -2.96739E+01 -5.59793E+01 -4.04635E+00 -5.09569E+01
 +2.31306E+01 -3.88817E+01 +4.54480E+01 -2.32367E+01 +5.75400E+01 -7.61718E+00 +5.66850E+01 +5.13002E+00
 +4.36820E+01 +1.33812E+01 +2.26970E+01 +1.67832E+01 +8.51194E-02 +1.59826E+01 -1.74746E+01 +1.22226E+01
 -2.49689E+01 +6.98000E+00 -2.05501E+01 +1.73450E+00 -6.07720E+00 -2.14012E+00 +1.34706E+01 -3.44968E+00
 +3.15253E+01 -1.31299E+00 +4.19279E+01 +4.60529E+00 +4.07730E+01 +1.38167E+01 +2.75425E+01 +2.48215E+01
 +5.20213E+00 +3.51708E+01 -2.07350E+01 +4.18781E+01 -4.38533E+01 +4.21569E+01 -5.86636E+01 +3.43079E+01
 -6.20610E+01 +1.84758E+01 -5.40057E+01 -3.02459E+00 -3.72838E+01 -2.60118E+01 -1.64982E+01 -4.53786E+01
 +3.34139E+00 -5.64556E+01 +1.81751E+01 -5.64049E+01 +2.58086E+01 -4.51965E+01 +2.61835E+01 -2.58108E+01
 +2.10215E+01 -3.53510E+00 +1.30523E+01 +1.54897E+01 +5.12650E+00 +2.60599E+01 -5.05731E-01 +2.54916E+01
 -2.58299E+00 +1.44869E+01 -8.68767E-01 -3.01419E+00 +4.05937E+00 -2.09829E+01 +1.11074E+01 -3.31156E+01
 +1.89139E+01 -3.47616E+01 +2.59974E+01 -2.43662E+01 +3.08382E+01 -3.98179E+00 +3.19876E+01 +2.13132E+01
 +2.82857E+01 +4.49012E+01 +1.91972E+01 +6.05542E+01 +5.17882E+00 +6.42121E+01 -1.20868E+01 +5.50766E+01
 -2.97590E+01 +3.57169E+01 -4.43075E+01 +1.11979E+01 -5.23350E+01 -1.24596E+01 -5.15561E+01 -2.99899E+01
 -4.16278E+01 -3.82471E+01 -2.45173E+01 -3.68486E+01 -4.20888E+00 -2.79726E+01 +1.42518E+01 -1.54527E+01
 +2.61460E+01 -3.51407E+00 +2.85000E+01 +4.43595E+00 +2.10783E+01 +6.61564E+00 +6.59750E+00 +3.09950E+00
 -9.96506E+00 -4.50004E+00 -2.28060E+01 -1.37064E+01 -2.70588E+01 -2.19405E+01 -2.03434E+01 -2.71309E+01
 -3.60516E+00 -2.80402E+01 +1.90455E+01 -2.43071E+01 +4.14701E+01 -1.63045E+01 +5.72838E+01 -4.94857E+00
 +6.17393E+01 +8.44167E+00 +5.31355E+01 +2.22170E+01 +3.33181E+01 +3.44638E+01 +7.12792E+00 +4.31606E+01
 -1.90227E+01 +4.64905E+01 -3.89951E+01 +4.32938E+01 -4.86245E+01 +3.35382E+01 -4.67720E+01 +1.86204E+01
 -3.54427E+01 +1.31436E+00 -1.89881E+01 -1.47245E+01 -2.68604E+00 -2.58402E+01 +8.83494E+00 -2.94205E+01
 +1.28454E+01 -2.47805E+01 +9.09863E+00 -1.35636E+01 -3.61206E-01 +5.42398E-01 -1.20253E+01 +1.27644E+01
 -2.20639E+01 +1.86392E+01 -2.74107E+01 +1.54326E+01 -2.64810E+01 +3.12560E+00 -1.93743E+01 -1.53837E+01
 -7.59717E+00 -3.49801E+01 +6.51563E+00 -4.97651E+01 +2.04484E+01 -5.48079E+01 +3.20186E+01 -4.76787E+01
 +3.96599E+01 -2.92745E+01 +4.24879E+01 -3.66356E+00 +4.02443E+01 +2.30275E+01 +3.32298E+01 +4.43513E+01
 +2.22886E+01 +5.53763E+01 +8.82721E+00 +5.40621E+01 -5.21562E+00 +4.17602E+01 -1.75514E+01 +2.27064E+01
 -2.59293E+01 +2.68276E+00 -2.86855E+01 -1.27201E+01 -2.53046E+01 -1.97004E+01 -1.67838E+01 -1.72291E+01
 -5.60353E+00 -7.15899E+00 +4.78075E+00 +6.52117E+00 +1.08534E+01 +1.90047E+01 +1.01200E+01 +2.61209E+01
 +2.01523E+00 +2.54809E+01 -1.16903E+01 +1.70049E+01 -2.71864E+01 +2.73996E+00 -3.96029E+01 -1.38968E+01
 -4.44240E+01 -2.91560E+01 -3.89180E+01 -3.99354E+01 -2.31236E+01 -4.44299E+01 -4.69393E-02 -4.23290E+01
 +2.50404E+01 -3.46024E+01 +4.60310E+01 -2.30337E+01 +5.77220E+01 -9.70467E+00 +5.73367E+01 +3.40870E+00
 +4.53526E+01 +1.46618E+01 +2.53686E+01 +2.28181E+01 +3.04264E+00 +2.70676E+01 -1.55756E+01 +2.70736E+01
 -2.58058E+01 +2.30769E+01 -2.56545E+01 +1.60087E+01 -1.62954E+01 +7.50609E+00 -1.59054E+00 -2.77428E-01
 +1.31731E+01 -5.10751E+00 +2.29179E+01 -5.28489E+00 +2.42712E+01 -2.67409E-01 +1.64778E+01 +8.93231E+00
 +1.49002E+00 +1.97743E+01 -1.67383E+01 +2.87274E+01 -3.34860E+01 +3.22255E+01 -4.46183E+01 +2.77882E+01
 -4.76509E+01 +1.49535E+01 -4.22451E+01 -4.31332E+00 -3.00568E+01 -2.59294E+01 -1.40675E+01 -4.46990E+01
 +2.33213E+00 -5.57522E+01 +1.62060E+01 -5.59946E+01 +2.56465E+01 -4.51092E+01 +2.99622E+01 -2.57698E+01
 +2.95228E+01 -2.96074E+00 +2.54051E+01 +1.74201E+01 +1.90129E+01 +3.02641E+01 +1.17903E+01 +3.27399E+01
 +5.06863E+00 +2.51053E+01 -9.82413E-04 +1.05884E+01 -2.51385E+00 -5.62722E+00 -1.94276E+00 -1.79957E+01
 +1.66711E+00 -2.22857E+01 +7.51752E+00 -1.68275E+01 +1.40156E+01 -2.95777E+00 +1.89815E+01 +1.54472E+01
 +2.01350E+01 +3.31795E+01 +1.57746E+01 +4.52515E+01 +5.45098E+00 +4.83101E+01 -9.61159E+00 +4.14999E+01
 -2.65522E+01 +2.65531E+01 -4.14471E+01 +7.13975E+00 -5.03184E+01 -1.22707E+01 -5.03057E+01 -2.76553E+01
 -4.06378E+01 -3.64186E+01 -2.30644E+01 -3.78571E+01 -1.55335E+00 -3.30446E+01 +1.87132E+01 -2.42603E+01
 +3.27793E+01 -1.42034E+01 +3.73655E+01 -5.26007E+00 +3.18730E+01 +9.77982E-01 +1.86093E+01 +3.86982E+00
 +2.13406E+00 +3.60536E+00 -1.20946E+01 +9.39436E-01 -1.93675E+01 -3.07993E+00 -1.71596E+01 -7.30018E+00
 -5.90532E+00 -1.05611E+01 +1.11274E+01 -1.17591E+01 +2.88232E+01 -9.96022E+00 +4.17567E+01 -4.60542E+00
 +4.58026E+01 +4.21811E+00 +3.93276E+01 +1.55462E+01 +2.36157E+01 +2.74873E+01 +2.42272E+00 +3.74643E+01
 -1.91666E+01 +4.27672E+01 -3.62061E+01 +4.13074E+01 -4.52248E+01 +3.23572E+01 -4.50458E+01 +1.70099E+01
 -3.68905E+01 -1.84925E+00 -2.37977E+01 -2.01365E+01 -9.60016E+00 -3.36120E+01 +2.19705E+00 -3.90890E+01
 +9.29388E+00 -3.54374E+01 +1.10096E+01 -2.40368E+01 +8.18401E+00 -8.49239E+00 +2.68251E+00 +6.35280E+00
 -3.27607E+00 +1.58366E+01 -7.73646E+00 +1.69034E+01 -9.40469E+00 +9.08685E+00 -7.77433E+00 -5.27588E+00
 -3.03578E+00 -2.16898E+01 +4.11587E+00 -3.48272E+01 +1.26623E+01 -4.01322E+01 +2.13751E+01 -3.52118E+01
 +2.88781E+01 -2.05817E+01 +3.37287E+01 +4.60966E-01 +3.45931E+01 +2.27937E+01 +3.05414E+01 +4.09514E+01
 +2.14044E+01 +5.06762E+01 +8.06672E+00 +5.00667E+01 -7.46430E+00 +3.99972E+01 -2.23231E+01 +2.37154E+01
 -3.33936E+01 +5.78281E+00 -3.81328E+01 -9.28639E+00 -3.53721E+01 -1.82630E+01 -2.58224E+01 -1.99618E+01
 -1.20649E+01 -1.53416E+01 +2.04074E+00 -6.98248E+00 +1.24076E+01 +1.83566E+00 +1.59408E+01 +8.13388E+00
 +1.15443E+01 +1.00109E+01 +5.75796E-01 +7.00222E+00 -1.34384E+01 -1.33675E-02 -2.57841E+01 -9.24839E+00
 -3.19623E+01 -1.85865E+01 -2.90924E+01 -2.61071E+01 -1.68714E+01 -3.04230E+01 +2.22452E+00 -3.07975E+01
 +2.35819E+01 -2.71000E+01 +4.17530E+01 -1.97001E+01 +5.20265E+01 -9.38533E+00 +5.17879E+01 +2.67205E+00
 +4.12528E+01 +1.49379E+01 +2.33583E+01 +2.56121E+01 +2.85885E+00 +3.28641E+01 -1.50806E+01 +3.52156E+01
 -2.63552E+01 +3.19890E+01 -2.90106E+01 +2.36688E+01 -2.36457E+01 +1.20060E+01 -1.30464E+01 -2.49160E-01
 -1.20767E+00 -9.98382E+00 +7.91819E+00 -1.45872E+01 +1.15553E+01 -1.27893E+01 +8.79151E+00 -5.18868E+00
 +6.60194E-01 +5.75059E+00 -1.03430E+01 +1.62954E+01 -2.10999E+01 +2.25038E+01 -2.87734E+01 +2.14474E+01
 -3.15051E+01 +1.22150E+01 -2.87387E+01 -3.64330E+00 -2.11477E+01 -2.24110E+01 -1.02711E+01 -3.91898E+01
 +1.96935E+00 -4.92989E+01 +1.37008E+01 -4.96685E+01 +2.33786E+01 -3.97923E+01 +2.98997E+01 -2.19346E+01
 +3.26094E+01 -5.11572E-01 +3.12886E+01 +1.91698E+01 +2.61783E+01 +3.24326E+01 +1.80397E+01 +3.65467E+01
 +8.18493E+00 +3.14435E+01 -1.61213E+00 +1.96257E+01 -9.38908E+00 +5.32048E+00 -1.34414E+01 -6.84211E+00
 -1.28385E+01 -1.32060E+01 -7.83718E+00 -1.21051E+01 -1.01498E-02 -4.23190E+00 +8.02521E+00 +7.71252E+00
 +1.32675E+01 +1.99331E+01 +1.32247E+01 +2.87042E+01 +6.77486E+00 +3.14164E+01 -5.30000E+00 +2.72078E+01
 -2.03261E+01 +1.70397E+01 -3.43538E+01 +3.25895E+00 -4.32393E+01 -1.11585E+01 -4.38827E+01 -2.34184E+01
 -3.52411E+01 -3.15337E+01 -1.87772E+01 -3.46233E+01 +1.83013E+00 -3.28722E+01 +2.16602E+01 -2.72497E+01
 +3.59328E+01 -1.91376E+01 +4.13837E+01 -1.00045E+01 +3.72092E+01 -1.20037E+00 +2.52817E+01 +6.13531E+00
 +9.56686E+00 +1.11131E+01 -5.08063E+00 +1.31545E+01 -1.43683E+01 +1.21065E+01 -1.58191E+01 +8.38229E+00
 -9.44743E+00 +3.04011E+00 +2.33213E+00 -2.29748E+00 +1.55110E+01 -5.74403E+00 +2.57370E+01 -5.64297E+00
 +2.96106E+01 -1.13145E+00 +2.56359E+01 +7.41572E+00 +1.45605E+01 +1.82528E+01 -9.55579E-01 +2.85550E+01
 -1.71947E+01 +3.51163E+01 -3.04635E+01 +3.52822E+01 -3.80641E+01 +2.78415E+01 -3.88843E+01 +1.35749E+01
 -3.34825E+01 -4.75658E+00 -2.37121E+01 -2.30387E+01 -1.20640E+01 -3.68989E+01 -9.64037E-01 -4.29580E+01
 +7.76675E+00 -3.98533E+01 +1.31719E+01 -2.87002E+01 +1.51390E+01 -1.28225E+01 +1.41882E+01 +3.19141E+00
 +1.12010E+01 +1.48317E+01 +7.19476E+00 +1.90023E+01 +3.19036E+00 +1.49352E+01 +1.48733E-01 +4.39813E+00
 -1.08868E+00 -8.86697E+00 +8.48339E-02 -2.03000E+01 +3.85830E+00 -2.59102E+01 +9.80647E+00 -2.34679E+01
 +1.67832E+01 -1.31409E+01 +2.30112E+01 +2.60060E+00 +2.64227E+01 +1.97573E+01 +2.52079E+01 +3.39897E+01
 +1.84316E+01 +4.18476E+01 +6.51036E+00 +4.16712E+01 -8.64721E+00 +3.39209E+01 -2.39514E+01 +2.08819E+01
 -3.58643E+01 +5.88651E+00 -4.13742E+01 -7.67162E+00 -3.89229E+01 -1.72210E+01 -2.89804E+01 -2.15511E+01
 -1.40483E+01 -2.08992E+01 +1.95626E+00 -1.66317E+01 +1.47867E+01 -1.06833E+01 +2.11080E+01 -4.96303E+00
