 Created: 16-Jan-2021
 $NMID
 ID='D:\BASISSIMULATI'
 FMTDAT='(8E13.5)'
 VOLUME=   1.00000E+00
 TRAMP=   1.00000E+00
 $END
 +6.34352E+01 +1.08696E+01 +4.93818E+01 +3.82121E+01 +2.40051E+01 +5.32290E+01 -3.40412E+00 +5.24115E+01
 -2.38037E+01 +3.84872E+01 -3.20745E+01 +1.86249E+01 -2.85653E+01 +8.72914E-01 -1.80055E+01 -9.31670E+00
 -6.62847E+00 -1.08430E+01 +8.58159E-01 -6.40150E+00 +2.95066E+00 -2.65704E-01 +1.07517E+00 +4.18114E+00
 -2.12135E+00 +5.83168E+00 -4.69823E+00 +5.61448E+00 -6.41102E+00 +5.08377E+00 -8.32207E+00 +4.91299E+00
 -1.14827E+01 +4.28994E+00 -1.56759E+01 +1.54533E+00 -1.90990E+01 -4.46871E+00 -1.92240E+01 -1.32004E+01
 -1.43077E+01 -2.22275E+01 -4.61169E+00 -2.82641E+01 +7.43652E+00 -2.87851E+01 +1.82767E+01 -2.33315E+01
 +2.48726E+01 -1.37456E+01 +2.60652E+01 -3.21348E+00 +2.28876E+01 +5.32378E+00 +1.77227E+01 +1.04854E+01
 +1.28476E+01 +1.27843E+01 +9.23379E+00 +1.38650E+01 +6.28114E+00 +1.51744E+01 +2.58258E+00 +1.69022E+01
 -2.80259E+00 +1.78355E+01 -9.38256E+00 +1.62050E+01 -1.51955E+01 +1.09962E+01 -1.77637E+01 +2.91663E+00
 -1.55087E+01 -5.59666E+00 -8.81648E+00 -1.13965E+01 -1.21546E-01 -1.21492E+01 +7.08019E+00 -7.54893E+00
 +9.79991E+00 +4.25940E-01 +6.90856E+00 +8.35500E+00 -3.92853E-01 +1.28801E+01 -9.17672E+00 +1.21201E+01
 -1.61098E+01 +6.33340E+00 -1.88117E+01 -2.40736E+00 -1.66248E+01 -1.12581E+01 -1.05379E+01 -1.77777E+01
 -2.46142E+00 -2.06772E+01 +5.66413E+00 -1.98979E+01 +1.24597E+01 -1.61699E+01 +1.72028E+01 -1.04407E+01
 +1.95646E+01 -3.54255E+00 +1.93162E+01 +3.77834E+00 +1.62865E+01 +1.06326E+01 +1.06118E+01 +1.58608E+01
 +3.06942E+00 +1.82286E+01 -4.81772E+00 +1.69184E+01 -1.10995E+01 +1.20508E+01 -1.40719E+01 +4.89357E+00
 -1.29938E+01 -2.44544E+00 -8.46632E+00 -7.76100E+00 -2.24562E+00 -9.59771E+00 +3.44923E+00 -7.79369E+00
 +6.80900E+00 -3.46128E+00 +7.07530E+00 +1.56651E+00 +4.67187E+00 +5.52978E+00 +8.21634E-01 +7.38369E+00
 -3.09734E+00 +7.01253E+00 -6.10355E+00 +4.99163E+00 -7.81896E+00 +2.11253E+00 -8.30723E+00 -1.02070E+00
 -7.73518E+00 -4.10931E+00 -6.12692E+00 -6.98828E+00 -3.38300E+00 -9.35357E+00 +4.63042E-01 -1.06345E+01
 +4.95382E+00 -1.01508E+01 +9.12577E+00 -7.49327E+00 +1.17581E+01 -2.90114E+00 +1.18698E+01 +2.62002E+00
 +9.21257E+00 +7.56543E+00 +4.48427E+00 +1.04930E+01 -8.82141E-01 +1.06156E+01 -5.27356E+00 +8.12775E+00
 -7.53457E+00 +4.09889E+00 -7.38236E+00 -9.88714E-03 -5.41206E+00 -2.96309E+00 -2.71922E+00 -4.20127E+00
 -3.55630E-01 -3.92752E+00 +1.09918E+00 -2.83269E+00 +1.65566E+00 -1.64593E+00 +1.70911E+00 -7.67501E-01
 +1.67351E+00 -1.67257E-01 +1.68589E+00 +4.35102E-01 +1.54831E+00 +1.25330E+00 +9.20644E-01 +2.19298E+00
 -3.72934E-01 +2.83763E+00 -2.12270E+00 +2.67035E+00 -3.74040E+00 +1.39871E+00 -4.50195E+00 -8.09476E-01
 -3.89793E+00 -3.31997E+00 -1.90509E+00 -5.26781E+00 +9.63090E-01 -5.91727E+00 +3.84948E+00 -4.96776E+00
 +5.88939E+00 -2.66330E+00 +6.52622E+00 +3.29689E-01 +5.67000E+00 +3.19688E+00 +3.65439E+00 +5.26221E+00
 +1.04965E+00 +6.16274E+00 -1.55450E+00 +5.86702E+00 -3.69543E+00 +4.57798E+00 -5.07767E+00 +2.60847E+00
 -5.54116E+00 +3.03509E-01 -5.02706E+00 -1.97288E+00 -3.59049E+00 -3.82697E+00 -1.45507E+00 -4.86273E+00
 +9.47625E-01 -4.78026E+00 +3.02172E+00 -3.51812E+00 +4.16192E+00 -1.36102E+00 +3.97815E+00 +1.07201E+00
 +2.49050E+00 +2.99567E+00 +1.86383E-01 +3.73835E+00 -2.11626E+00 +3.02008E+00 -3.56524E+00 +1.09732E+00
 -3.61250E+00 -1.30780E+00 -2.24532E+00 -3.28044E+00 -5.74079E-04 -4.07907E+00 +2.25313E+00 -3.43614E+00
 +3.67480E+00 -1.65984E+00 +3.79540E+00 +5.09054E-01 +2.69672E+00 +2.22114E+00 +9.49964E-01 +2.87854E+00
 -6.52871E-01 +2.37352E+00 -1.45065E+00 +1.10633E+00 -1.19254E+00 -2.16479E-01 -1.28086E-01 -9.06666E-01
 +1.12163E+00 -5.97417E-01 +1.84685E+00 +6.02302E-01 +1.56045E+00 +2.15951E+00 +2.08399E-01 +3.34400E+00
 -1.80047E+00 +3.53065E+00 -3.74860E+00 +2.45505E+00 -4.88060E+00 +3.27468E-01 -4.68599E+00 -2.23067E+00
 -3.09302E+00 -4.39803E+00 -5.10066E-01 -5.43493E+00 +2.29543E+00 -4.94059E+00 +4.44035E+00 -3.00326E+00
 +5.21582E+00 -1.94742E-01 +4.33429E+00 +2.59438E+00 +2.05277E+00 +4.43568E+00 -8.78011E-01 +4.67853E+00
 -3.43942E+00 +3.19846E+00 -4.68874E+00 +4.83351E-01 -4.11194E+00 -2.49550E+00 -1.85334E+00 -4.60927E+00
 +1.28532E+00 -4.99479E+00 +4.10858E+00 -3.41741E+00 +5.47927E+00 -4.14510E-01 +4.79023E+00 +2.86930E+00
 +2.25351E+00 +5.11974E+00 -1.13980E+00 +5.39957E+00 -4.00287E+00 +3.57143E+00 -5.13636E+00 +3.95548E-01
 -4.06203E+00 -2.76620E+00 -1.25995E+00 -4.53046E+00 +2.01524E+00 -4.10627E+00 +4.27272E+00 -1.66260E+00
 +4.44283E+00 +1.72635E+00 +2.35571E+00 +4.54066E+00 -1.17624E+00 +5.47257E+00 -4.70446E+00 +3.98557E+00
 -6.75340E+00 +5.30247E-01 -6.41502E+00 -3.65997E+00 -3.67679E+00 -7.07577E+00 +6.26202E-01 -8.50125E+00
 +5.16548E+00 -7.40874E+00 +8.59047E+00 -4.05764E+00 +9.91895E+00 +6.72390E-01 +8.73916E+00 +5.58109E+00
 +5.23463E+00 +9.44244E+00 +1.12640E-01 +1.12308E+01 -5.49924E+00 +1.02994E+01 -1.01968E+01 +6.55710E+00
 -1.25485E+01 +6.35118E-01 -1.14924E+01 -6.05922E+00 -6.81165E+00 -1.15455E+01 +5.14495E-01 -1.38073E+01
 +8.33659E+00 -1.15617E+01 +1.38912E+01 -4.96939E+00 +1.47955E+01 +4.09745E+00 +1.01188E+01 +1.24894E+01
 +1.02760E+00 +1.68819E+01 -9.39454E+00 +1.51540E+01 -1.72133E+01 +7.43513E+00 -1.92216E+01 -3.72102E+00
 -1.43512E+01 -1.42245E+01 -4.24625E+00 -2.00860E+01 +7.33295E+00 -1.91014E+01 +1.60622E+01 -1.18068E+01
 +1.88809E+01 -1.23650E+00 +1.52548E+01 +8.42498E+00 +7.29119E+00 +1.36762E+01 -1.33289E+00 +1.31597E+01
 -7.09221E+00 +8.08090E+00 -8.15134E+00 +1.43406E+00 -5.00225E+00 -3.52981E+00 +3.80864E-02 -4.81093E+00
 +4.13431E+00 -2.42085E+00 +5.33122E+00 +1.90379E+00 +3.34602E+00 +5.78054E+00 -5.68909E-01 +7.41968E+00
 -4.49981E+00 +6.37206E+00 -6.92166E+00 +3.47087E+00 -7.33846E+00 +1.27323E-01 -6.23337E+00 -2.51966E+00
 -4.48647E+00 -4.08315E+00 -2.72021E+00 -4.81484E+00 -1.02310E+00 -5.08451E+00 +8.00030E-01 -4.89947E+00
 +2.69447E+00 -3.86038E+00 +4.00503E+00 -1.62031E+00 +3.67250E+00 +1.48000E+00 +9.65054E-01 +4.12123E+00
 -3.68585E+00 +4.42226E+00 -8.35542E+00 +9.88218E-01 -1.02039E+01 -5.95270E+00 -6.85092E+00 -1.40557E+01
 +2.10229E+00 -1.94951E+01 +1.42792E+01 -1.86233E+01 +2.50745E+01 -9.92092E+00 +2.94916E+01 +4.78469E+00
 +2.45001E+01 +2.06069E+01 +1.07536E+01 +3.14542E+01 -7.27906E+00 +3.26920E+01 -2.29915E+01 +2.33619E+01
 -3.04372E+01 +6.83435E+00 -2.69601E+01 -1.05065E+01 -1.43925E+01 -2.19924E+01 +1.77002E+00 -2.35477E+01
 +1.48312E+01 -1.53635E+01 +1.98136E+01 -1.60913E+00 +1.54616E+01 +1.16157E+01 +4.44406E+00 +1.90402E+01
 -8.20609E+00 +1.83601E+01 -1.75290E+01 +1.08090E+01 -2.07078E+01 +6.80450E-02 -1.78315E+01 -9.75427E+00
 -1.11767E+01 -1.59513E+01 -3.61497E+00 -1.79773E+01 +2.86453E+00 -1.69421E+01 +7.73317E+00 -1.43742E+01
 +1.14488E+01 -1.11256E+01 +1.44361E+01 -7.09465E+00 +1.63251E+01 -1.83862E+00 +1.60195E+01 +4.46184E+00
 +1.25666E+01 +1.04644E+01 +6.21750E+00 +1.40517E+01 -1.12461E+00 +1.35129E+01 -6.53310E+00 +8.80941E+00
 -7.54856E+00 +2.05575E+00 -3.71148E+00 -3.25666E+00 +2.82902E+00 -4.02230E+00 +8.14992E+00 +6.54161E-01
 +8.53917E+00 +8.65297E+00 +2.61625E+00 +1.56546E+01 -7.61489E+00 +1.72930E+01 -1.74888E+01 +1.15674E+01
 -2.19415E+01 +1.87114E-01 -1.81964E+01 -1.19845E+01 -7.43764E+00 -1.92318E+01 +5.50227E+00 -1.79113E+01
 +1.43951E+01 -8.47509E+00 +1.47212E+01 +4.52355E+00 +6.03800E+00 +1.45334E+01 -7.63541E+00 +1.61991E+01
 -1.96632E+01 +8.03779E+00 -2.39591E+01 -6.76437E+00 -1.78878E+01 -2.18359E+01 -3.46457E+00 -3.06182E+01
 +1.36916E+01 -2.93626E+01 +2.70449E+01 -1.86626E+01 +3.20666E+01 -2.86489E+00 +2.79638E+01 +1.21916E+01
 +1.74896E+01 +2.18489E+01 +5.15716E+00 +2.43641E+01 -5.03782E+00 +2.09805E+01 -1.11551E+01 +1.45704E+01
 -1.34407E+01 +7.82178E+00 -1.32614E+01 +2.06148E+00 -1.17236E+01 -2.72260E+00 -8.93908E+00 -6.90752E+00
 -4.37463E+00 -1.01584E+01 +2.05237E+00 -1.11173E+01 +9.01047E+00 -8.17426E+00 +1.37541E+01 -8.60227E-01
 +1.33110E+01 +9.09554E+00 +6.27659E+00 +1.79012E+01 -5.85831E+00 +2.12121E+01 -1.87829E+01 +1.63395E+01
 -2.70407E+01 +3.95852E+00 -2.65771E+01 -1.17320E+01 -1.68542E+01 -2.46658E+01 -1.36023E+00 -2.96544E+01
 +1.38605E+01 -2.48518E+01 +2.29851E+01 -1.26493E+01 +2.31056E+01 +1.49641E+00 +1.54672E+01 +1.17205E+01
 +4.63407E+00 +1.45296E+01 -3.94641E+00 +1.02870E+01 -6.68327E+00 +2.68852E+00 -3.46186E+00 -3.41534E+00
 +2.63950E+00 -4.63655E+00 +7.28242E+00 -7.11798E-01 +7.33256E+00 +5.61400E+00 +2.50870E+00 +1.03144E+01
 -4.62063E+00 +1.03940E+01 -1.01913E+01 +5.50193E+00 -1.12133E+01 -1.98308E+00 -7.14216E+00 -8.34886E+00
 -4.18666E-02 -1.05725E+01 +6.64783E+00 -7.83423E+00 +9.96503E+00 -1.74684E+00 +8.84625E+00 +4.70788E+00
 +4.39001E+00 +8.83102E+00 -1.04898E+00 +9.47964E+00 -5.28664E+00 +7.30448E+00 -7.37675E+00 +3.95884E+00
 -7.74250E+00 +8.90558E-01 -7.42172E+00 -1.47900E+00 -7.02841E+00 -3.69848E+00 -6.17868E+00 -6.46590E+00
 -3.79236E+00 -9.66696E+00 +9.17840E-01 -1.19954E+01 +7.44060E+00 -1.15082E+01 +1.36771E+01 -6.85546E+00
 +1.66956E+01 +1.54972E+00 +1.42174E+01 +1.11982E+01 +6.03434E+00 +1.83267E+01 -5.48101E+00 +1.96042E+01
 -1.61590E+01 +1.38168E+01 -2.18021E+01 +2.64718E+00 -2.00808E+01 -9.91093E+00 -1.16041E+01 -1.92529E+01
 +3.71798E-01 -2.21502E+01 +1.14323E+01 -1.80557E+01 +1.79315E+01 -9.12960E+00 +1.84136E+01 +9.44437E-01
 +1.39013E+01 +8.68681E+00 +7.03889E+00 +1.22148E+01 +6.53507E-01 +1.16804E+01 -3.47897E+00 +8.69069E+00
 -5.08817E+00 +5.17742E+00 -5.00471E+00 +2.40382E+00 -4.29490E+00 +6.10087E-01 -3.52675E+00 -6.40164E-01
 -2.58729E+00 -1.77225E+00 -1.07119E+00 -2.68889E+00 +1.10993E+00 -2.77683E+00 +3.36608E+00 -1.39860E+00
 +4.59443E+00 +1.49281E+00 +3.78888E+00 +5.06081E+00 +7.09066E-01 +7.85003E+00 -3.82771E+00 +8.48710E+00
 -8.24448E+00 +6.41234E+00 -1.09461E+01 +2.20541E+00 -1.10866E+01 -2.69592E+00 -8.92688E+00 -6.72610E+00
 -5.58751E+00 -8.95105E+00 -2.36118E+00 -9.42614E+00 +8.38241E-04 -8.96845E+00 +1.60881E+00 -8.50932E+00
 +3.18961E+00 -8.43806E+00 +5.45007E+00 -8.34235E+00 +8.45719E+00 -7.30227E+00 +1.14310E+01 -4.55447E+00
