 Created: 16-Jan-2021
 $NMID
 ID='D:\BASISSIMULATI'
 FMTDAT='(8E13.5)'
 VOLUME=   1.00000E+00
 TRAMP=   1.00000E+00
 $END
 +3.46020E+01 +5.29797E+00 +2.99898E+01 +1.69150E+01 +2.14606E+01 +2.57059E+01 +1.05532E+01 +3.04105E+01
 -8.42836E-01 +3.05503E+01 -1.08626E+01 +2.64880E+01 -1.80230E+01 +1.93166E+01 -2.14887E+01 +1.06052E+01
 -2.11949E+01 +2.06031E+00 -1.78070E+01 -4.82519E+00 -1.25297E+01 -9.06072E+00 -6.81489E+00 -1.03265E+01
 -2.03063E+00 -8.99031E+00 +8.33347E-01 -5.97529E+00 +1.36363E+00 -2.51259E+00 -2.15934E-01 +1.62973E-01
 -3.12866E+00 +1.10590E+00 -6.25174E+00 -1.22456E-01 -8.39631E+00 -3.35772E+00 -8.59703E+00 -7.87601E+00
 -6.34682E+00 -1.25647E+01 -1.72594E+00 -1.61802E+01 +4.60177E+00 -1.76349E+01 +1.15228E+01 -1.62500E+01
 +1.77078E+01 -1.19185E+01 +2.18927E+01 -5.14535E+00 +2.31480E+01 +3.04409E+00 +2.10764E+01 +1.13057E+01
 +1.58998E+01 +1.82442E+01 +8.41764E+00 +2.26903E+01 -1.52223E-01 +2.39281E+01 -8.41481E+00 +2.18271E+01
 -1.50697E+01 +1.68540E+01 -1.91560E+01 +9.96406E+00 -2.02215E+01 +2.39839E+00 -1.83835E+01 -4.56744E+00
 -1.42717E+01 -9.87073E+00 -8.87237E+00 -1.28535E+01 -3.30736E+00 -1.33616E+01 +1.40094E+00 -1.17349E+01
 +4.52968E+00 -8.69606E+00 +5.77996E+00 -5.16540E+00 +5.30315E+00 -2.04658E+00 +3.62830E+00 -2.90886E-02
 +1.51149E+00 +5.49953E-01 -2.56345E-01 -2.42239E-01 -1.03914E+00 -1.97577E+00 -5.01026E-01 -3.97992E+00
 +1.32283E+00 -5.51494E+00 +4.04290E+00 -5.95364E+00 +7.01268E+00 -4.93202E+00 +9.48240E+00 -2.43655E+00
 +1.07736E+01 +1.18956E+00 +1.04349E+01 +5.32013E+00 +8.34615E+00 +9.18167E+00 +4.74803E+00 +1.20196E+01
 +1.94135E-01 +1.32585E+01 -4.56330E+00 +1.26213E+01 -8.72724E+00 +1.01842E+01 -1.16155E+01 +6.35629E+00
 -1.27922E+01 +1.79145E+00 -1.21449E+01 -2.74686E+00 -9.89223E+00 -6.53768E+00 -6.52510E+00 -9.03915E+00
 -2.69516E+00 -9.98169E+00 +9.22228E-01 -9.40074E+00 +3.76117E+00 -7.60547E+00 +5.46674E+00 -5.09381E+00
 +5.94536E+00 -2.43510E+00 +5.35690E+00 -1.47277E-01 +4.05414E+00 +1.40487E+00 +2.48627E+00 +2.06999E+00
 +1.09011E+00 +1.91891E+00 +1.93576E-01 +1.20385E+00 -4.80762E-02 +2.80574E-01 +3.28604E-01 -4.86312E-01
 +1.12175E+00 -8.12388E-01 +2.02716E+00 -5.57024E-01 +2.72088E+00 +2.51334E-01 +2.94106E+00 +1.43149E+00
 +2.55026E+00 +2.70105E+00 +1.56488E+00 +3.74921E+00 +1.46827E-01 +4.31253E+00 -1.43862E+00 +4.23605E+00
 -2.88711E+00 +3.50630E+00 -3.92552E+00 +2.25004E+00 -4.37180E+00 +7.00962E-01 -4.17102E+00 -8.56350E-01
 -3.40072E+00 -2.15088E+00 -2.24599E+00 -2.98282E+00 -9.52026E-01 -3.26144E+00 +2.33591E-01 -3.01574E+00
 +1.11483E+00 -2.37726E+00 +1.58497E+00 -1.54082E+00 +1.64064E+00 -7.14191E-01 +1.37038E+00 -6.91992E-02
 +9.22582E-01 +2.93912E-01 +4.62080E-01 +3.61441E-01 +1.26958E-01 +1.98334E-01 -3.64053E-03 -7.87968E-02
 +7.66604E-02 -3.39460E-01 +3.08259E-01 -4.77311E-01 +5.89823E-01 -4.38384E-01 +8.12434E-01 -2.32530E-01
 +8.93777E-01 +7.41893E-02 +8.02897E-01 +3.83245E-01 +5.68824E-01 +5.96340E-01 +2.70940E-01 +6.47599E-01
 +1.39160E-02 +5.26023E-01 -1.05646E-01 +2.81689E-01 -3.14782E-02 +1.35813E-02 +2.30486E-01 -1.58040E-01
 +6.07265E-01 -1.27515E-01 +9.73251E-01 +1.61746E-01 +1.18099E+00 +6.93868E-01 +1.10094E+00 +1.37527E+00
 +6.60112E-01 +2.05020E+00 -1.30743E-01 +2.53436E+00 -1.16918E+00 +2.65906E+00 -2.27577E+00 +2.31544E+00
 -3.22916E+00 +1.48750E+00 -3.81417E+00 +2.65122E-01 -3.87182E+00 -1.16728E+00 -3.33948E+00 -2.56510E+00
 -2.27091E+00 -3.67383E+00 -8.30544E-01 -4.28419E+00 +7.37595E-01 -4.27928E+00 +2.16020E+00 -3.66250E+00
 +3.19304E+00 -2.55909E+00 +3.67416E+00 -1.19018E+00 +3.55933E+00 +1.75400E-01 +2.93127E+00 +1.28090E+00
 +1.97975E+00 +1.93931E+00 +9.56745E-01 +2.07552E+00 +1.16505E-01 +1.74274E+00 -3.45602E-01 +1.10878E+00
 -3.41201E-01 +4.14785E-01 +8.77649E-02 -8.45184E-02 +7.76667E-01 -1.85427E-01 +1.47588E+00 +2.10462E-01
 +1.91061E+00 +1.06548E+00 +1.84944E+00 +2.20668E+00 +1.16595E+00 +3.35932E+00 -1.21454E-01 +4.20630E+00
 -1.84152E+00 +4.46109E+00 -3.69723E+00 +3.93767E+00 -5.32314E+00 +2.60152E+00 -6.36144E+00 +5.89299E-01
 -6.54017E+00 -1.80848E+00 -5.73654E+00 -4.19920E+00 -4.01067E+00 -6.16416E+00 -1.60169E+00 -7.34305E+00
 +1.11410E+00 -7.50860E+00 +3.69484E+00 -6.61530E+00 +5.71952E+00 -4.81112E+00 +6.87112E+00 -2.40928E+00
 +6.99848E+00 +1.74287E-01 +6.14385E+00 +2.50463E+00 +4.52990E+00 +4.21474E+00 +2.50940E+00 +5.07726E+00
 +4.88249E-01 +5.04556E+00 -1.16112E+00 +4.25553E+00 -2.17715E+00 +2.98823E+00 -2.46067E+00 +1.60173E+00
 -2.08934E+00 +4.47716E-01 -1.29231E+00 -2.08832E-01 -3.91067E-01 -2.48757E-01 +2.80063E-01 +2.76250E-01
 +4.55802E-01 +1.15831E+00 +5.63888E-03 +2.08429E+00 -1.03147E+00 +2.71164E+00 -2.45144E+00 +2.75196E+00
 -3.92790E+00 +2.04363E+00 -5.08408E+00 +5.96880E-01 -5.57829E+00 -1.39904E+00 -5.18392E+00 -3.60893E+00
 -3.84628E+00 -5.61808E+00 -1.70334E+00 -7.01807E+00 +9.34536E-01 -7.49354E+00 +3.64215E+00 -6.89107E+00
 +5.96225E+00 -5.25538E+00 +7.49614E+00 -2.82465E+00 +7.98294E+00 +1.39358E-02 +7.35081E+00 +2.79932E+00
 +5.72954E+00 +5.08630E+00 +3.42209E+00 +6.53116E+00 +8.41632E-01 +6.95523E+00 -1.57227E+00 +6.37358E+00
 -3.44040E+00 +4.98349E+00 -4.51536E+00 +3.11616E+00 -4.72306E+00 +1.16267E+00 -4.16646E+00 -5.09276E-01
 -3.09196E+00 -1.62991E+00 -1.82684E+00 -2.07757E+00 -7.02242E-01 -1.89460E+00 +2.11227E-02 -1.26658E+00
 +2.08326E-01 -4.70700E-01 -1.24844E-01 +1.94282E-01 -8.22063E-01 +4.80613E-01 -1.62852E+00 +2.50287E-01
 -2.25468E+00 -4.92763E-01 -2.44705E+00 -1.60369E+00 -2.04998E+00 -2.83017E+00 -1.04487E+00 -3.87027E+00
 +4.41780E-01 -4.44161E+00 +2.16279E+00 -4.34630E+00 +3.80159E+00 -3.51749E+00 +5.03886E+00 -2.03744E+00
 +5.61995E+00 -1.23435E-01 +5.40849E+00 +1.91489E+00 +4.41492E+00 +3.73748E+00 +2.79430E+00 +5.04149E+00
 +8.14468E-01 +5.62018E+00 -1.19805E+00 +5.40106E+00 -2.92246E+00 +4.45576E+00 -4.10473E+00 +2.98057E+00
 -4.60262E+00 +1.25280E+00 -4.40604E+00 -4.26968E-01 -3.62974E+00 -1.79407E+00 -2.48132E+00 -2.66795E+00
 -1.21246E+00 -2.97996E+00 -6.49650E-02 -2.77617E+00 +7.76957E-01 -2.19618E+00 +1.21823E+00 -1.43421E+00
 +1.26280E+00 -6.91936E-01 +1.00123E+00 -1.34081E-01 +5.80517E-01 +1.43928E-01 +1.64054E-01 +1.29855E-01
 -1.08478E-01 -1.11469E-01 -1.52325E-01 -4.61444E-01 +4.64992E-02 -7.81551E-01 +4.33216E-01 -9.49234E-01
 +9.02410E-01 -8.87392E-01 +1.32693E+00 -5.81073E-01 +1.59014E+00 -7.83486E-02 +1.61372E+00 +5.23780E-01
 +1.37484E+00 +1.10420E+00 +9.09417E-01 +1.54671E+00 +3.01449E-01 +1.76623E+00 -3.37952E-01 +1.72618E+00
 -8.96385E-01 +1.44371E+00 -1.28438E+00 +9.82320E-01 -1.45248E+00 +4.34611E-01 -1.39781E+00 -9.99435E-02
 -1.15938E+00 -5.36537E-01 -8.04564E-01 -8.20805E-01 -4.10616E-01 -9.35603E-01 -4.66536E-02 -8.98129E-01
 +2.39618E-01 -7.49262E-01 +4.27473E-01 -5.38879E-01 +5.20548E-01 -3.11678E-01 +5.37862E-01 -9.74698E-02
 +5.02029E-01 +9.16660E-02 +4.28788E-01 +2.57254E-01 +3.21377E-01 +4.05360E-01 +1.71593E-01 +5.36195E-01
 -3.28306E-02 +6.36404E-01 -2.97058E-01 +6.77273E-01 -6.08115E-01 +6.20270E-01 -9.28225E-01 +4.28994E-01
 -1.19574E+00 +8.43917E-02 -1.33484E+00 -4.01293E-01 -1.27268E+00 -9.76610E-01 -9.60054E-01 -1.55260E+00
 -3.90446E-01 -2.01539E+00 +3.88340E-01 -2.24805E+00 +1.27411E+00 -2.15742E+00 +2.12356E+00 -1.69958E+00
 +2.77746E+00 -8.97565E-01 +3.09296E+00 +1.54228E-01 +2.97609E+00 +1.30139E+00 +2.40680E+00 +2.35567E+00
 +1.44991E+00 +3.13119E+00 +2.48149E-01 +3.48326E+00 -1.00248E+00 +3.34107E+00 -2.09069E+00 +2.72614E+00
 -2.83350E+00 +1.75158E+00 -3.11570E+00 +6.01019E-01 -2.91601E+00 -5.09184E-01 -2.31315E+00 -1.37651E+00
 -1.46947E+00 -1.85746E+00 -5.94718E-01 -1.90075E+00 +1.02438E-01 -1.56025E+00 +4.64431E-01 -9.83566E-01
 +4.24679E-01 -3.77929E-01 +2.73539E-02 +3.98993E-02 -5.78699E-01 +9.85274E-02 -1.17189E+00 -2.81052E-01
 -1.50958E+00 -1.05798E+00 -1.38855E+00 -2.07125E+00 -7.00456E-01 -3.06848E+00 +5.31007E-01 -3.75883E+00
 +2.14112E+00 -3.87929E+00 +3.84731E+00 -3.26007E+00 +5.30126E+00 -1.87388E+00 +6.16012E+00 +1.43016E-01
 +6.16190E+00 +2.50446E+00 +5.18868E+00 +4.82200E+00 +3.30296E+00 +6.67770E+00 +7.47727E-01 +7.70778E+00
 -2.09156E+00 +7.67942E+00 -4.75657E+00 +6.54395E+00 -6.80378E+00 +4.45394E+00 -7.89212E+00 +1.73941E+00
 -7.85204E+00 -1.15328E+00 -6.72063E+00 -3.74780E+00 -4.73472E+00 -5.63180E+00 -2.28243E+00 -6.53850E+00
 +1.77122E-01 -6.39841E+00 +2.20921E+00 -5.34943E+00 +3.49350E+00 -3.70293E+00 +3.88920E+00 -1.87240E+00
 +3.46063E+00 -2.80123E-01 +2.45739E+00 +7.37884E-01 +1.25280E+00 +1.00759E+00 +2.53971E-01 +5.56030E-01
 -1.96738E-01 -3.95459E-01 +9.31767E-02 -1.48336E+00 +1.11441E+00 -2.28844E+00 +2.64963E+00 -2.43789E+00
 +4.31574E+00 -1.70034E+00 +5.64655E+00 -5.18942E-02 +6.19861E+00 +2.30263E+00 +5.65710E+00 +4.95971E+00
 +3.91836E+00 +7.39364E+00 +1.12957E+00 +9.06428E+00 -2.32457E+00 +9.53354E+00 -5.88721E+00 +8.56553E+00
 -8.93463E+00 +6.18801E+00 -1.08998E+01 +2.70080E+00 -1.13887E+01 -1.37228E+00 -1.02643E+01 -5.37926E+00
 -7.68024E+00 -8.66450E+00 -4.05523E+00 -1.06962E+01 +6.25144E-03 -1.11705E+01 +3.83171E+00 -1.00693E+01
 +6.81231E+00 -7.66103E+00 +8.52086E+00 -4.44187E+00 +8.79141E+00 -1.03138E+00 +7.74366E+00 +1.95616E+00
 +5.74726E+00 +4.03723E+00 +3.33387E+00 +4.95439E+00 +1.07626E+00 +4.72139E+00 -5.39249E-01 +3.60842E+00
 -1.21908E+00 +2.07108E+00 -9.24145E-01 +6.38941E-01 +1.26511E-01 -2.11622E-01 +1.51108E+00 -1.72085E-01
 +2.70728E+00 +8.21862E-01 +3.21893E+00 +2.56960E+00 +2.69878E+00 +4.64585E+00 +1.03989E+00 +6.49372E+00
 -1.58536E+00 +7.55078E+00 -4.74853E+00 +7.38062E+00 -7.84670E+00 +5.78091E+00 -1.02259E+01 +2.84359E+00
 -1.13205E+01 -1.04709E+00 -1.07779E+01 -5.27969E+00 -8.54335E+00 -9.13123E+00 -4.88285E+00 -1.19097E+01
 -3.41443E-01 -1.30938E+01 +4.35750E+00 -1.24398E+01 +8.45063E+00 -1.00340E+01 +1.12822E+01 -6.27807E+00
 +1.24305E+01 -1.81066E+00 +1.17857E+01 +2.61836E+00 +9.56554E+00 +6.29500E+00 +6.26279E+00 +8.67891E+00
 +2.53886E+00 +9.50294E+00 -9.15115E-01 +8.81444E+00 -3.51939E+00 +6.95027E+00 -4.91931E+00 +4.45191E+00
 -5.04770E+00 +1.93996E+00 -4.12362E+00 -2.46016E-02 -2.58873E+00 -1.06198E+00 -9.96249E-01 -1.05183E+00
