 Created: 16-Jan-2021
 $NMID
 ID='D:\BASISSIMULATI'
 FMTDAT='(8E13.5)'
 VOLUME=   1.00000E+00
 TRAMP=   1.00000E+00
 $END
 +4.92619E+01 +9.45767E+00 +3.18287E+01 +3.83128E+01 +1.64851E-01 +4.84572E+01 -2.93554E+01 +3.56279E+01
 -4.22786E+01 +7.91572E+00 -3.40012E+01 -1.93441E+01 -1.16243E+01 -3.26084E+01 +1.10762E+01 -2.75320E+01
 +2.21548E+01 -1.04378E+01 +1.81481E+01 +6.60568E+00 +5.02109E+00 +1.36262E+01 -6.67401E+00 +8.50214E+00
 -8.94172E+00 -2.70624E+00 -1.16389E+00 -1.05587E+01 +1.01959E+01 -8.71275E+00 +1.63663E+01 +2.12834E+00
 +1.21386E+01 +1.50579E+01 -9.33715E-01 +2.16631E+01 -1.57641E+01 +1.73285E+01 -2.42361E+01 +3.83320E+00
 -2.19322E+01 -1.20626E+01 -1.02502E+01 -2.27529E+01 +4.99101E+00 -2.38753E+01 +1.71236E+01 -1.60157E+01
 +2.19729E+01 -3.49283E+00 +1.91551E+01 +8.47509E+00 +1.11327E+01 +1.62434E+01 +1.23531E+00 +1.85890E+01
 -7.84808E+00 +1.60488E+01 -1.44027E+01 +9.83072E+00 -1.72615E+01 +1.30752E+00 -1.55553E+01 -7.75347E+00
 -9.16839E+00 -1.49170E+01 +4.66252E-01 -1.75527E+01 +1.01673E+01 -1.41346E+01 +1.60496E+01 -5.54396E+00
 +1.54944E+01 +4.76102E+00 +8.83890E+00 +1.22109E+01 -4.86414E-01 +1.35685E+01 -7.72843E+00 +8.84632E+00
 -9.54228E+00 +1.35851E+00 -5.96801E+00 -4.28611E+00 -3.13695E-01 -5.05740E+00 +3.06657E+00 -1.39417E+00
 +1.69964E+00 +3.16760E+00 -3.30018E+00 +4.44277E+00 -7.91832E+00 +5.42330E-01 -7.93203E+00 -6.64165E+00
 -1.87578E+00 -1.24529E+01 +7.67806E+00 -1.24063E+01 +1.54264E+01 -5.18855E+00 +1.64769E+01 +6.21210E+00
 +9.38619E+00 +1.60170E+01 -2.79500E+00 +1.89253E+01 -1.41247E+01 +1.31636E+01 -1.90499E+01 +1.49844E+00
 -1.54081E+01 -1.03421E+01 -5.42856E+00 -1.68318E+01 +5.72642E+00 -1.55109E+01 +1.28865E+01 -7.96554E+00
 +1.35039E+01 +1.45606E+00 +8.56839E+00 +8.23588E+00 +1.51563E+00 +9.99614E+00 -3.98236E+00 +7.29473E+00
 -5.94796E+00 +2.70786E+00 -4.72523E+00 -9.91265E-01 -2.19789E+00 -2.36519E+00 -3.25942E-01 -1.74347E+00
 +1.08388E-02 -5.35932E-01 -7.49138E-01 -7.50642E-02 -1.46735E+00 -7.82864E-01 -1.21299E+00 -2.09301E+00
 +1.58332E-01 -3.00473E+00 +2.03183E+00 -2.78562E+00 +3.50522E+00 -1.36403E+00 +3.91155E+00 +7.40150E-01
 +3.07893E+00 +2.77196E+00 +1.27519E+00 +4.08881E+00 -9.96843E-01 +4.31879E+00 -3.16200E+00 +3.35670E+00
 -4.63864E+00 +1.33790E+00 -4.89882E+00 -1.32634E+00 -3.62884E+00 -3.91495E+00 -9.68708E-01 -5.51102E+00
 +2.34101E+00 -5.33439E+00 +5.09994E+00 -3.17587E+00 +6.11752E+00 +3.33645E-01 +4.81439E+00 +3.85791E+00
 +1.61066E+00 +5.91351E+00 -2.17360E+00 +5.59471E+00 -4.91348E+00 +3.06292E+00 -5.47429E+00 -5.00460E-01
 -3.77077E+00 -3.48009E+00 -7.74977E-01 -4.63827E+00 +2.02778E+00 -3.70462E+00 +3.42074E+00 -1.42861E+00
 +3.03679E+00 +9.05144E-01 +1.43698E+00 +2.19613E+00 -3.11431E-01 +2.06851E+00 -1.27448E+00 +9.55673E-01
 -1.13185E+00 -2.64929E-01 -2.52225E-01 -8.28540E-01 +6.24515E-01 -4.96896E-01 +8.67601E-01 +3.81816E-01
 +3.08090E-01 +1.15075E+00 -7.13144E-01 +1.25834E+00 -1.58460E+00 +5.62362E-01 -1.78013E+00 -6.22701E-01
 -1.12849E+00 -1.72085E+00 +1.24910E-01 -2.19586E+00 +1.45855E+00 -1.79709E+00 +2.31850E+00 -6.49719E-01
 +2.34501E+00 +8.18885E-01 +1.49998E+00 +2.05770E+00 +7.01745E-02 +2.59685E+00 -1.43713E+00 +2.21347E+00
 -2.46907E+00 +1.01561E+00 -2.62466E+00 -5.81010E-01 -1.81530E+00 -1.98747E+00 -3.24678E-01 -2.65757E+00
 +1.27540E+00 -2.31373E+00 +2.34360E+00 -1.08580E+00 +2.44412E+00 +5.16626E-01 +1.55491E+00 +1.81054E+00
 +9.76532E-02 +2.24651E+00 -1.24562E+00 +1.67380E+00 -1.85688E+00 +4.24733E-01 -1.49225E+00 -8.40908E-01
 -4.14555E-01 -1.46877E+00 +7.34997E-01 -1.15657E+00 +1.27585E+00 -1.29016E-01 +8.68419E-01 +9.66946E-01
 -2.71445E-01 +1.41040E+00 -1.45744E+00 +8.23367E-01 -1.89580E+00 -5.73266E-01 -1.14575E+00 -2.02567E+00
 +5.76522E-01 -2.62921E+00 +2.44069E+00 -1.83993E+00 +3.40349E+00 +1.64216E-01 +2.77562E+00 +2.49460E+00
 +6.48070E-01 +3.96593E+00 -2.07658E+00 +3.71618E+00 -4.09916E+00 +1.70104E+00 -4.38634E+00 -1.22316E+00
 -2.72796E+00 -3.70026E+00 +1.24591E-01 -4.56168E+00 +2.83083E+00 -3.43240E+00 +4.15239E+00 -9.20756E-01
 +3.58676E+00 +1.71704E+00 +1.59559E+00 +3.25198E+00 -6.92840E-01 +3.12024E+00 -2.12917E+00 +1.67150E+00
 -2.16483E+00 -9.82358E-02 -1.10085E+00 -1.15845E+00 +1.61760E-01 -1.03772E+00 +7.04901E-01 -5.88935E-02
 +1.57776E-01 +9.05450E-01 -1.08504E+00 +9.96878E-01 -2.10806E+00 -8.40129E-02 -2.02877E+00 -1.86661E+00
 -5.38514E-01 -3.34681E+00 +1.87112E+00 -3.53113E+00 +4.11345E+00 -1.98825E+00 +5.02710E+00 +8.79798E-01
 +3.94366E+00 +3.97441E+00 +1.03209E+00 +5.96664E+00 -2.72551E+00 +5.87158E+00 -5.90205E+00 +3.48466E+00
 -7.18033E+00 -4.88074E-01 -5.88407E+00 -4.65004E+00 -2.29290E+00 -7.41044E+00 +2.38407E+00 -7.59519E+00
 +6.40276E+00 -4.95881E+00 +8.14723E+00 -3.81989E-01 +6.83064E+00 +4.38514E+00 +2.92509E+00 +7.40691E+00
 -1.93954E+00 +7.42940E+00 -5.65758E+00 +4.52751E+00 -6.65313E+00 +1.51699E-01 -4.71164E+00 -3.54826E+00
 -1.14186E+00 -4.84668E+00 +1.91625E+00 -3.41884E+00 +2.73067E+00 -5.67639E-01 +1.06763E+00 +1.52987E+00
 -1.57219E+00 +1.19946E+00 -2.82912E+00 -1.53942E+00 -1.04308E+00 -4.77259E+00 +3.44300E+00 -5.74932E+00
 +8.13913E+00 -2.67769E+00 +9.69323E+00 +3.82567E+00 +5.97385E+00 +1.06413E+01 -2.28999E+00 +1.36734E+01
 -1.14315E+01 +1.02470E+01 -1.65923E+01 +9.76182E-01 -1.44268E+01 -1.01302E+01 -5.21052E+00 -1.75807E+01
 +6.98291E+00 -1.73643E+01 +1.62887E+01 -9.27334E+00 +1.81881E+01 +2.82702E+00 +1.19814E+01 +1.30307E+01
 +1.13403E+00 +1.65979E+01 -8.72837E+00 +1.24800E+01 -1.29958E+01 +3.69056E+00 -1.05363E+01 -4.65470E+00
 -4.01292E+00 -8.40205E+00 +2.04899E+00 -6.65381E+00 +4.16892E+00 -1.94184E+00 +1.95956E+00 +1.71829E+00
 -1.91651E+00 +1.57067E+00 -3.75220E+00 -2.11362E+00 -1.39451E+00 -6.33345E+00 +4.26079E+00 -7.44947E+00
 +9.80716E+00 -3.66281E+00 +1.14922E+01 +3.72274E+00 +7.58318E+00 +1.10188E+01 -5.53619E-01 +1.43261E+01
 -9.25635E+00 +1.17549E+01 -1.46374E+01 +4.35474E+00 -1.45791E+01 -4.66879E+00 -9.51207E+00 -1.17784E+01
 -1.73706E+00 -1.47539E+01 +6.00706E+00 -1.32695E+01 +1.16999E+01 -8.36978E+00 +1.43303E+01 -1.54775E+00
 +1.35219E+01 +5.78043E+00 +9.19313E+00 +1.21730E+01 +1.76466E+00 +1.58949E+01 -7.25021E+00 +1.51690E+01
 -1.50173E+01 +9.16071E+00 -1.81850E+01 -8.89779E-01 -1.46214E+01 -1.14202E+01 -5.08117E+00 -1.78310E+01
 +6.50492E+00 -1.68948E+01 +1.47269E+01 -8.88313E+00 +1.56626E+01 +2.13395E+00 +9.33594E+00 +1.03561E+01
 -6.26672E-02 +1.16618E+01 -6.62375E+00 +6.24318E+00 -6.48235E+00 -1.38520E+00 -4.83515E-01 -5.26920E+00
 +6.16781E+00 -2.09390E+00 +7.31223E+00 +6.22847E+00 +2.40289E-01 +1.33900E+01 -1.18472E+01 +1.27063E+01
 -2.12209E+01 +1.88815E+00 -2.03136E+01 -1.46170E+01 -6.90214E+00 -2.75542E+01 +1.36188E+01 -2.82175E+01
 +3.06419E+01 -1.40541E+01 +3.42857E+01 +9.07106E+00 +2.13717E+01 +2.96331E+01 -2.28517E+00 +3.68132E+01
 -2.48484E+01 +2.67254E+01 -3.50494E+01 +4.71729E+00 -2.84783E+01 -1.76989E+01 -9.81470E+00 -2.94427E+01
 +1.02693E+01 -2.59978E+01 +2.15230E+01 -1.14380E+01 +1.98686E+01 +4.68673E+00 +9.06464E+00 +1.34498E+01
 -2.46749E+00 +1.17365E+01 -7.36249E+00 +3.39869E+00 -3.82425E+00 -4.04266E+00 +3.82419E+00 -4.72815E+00
 +8.61258E+00 +1.73589E+00 +5.88956E+00 +1.03518E+01 -3.54893E+00 +1.43794E+01 -1.40960E+01 +9.95524E+00
 -1.90909E+01 -1.38400E+00 -1.50691E+01 -1.37707E+01 -3.75288E+00 -2.07299E+01 +9.28982E+00 -1.89800E+01
 +1.81399E+01 -9.92519E+00 +1.97379E+01 +1.80139E+00 +1.48598E+01 +1.13914E+01 +6.65546E+00 +1.63029E+01
 -1.77594E+00 +1.66465E+01 -8.87858E+00 +1.37667E+01 -1.43292E+01 +8.57221E+00 -1.76443E+01 +1.13344E+00
 -1.73120E+01 -8.20477E+00 -1.15451E+01 -1.73965E+01 -2.60433E-01 -2.25941E+01 +1.33923E+01 -2.00338E+01
 +2.36080E+01 -8.87255E+00 +2.48338E+01 +7.14056E+00 +1.53732E+01 +2.08101E+01 -8.20571E-01 +2.52565E+01
 -1.57654E+01 +1.81197E+01 -2.18802E+01 +3.38811E+00 -1.65752E+01 -1.06538E+01 -3.97206E+00 -1.63553E+01
 +7.59407E+00 -1.14599E+01 +1.08878E+01 -5.42466E-01 +4.52122E+00 +7.99393E+00 -6.05157E+00 +7.55985E+00
 -1.21233E+01 -2.00394E+00 -7.69844E+00 -1.39861E+01 +6.06778E+00 -1.90384E+01 +2.10176E+01 -1.14805E+01
 +2.68751E+01 +6.42402E+00 +1.78932E+01 +2.51588E+01 -2.98896E+00 +3.34195E+01 -2.52688E+01 +2.50566E+01
 -3.67767E+01 +3.15459E+00 -3.08045E+01 -2.13789E+01 -1.01064E+01 -3.59356E+01 +1.46612E+01 -3.33446E+01
 +3.10595E+01 -1.57389E+01 +3.17959E+01 +7.05393E+00 +1.83462E+01 +2.34183E+01 -6.63951E-01 +2.64424E+01
 -1.49902E+01 +1.71521E+01 -1.86311E+01 +2.86809E+00 -1.25284E+01 -7.86017E+00 -2.84726E+00 -1.03529E+01
 +3.60011E+00 -5.85992E+00 +3.63915E+00 +2.93762E-01 -8.91576E-01 +2.82037E+00 -5.15881E+00 -3.88797E-02
 -5.02356E+00 -5.78882E+00 +1.85436E-01 -9.83988E+00 +7.49662E+00 -8.79735E+00 +1.25116E+01 -2.60991E+00
 +1.22783E+01 +5.66218E+00 +6.89286E+00 +1.19837E+01 -9.88217E-01 +1.37372E+01 -8.04517E+00 +1.08178E+01
 -1.21050E+01 +5.01334E+00 -1.27222E+01 -1.50190E+00 -1.05015E+01 -7.28046E+00 -6.09174E+00 -1.16240E+01
 +1.36182E-01 -1.38668E+01 +7.49557E+00 -1.29164E+01 +1.42001E+01 -7.76922E+00 +1.74315E+01 +1.23905E+00
 +1.46735E+01 +1.15322E+01 +5.61614E+00 +1.88141E+01 -6.78169E+00 +1.91353E+01 -1.71642E+01 +1.13918E+01
 -2.04407E+01 -1.44000E+00 -1.47638E+01 -1.34270E+01 -2.90090E+00 -1.87761E+01 +9.06726E+00 -1.51361E+01
 +1.51255E+01 -5.02792E+00 +1.27822E+01 +5.60548E+00 +4.44973E+00 +1.09370E+01 -4.16245E+00 +8.71977E+00
 -7.66969E+00 +1.50718E+00 -4.37300E+00 -5.14713E+00 +2.76983E+00 -6.36258E+00 +8.17413E+00 -1.13137E+00
 +7.35250E+00 +7.00296E+00 -5.58182E-02 +1.22228E+01 -9.89133E+00 +1.02179E+01 -1.59775E+01 +1.06876E+00
 -1.39519E+01 -1.05905E+01 -4.03942E+00 -1.82368E+01 +8.93423E+00 -1.73008E+01 +1.82653E+01 -7.85339E+00
 +1.91551E+01 +5.44102E+00 +1.13050E+01 +1.59855E+01 -1.11775E+00 +1.88737E+01 -1.19625E+01 +1.33580E+01
 -1.64476E+01 +2.86860E+00 -1.34425E+01 -7.19868E+00 -5.54339E+00 -1.24644E+01 +2.81433E+00 -1.15914E+01
 +7.89813E+00 -6.39366E+00 +8.38818E+00 -2.83494E-01 +5.47992E+00 +3.80065E+00 +1.64310E+00 +4.75481E+00
 -9.93694E-01 +3.36904E+00 -1.65618E+00 +1.35611E+00 -9.22606E-01 +1.46016E-01 +2.24275E-02 +1.83689E-01
