 Created: 16-Jan-2021
 $NMID
 ID='D:\BASISSIMULATI'
 FMTDAT='(8E13.5)'
 VOLUME=   1.00000E+00
 TRAMP=   1.00000E+00
 $END
 +7.73085E+01 +1.23468E+01 +7.03653E+01 +3.27674E+01 +5.65799E+01 +4.95804E+01 +3.76573E+01 +6.07163E+01
 +1.59313E+01 +6.48621E+01 -5.96046E+00 +6.16306E+01 -2.54381E+01 +5.15960E+01 -4.03247E+01 +3.61916E+01
 -4.91253E+01 +1.74890E+01 -5.11987E+01 -2.10579E+00 -4.68030E+01 -2.01930E+01 -3.70104E+01 -3.47034E+01
 -2.35114E+01 -4.41608E+01 -8.34133E+00 -4.78455E+01 +6.42633E+00 -4.58403E+01 +1.89712E+01 -3.89591E+01
 +2.79606E+01 -2.85742E+01 +3.26958E+01 -1.63758E+01 +3.31523E+01 -4.10425E+00 +2.99180E+01 +6.70372E+00
 +2.40437E+01 +1.49160E+01 +1.68365E+01 +1.99276E+01 +9.63368E+00 +2.16915E+01 +3.59057E+00 +2.06606E+01
 -4.81981E-01 +1.76578E+01 -2.21173E+00 +1.36996E+01 -1.68025E+00 +9.80652E+00 +6.36207E-01 +6.82962E+00
 +3.98465E+00 +5.32182E+00 +7.48851E+00 +5.46904E+00 +1.03085E+01 +7.08822E+00 +1.17852E+01 +9.68694E+00
 +1.15414E+01 +1.25702E+01 +9.53199E+00 +1.49738E+01 +6.03708E+00 +1.62008E+01 +1.60310E+00 +1.57402E+01
 -3.05406E+00 +1.33499E+01 -7.16732E+00 +9.09382E+00 -1.00385E+01 +3.33160E+00 -1.11424E+01 -3.33567E+00
 -1.02012E+01 -1.01519E+01 -7.22077E+00 -1.63109E+01 -2.48652E+00 -2.10638E+01 +3.47790E+00 -2.38153E+01
 +9.98073E+00 -2.41957E+01 +1.62506E+01 -2.21038E+01 +2.15313E+01 -1.77147E+01 +2.51715E+01 -1.14561E+01
 +2.66987E+01 -3.95705E+00 +2.58720E+01 +4.02420E+00 +2.27073E+01 +1.16835E+01 +1.74747E+01 +1.82573E+01
 +1.06693E+01 +2.31022E+01 +2.95866E+00 +2.57621E+01 -4.88734E+00 +2.60138E+01 -1.20773E+01 +2.38898E+01
 -1.78821E+01 +1.96734E+01 -2.17127E+01 +1.38681E+01 -2.31848E+01 +7.14246E+00 -2.21624E+01 +2.57026E-01
 -1.87746E+01 -6.02072E+00 -1.34039E+01 -1.10035E+01 -6.64453E+00 -1.41637E+01 +7.64229E-01 -1.51953E+01
 +8.02314E+00 -1.40505E+01 +1.43669E+01 -1.09446E+01 +1.91551E+01 -6.32869E+00 +2.19481E+01 -8.30934E-01
 +2.25578E+01 +4.82462E+00 +2.10662E+01 +9.91302E+00 +1.78080E+01 +1.38035E+01 +1.33191E+01 +1.60420E+01
 +8.25880E+00 +1.64083E+01 +3.31582E+00 +1.49412E+01 -8.88515E-01 +1.19258E+01 -3.88490E+00 +7.84638E+00
 -5.41674E+00 +3.31034E+00 -5.46763E+00 -1.04359E+00 -4.25182E+00 -4.64045E+00 -2.16953E+00 -7.05209E+00
 +2.65481E-01 -8.05572E+00 +2.51439E+00 -7.65906E+00 +4.10359E+00 -6.08876E+00 +4.70228E+00 -3.74436E+00
 +4.17498E+00 -1.12562E+00 +2.60091E+00 +1.25453E+00 +2.57263E-01 +2.95728E+00 -2.43046E+00 +3.69115E+00
 -4.96255E+00 +3.35939E+00 -6.85150E+00 +2.07395E+00 -7.70619E+00 +1.34239E-01 -7.30030E+00 -2.02578E+00
 -5.61375E+00 -3.91311E+00 -2.84040E+00 -5.06149E+00 +6.39092E-01 -5.11327E+00 +4.31484E+00 -3.88421E+00
 +7.62659E+00 -1.40059E+00 +1.00512E+01 +2.09713E+00 +1.11852E+01 +6.18498E+00 +1.08091E+01 +1.03154E+01
 +8.92431E+00 +1.38973E+01 +5.75618E+00 +1.63840E+01 +1.72370E+00 +1.73555E+01 -2.61986E+00 +1.65823E+01
 -6.66610E+00 +1.40627E+01 -9.83860E+00 +1.00269E+01 -1.16751E+01 +4.90763E+00 -1.18931E+01 -7.16699E-01
 -1.04290E+01 -6.19942E+00 -7.44731E+00 -1.09115E+01 -3.31652E+00 -1.43240E+01 +1.44146E+00 -1.60754E+01
 +6.22271E+00 -1.60157E+01 +1.04223E+01 -1.42206E+01 +1.35137E+01 -1.09758E+01 +1.51163E+01 -6.73407E+00
 +1.50410E+01 -2.05157E+00 +1.33106E+01 +2.48721E+00 +1.01505E+01 +6.34543E+00 +5.95420E+00 +9.10067E+00
 +1.22737E+00 +1.04940E+01 -3.48001E+00 +1.04557E+01 -7.64515E+00 +9.10445E+00 -1.08373E+01 +6.72235E+00
 -1.27680E+01 +3.70884E+00 -1.33205E+01 +5.21258E-01 -1.25553E+01 -2.38972E+00 -1.06923E+01 -4.64087E+00
 -8.07232E+00 -5.96545E+00 -5.10454E+00 -6.24411E+00 -2.20704E+00 -5.51430E+00 +2.50893E-01 -3.95750E+00
 +1.99704E+00 -1.86686E+00 +2.88872E+00 +3.99798E-01 +2.92545E+00 +2.47443E+00 +2.24067E+00 +4.03299E+00
 +1.07430E+00 +4.84171E+00 -2.69427E-01 +4.78898E+00 -1.47233E+00 +3.89868E+00 -2.25352E+00 +2.32328E+00
 -2.41382E+00 +3.18202E-01 -1.86708E+00 -1.79874E+00 -6.53741E-01 -3.69655E+00 +1.06497E+00 -5.08169E+00
 +3.03145E+00 -5.74268E+00 +4.93092E+00 -5.58212E+00 +6.43955E+00 -4.63154E+00 +7.27441E+00 -3.04679E+00
 +7.23789E+00 -1.08498E+00 +6.24978E+00 +9.33923E-01 +4.36254E+00 +2.67487E+00 +1.75719E+00 +3.83809E+00
 -1.27957E+00 +4.20443E+00 -4.39376E+00 +3.66918E+00 -7.21261E+00 +2.25928E+00 -9.39607E+00 +1.31454E-01
 -1.06841E+01 -2.44857E+00 -1.09328E+01 -5.14275E+00 -1.01344E+01 -7.58807E+00 -8.41820E+00 -9.44784E+00
 -6.03218E+00 -1.04595E+01 -3.30837E+00 -1.04725E+01 -6.16351E-01 -9.46966E+00 +1.68813E+00 -7.57148E+00
 +3.31242E+00 -5.01954E+00 +4.06705E+00 -2.14405E+00 +3.89122E+00 +6.81500E-01 +2.85994E+00 +3.09159E+00
 +1.17207E+00 +4.77895E+00 -8.79152E-01 +5.53675E+00 -2.94903E+00 +5.28688E+00 -4.69156E+00 +4.09036E+00
 -5.81005E+00 +2.13831E+00 -6.10085E+00 -2.75274E-01 -5.48420E+00 -2.79527E+00 -4.01753E+00 -5.05598E+00
 -1.88932E+00 -6.73348E+00 +6.06009E-01 -7.59238E+00 +3.10888E+00 -7.52050E+00 +5.24540E+00 -6.54612E+00
 +6.68145E+00 -4.83537E+00 +7.17213E+00 -2.66963E+00 +6.59958E+00 -4.05752E-01 +4.99347E+00 +1.57533E+00
 +2.53073E+00 +2.92473E+00 -4.85908E-01 +3.37819E+00 -3.66800E+00 +2.79761E+00 -6.59475E+00 +1.19499E+00
 -8.87233E+00 -1.26498E+00 -1.01906E+01 -4.28480E+00 -1.03686E+01 -7.47404E+00 -9.38285E+00 -1.04039E+01
 -7.37219E+00 -1.26688E+01 -4.61964E+00 -1.39458E+01 -1.51250E+00 -1.40428E+01 +1.51349E+00 -1.29292E+01
 +4.03773E+00 -1.07419E+01 +5.71673E+00 -7.76716E+00 +6.33488E+00 -4.40017E+00 +5.83618E+00 -1.08740E+00
 +4.33181E+00 +1.73865E+00 +2.08208E+00 +3.72297E+00 -5.44531E-01 +4.63974E+00 -3.12917E+00 +4.42414E+00
 -5.26805E+00 +3.17926E+00 -6.63532E+00 +1.15685E+00 -7.03333E+00 -1.28495E+00 -6.42214E+00 -3.74023E+00
 -4.92369E+00 -5.82075E+00 -2.79989E+00 -7.21768E+00 -4.08236E-01 -7.74958E+00 +1.85752E+00 -7.38890E+00
 +3.63210E+00 -6.26284E+00 +4.63788E+00 -4.62857E+00 +4.72899E+00 -2.82730E+00 +3.91301E+00 -1.22491E+00
 +2.34703E+00 -1.49391E-01 +3.08965E-01 +1.64438E-01 -1.85064E+00 -3.86262E-01 -3.76798E+00 -1.75635E+00
 -5.12634E+00 -3.76185E+00 -5.70715E+00 -6.11220E+00 -5.42344E+00 -8.45979E+00 -4.33034E+00 -1.04579E+01
 -2.61155E+00 -1.18170E+01 -5.44675E-01 -1.23499E+01 +1.54790E+00 -1.19988E+01 +3.35373E+00 -1.08390E+01
 +4.62091E+00 -9.06082E+00 +5.19608E+00 -6.93340E+00 +5.04361E+00 -4.75651E+00 +4.24363E+00 -2.81050E+00
 +2.97010E+00 -1.31258E+00 +1.45408E+00 -3.87068E-01 -6.06619E-02 -5.40565E-02 -1.36095E+00 -2.37510E-01
 -2.29872E+00 -7.90125E-01 -2.81081E+00 -1.52927E+00 -2.92101E+00 -2.27652E+00 -2.72532E+00 -2.89303E+00
 -2.36394E+00 -3.30400E+00 -1.98655E+00 -3.50808E+00 -1.71784E+00 -3.57063E+00 -1.63054E+00 -3.60295E+00
 -1.73087E+00 -3.73229E+00 -1.95911E+00 -4.06935E+00 -2.20447E+00 -4.67988E+00 -2.33099E+00 -5.56633E+00
 -2.20863E+00 -6.66309E+00 -1.74324E+00 -7.84602E+00 -8.99155E-01 -8.95423E+00 +2.89968E-01 -9.81936E+00
 +1.72408E+00 -1.02966E+01 +3.25252E+00 -1.02910E+01 +4.69935E+00 -9.77443E+00 +5.89278E+00 -8.78977E+00
 +6.69310E+00 -7.44223E+00 +7.01352E+00 -5.88010E+00 +6.83033E+00 -4.26914E+00 +6.18105E+00 -2.76609E+00
 +5.15187E+00 -1.49661E+00 +3.85762E+00 -5.41854E-01 +2.41943E+00 +6.45116E-02 +9.44949E-01 +3.29017E-01
 -4.84463E-01 +2.83779E-01 -1.81712E+00 -3.11542E-02 -3.02499E+00 -5.83501E-01 -4.09051E+00 -1.35810E+00
 -4.99050E+00 -2.35713E+00 -5.68213E+00 -3.59086E+00 -6.09585E+00 -5.06092E+00 -6.13843E+00 -6.74049E+00
 -5.70712E+00 -8.55682E+00 -4.71306E+00 -1.03816E+01 -3.10950E+00 -1.20338E+01 -9.18855E-01 -1.32961E+01
 +1.74843E+00 -1.39445E+01 +4.68861E+00 -1.37870E+01 +7.61689E+00 -1.27041E+01 +1.01973E+01 -1.06832E+01
 +1.20873E+01 -7.84027E+00 +1.29899E+01 -4.42134E+00 +1.27063E+01 -7.82521E-01 +1.11770E+01 +2.65133E+00
 +8.50572E+00 +5.44356E+00 +4.95824E+00 +7.21002E+00 +9.35859E-01 +7.68020E+00 -3.07501E+00 +6.74470E+00
 -6.56937E+00 +4.48024E+00 -9.09657E+00 +1.14680E+00 -1.03278E+01 -2.84389E+00 -1.01070E+01 -6.98445E+00
 -8.47623E+00 -1.07443E+01 -5.67122E+00 -1.36468E+01 -2.08651E+00 -1.53395E+01 +1.78371E+00 -1.56445E+01
 +5.42015E+00 -1.45829E+01 +8.35619E+00 -1.23669E+01 +1.02462E+01 -9.36331E+00 +1.09135E+01 -6.03283E+00
 +1.03704E+01 -2.85638E+00 +8.80773E+00 -2.60340E-01 +6.55572E+00 +1.44684E+00 +4.02437E+00 +2.11664E+00
 +1.63296E+00 +1.77465E+00 -2.58834E-01 +6.05556E-01 -1.40656E+00 -1.08773E+00 -1.71469E+00 -2.94269E+00
 -1.24324E+00 -4.60312E+00 -1.87403E-01 -5.78068E+00 +1.16546E+00 -6.30169E+00 +2.49293E+00 -6.13149E+00
 +3.49833E+00 -5.37320E+00 +3.96448E+00 -4.24193E+00 +3.79115E+00 -3.01990E+00 +3.01015E+00 -2.00113E+00
 +1.77636E+00 -1.43578E+00 +3.36914E-01 -1.48395E+00 -1.01531E+00 -2.18676E+00 -1.99521E+00 -3.45924E+00
 -2.37651E+00 -5.10559E+00 -2.03161E+00 -6.85344E+00 -9.53725E-01 -8.40065E+00 +7.41766E-01 -9.46641E+00
 +2.83640E+00 -9.83763E+00 +5.04411E+00 -9.40334E+00 +7.05662E+00 -8.17176E+00 +8.59103E+00 -6.26801E+00
 +9.43175E+00 -3.91373E+00 +9.46049E+00 -1.39282E+00 +8.67016E+00 +9.90738E-01 +7.16175E+00 +2.95577E+00
 +5.12554E+00 +4.28108E+00 +2.81088E+00 +4.83161E+00 +4.89901E-01 +4.57077E+00 -1.57901E+00 +3.55817E+00
 -3.18255E+00 +1.93472E+00 -4.17469E+00 -1.01534E-01 -4.48782E+00 -2.32425E+00 -4.13247E+00 -4.50775E+00
 -3.18736E+00 -6.45205E+00 -1.78263E+00 -8.00125E+00 -7.94055E-02 -9.05384E+00 +1.75077E+00 -9.56512E+00
 +3.54413E+00 -9.54297E+00 +5.15874E+00 -9.03884E+00 +6.48364E+00 -8.13623E+00 +7.44328E+00 -6.93849E+00
 +7.99807E+00 -5.55760E+00 +8.14198E+00 -4.10449E+00 +7.89842E+00 -2.68148E+00 +7.31498E+00 -1.37649E+00
 +6.45762E+00 -2.58935E-01 +5.40455E+00 +6.23053E-01 +4.23965E+00 +1.24398E+00 +3.04579E+00 +1.60089E+00
 +1.89823E+00 +1.71146E+00 +8.58580E-01 +1.61020E+00 -2.96821E-02 +1.34274E+00 -7.43592E-01 +9.58730E-01
 -1.28012E+00 +5.04215E-01 -1.65249E+00 +1.46793E-02 -1.88372E+00 -4.89845E-01 -1.99836E+00 -1.00646E+00
 -2.01383E+00 -1.54717E+00 -1.93339E+00 -2.13267E+00 -1.74223E+00 -2.78314E+00 -1.40818E+00 -3.50753E+00
 -8.87496E-01 -4.29356E+00 -1.35260E-01 -5.10081E+00 +8.81162E-01 -5.85887E+00 +2.16795E+00 -6.47187E+00
 +3.69280E+00 -6.82952E+00 +5.37791E+00 -6.82355E+00 +7.10013E+00 -6.36721E+00 +8.69941E+00 -5.41468E+00
