 Created: 16-Jan-2021
 $NMID
 ID='D:\BASISSIMULATI'
 FMTDAT='(8E13.5)'
 VOLUME=   1.00000E+00
 TRAMP=   1.00000E+00
 $END
 +7.17252E+01 +1.18266E+01 +5.23184E+01 +1.96929E+01 +8.58729E+00 +2.06257E+01 -3.57001E+01 +1.55116E+01
 -5.71000E+01 +6.64911E+00 -4.59368E+01 -2.72472E+00 -1.12242E+01 -8.75996E+00 +2.55760E+01 -8.05815E+00
 +4.36547E+01 +3.34400E-01 +3.45644E+01 +1.31899E+01 +5.70831E+00 +2.34666E+01 -2.56541E+01 +2.36184E+01
 -4.32710E+01 +1.04553E+01 -4.05947E+01 -1.16116E+01 -2.25164E+01 -3.17642E+01 -3.12150E-01 -3.85713E+01
 +1.58730E+01 -2.72009E+01 +2.19488E+01 -3.30223E+00 +1.98442E+01 +1.95389E+01 +1.39280E+01 +2.77769E+01
 +7.37540E+00 +1.64835E+01 +1.13607E+00 -7.13118E+00 -4.52759E+00 -2.78838E+01 -8.17032E+00 -3.20787E+01
 -7.21706E+00 -1.62316E+01 -1.91327E-01 +1.06664E+01 +1.08539E+01 +3.28818E+01 +2.01978E+01 +3.79193E+01
 +2.14218E+01 +2.41986E+01 +1.17350E+01 +1.48632E+00 -5.48018E+00 -1.59530E+01 -2.20429E+01 -1.86914E+01
 -2.96736E+01 -7.69597E+00 -2.49779E+01 +7.33279E+00 -1.13613E+01 +1.52484E+01 +3.36783E+00 +1.10572E+01
 +1.19649E+01 -1.36453E+00 +1.18543E+01 -1.29175E+01 +5.75618E+00 -1.62345E+01 -1.14853E+00 -1.07519E+01
 -5.05736E+00 -2.38816E+00 -5.49118E+00 +1.56830E+00 -4.22993E+00 -1.72280E+00 -2.64276E+00 -8.55345E+00
 -4.05067E-02 -1.17687E+01 +5.35462E+00 -6.59818E+00 +1.36563E+01 +5.28140E+00 +2.14158E+01 +1.65869E+01
 +2.28113E+01 +1.96169E+01 +1.37169E+01 +1.19734E+01 -4.19020E+00 -1.42201E+00 -2.27517E+01 -1.15613E+01
 -3.14344E+01 -1.15606E+01 -2.40535E+01 -1.43528E+00 -3.61647E+00 +1.19180E+01 +1.84465E+01 +1.94520E+01
 +2.87979E+01 +1.60276E+01 +2.05563E+01 +3.60969E+00 -1.98036E+00 -1.04233E+01 -2.55949E+01 -1.83935E+01
 -3.61788E+01 -1.71420E+01 -2.74266E+01 -9.33823E+00 -4.57933E+00 -7.99481E-01 +1.91360E+01 +3.81681E+00
 +3.09013E+01 +3.70924E+00 +2.59711E+01 +1.35176E+00 +9.74699E+00 -3.67568E-01 -6.66790E+00 -6.53411E-01
 -1.40154E+01 -9.04876E-01 -1.03135E+01 -2.57866E+00 -8.26090E-01 -4.96055E+00 +6.75422E+00 -5.09772E+00
 +7.99843E+00 -2.71705E-01 +4.18243E+00 +8.93447E+00 +1.10511E-01 +1.77506E+01 -4.98559E-01 +1.98105E+01
 +1.79330E+00 +1.17576E+01 +2.87379E+00 -3.49832E+00 -9.86223E-01 -1.76571E+01 -9.30002E+00 -2.19953E+01
 -1.68938E+01 -1.32829E+01 -1.74367E+01 +3.51271E+00 -8.42836E+00 +1.79305E+01 +6.19421E+00 +2.06190E+01
 +1.80506E+01 +9.49952E+00 +1.97608E+01 -8.72810E+00 +1.00662E+01 -2.28556E+01 -5.05419E+00 -2.43918E+01
 -1.61721E+01 -1.28967E+01 -1.65381E+01 +4.09462E+00 -6.34741E+00 +1.63300E+01 +7.70798E+00 +1.75446E+01
 +1.71135E+01 +9.04614E+00 +1.70528E+01 -2.01647E+00 +8.99461E+00 -8.10966E+00 -1.14666E+00 -6.41887E+00
 -7.56167E+00 -6.14077E-02 -8.31921E+00 +5.08994E+00 -5.75997E+00 +5.24240E+00 -3.65230E+00 +1.40365E+00
 -3.70208E+00 -1.96253E+00 -4.31698E+00 -1.06659E+00 -2.53395E+00 +3.71818E+00 +2.64973E+00 +7.88713E+00
 +8.51716E+00 +6.43201E+00 +1.02000E+01 -1.75004E+00 +4.60318E+00 -1.22256E+01 -6.37553E+00 -1.77133E+01
 -1.61408E+01 -1.33378E+01 -1.74917E+01 -6.05908E-01 -7.83033E+00 +1.29937E+01 +8.31692E+00 +1.87666E+01
 +2.15974E+01 +1.27408E+01 +2.37019E+01 -1.43274E+00 +1.29089E+01 -1.47407E+01 -4.55024E+00 -1.87405E+01
 -1.83640E+01 -1.10918E+01 -2.07026E+01 +3.08887E+00 -1.10651E+01 +1.48741E+01 +3.78043E+00 +1.75125E+01
 +1.45462E+01 +1.05849E+01 +1.54687E+01 -3.79798E-01 +7.53775E+00 -8.22538E+00 -3.02894E+00 -9.11119E+00
 -9.58812E+00 -4.55971E+00 -9.50739E+00 +5.59651E-01 -5.15793E+00 +2.22294E+00 -1.14515E+00 +2.54936E-01
 -2.70365E-01 -2.08646E+00 -1.48865E+00 -1.38493E+00 -1.36206E+00 +2.61826E+00 +2.36231E+00 +6.47512E+00
 +8.14391E+00 +5.80845E+00 +1.13419E+01 -7.50817E-01 +7.87908E+00 -9.69908E+00 -1.94591E+00 -1.46262E+01
 -1.26725E+01 -1.08270E+01 -1.69346E+01 +8.05073E-01 -1.06828E+01 +1.36678E+01 +3.40308E+00 +1.95346E+01
 +1.70221E+01 +1.41456E+01 +2.14396E+01 +3.67291E-01 +1.33264E+01 -1.34278E+01 -2.80355E+00 -1.87767E+01
 -1.73439E+01 -1.26555E+01 -2.17475E+01 +6.62066E-01 -1.39316E+01 +1.26324E+01 +6.68477E-01 +1.61689E+01
 +1.29628E+01 +1.00811E+01 +1.61911E+01 -7.12996E-01 +9.91829E+00 -9.06276E+00 -4.77508E-01 -1.05669E+01
 -8.07681E+00 -6.09683E+00 -9.15828E+00 -3.08231E-01 -5.06679E+00 +2.39050E+00 -2.23759E-01 +1.16717E+00
 +1.80093E+00 -1.10450E+00 +9.52931E-01 -8.00106E-01 +1.11971E-01 +2.96442E+00 +1.97443E+00 +7.24127E+00
 +6.14744E+00 +7.55164E+00 +9.00721E+00 +1.81527E+00 +6.61146E+00 -7.27453E+00 -1.59953E+00 -1.35529E+01
 -1.14023E+01 -1.16937E+01 -1.61572E+01 -1.43946E+00 -1.15139E+01 +1.15087E+01 +9.49051E-01 +1.88982E+01
 +1.40387E+01 +1.54485E+01 +1.93585E+01 +2.64576E+00 +1.29484E+01 -1.19534E+01 -1.77377E+00 -1.95582E+01
 -1.59509E+01 -1.58489E+01 -2.09264E+01 -3.65723E+00 -1.38096E+01 +9.14675E+00 +7.81161E-01 +1.49857E+01
 +1.39047E+01 +1.13772E+01 +1.81451E+01 +1.98834E+00 +1.21252E+01 -6.50599E+00 +7.77955E-01 -9.24556E+00
 -8.48896E+00 -6.15725E+00 -1.08049E+01 -1.13509E+00 -6.52665E+00 +1.59335E+00 -3.43351E-02 +8.95497E-01
 +4.04126E+00 -7.23577E-01 +4.11869E+00 +2.43160E-01 +2.11209E+00 +4.76144E+00 +1.03621E+00 +9.82592E+00
 +2.00693E+00 +1.05106E+01 +3.21999E+00 +4.06836E+00 +1.75283E+00 -7.13203E+00 -3.36917E+00 -1.63755E+01
 -9.53896E+00 -1.69227E+01 -1.19985E+01 -6.97044E+00 -7.49258E+00 +8.38949E+00 +2.64264E+00 +1.99087E+01
 +1.25774E+01 +2.00252E+01 +1.56190E+01 +7.92941E+00 +8.99171E+00 -9.63058E+00 -3.72362E+00 -2.24487E+01
 -1.45057E+01 -2.31865E+01 -1.61114E+01 -1.17768E+01 -7.06760E+00 +4.87613E+00 +7.10157E+00 +1.74742E+01
 +1.74105E+01 +1.99840E+01 +1.73679E+01 +1.27074E+01 +7.26985E+00 +1.12408E+00 -6.12609E+00 -8.18825E+00
 -1.42829E+01 -1.14914E+01 -1.26301E+01 -9.17153E+00 -3.39650E+00 -4.10120E+00 +6.32661E+00 +1.06501E+00
 +9.76118E+00 +5.36431E+00 +5.10476E+00 +8.88333E+00 -3.56973E+00 +1.10973E+01 -9.62889E+00 +1.01706E+01
 -8.83152E+00 +4.25793E+00 -2.26967E+00 -6.11199E+00 +4.74977E+00 -1.67961E+01 +6.89321E+00 -2.16026E+01
 +2.84860E+00 -1.61871E+01 -3.77598E+00 -1.69543E+00 -7.30014E+00 +1.47577E+01 -4.36308E+00 +2.37488E+01
 +3.45490E+00 +1.93682E+01 +1.07317E+01 +3.40093E+00 +1.21850E+01 -1.51721E+01 +6.56803E+00 -2.53856E+01
 -2.39312E+00 -2.10225E+01 -8.68510E+00 -4.50580E+00 -8.31220E+00 +1.46300E+01 -2.07074E+00 +2.56920E+01
 +5.17599E+00 +2.32977E+01 +8.09663E+00 +1.02003E+01 +4.67237E+00 -5.14079E+00 -2.56902E+00 -1.43060E+01
 -8.63155E+00 -1.39734E+01 -9.75732E+00 -7.05316E+00 -5.96576E+00 +3.94902E-01 -6.38146E-01 +3.82098E+00
 +2.34389E+00 +2.94005E+00 +1.58260E+00 +8.28956E-01 -1.02651E+00 +5.10374E-01 -2.16909E+00 +2.02175E+00
 -5.10501E-02 +2.41823E+00 +4.02270E+00 -1.30495E+00 +6.72527E+00 -8.82778E+00 +5.57087E+00 -1.56256E+01
 +1.20856E+00 -1.57007E+01 -2.81972E+00 -6.17789E+00 -2.82481E+00 +9.65730E+00 +1.87374E+00 +2.34500E+01
 +7.95594E+00 +2.67100E+01 +1.02893E+01 +1.64569E+01 +5.84148E+00 -2.29861E+00 -3.62764E+00 -1.91389E+01
 -1.23217E+01 -2.44215E+01 -1.43423E+01 -1.51437E+01 -8.06890E+00 +3.25023E+00 +2.29194E+00 +2.02067E+01
 +9.35955E+00 +2.63268E+01 +7.75937E+00 +1.86007E+01 -1.82375E+00 +1.56161E+00 -1.27536E+01 -1.59222E+01
 -1.68666E+01 -2.58174E+01 -1.02395E+01 -2.48109E+01 +3.77456E+00 -1.49758E+01 +1.65237E+01 -1.58400E+00
 +1.98365E+01 +9.96028E+00 +1.16611E+01 +1.61515E+01 -2.38308E+00 +1.57855E+01 -1.27081E+01 +9.47750E+00
 -1.22354E+01 -6.88664E-01 -1.22234E+00 -1.11736E+01 +1.28739E+01 -1.73976E+01 +2.03952E+01 -1.53331E+01
 +1.59246E+01 -3.97990E+00 +1.81495E+00 +1.28539E+01 -1.34926E+01 +2.72834E+01 -2.10863E+01 +3.10466E+01
 -1.72707E+01 +2.04451E+01 -5.57544E+00 -5.96304E-01 +6.01290E+00 -2.17990E+01 +1.04601E+01 -3.19791E+01
 +5.99781E+00 -2.56421E+01 -3.36466E+00 -6.57340E+00 -1.10686E+01 +1.40989E+01 -1.24379E+01 +2.44254E+01
 -7.26691E+00 +1.87628E+01 +8.60233E-01 +1.02293E+00 +7.53580E+00 -1.79871E+01 +1.03799E+01 -2.73467E+01
 +9.85388E+00 -2.25189E+01 +7.90929E+00 -7.48354E+00 +5.98208E+00 +8.55297E+00 +4.08267E+00 +1.73431E+01
 +1.54593E+00 +1.64239E+01 -1.53094E+00 +9.57376E+00 -3.71666E+00 +3.10325E+00 -3.26299E+00 +1.02463E+00
 +7.95148E-02 +2.65157E+00 +4.12495E+00 +4.10777E+00 +5.32003E+00 +2.20976E+00 +1.32122E+00 -2.52212E+00
 -6.81393E+00 -6.15630E+00 -1.46953E+01 -4.71807E+00 -1.72399E+01 +2.05950E+00 -1.22017E+01 +9.69164E+00
 -2.03807E+00 +1.17054E+01 +7.42770E+00 +4.40421E+00 +1.08150E+01 -9.83097E+00 +6.85995E+00 -2.33040E+01
 -6.97275E-01 -2.76177E+01 -5.74598E+00 -1.91573E+01 -4.15434E+00 -1.73225E+00 +3.27120E+00 +1.54907E+01
 +1.13804E+01 +2.34801E+01 +1.44346E+01 +1.87111E+01 +1.03049E+01 +5.01970E+00 +2.02555E+00 -9.06281E+00
 -4.47906E+00 -1.55676E+01 -4.85583E+00 -1.15202E+01 +3.31504E-01 +2.66726E-02 +5.92373E+00 +1.25203E+01
 +6.03220E+00 +1.99354E+01 -1.33387E+00 +1.96675E+01 -1.23387E+01 +1.28880E+01 -1.96820E+01 +2.87602E+00
 -1.77323E+01 -7.00801E+00 -6.80149E+00 -1.43527E+01 +6.60361E+00 -1.76264E+01 +1.39427E+01 -1.59185E+01
 +1.04569E+01 -9.31744E+00 -1.39002E+00 +2.53704E-01 -1.33203E+01 +8.83599E+00 -1.66553E+01 +1.18248E+01
 -8.11341E+00 +6.65872E+00 +7.91848E+00 -4.87173E+00 +2.21568E+01 -1.66562E+01 +2.63485E+01 -2.12801E+01
 +1.83999E+01 -1.45350E+01 +3.40306E+00 +1.45555E+00 -9.90516E+00 +1.88358E+01 -1.47028E+01 +2.83729E+01
 -9.96627E+00 +2.50104E+01 -3.68022E-01 +1.10508E+01 +7.31697E+00 -5.21027E+00 +8.58349E+00 -1.46215E+01
 +3.46113E+00 -1.27810E+01 -4.42920E+00 -2.47518E+00 -1.08255E+01 +8.55375E+00 -1.34303E+01 +1.28783E+01
 -1.25006E+01 +8.08641E+00 -9.53666E+00 -2.16562E+00 -5.60245E+00 -1.12024E+01 -8.09758E-01 -1.41041E+01
 +4.77976E+00 -1.07793E+01 +9.97140E+00 -5.31724E+00 +1.24186E+01 -2.38240E+00 +1.01694E+01 -3.51806E+00
 +3.65987E+00 -6.14960E+00 -3.64921E+00 -5.94400E+00 -6.96251E+00 -6.11393E-01 -3.33823E+00 +7.85346E+00
 +5.83944E+00 +1.43018E+01 +1.51109E+01 +1.41790E+01 +1.81240E+01 +7.11181E+00 +1.18054E+01 -2.40869E+00
 -1.32530E+00 -7.90553E+00 -1.44370E+01 -5.40035E+00 -2.05743E+01 +3.67894E+00 -1.70132E+01 +1.32796E+01
 -6.86653E+00 +1.67090E+01 +3.12397E+00 +1.10802E+01 +7.06241E+00 -8.27726E-01 +3.57562E+00 -1.24983E+01
