 Created: 16-Jan-2021
 $NMID
 ID='D:\BASISSIMULATI'
 FMTDAT='(8E13.5)'
 VOLUME=   1.00000E+00
 TRAMP=   1.00000E+00
 $END
 +5.02715E+01 +8.67171E+00 +3.35214E+01 +3.71708E+01 +2.61602E+00 +4.73403E+01 -2.62409E+01 +3.46621E+01
 -3.82584E+01 +6.95014E+00 -2.81511E+01 -2.00796E+01 -2.88537E+00 -3.15774E+01 +2.24019E+01 -2.17285E+01
 +3.29414E+01 +3.22256E+00 +2.24966E+01 +2.86833E+01 -3.37177E+00 +3.99575E+01 -3.06301E+01 +3.03380E+01
 -4.46594E+01 +4.57942E+00 -3.82102E+01 -2.40169E+01 -1.50466E+01 -4.10685E+01 +1.25392E+01 -3.88504E+01
 +3.07056E+01 -2.00631E+01 +3.14986E+01 +4.22374E+00 +1.66761E+01 +2.10084E+01 -3.93970E+00 +2.24130E+01
 -1.83296E+01 +9.48967E+00 -1.88889E+01 -9.05684E+00 -6.14949E+00 -2.21597E+01 +1.21696E+01 -2.25154E+01
 +2.58796E+01 -1.01696E+01 +2.79313E+01 +8.14068E+00 +1.78208E+01 +2.31340E+01 +1.19175E+00 +2.80488E+01
 -1.37450E+01 +2.18231E+01 -2.06979E+01 +8.91631E+00 -1.81955E+01 -3.71455E+00 -9.57396E+00 -1.05003E+01
 -4.78644E-01 -9.82474E+00 +4.41215E+00 -4.11468E+00 +3.57446E+00 +2.18261E+00 -1.23269E+00 +5.28179E+00
 -6.57102E+00 +3.84443E+00 -9.44097E+00 -9.04058E-01 -8.65657E+00 -6.41316E+00 -4.91266E+00 -1.03930E+01
 +1.34837E-01 -1.17761E+01 +4.95085E+00 -1.07013E+01 +8.66485E+00 -7.86874E+00 +1.09331E+01 -3.93193E+00
 +1.15158E+01 +6.21615E-01 +1.01053E+01 +5.16934E+00 +6.62588E+00 +8.69108E+00 +1.73584E+00 +9.97868E+00
 -3.00608E+00 +8.33513E+00 -5.66835E+00 +4.29972E+00 -5.00893E+00 -2.26743E-01 -1.42925E+00 -2.76501E+00
 +2.90078E+00 -1.64160E+00 +5.02855E+00 +2.83238E+00 +2.88696E+00 +8.20608E+00 -3.30625E+00 +1.10321E+01
 -1.08341E+01 +8.78635E+00 -1.57367E+01 +1.48573E+00 -1.49478E+01 -8.00587E+00 -8.12757E+00 -1.52973E+01
 +1.90970E+00 -1.67800E+01 +1.05246E+01 -1.16614E+01 +1.36845E+01 -2.53641E+00 +1.01691E+01 +5.90346E+00
 +2.29277E+00 +9.37004E+00 -5.31227E+00 +6.32099E+00 -8.21864E+00 -1.17278E+00 -4.64821E+00 -8.54701E+00
 +3.52466E+00 -1.12543E+01 +1.17805E+01 -7.28173E+00 +1.54227E+01 +1.71731E+00 +1.21440E+01 +1.13021E+01
 +3.28058E+00 +1.66403E+01 -6.92117E+00 +1.50961E+01 -1.35956E+01 +7.59558E+00 -1.38334E+01 -1.94704E+00
 -8.13923E+00 -8.78476E+00 -1.95919E-02 -9.86380E+00 +6.01394E+00 -5.34629E+00 +6.88843E+00 +1.64998E+00
 +2.52758E+00 +6.87814E+00 -4.27150E+00 +7.30012E+00 -9.49268E+00 +2.65538E+00 -1.01176E+01 -4.54033E+00
 -5.68625E+00 -1.04773E+01 +1.59369E+00 -1.21355E+01 +8.15623E+00 -8.82033E+00 +1.10136E+01 -2.37118E+00
 +9.24861E+00 +3.97363E+00 +4.30642E+00 +7.35226E+00 -9.69897E-01 +6.70537E+00 -3.94320E+00 +3.13032E+00
 -3.52064E+00 -9.25143E-01 -5.45701E-01 -3.09278E+00 +2.86807E+00 -2.31931E+00 +4.59896E+00 +7.25327E-01
 +3.64252E+00 +4.19348E+00 +5.20428E-01 +6.16364E+00 -3.16038E+00 +5.65386E+00 -5.66268E+00 +3.02050E+00
 -6.01928E+00 -3.90786E-01 -4.41158E+00 -3.05835E+00 -1.90006E+00 -4.06930E+00 +2.55440E-01 -3.46632E+00
 +1.26288E+00 -2.04214E+00 +1.10102E+00 -7.81507E-01 +3.59805E-01 -3.09259E-01 -2.12584E-01 -6.40150E-01
 -1.54866E-01 -1.30977E+00 +5.13061E-01 -1.74096E+00 +1.40514E+00 -1.59491E+00 +2.06572E+00 -9.11910E-01
 +2.23987E+00 -4.53724E-03 +1.96513E+00 +7.81857E-01 +1.46819E+00 +1.26973E+00 +9.72298E-01 +1.49602E+00
 +5.57064E-01 +1.60767E+00 +1.54015E-01 +1.70558E+00 -3.42097E-01 +1.75503E+00 -9.42082E-01 +1.61954E+00
 -1.51094E+00 +1.18411E+00 -1.83334E+00 +4.73689E-01 -1.75065E+00 -3.19554E-01 -1.27675E+00 -9.23392E-01
 -6.14362E-01 -1.13452E+00 -5.71753E-02 -9.37584E-01 +1.66556E-01 -5.20843E-01 +1.87476E-02 -1.77051E-01
 -3.26630E-01 -1.44354E-01 -5.76943E-01 -4.74829E-01 -4.79074E-01 -1.00132E+00 +4.10312E-02 -1.41950E+00
 +8.28883E-01 -1.44240E+00 +1.56645E+00 -9.49782E-01 +1.91974E+00 -5.92611E-02 +1.69876E+00 +9.15160E-01
 +9.54721E-01 +1.59891E+00 -3.16142E-02 +1.72577E+00 -8.67921E-01 +1.26326E+00 -1.22442E+00 +4.35519E-01
 -9.86590E-01 -3.71219E-01 -3.14871E-01 -7.82942E-01 +4.22124E-01 -6.15367E-01 +8.17770E-01 +2.92681E-02
 +6.26766E-01 +7.98688E-01 -1.01481E-01 +1.25319E+00 -1.02729E+00 +1.08434E+00 -1.67291E+00 +2.84436E-01
 -1.65810E+00 -8.23984E-01 -9.05291E-01 -1.72657E+00 +2.94837E-01 -1.96650E+00 +1.40372E+00 -1.38417E+00
 +1.89365E+00 -2.20939E-01 +1.51980E+00 +9.78687E-01 +4.63162E-01 +1.63011E+00 -7.40881E-01 +1.40972E+00
 -1.46499E+00 +4.36689E-01 -1.31624E+00 -7.69258E-01 -3.55767E-01 -1.54567E+00 +9.12675E-01 -1.43552E+00
 +1.79257E+00 -4.43384E-01 +1.76150E+00 +9.43783E-01 +7.62829E-01 +1.99542E+00 -7.39713E-01 +2.11998E+00
 -1.98630E+00 +1.19119E+00 -2.31618E+00 -3.61756E-01 -1.52723E+00 -1.76049E+00 -2.94696E-03 -2.28146E+00
 +1.47241E+00 -1.64660E+00 +2.12265E+00 -1.87598E-01 +1.59866E+00 +1.31475E+00 +1.79413E-01 +2.04028E+00
 -1.36207E+00 +1.57345E+00 -2.16553E+00 +1.40533E-01 -1.74926E+00 -1.49578E+00 -2.82659E-01 -2.43626E+00
 +1.48800E+00 -2.12932E+00 +2.62819E+00 -6.78214E-01 +2.51371E+00 +1.19943E+00 +1.17117E+00 +2.54387E+00
 -7.26035E-01 +2.66128E+00 -2.20822E+00 +1.49533E+00 -2.52084E+00 -3.38437E-01 -1.52401E+00 -1.87545E+00
 +2.33145E-01 -2.31046E+00 +1.80190E+00 -1.42119E+00 +2.33228E+00 +3.15964E-01 +1.51677E+00 +1.97592E+00
 -2.51143E-01 +2.66589E+00 -2.08118E+00 +1.98476E+00 -3.04166E+00 +2.25606E-01 -2.62894E+00 -1.77579E+00
 -1.01451E+00 -3.06133E+00 +1.04684E+00 -3.02319E+00 +2.59241E+00 -1.69462E+00 +2.91869E+00 +2.76181E-01
 +1.91366E+00 +1.94593E+00 +1.01444E-01 +2.52890E+00 -1.61226E+00 +1.76712E+00 -2.36884E+00 +5.00966E-02
 -1.76099E+00 -1.76507E+00 -3.11326E-02 -2.74877E+00 +2.02440E+00 -2.33244E+00 +3.40620E+00 -5.88806E-01
 +3.36873E+00 +1.77002E+00 +1.78412E+00 +3.68722E+00 -7.56178E-01 +4.23315E+00 -3.16678E+00 +3.05227E+00
 -4.34440E+00 +5.76385E-01 -3.69444E+00 -2.11830E+00 -1.46146E+00 -3.77888E+00 +1.31933E+00 -3.57621E+00
 +3.26879E+00 -1.55549E+00 +3.33053E+00 +1.30713E+00 +1.34327E+00 +3.51767E+00 -1.78793E+00 +3.78890E+00
 -4.45782E+00 +1.73484E+00 -5.13352E+00 -1.83353E+00 -3.17020E+00 -5.21264E+00 +7.59074E-01 -6.61398E+00
 +4.88911E+00 -5.09711E+00 +7.18905E+00 -1.14166E+00 +6.40450E+00 +3.48253E+00 +2.77635E+00 +6.54148E+00
 -1.97751E+00 +6.47617E+00 -5.46786E+00 +3.26842E+00 -5.85512E+00 -1.45266E+00 -2.85977E+00 -5.17658E+00
 +1.99571E+00 -5.79846E+00 +6.09422E+00 -2.76972E+00 +7.06032E+00 +2.51435E+00 +4.04598E+00 +7.34379E+00
 -1.72610E+00 +9.06068E+00 -7.49198E+00 +6.47224E+00 -1.03210E+01 +5.58819E-01 -8.64376E+00 -5.93339E+00
 -3.13022E+00 -9.84831E+00 +3.57490E+00 -9.24555E+00 +8.16175E+00 -4.44711E+00 +8.35670E+00 +2.06693E+00
 +4.13229E+00 +6.89595E+00 -2.22492E+00 +7.47310E+00 -7.25620E+00 +3.43000E+00 -8.11562E+00 -3.15373E+00
 -4.08026E+00 -8.77458E+00 +3.00993E+00 -1.02984E+01 +9.63590E+00 -6.60492E+00 +1.23755E+01 +7.73829E-01
 +9.66836E+00 +8.37381E+00 +2.65519E+00 +1.25286E+01 -5.35560E+00 +1.12329E+01 -1.05406E+01 +5.18067E+00
 -1.04964E+01 -2.56517E+00 -5.46689E+00 -8.11892E+00 +1.77571E+00 -8.75015E+00 +7.34461E+00 -4.28301E+00
 +8.23214E+00 +2.80585E+00 +3.86393E+00 +8.64941E+00 -3.58567E+00 +9.97308E+00 -1.02849E+01 +5.78598E+00
 -1.26898E+01 -2.08613E+00 -9.35186E+00 -9.90183E+00 -1.66585E+00 -1.38812E+01 +6.82182E+00 -1.21031E+01
 +1.21885E+01 -5.45860E+00 +1.20884E+01 +2.81707E+00 +6.89291E+00 +8.78492E+00 -5.47457E-01 +9.77298E+00
 -6.38105E+00 +5.67804E+00 -7.70610E+00 -1.04592E+00 -4.00468E+00 -6.68130E+00 +2.64934E+00 -8.14515E+00
 +8.68312E+00 -4.52675E+00 +1.08388E+01 +2.49308E+00 +7.78691E+00 +9.51757E+00 +7.48202E-01 +1.31311E+01
 -7.14754E+00 +1.15571E+01 -1.24058E+01 +5.46895E+00 -1.28312E+01 -2.40160E+00 -8.50733E+00 -8.61961E+00
 -1.65954E+00 -1.06733E+01 +4.47751E+00 -8.09201E+00 +7.20632E+00 -2.56091E+00 +5.58797E+00 +2.96734E+00
 +7.96150E-01 +5.70079E+00 -4.51147E+00 +4.29952E+00 -7.47281E+00 -5.44721E-01 -6.35234E+00 -6.46713E+00
 -1.33314E+00 -1.05326E+01 +5.56106E+00 -1.05768E+01 +1.13624E+01 -6.19645E+00 +1.34765E+01 +1.03871E+00
 +1.08500E+01 +8.24497E+00 +4.47569E+00 +1.24798E+01 -3.00197E+00 +1.20557E+01 -8.43841E+00 +7.33065E+00
 -9.61150E+00 +5.95084E-01 -6.27722E+00 -4.94009E+00 -3.44139E-01 -6.63618E+00 +4.97285E+00 -3.72207E+00
 +6.68094E+00 +2.24631E+00 +3.51925E+00 +8.04688E+00 -3.30117E+00 +1.03256E+01 -1.05546E+01 +7.29658E+00
 -1.45095E+01 -2.40872E-01 -1.27922E+01 -9.13600E+00 -5.67336E+00 -1.53336E+01 +3.92259E+00 -1.58656E+01
 +1.17616E+01 -1.03895E+01 +1.43747E+01 -1.45466E+00 +1.08195E+01 +6.70210E+00 +3.20273E+00 +1.02648E+01
 -4.35446E+00 +7.78632E+00 -7.81466E+00 +9.55283E-01 -5.31950E+00 -6.24901E+00 +1.81321E+00 -9.60774E+00
 +9.73127E+00 -6.87036E+00 +1.40185E+01 +1.03119E+00 +1.19821E+01 +1.04056E+01 +4.07213E+00 +1.66557E+01
 -6.30574E+00 +1.66083E+01 -1.44851E+01 +1.01214E+01 -1.68663E+01 +1.47699E-01 -1.26833E+01 -8.76052E+00
 -4.32232E+00 -1.27259E+01 +3.94128E+00 -1.04349E+01 +8.11532E+00 -3.70210E+00 +6.46202E+00 +3.53878E+00
 +2.90784E-01 +7.26746E+00 -6.78461E+00 +5.39408E+00 -1.07092E+01 -1.23536E+00 -9.02016E+00 -9.30662E+00
 -2.05209E+00 -1.47035E+01 +7.24304E+00 -1.45288E+01 +1.47349E+01 -8.49787E+00 +1.70901E+01 +9.43026E-01
 +1.33331E+01 +9.79532E+00 +5.26823E+00 +1.43975E+01 -3.41185E+00 +1.31233E+01 -8.88907E+00 +7.09709E+00
 -9.01785E+00 -3.94540E-01 -4.31401E+00 -5.50775E+00 +2.32903E+00 -5.70431E+00 +7.06702E+00 -9.90099E-01
 +7.00580E+00 +6.06881E+00 +1.66945E+00 +1.15819E+01 -6.68769E+00 +1.22520E+01 -1.41126E+01 +7.05713E+00
 -1.68661E+01 -2.14374E+00 -1.32973E+01 -1.14208E+01 -4.74035E+00 -1.66507E+01 +5.05936E+00 -1.55559E+01
 +1.17536E+01 -8.87492E+00 +1.25560E+01 -3.38404E-02 +7.65897E+00 +6.56470E+00 +1.43499E-01 +7.79150E+00
 -5.61590E+00 +3.41930E+00 -6.25369E+00 -3.74468E+00 -1.22062E+00 -9.33095E+00 +6.87870E+00 -9.73802E+00
 +1.36303E+01 -4.09207E+00 +1.51477E+01 +5.22338E+00 +1.01598E+01 +1.37758E+01 +7.22114E-01 +1.74012E+01
 -8.84322E+00 +1.43906E+01 -1.42131E+01 +6.36782E+00 -1.33112E+01 -2.61375E+00 -7.32447E+00 -8.25270E+00
 +4.36956E-02 -8.26522E+00 +4.64788E+00 -3.50655E+00 +4.14615E+00 +2.63388E+00 -8.09160E-01 +6.18739E+00
 -7.05156E+00 +4.80381E+00 -1.07316E+01 -1.01617E+00 -9.44725E+00 -8.29030E+00 -3.49722E+00 -1.32566E+01
