 Created: 16-Jan-2021
 $NMID
 ID='D:\BASISSIMULATI'
 FMTDAT='(8E13.5)'
 VOLUME=   1.00000E+00
 TRAMP=   1.00000E+00
 $END
 +2.49171E+01 +3.81478E+00 +2.21741E+01 +1.19218E+01 +1.68819E+01 +1.86342E+01 +9.65680E+00 +2.31817E+01
 +1.33669E+00 +2.50454E+01 -7.11663E+00 +2.40174E+01 -1.47284E+01 +2.02233E+01 -2.06232E+01 +1.41075E+01
 -2.41258E+01 +6.38077E+00 -2.48385E+01 -2.06211E+00 -2.26862E+01 -1.02461E+01 -1.79241E+01 -1.72284E+01
 -1.11077E+01 -2.22071E+01 -3.02803E+00 -2.46135E+01 +5.38045E+00 -2.41764E+01 +1.31476E+01 -2.09535E+01
 +1.93796E+01 -1.53232E+01 +2.33620E+01 -7.94072E+00 +2.46414E+01 +3.38643E-01 +2.30769E+01 +8.55819E+00
 +1.88562E+01 +1.57705E+01 +1.24724E+01 +2.11468E+01 +4.66688E+00 +2.40719E+01 -3.65704E+00 +2.42147E+01
 -1.15385E+01 +2.15658E+01 -1.80701E+01 +1.64376E+01 -2.25022E+01 +9.42731E+00 -2.43292E+01 +1.34792E+00
 -2.33471E+01 -6.86658E+00 -1.96761E+01 -1.42689E+01 -1.37462E+01 -2.00078E+01 -6.24647E+00 -2.34259E+01
 +1.95445E+00 -2.41349E+01 +9.90949E+00 -2.20600E+01 +1.67022E+01 -1.74474E+01 +2.15526E+01 -1.08350E+01
 +2.39062E+01 -2.99022E+00 +2.34982E+01 +5.17956E+00 +2.03824E+01 +1.27318E+01 +1.49248E+01 +1.87973E+01
 +7.76048E+00 +2.26808E+01 -2.80478E-01 +2.39400E+01 -8.26892E+00 +2.24363E+01 -1.52841E+01 +1.83500E+01
 -2.05198E+01 +1.21587E+01 -2.33769E+01 +4.58132E+00 -2.35320E+01 -3.50517E+00 -2.09741E+01 -1.11673E+01
 -1.60048E+01 -1.75229E+01 -9.20303E+00 -2.18425E+01 -1.35741E+00 -2.36334E+01 +6.62498E+00 -2.26955E+01
 +1.38236E+01 -1.91436E+01 +1.94107E+01 -1.33939E+01 +2.27461E+01 -6.11463E+00 +2.34511E+01 +1.85125E+00
 +2.14510E+01 +9.58373E+00 +1.69831E+01 +1.61920E+01 +1.05687E+01 +2.09172E+01 +2.95210E+00 +2.32192E+01
 -4.98572E+00 +2.28389E+01 -1.23289E+01 +1.98267E+01 -1.82324E+01 +1.45366E+01 -2.20193E+01 +7.58403E+00
 -2.32585E+01 -2.25351E-01 -2.18133E+01 -7.98915E+00 -1.78573E+01 -1.48125E+01 -1.18527E+01 -1.99112E+01
 -4.49682E+00 -2.27018E+01 +3.35897E+00 -2.28685E+01 +1.08078E+01 -2.03985E+01 +1.69921E+01 -1.55833E+01
 +2.12021E+01 -8.98383E+00 +2.29574E+01 -1.36527E+00 +2.20619E+01 +6.39154E+00 +1.86254E+01 +1.33921E+01
 +1.30505E+01 +1.88313E+01 +5.98520E+00 +2.20860E+01 -1.75233E+00 +2.27866E+01 -9.26844E+00 +2.08587E+01
 -1.56973E+01 +1.65312E+01 -2.03004E+01 +1.03088E+01 -2.25519E+01 +2.91371E+00 -2.21980E+01 -4.79870E+00
 -1.92861E+01 -1.19386E+01 -1.41583E+01 -1.76843E+01 -7.41131E+00 -2.13770E+01 +1.73137E-01 -2.25962E+01
 +7.71859E+00 -2.12076E+01 +1.43553E+01 -1.73777E+01 +1.93206E+01 -1.15542E+01 +2.20462E+01 -4.41340E+00
 +2.22236E+01 +3.21824E+00 +1.98386E+01 +1.04597E+01 +1.51728E+01 +1.64773E+01 +8.76962E+00 +2.05803E+01
 +1.37158E+00 +2.23006E+01 -6.16600E+00 +2.14459E+01 -1.29739E+01 +1.81211E+01 -1.82691E+01 +1.27158E+01
 -2.14450E+01 +5.85816E+00 -2.21409E+01 -1.65754E+00 -2.02827E+01 -8.96331E+00 -1.60911E+01 -1.52175E+01
 -1.00551E+01 -1.97017E+01 -2.87510E+00 -2.19036E+01 +4.61828E+00 -2.15750E+01 +1.15605E+01 -1.87602E+01
 +1.71526E+01 -1.37898E+01 +2.07534E+01 -7.24224E+00 +2.19528E+01 +1.23714E-01 +2.06186E+01 +7.45692E+00
 +1.69109E+01 +1.39121E+01 +1.12631E+01 +1.87474E+01 +4.33106E+00 +2.14094E+01 -3.08280E+00 +2.15967E+01
 -1.01227E+01 +1.92940E+01 -1.59780E+01 +1.47730E+01 -1.99767E+01 +8.56028E+00 -2.16626E+01 +1.37641E+00
 -2.08470E+01 -5.94810E+00 -1.76304E+01 -1.25686E+01 -1.23895E+01 -1.77235E+01 -5.73348E+00 -2.08225E+01
 +1.56672E+00 -2.15133E+01 +8.66800E+00 -1.97225E+01 +1.47522E+01 -1.56626E+01 +1.91206E+01 -9.80738E+00
 +2.12739E+01 -2.83631E+00 +2.09694E+01 +4.44422E+00 +1.82484E+01 +1.11942E+01 +1.34307E+01 +1.66367E+01
 +7.07677E+00 +2.01479E+01 -7.69661E-02 +2.13276E+01 -7.20387E+00 +2.00458E+01 -1.34825E+01 +1.64564E+01
 -1.81911E+01 +1.09791E+01 -2.07909E+01 +4.24982E+00 -2.09875E+01 -2.95244E+00 -1.87642E+01 -9.79628E+00
 -1.43835E+01 -1.54937E+01 -8.35572E+00 -1.93907E+01 -1.37984E+00 -2.10427E+01 +5.73759E+00 -2.02648E+01
 +1.21758E+01 -1.71528E+01 +1.71942E+01 -1.20714E+01 +2.02179E+01 -5.61113E+00 +2.09035E+01 +1.47973E+00
 +1.91776E+01 +8.38221E+00 +1.52454E+01 +1.43011E+01 +9.56560E+00 +1.85566E+01 +2.79739E+00 +2.06622E+01
 -4.27631E+00 +2.03807E+01 -1.08393E+01 +1.77506E+01 -1.61363E+01 +1.30808E+01 -1.95599E+01 +6.91481E+00
 -2.07201E+01 -3.27811E-02 -1.94889E+01 -6.95916E+00 -1.60141E+01 -1.30659E+01 -1.07021E+01 -1.76512E+01
 -4.16967E+00 -2.01902E+01 +2.82700E+00 -2.03953E+01 +9.48023E+00 -1.82489E+01 +1.50239E+01 -1.40042E+01
 +1.88218E+01 -8.15584E+00 +2.04404E+01 -1.38196E+00 +1.96987E+01 +5.53422E+00 +1.66881E+01 +1.17951E+01
 +1.17613E+01 +1.66805E+01 +5.49107E+00 +1.96309E+01 -1.39641E+00 +2.03108E+01 -8.10563E+00 +1.86477E+01
 -1.38636E+01 +1.48392E+01 -1.80090E+01 +9.32960E+00 -2.00680E+01 +2.75837E+00 -1.98085E+01 -4.11435E+00
 -1.72662E+01 -1.04955E+01 -1.27399E+01 -1.56508E+01 -6.75631E+00 -1.89890E+01 -8.94896E-03 -2.01298E+01
 +6.72251E+00 -1.89473E+01 +1.26621E+01 -1.55836E+01 +1.71272E+01 -1.04319E+01 +1.96067E+01 -4.09063E+00
 +1.98198E+01 +2.70630E+00 +1.77477E+01 +9.17420E+00 +1.36348E+01 +1.45683E+01 +7.96053E+00 +1.82695E+01
 +1.38283E+00 +1.98553E+01 -5.33776E+00 +1.91484E+01 -1.14262E+01 +1.62359E+01 -1.61821E+01 +1.14591E+01
 -1.90608E+01 +5.37328E+00 -1.97349E+01 -1.31663E+00 -1.81324E+01 -7.83798E+00 -1.44437E+01 -1.34394E+01
 -9.09925E+00 -1.74776E+01 -2.71929E+00 -1.94908E+01 +3.95812E+00 -1.92522E+01 +1.01625E+01 -1.67949E+01
 +1.51798E+01 -1.24077E+01 +1.84347E+01 -6.60121E+00 +1.95563E+01 -4.83279E-02 +1.84207E+01 +6.49367E+00
 +1.51645E+01 +1.22707E+01 +1.01684E+01 +1.66187E+01 +4.01269E+00 +1.90401E+01 -2.59017E+00 +1.92605E+01
 -8.87787E+00 +1.72601E+01 -1.41264E+01 +1.32750E+01 -1.77333E+01 +7.76970E+00 -1.92869E+01 +1.38253E+00
 -1.86133E+01 -5.14798E+00 -1.57958E+01 -1.10687E+01 -1.11644E+01 -1.56985E+01 -5.25771E+00 -1.85071E+01
 +1.24027E+00 -1.91752E+01 +7.57896E+00 -1.76312E+01 +1.30281E+01 -1.40587E+01 +1.69617E+01 -8.87442E+00
 +1.89302E+01 -2.68019E+00 +1.87115E+01 +3.80745E+00 +1.63364E+01 +9.83990E+00 +1.20841E+01 +1.47229E+01
 +6.44943E+00 +1.78965E+01 +8.54556E-02 +1.89990E+01 -6.27239E+00 +1.79087E+01 -1.18912E+01 +1.47566E+01
 -1.61252E+01 +9.91144E+00 -1.84897E+01 +3.93585E+00 -1.87168E+01 -2.47845E+00 -1.67858E+01 -8.59095E+00
 -1.29246E+01 -1.36978E+01 -7.58325E+00 -1.72128E+01 -1.38111E+00 -1.87347E+01 +4.96466E+00 -1.80932E+01
 +1.07222E+01 -1.53675E+01 +1.52293E+01 -1.08773E+01 +1.79695E+01 -5.14436E+00 +1.86314E+01 +1.16718E+00
 +1.71438E+01 +7.32832E+00 +1.36838E+01 +1.26292E+01 +8.65497E+00 +1.64610E+01 +2.64110E+00 +1.83855E+01
 -3.66213E+00 +1.81859E+01 -9.52738E+00 +1.58903E+01 -1.42796E+01 +1.17688E+01 -1.73739E+01 +6.30091E+00
 -1.84575E+01 +1.20428E-01 -1.74108E+01 -6.05843E+00 -1.43596E+01 -1.15234E+01 -9.66080E+00 -1.56463E+01
 -3.86012E+00 -1.79551E+01 +2.37099E+00 -1.81884E+01 +8.31313E+00 -1.63245E+01 +1.32821E+01 -1.25834E+01
 +1.67074E+01 -7.40108E+00 +1.81982E+01 -1.37865E+00 +1.75875E+01 +4.78759E+00 +1.49508E+01 +1.03865E+01
 +1.05973E+01 +1.47740E+01 +5.03317E+00 +1.74474E+01 -1.09724E+00 +1.81028E+01 -7.08577E+00 +1.66698E+01
 -1.22425E+01 +1.33188E+01 -1.59749E+01 +8.44080E+00 -1.78565E+01 +2.60205E+00 -1.76750E+01 -3.52198E+00
 -1.54564E+01 -9.22465E+00 -1.14616E+01 -1.38496E+01 -6.15560E+00 -1.68665E+01 -1.53339E-01 -1.79314E+01
 +5.85154E+00 -1.69267E+01 +1.11668E+01 -1.39732E+01 +1.51815E+01 -9.41636E+00 +1.74360E+01 -3.78549E+00
 +1.76749E+01 +2.26762E+00 +1.58757E+01 +8.04414E+00 +1.22510E+01 +1.28789E+01 +7.22312E+00 +1.62168E+01
 +1.37520E+00 +1.76770E+01 -4.61656E+00 +1.70958E+01 -1.00611E+01 +1.45453E+01 -1.43322E+01 +1.03245E+01
 -1.69404E+01 +4.92412E+00 -1.75892E+01 -1.03033E+00 -1.62088E+01 -6.85107E+00 -1.29634E+01 -1.18674E+01
 -8.23176E+00 -1.55032E+01 -2.56308E+00 -1.73427E+01 +3.38684E+00 -1.71783E+01 +8.93140E+00 -1.50342E+01
 +1.34325E+01 -1.11623E+01 +1.63738E+01 -6.01343E+00 +1.74203E+01 -1.84275E-01 +1.64559E+01 +5.65149E+00
 +1.35971E+01 +1.08211E+01 +9.17797E+00 +1.47304E+01 +3.71197E+00 +1.69318E+01 -2.16822E+00 +1.71758E+01
 -7.78370E+00 +1.54393E+01 -1.24878E+01 +1.19273E+01 -1.57406E+01 +7.04925E+00 -1.71707E+01 +1.37083E+00
 -1.66178E+01 -4.45137E+00 -1.41507E+01 -9.74581E+00 -1.00586E+01 -1.39035E+01 -4.81718E+00 -1.64480E+01
 +9.66347E-01 -1.70901E+01 +6.62396E+00 -1.57605E+01 +1.15038E+01 -1.26174E+01 +1.50453E+01 -8.02776E+00
 +1.68435E+01 -2.52420E+00 +1.66956E+01 +3.25652E+00 +1.46234E+01 +8.64734E+00 +1.08707E+01 +1.30278E+01
 +5.87434E+00 +1.58955E+01 +2.13324E-01 +1.69236E+01 -5.45808E+00 +1.59982E+01 -1.04861E+01 +1.32310E+01
 -1.42926E+01 +8.94549E+00 -1.64421E+01 +3.63955E+00 -1.66907E+01 -2.07263E+00 -1.50147E+01 -7.53154E+00
 -1.16121E+01 -1.21085E+01 -6.87940E+00 -1.52782E+01 -1.36558E+00 -1.66788E+01 +4.29183E+00 -1.61531E+01
 +9.44029E+00 -1.37667E+01 +1.34876E+01 -9.79936E+00 +1.59699E+01 -4.71232E+00 +1.66051E+01 +9.05166E-01
 +1.53245E+01 +6.40421E+00 +1.22806E+01 +1.11512E+01 +7.82866E+00 +1.46008E+01 +2.48545E+00 +1.63586E+01
 -3.13087E+00 +1.62263E+01 -8.37217E+00 +1.42238E+01 -1.26352E+01 +1.05867E+01 -1.54310E+01 +5.73827E+00
 -1.64410E+01 +2.40567E-01 -1.55532E+01 -5.27107E+00 -1.28747E+01 -1.01612E+01 -8.71876E+00 -1.38678E+01
 -3.56823E+00 -1.59664E+01 +1.98071E+00 -1.62193E+01 +7.28739E+00 -1.46018E+01 +1.17407E+01 -1.13051E+01
 +1.48294E+01 -6.71348E+00 +1.62009E+01 -1.35951E+00 +1.57014E+01 +4.13774E+00 +1.33931E+01 +9.14422E+00
 +9.54672E+00 +1.30840E+01 +4.60951E+00 +1.55057E+01 -8.46683E-01 +1.61338E+01 -6.19157E+00 +1.49005E+01
 -1.08093E+01 +1.19527E+01 -1.41694E+01 +7.63436E+00 -1.58877E+01 +2.44684E+00 -1.57702E+01 -3.00972E+00
 -1.38350E+01 -8.10564E+00 -1.03099E+01 -1.22544E+01 -5.60517E+00 -1.49801E+01 -2.66084E-01 -1.59721E+01
 +5.09027E+00 -1.51204E+01 +9.84640E+00 -1.25279E+01 +1.34555E+01 -8.49766E+00 +1.55045E+01 -3.49800E+00
 +1.57611E+01 +1.89234E+00 +1.42001E+01 +7.05102E+00 +1.10061E+01 +1.13839E+01 +6.55141E+00 +1.43937E+01
 +1.35267E+00 +1.57366E+01 -3.98894E+00 +1.52622E+01 -8.85732E+00 +1.30295E+01 -1.26924E+01 +9.30049E+00
