 Created: 16-Jan-2021
 $NMID
 ID='D:\BASISSIMULATI'
 FMTDAT='(8E13.5)'
 VOLUME=   1.00000E+00
 TRAMP=   1.00000E+00
 $END
 +2.11614E+02 +3.23628E+01 +1.86133E+02 +1.02025E+02 +1.36691E+02 +1.56390E+02 +7.14911E+01 +1.87399E+02
 +1.23442E+00 +1.91096E+02 -6.28261E+01 +1.68261E+02 -1.10903E+02 +1.24168E+02 -1.36389E+02 +6.75195E+01
 -1.36950E+02 +8.76582E+00 -1.14796E+02 -4.18569E+01 -7.61036E+01 -7.62034E+01 -2.96995E+01 -8.96503E+01
 +1.47173E+01 -8.18197E+01 +4.84706E+01 -5.64684E+01 +6.55495E+01 -2.05822E+01 +6.36858E+01 +1.71334E+01
 +4.46657E+01 +4.80608E+01 +1.38292E+01 +6.54151E+01 -2.11296E+01 +6.55832E+01 -5.18137E+01 +4.87980E+01
 -7.08905E+01 +1.90219E+01 -7.36198E+01 -1.69281E+01 -5.88389E+01 -5.08302E+01 -2.92101E+01 -7.47888E+01
 +9.31521E+00 -8.28958E+01 +4.87072E+01 -7.24877E+01 +8.04979E+01 -4.47464E+01 +9.75232E+01 -4.52077E+00
 +9.54149E+01 +4.05972E+01 +7.35450E+01 +8.17599E+01 +3.52286E+01 +1.10621E+02 -1.28594E+01 +1.21016E+02
 -6.19437E+01 +1.10224E+02 -1.02840E+02 +7.95681E+01 -1.27745E+02 +3.42253E+01 -1.31782E+02 -1.77285E+01
 -1.13980E+02 -6.68448E+01 -7.75108E+01 -1.04115E+02 -2.91143E+01 -1.22711E+02 +2.21674E+01 -1.19321E+02
 +6.67145E+01 -9.48072E+01 +9.61753E+01 -5.40689E+01 +1.05077E+02 -5.11770E+00 +9.18912E+01 +4.24461E+01
 +5.93410E+01 +7.92721E+01 +1.38960E+01 +9.80557E+01 -3.54572E+01 +9.49470E+01 -7.89284E+01 +7.03003E+01
 -1.07795E+02 +2.86187E+01 -1.16070E+02 -2.22937E+01 -1.01649E+02 -7.28116E+01 -6.67130E+01 -1.13314E+02
 -1.73208E+01 -1.36005E+02 +3.77435E+01 -1.36386E+02 +8.86296E+01 -1.14091E+02 +1.26276E+02 -7.29342E+01
 +1.44103E+02 -2.01694E+01 +1.39219E+02 +3.49047E+01 +1.12919E+02 +8.27073E+01 +7.03760E+01 +1.15174E+02
 +1.96075E+01 +1.27244E+02 -3.00948E+01 +1.17749E+02 -6.99469E+01 +8.95528E+01 -9.33307E+01 +4.89042E+01
 -9.70047E+01 +4.15698E+00 -8.16396E+01 -3.58984E+01 -5.15820E+01 -6.37568E+01 -1.39042E+01 -7.46376E+01
 +2.30678E+01 -6.73647E+01 +5.14493E+01 -4.45168E+01 +6.53810E+01 -1.18302E+01 +6.21870E+01 +2.30239E+01
 +4.28825E+01 +5.20374E+01 +1.19330E+01 +6.85195E+01 -2.36834E+01 +6.84767E+01 -5.59194E+01 +5.14426E+01
 -7.73203E+01 +2.05951E+01 -8.25712E+01 -1.78648E+01 -6.96205E+01 -5.59489E+01 -4.01545E+01 -8.54876E+01
 +6.75063E-01 -9.97876E+01 +4.52188E+01 -9.50130E+01 +8.48073E+01 -7.10134E+01 +1.11449E+02 -3.14323E+01
 +1.19415E+02 +1.69306E+01 +1.06401E+02 +6.53837E+01 +7.40337E+01 +1.04992E+02 +2.76199E+01 +1.28287E+02
 -2.48179E+01 +1.30715E+02 -7.40354E+01 +1.11530E+02 -1.11304E+02 +7.39626E+01 -1.30056E+02 +2.46338E+01
 -1.27126E+02 -2.76848E+01 -1.03339E+02 -7.37190E+01 -6.33402E+01 -1.05434E+02 -1.47033E+01 -1.17534E+02
 +3.35221E+01 -1.08442E+02 +7.25322E+01 -8.05503E+01 +9.54321E+01 -3.97285E+01 +9.85219E+01 +5.84165E+00
 +8.19580E+01 +4.72587E+01 +4.96682E+01 +7.66188E+01 +8.54083E+00 +8.85243E+01 -3.29504E+01 +8.10930E+01
 -6.64144E+01 +5.62773E+01 -8.51798E+01 +1.94354E+01 -8.55822E+01 -2.17567E+01 -6.76537E+01 -5.88362E+01
 -3.50848E+01 -8.42257E+01 +5.52912E+00 -9.27213E+01 +4.60066E+01 -8.25054E+01 +7.82020E+01 -5.54897E+01
 +9.56129E+01 -1.69250E+01 +9.46575E+01 +2.56429E+01 +7.53752E+01 +6.38640E+01 +4.14127E+01 +9.02280E+01
 -6.95606E-01 +9.95386E+01 -4.28133E+01 +8.99307E+01 -7.67973E+01 +6.32324E+01 -9.60920E+01 +2.46026E+01
 -9.70084E+01 -1.84822E+01 -7.94405E+01 -5.76927E+01 -4.68789E+01 -8.54755E+01 -5.72094E+00 -9.65263E+01
 +3.59857E+01 -8.88200E+01 +7.01192E+01 -6.39981E+01 +9.00712E+01 -2.70374E+01 +9.20345E+01 +1.47316E+01
 +7.57404E+01 +5.30655E+01 +4.45027E+01 +8.04237E+01 +4.56011E+00 +9.14433E+01 -3.61513E+01 +8.39859E+01
 -6.95568E+01 +5.95512E+01 -8.90253E+01 +2.29786E+01 -9.06684E+01 -1.85047E+01 -7.41006E+01 -5.67009E+01
 -4.25138E+01 -8.40476E+01 -2.05331E+00 -9.50988E+01 +3.93843E+01 -8.75903E+01 +7.36935E+01 -6.28839E+01
 +9.41426E+01 -2.57028E+01 +9.66876E+01 +1.67880E+01 +8.07613E+01 +5.63773E+01 +4.93842E+01 +8.54065E+01
 +8.57634E+00 +9.82593E+01 -3.38135E+01 +9.24520E+01 -6.96341E+01 +6.91141E+01 -9.20139E+01 +3.27651E+01
 -9.66931E+01 -9.56823E+00 -8.28447E+01 -4.97189E+01 -5.32276E+01 -7.99670E+01 -1.36420E+01 -9.45361E+01
 +2.82047E+01 -9.07086E+01 +6.41997E+01 -6.93435E+01 +8.74018E+01 -3.46985E+01 +9.33855E+01 +6.40949E+00
 +8.10930E+01 +4.59377E+01 +5.30277E+01 +7.61864E+01 +1.47554E+01 +9.12954E+01 -2.61899E+01 +8.83794E+01
 -6.17792E+01 +6.80797E+01 -8.50544E+01 +3.44288E+01 -9.14805E+01 -5.94541E+00 -7.98230E+01 -4.51180E+01
 -5.23792E+01 -7.54145E+01 -1.45224E+01 -9.09053E+01 +2.63518E+01 -8.85558E+01 +6.22706E+01 -6.88110E+01
 +8.62361E+01 -3.54997E+01 +9.35837E+01 +4.91783E+00 +8.28834E+01 +4.46126E+01 +5.62078E+01 +7.59120E+01
 +1.87190E+01 +9.27891E+01 -2.23437E+01 +9.20269E+01 -5.90768E+01 +7.38325E+01 -8.44488E+01 +4.17826E+01
 -9.36614E+01 +2.11431E+00 -8.50695E+01 -3.74987E+01 -6.04844E+01 -6.94439E+01 -2.48025E+01 -8.76491E+01
 +1.49648E+01 -8.87545E+01 +5.10697E+01 -7.27505E+01 +7.65421E+01 -4.29587E+01 +8.65457E+01 -5.36342E+00
 +7.93105E+01 +3.25744E+01 +5.64610E+01 +6.33865E+01 +2.26793E+01 +8.10613E+01 -1.52303E+01 +8.22170E+01
 -4.96883E+01 +6.67539E+01 -7.38352E+01 +3.78615E+01 -8.28804E+01 +1.37898E+00 -7.50421E+01 -3.53626E+01
 -5.18931E+01 -6.49894E+01 -1.80483E+01 -8.15393E+01 +1.97471E+01 -8.16394E+01 +5.39457E+01 -6.51719E+01
 +7.76851E+01 -3.53028E+01 +8.61404E+01 +2.13524E+00 +7.74787E+01 +3.97830E+01 +5.32276E+01 +7.01955E+01
 +1.79874E+01 +8.73014E+01 -2.14588E+01 +8.75958E+01 -5.74622E+01 +7.08341E+01 -8.29964E+01 +4.00906E+01
 -9.30264E+01 +1.17119E+00 -8.54914E+01 -3.85067E+01 -6.17116E+01 -7.13472E+01 -2.61380E+01 -9.10454E+01
 +1.45034E+01 -9.38065E+01 +5.25085E+01 -7.90782E+01 +8.06794E+01 -4.96554E+01 +9.37095E+01 -1.11380E+01
 +8.91996E+01 +2.91525E+01 +6.81102E+01 +6.35862E+01 +3.45639E+01 +8.56930E+01 -4.96258E+00 +9.14010E+01
 -4.28976E+01 +7.98068E+01 -7.20389E+01 +5.33299E+01 -8.69397E+01 +1.72236E+01 -8.49463E+01 -2.14594E+01
 -6.66898E+01 -5.52440E+01 -3.59372E+01 -7.76826E+01 +1.16500E+00 -8.45969E+01 +3.73036E+01 -7.48704E+01
 +6.54318E+01 -5.06403E+01 +8.01405E+01 -1.68545E+01 +7.87013E+01 +1.97161E+01 +6.15805E+01 +5.18162E+01
 +3.23250E+01 +7.31302E+01 -3.15324E+00 +7.95152E+01 -3.77528E+01 +6.98020E+01 -6.45849E+01 +4.60089E+01
 -7.83288E+01 +1.29299E+01 -7.62726E+01 -2.28206E+01 -5.88394E+01 -5.41171E+01 -2.94950E+01 -7.47289E+01
 +5.94130E+00 -8.05459E+01 +4.04476E+01 -7.03858E+01 +6.71841E+01 -4.62240E+01 +8.08401E+01 -1.28031E+01
 +7.86803E+01 +2.33012E+01 +6.10832E+01 +5.49734E+01 +3.14697E+01 +7.59568E+01 -4.36618E+00 +8.20846E+01
 -3.93918E+01 +7.21001E+01 -6.67134E+01 +4.79090E+01 -8.09277E+01 +1.42105E+01 -7.91826E+01 -2.24162E+01
 -6.17405E+01 -5.47954E+01 -3.19337E+01 -7.65551E+01 +4.47927E+00 -8.33720E+01 +4.04306E+01 -7.38181E+01
 +6.89158E+01 -4.96445E+01 +8.43552E+01 -1.54460E+01 +8.36787E+01 +2.22258E+01 +6.69231E+01 +5.61305E+01
 +3.72272E+01 +7.97393E+01 +2.25047E-01 +8.84976E+01 -3.70428E+01 +8.07027E+01 -6.74893E+01 +5.78296E+01
 -8.53470E+01 +2.42400E+01 -8.72752E+01 -1.36647E+01 -7.29956E+01 -4.86837E+01 -4.53329E+01 -7.42061E+01
 -9.65579E+00 -8.54816E+01 +2.71719E+01 -8.05252E+01 +5.81237E+01 -6.04827E+01 +7.73679E+01 -2.93885E+01
 +8.13858E+01 +6.63550E+00 +6.96350E+01 +4.05804E+01 +4.46305E+01 +6.59160E+01 +1.14319E+01 +7.78548E+01
 -2.33615E+01 +7.42695E+01 -5.29095E+01 +5.60859E+01 -7.14685E+01 +2.70788E+01 -7.55071E+01 -6.88791E+00
 -6.43827E+01 -3.90246E+01 -4.04497E+01 -6.29547E+01 -8.57959E+00 -7.39659E+01 +2.48103E+01 -6.99295E+01
 +5.30272E+01 -5.17088E+01 +7.04231E+01 -2.29795E+01 +7.35063E+01 +1.05027E+01 +6.16260E+01 +4.20404E+01
 +3.70979E+01 +6.53161E+01 +4.74680E+00 +7.56372E+01 -2.90423E+01 +7.08601E+01 -5.75798E+01 +5.18145E+01
 -7.51850E+01 +2.21432E+01 -7.83030E+01 -1.24086E+01 -6.62041E+01 -4.51158E+01 -4.11314E+01 -6.95882E+01
 -7.86701E+00 -8.10195E+01 +2.71979E+01 -7.71276E+01 +5.73070E+01 -5.86022E+01 +7.66537E+01 -2.89726E+01
 +8.15109E+01 +6.07722E+00 +7.09554E+01 +3.98133E+01 +4.70460E+01 +6.57596E+01 +1.44212E+01 +7.89549E+01
 -2.06034E+01 +7.69138E+01 -5.12633E+01 +6.01048E+01 -7.16583E+01 +3.18538E+01 -7.78951E+01 -2.30700E+00
 -6.88383E+01 -3.57183E+01 -4.63233E+01 -6.18888E+01 -1.47922E+01 -7.57551E+01 +1.95764E+01 -7.46605E+01
 +5.00724E+01 -5.88643E+01 +7.07589E+01 -3.14823E+01 +7.76230E+01 +2.12671E+00 +6.93500E+01 +3.54092E+01
 +4.75695E+01 +6.18935E+01 +1.65299E+01 +7.64470E+01 -1.77361E+01 +7.62683E+01 -4.85890E+01 +6.14232E+01
 -7.00747E+01 +3.48215E+01 -7.80778E+01 +1.64071E+00 -7.11138E+01 -3.16889E+01 -5.06057E+01 -5.87386E+01
 -2.05946E+01 -7.43304E+01 +1.30584E+01 -7.55381E+01 +4.38211E+01 -6.22442E+01 +6.57649E+01 -3.71496E+01
 +7.47160E+01 -5.23199E+00 +6.90600E+01 +2.72360E+01 +5.00433E+01 +5.39176E+01 +2.15150E+01 +6.96496E+01
 -1.08387E+01 +7.14462E+01 -4.06162E+01 +5.90728E+01 -6.19573E+01 +3.50799E+01 -7.06902E+01 +4.29170E+00
 -6.51443E+01 -2.71485E+01 -4.64702E+01 -5.29885E+01 -1.84068E+01 -6.80960E+01 +1.34587E+01 -6.94644E+01
 +4.27914E+01 -5.68006E+01 +6.37537E+01 -3.25802E+01 +7.21517E+01 -1.55977E+00 +6.62582E+01 +3.01566E+01
 +4.71521E+01 +5.63139E+01 +1.85093E+01 +7.17322E+01 -1.41158E+01 +7.33207E+01 -4.43737E+01 +6.06848E+01
 -6.63594E+01 +3.62046E+01 -7.57648E+01 +4.57384E+00 -7.07187E+01 -2.81138E+01 -5.21523E+01 -5.55495E+01
 -2.36183E+01 -7.24362E+01 +9.39978E+00 -7.55167E+01 +4.05530E+01 -6.42049E+01 +6.38594E+01 -4.06968E+01
 +7.48630E+01 -9.54013E+00 +7.14947E+01 +2.32513E+01 +5.44672E+01 +5.13663E+01 +2.71297E+01 +6.94202E+01
 -5.18959E+00 +7.39954E+01 -3.62234E+01 +6.42974E+01 -5.99839E+01 +4.22989E+01 -7.19239E+01 +1.23465E+01
 -6.98133E+01 -1.96934E+01 -5.41630E+01 -4.75798E+01 -2.81136E+01 -6.59124E+01 +3.18619E+00 -7.11778E+01
 +3.35903E+01 -6.24257E+01 +5.71557E+01 -4.14429E+01 +6.92994E+01 -1.23946E+01 +6.76858E+01 +1.89969E+01
 +5.26735E+01 +4.65730E+01 +2.72355E+01 +6.49413E+01 -3.63013E+00 +7.05241E+01 -3.38816E+01 +6.22492E+01
 -5.76153E+01 +4.17507E+01 -7.02164E+01 +1.30403E+01 -6.92538E+01 -1.82827E+01 -5.49465E+01 -4.61290E+01
