 Created: 16-Jan-2021
 $NMID
 ID='D:\BASISSIMULATI'
 FMTDAT='(8E13.5)'
 VOLUME=   1.00000E+00
 TRAMP=   1.00000E+00
 $END
 +1.25310E+02 +1.99618E+01 +9.73215E+01 +4.05088E+01 +3.70700E+01 +5.85187E+01 -2.04479E+01 +7.16469E+01
 -4.64296E+01 +6.94642E+01 -3.73602E+01 +4.55228E+01 -1.22358E+01 +8.81670E+00 +6.55344E+00 -1.92810E+01
 +9.88585E+00 -2.16622E+01 +2.94779E+00 -2.23888E-01 -5.67542E+00 +2.56518E+01 -1.29731E+01 +3.55084E+01
 -2.02166E+01 +2.36406E+01 -2.62438E+01 +4.88305E-01 -2.57052E+01 -1.93741E+01 -1.51838E+01 -2.93388E+01
 +6.73373E-01 -3.20009E+01 +1.18481E+01 -3.15362E+01 +1.30486E+01 -2.79937E+01 +1.01975E+01 -1.98646E+01
 +1.49939E+01 -9.95941E+00 +3.20969E+01 -5.17023E+00 +5.24487E+01 -8.48977E+00 +6.07637E+01 -1.24734E+01
 +5.03379E+01 -3.82158E+00 +2.99188E+01 +2.29941E+01 +1.50184E+01 +5.66287E+01 +1.22692E+01 +7.55213E+01
 +1.31063E+01 +6.61972E+01 +3.66819E+00 +3.62001E+01 -1.91852E+01 +8.35867E+00 -4.26015E+01 +8.22160E-01
 -4.92357E+01 +1.15190E+01 -3.41832E+01 +2.17378E+01 -1.01972E+01 +1.50078E+01 +4.12782E+00 -7.19549E+00
 +1.30892E+00 -2.76645E+01 -9.67059E+00 -3.04142E+01 -1.41116E+01 -1.53018E+01 -6.65734E+00 +3.16877E+00
 +4.69193E+00 +1.00020E+01 +8.70332E+00 +2.04026E+00 +3.58873E+00 -1.24338E+01 -1.17278E+00 -2.36489E+01
 +4.89949E+00 -2.79397E+01 +2.23334E+01 -2.61143E+01 +4.12959E+01 -1.74564E+01 +5.10633E+01 +1.17452E+00
 +4.85627E+01 +2.90986E+01 +3.75814E+01 +5.65649E+01 +2.16249E+01 +6.90857E+01 +3.80854E-01 +5.93750E+01
 -2.55919E+01 +3.50755E+01 -4.85081E+01 +1.31358E+01 -5.54050E+01 +5.10573E+00 -3.95385E+01 +7.65403E+00
 -1.00350E+01 +7.94899E+00 +1.21265E+01 -1.64393E+00 +1.08072E+01 -1.49680E+01 -1.07741E+01 -1.87961E+01
 -3.22307E+01 -7.90874E+00 -3.39713E+01 +7.60258E+00 -1.44454E+01 +1.11924E+01 +9.52354E+00 -3.60251E+00
 +1.92311E+01 -2.58134E+01 +1.12063E+01 -3.67255E+01 -1.19163E+00 -2.72244E+01 -2.06466E+00 -5.73541E+00
 +1.17525E+01 +1.06707E+01 +2.90433E+01 +1.25903E+01 +3.62113E+01 +5.82816E+00 +2.96940E+01 +3.68056E+00
 +1.67972E+01 +1.29843E+01 +6.11758E+00 +2.82210E+01 -8.67679E-01 +3.83949E+01 -8.41516E+00 +3.80142E+01
 -1.85957E+01 +3.04953E+01 -2.71947E+01 +2.18944E+01 -2.84771E+01 +1.36372E+01 -2.28147E+01 +2.94707E+00
 -1.74032E+01 -1.03689E+01 -1.83039E+01 -2.01833E+01 -2.26942E+01 -1.92984E+01 -2.09756E+01 -8.48637E+00
 -7.67270E+00 +1.65691E+00 +1.05131E+01 +3.93708E-02 +1.93358E+01 -1.31317E+01 +1.09623E+01 -2.50076E+01
 -6.85168E+00 -2.21558E+01 -1.67125E+01 -4.62062E+00 -7.80875E+00 +1.27020E+01 +1.34781E+01 +1.39050E+01
 +2.94308E+01 -2.00229E+00 +2.77813E+01 -1.90759E+01 +1.28421E+01 -1.89150E+01 +1.40437E-01 +2.13826E+00
 +3.84879E-01 +2.95874E+01 +9.10024E+00 +4.40502E+01 +1.20314E+01 +3.80040E+01 +2.09380E-01 +2.02940E+01
 -2.08179E+01 +5.60931E+00 -3.64250E+01 +7.27222E-01 -3.66991E+01 +9.63674E-01 -2.44975E+01 -1.58150E+00
 -1.07108E+01 -8.44818E+00 -3.16561E+00 -1.41992E+01 -1.10346E+00 -1.40300E+01 +3.35412E-01 -9.81732E+00
 +2.54612E+00 -7.50923E+00 +2.23511E+00 -9.43404E+00 -2.54762E+00 -1.11951E+01 -7.40397E+00 -7.31307E+00
 -4.92503E+00 +9.14614E-01 +6.46552E+00 +5.21333E+00 +1.85327E+01 -7.09160E-01 +2.01472E+01 -1.25460E+01
 +8.99181E+00 -1.75694E+01 -4.55799E+00 -6.94740E+00 -6.83204E+00 +1.40507E+01 +5.04647E+00 +2.93279E+01
 +1.89495E+01 +2.66921E+01 +1.87444E+01 +9.75790E+00 +2.96264E-01 -5.22429E+00 -2.34942E+01 -4.96941E+00
 -3.41146E+01 +8.11682E+00 -2.44552E+01 +1.86916E+01 -4.91974E+00 +1.38307E+01 +6.99541E+00 -4.37971E+00
 +3.02879E+00 -2.12457E+01 -9.46334E+00 -2.38421E+01 -1.63011E+01 -1.27246E+01 -1.05819E+01 +1.01427E-01
 +2.00463E+00 +3.69328E+00 +1.06226E+01 -2.09402E+00 +1.03810E+01 -8.73348E+00 +5.48946E+00 -9.15136E+00
 +2.62428E+00 -4.35953E+00 +3.21274E+00 -2.87068E-01 +3.35978E+00 +1.43275E-01 +4.58042E-01 -4.63246E-02
 -2.35687E+00 +3.02744E+00 +1.58419E-01 +7.84550E+00 +7.79966E+00 +8.36973E+00 +1.29984E+01 +1.72455E+00
 +8.13014E+00 -6.43910E+00 -5.30091E+00 -6.36036E+00 -1.62981E+01 +5.09203E+00 -1.46981E+01 +1.89685E+01
 -2.09332E+00 +2.13281E+01 +8.57805E+00 +6.99101E+00 +5.52459E+00 -1.39524E+01 -9.50464E+00 -2.44545E+01
 -2.19156E+01 -1.63299E+01 -1.81738E+01 +1.88598E+00 +5.85861E-01 +1.30578E+01 +1.89377E+01 +7.72912E+00
 +2.14520E+01 -7.39323E+00 +6.97689E+00 -1.67966E+01 -1.08460E+01 -1.15770E+01 -1.67924E+01 +2.50558E+00
 -7.67556E+00 +1.17272E+01 +6.45423E+00 +8.25864E+00 +1.33169E+01 -2.94915E+00 +9.64521E+00 -1.03448E+01
 +1.91259E+00 -7.58961E+00 -2.35052E+00 +1.28878E+00 -2.19515E+00 +7.60235E+00 -2.02898E+00 +7.19927E+00
 -4.41942E+00 +3.15455E+00 -6.26446E+00 +2.70983E-01 -2.97089E+00 -1.00680E+00 +4.67404E+00 -3.82062E+00
 +9.77511E+00 -8.73802E+00 +6.50010E+00 -1.06444E+01 -2.71344E+00 -3.78207E+00 -8.68099E+00 +1.00382E+01
 -5.06765E+00 +2.00958E+01 +4.11588E+00 +1.58036E+01 +7.94923E+00 -2.03901E+00 +2.83468E-01 -1.98643E+01
 -1.25344E+01 -2.27871E+01 -1.68717E+01 -8.52162E+00 -5.61742E+00 +1.00551E+01 +1.33602E+01 +1.67816E+01
 +2.34248E+01 +7.21922E+00 +1.47041E+01 -7.82411E+00 -6.16909E+00 -1.34744E+01 -2.18421E+01 -5.31912E+00
 -2.00297E+01 +7.04878E+00 -4.07748E+00 +1.03815E+01 +1.13982E+01 +1.03712E+00 +1.46587E+01 -1.20869E+01
 +6.65174E+00 -1.70654E+01 -2.19604E+00 -1.04894E+01 -3.38908E+00 +5.00872E-01 +2.21266E+00 +6.59945E+00
 +7.51950E+00 +5.43236E+00 +7.83319E+00 +2.07440E+00 +4.97234E+00 +1.78435E+00 +3.22648E+00 +4.00144E+00
 +3.13360E+00 +4.24333E+00 +1.05320E+00 +8.55236E-01 -5.04583E+00 -2.10000E+00 -1.11255E+01 +2.66901E-01
 -1.03481E+01 +6.68143E+00 -1.26232E+00 +9.46456E+00 +8.59818E+00 +2.54574E+00 +9.13041E+00 -1.06405E+01
 -1.55681E+00 -1.87814E+01 -1.35739E+01 -1.34813E+01 -1.39546E+01 +1.50908E+00 +1.70123E-01 +1.27906E+01
 +1.73599E+01 +9.96615E+00 +2.18133E+01 -4.00978E+00 +8.42838E+00 -1.55408E+01 -1.17244E+01 -1.38399E+01
 -2.11341E+01 -1.67708E+00 -1.15467E+01 +7.54272E+00 +9.27665E+00 +3.54373E+00 +2.55512E+01 -1.00637E+01
 +2.76310E+01 -1.88672E+01 +1.86068E+01 -1.15073E+01 +8.28926E+00 +9.33818E+00 +2.40435E+00 +2.92253E+01
 -1.44036E+00 +3.46014E+01 -7.95415E+00 +2.34221E+01 -1.63491E+01 +4.60342E+00 -1.98862E+01 -1.11269E+01
 -1.32915E+01 -1.88881E+01 +5.08864E-01 -1.94430E+01 +1.21416E+01 -1.43255E+01 +1.43696E+01 -3.82642E+00
 +8.34312E+00 +9.83395E+00 +1.08862E+00 +1.96225E+01 -2.43006E+00 +1.72090E+01 -3.55053E+00 +1.21997E+00
 -5.96717E+00 -1.86052E+01 -8.88012E+00 -2.77016E+01 -6.18667E+00 -1.91362E+01 +6.25096E+00 -4.01806E-01
 +2.32009E+01 +1.29099E+01 +3.20047E+01 +1.12513E+01 +2.38620E+01 -4.15975E-01 +3.67345E+00 -8.09800E+00
 -1.24358E+01 -2.69678E+00 -1.10531E+01 +1.14477E+01 +5.91637E+00 +2.15991E+01 +2.23793E+01 +1.96352E+01
 +2.23732E+01 +9.62788E+00 +4.26375E+00 +2.65416E+00 -1.83092E+01 +4.82699E+00 -2.90001E+01 +1.12060E+01
 -2.24982E+01 +1.16182E+01 -7.02274E+00 +1.82974E+00 +5.11016E+00 -1.17564E+01 +8.37820E+00 -1.84812E+01
 +6.22241E+00 -1.38421E+01 +4.48968E+00 -3.15916E+00 +4.75857E+00 +4.61903E+00 +4.53855E+00 +5.69672E+00
 +2.46974E+00 +3.54224E+00 +1.07991E+00 +3.06369E+00 +3.42349E+00 +4.32091E+00 +8.07254E+00 +3.12093E+00
 +9.51530E+00 -2.59381E+00 +4.67650E+00 -8.59173E+00 -1.75714E+00 -7.94004E+00 -5.13751E-01 +1.29072E+00
 +1.22824E+01 +1.30977E+01 +2.84910E+01 +1.93638E+01 +3.29309E+01 +1.84450E+01 +1.67944E+01 +1.67749E+01
 -1.29929E+01 +2.09384E+01 -3.80777E+01 +2.84859E+01 -4.33666E+01 +2.82247E+01 -2.87123E+01 +1.13288E+01
 -7.17478E+00 -1.73158E+01 +7.49872E+00 -3.98094E+01 +1.16052E+01 -3.91133E+01 +1.08354E+01 -1.40294E+01
 +1.08889E+01 +1.86675E+01 +1.05228E+01 +3.72355E+01 +4.43548E+00 +3.15535E+01 -8.03533E+00 +9.07703E+00
 -1.89749E+01 -1.35011E+01 -1.80332E+01 -2.37299E+01 -2.77860E+00 -2.00621E+01 +1.75824E+01 -8.31979E+00
 +2.93974E+01 +5.44989E+00 +2.58703E+01 +1.78582E+01 +1.17325E+01 +2.60864E+01 -2.41035E+00 +2.64588E+01
 -9.50584E+00 +1.75162E+01 -9.98689E+00 +4.24852E+00 -7.91843E+00 -3.17168E+00 -5.46454E+00 +2.52795E+00
 -2.36938E+00 +1.79259E+01 +7.83576E-02 +3.00937E+01 -2.75316E+00 +2.72533E+01 -1.43028E+01 +9.43606E+00
 -3.02132E+01 -1.12727E+01 -3.82900E+01 -2.14826E+01 -2.78886E+01 -1.79411E+01 -1.03229E+00 -8.71851E+00
 +2.62377E+01 -3.63223E+00 +3.55553E+01 -4.22018E+00 +2.14224E+01 -3.57256E+00 -4.01016E+00 +4.36324E+00
 -2.13213E+01 +1.64575E+01 -1.99802E+01 +2.23614E+01 -5.68758E+00 +1.50106E+01 +6.95790E+00 -1.30806E+00
 +8.44062E+00 -1.39585E+01 +1.54164E+00 -1.32610E+01 -3.85168E+00 -8.59573E-01 -1.61951E+00 +1.28885E+01
 +5.21554E+00 +1.92497E+01 +8.80671E+00 +1.84423E+01 +4.54128E+00 +1.70675E+01 -5.75275E+00 +1.93967E+01
 -1.74139E+01 +2.22819E+01 -2.76802E+01 +1.88526E+01 -3.57498E+01 +6.44180E+00 -3.92080E+01 -1.00217E+01
 -3.30478E+01 -2.24569E+01 -1.45390E+01 -2.65806E+01 +1.06700E+01 -2.38701E+01 +2.91859E+01 -1.73800E+01
 +2.91923E+01 -7.50135E+00 +1.08153E+01 +6.58000E+00 -1.27433E+01 +2.15310E+01 -2.54789E+01 +2.82922E+01
 -2.13061E+01 +1.86686E+01 -7.59052E+00 -5.08948E+00 +3.27195E+00 -2.81753E+01 +5.42444E+00 -3.31784E+01
 +2.96516E+00 -1.46475E+01 +2.86205E+00 +1.51051E+01 +5.91893E+00 +3.52403E+01 +5.82635E+00 +3.31035E+01
 -2.89367E+00 +1.37130E+01 -1.71324E+01 -5.96513E+00 -2.66617E+01 -1.19503E+01 -2.39398E+01 -3.66450E+00
 -1.21927E+01 +8.37808E+00 -3.08647E+00 +1.33776E+01 -5.86776E+00 +8.47949E+00 -1.85729E+01 -2.02016E+00
 -2.98058E+01 -1.29880E+01 -2.90309E+01 -2.22901E+01 -1.53063E+01 -2.89557E+01 +3.21186E+00 -3.00274E+01
 +1.70441E+01 -2.17916E+01 +2.20089E+01 -4.95764E+00 +1.91575E+01 +1.26521E+01 +1.05700E+01 +2.06848E+01
 -2.56191E+00 +1.49075E+01 -1.74159E+01 +1.32203E+00 -2.72048E+01 -9.07132E+00 -2.43836E+01 -1.01601E+01
 -8.05864E+00 -5.43626E+00 +1.22154E+01 -2.85645E+00 +2.21441E+01 -5.45539E+00 +1.43610E+01 -7.86910E+00
 -4.69405E+00 -2.66423E+00 -2.00444E+01 +1.02480E+01 -2.14362E+01 +2.14949E+01 -1.22246E+01 +2.03825E+01
 -5.33281E+00 +5.38069E+00 -1.01934E+01 -1.37908E+01 -2.33587E+01 -2.48648E+01 -3.17481E+01 -2.39344E+01
 -2.50798E+01 -1.78014E+01 -5.36343E+00 -1.58275E+01 +1.51991E+01 -1.99855E+01 +2.49868E+01 -2.32821E+01
