 Created: 16-Jan-2021
 $NMID
 ID='D:\BASISSIMULATI'
 FMTDAT='(8E13.5)'
 VOLUME=   1.00000E+00
 TRAMP=   1.00000E+00
 $END
 +9.75248E+01 +1.68485E+01 +7.26526E+01 +3.10433E+01 +1.95273E+01 +4.05970E+01 -3.10260E+01 +4.51469E+01
 -5.35147E+01 +3.98740E+01 -4.41218E+01 +2.20683E+01 -1.88231E+01 -2.31712E+00 +2.69584E+00 -2.07626E+01
 +1.18916E+01 -2.42759E+01 +1.31029E+01 -1.55335E+01 +1.40247E+01 -6.13520E+00 +1.66575E+01 -4.91474E+00
 +1.75304E+01 -8.87758E+00 +1.46893E+01 -6.36604E+00 +1.17756E+01 +1.01173E+01 +1.37642E+01 +3.42019E+01
 +1.93040E+01 +4.94106E+01 +1.93710E+01 +4.36174E+01 +5.54293E+00 +2.05354E+01 -1.96914E+01 -3.03857E+00
 -4.17315E+01 -1.18993E+01 -4.46673E+01 -5.21037E+00 -2.48897E+01 +4.48840E+00 +5.22830E+00 +4.50732E+00
 +2.73030E+01 -5.68242E+00 +3.14063E+01 -1.47330E+01 +2.18953E+01 -1.12679E+01 +1.02609E+01 +4.84782E+00
 +3.26349E+00 +2.26493E+01 -1.58720E+00 +3.06341E+01 -9.65963E+00 +2.66697E+01 -2.00759E+01 +1.77731E+01
 -2.46462E+01 +1.12793E+01 -1.66343E+01 +7.54583E+00 +2.60117E-02 +1.82516E+00 +1.17895E+01 -7.59856E+00
 +7.29960E+00 -1.49593E+01 -1.11112E+01 -1.21354E+01 -2.79948E+01 +1.60912E+00 -2.79048E+01 +1.61486E+01
 -9.20100E+00 +1.84050E+01 +1.43455E+01 +4.87825E+00 +2.55718E+01 -1.36449E+01 +1.82482E+01 -2.07531E+01
 +7.30163E-01 -8.98568E+00 -1.33272E+01 +1.32852E+01 -1.72603E+01 +2.91835E+01 -1.49841E+01 +2.78935E+01
 -1.38832E+01 +1.28557E+01 -1.58126E+01 -3.37114E+00 -1.59442E+01 -1.14874E+01 -9.92345E+00 -1.25566E+01
 -5.50523E-01 -1.36178E+01 +4.13358E+00 -1.77261E+01 -2.45799E-01 -1.97365E+01 -8.33204E+00 -1.24674E+01
 -9.29868E+00 +3.62547E+00 +1.91383E+00 +1.82775E+01 +1.77705E+01 +2.00806E+01 +2.35626E+01 +7.73680E+00
 +1.08545E+01 -7.71210E+00 -1.37628E+01 -1.26569E+01 -3.33996E+01 -3.61289E+00 -3.50560E+01 +9.48032E+00
 -2.01429E+01 +1.26435E+01 -1.83252E+00 +8.92280E-01 +7.55204E+00 -1.74756E+01 +6.69096E+00 -2.89375E+01
 +3.76587E+00 -2.67670E+01 +6.09280E+00 -1.54311E+01 +1.21831E+01 -4.13345E+00 +1.41888E+01 +2.71507E+00
 +7.41445E+00 +7.95959E+00 -3.76035E+00 +1.52776E+01 -1.00981E+01 +2.19513E+01 -7.37627E+00 +1.98108E+01
 -1.17866E+00 +4.22988E+00 -1.05788E+00 -1.83419E+01 -9.81795E+00 -3.33201E+01 -1.92391E+01 -3.00191E+01
 -1.73716E+01 -1.16279E+01 -6.76763E-01 +6.90920E+00 +2.10903E+01 +1.17686E+01 +3.25776E+01 +2.04987E+00
 +2.61104E+01 -1.04284E+01 +8.01448E+00 -1.27657E+01 -7.74594E+00 -2.69710E+00 -1.20774E+01 +1.04840E+01
 -7.35874E+00 +1.57395E+01 -2.57760E+00 +1.05019E+01 -3.04061E+00 +1.44157E+00 -5.57474E+00 -3.85110E+00
 -3.64714E+00 -4.73802E+00 +3.91156E+00 -6.63397E+00 +1.05788E+01 -1.29117E+01 +9.07470E+00 -1.91334E+01
 +1.26359E-01 -1.66596E+01 -6.83444E+00 -2.39924E+00 -2.72287E+00 +1.57321E+01 +1.12085E+01 +2.43297E+01
 +2.29843E+01 +1.65220E+01 +2.04459E+01 -1.12506E+00 +2.96096E+00 -1.39952E+01 -1.71102E+01 -1.23786E+01
 -2.49292E+01 +2.13452E-01 -1.58890E+01 +1.11120E+01 +1.24985E+00 +1.06603E+01 +1.31471E+01 +6.11938E-01
 +1.36148E+01 -8.90021E+00 +7.20985E+00 -9.95582E+00 +2.38514E+00 -4.00137E+00 +2.30456E+00 +1.21109E+00
 +2.93935E+00 +8.35612E-01 -3.86778E-01 -1.91388E+00 -6.04511E+00 -1.18882E-01 -7.01892E+00 +7.96422E+00
 +8.98830E-01 +1.55204E+01 +1.26452E+01 +1.35720E+01 +1.70114E+01 +8.82806E-01 +7.31192E+00 -1.31623E+01
 -1.08603E+01 -1.64871E+01 -2.31990E+01 -5.78344E+00 -1.90624E+01 +9.81405E+00 -1.20823E+00 +1.68064E+01
 +1.64330E+01 +9.60350E+00 +2.09372E+01 -4.72400E+00 +1.11134E+01 -1.35414E+01 -2.89441E+00 -1.03999E+01
 -9.86669E+00 -6.32296E-02 -7.19905E+00 +7.44757E+00 -1.07991E+00 +7.06562E+00 +1.66588E+00 +2.68519E+00
 +7.22120E-01 +1.49154E+00 +1.02068E+00 +5.32904E+00 +5.24641E+00 +8.61759E+00 +9.13408E+00 +5.01074E+00
 +5.45917E+00 -4.58994E+00 -7.12235E+00 -1.17227E+01 -2.01562E+01 -8.72341E+00 -2.16989E+01 +2.71585E+00
 -7.59369E+00 +1.20464E+01 +1.33265E+01 +9.69369E+00 +2.58670E+01 -3.22774E+00 +2.12920E+01 -1.51637E+01
 +4.51235E+00 -1.45753E+01 -1.08993E+01 -7.28711E-01 -1.48248E+01 +1.55209E+01 -8.35642E+00 +2.15970E+01
 -5.49635E-01 +1.41595E+01 +1.48097E+00 +9.22545E-01 -1.23438E+00 -7.62062E+00 -2.68196E+00 -7.79910E+00
 +5.42838E-02 -4.38175E+00 +3.13268E+00 -3.63309E+00 +8.08753E-01 -5.95531E+00 -6.72161E+00 -6.06567E+00
 -1.16714E+01 -1.00523E-01 -6.01254E+00 +8.62439E+00 +9.22104E+00 +1.20680E+01 +2.26456E+01 +6.01457E+00
 +2.17399E+01 -4.40615E+00 +4.43967E+00 -8.75270E+00 -1.79754E+01 -1.55554E+00 -2.98593E+01 +1.13939E+01
 -2.39989E+01 +1.76066E+01 -6.69902E+00 +9.51340E+00 +8.86071E+00 -7.94398E+00 +1.40300E+01 -2.12519E+01
 +1.01787E+01 -2.02279E+01 +4.33034E+00 -6.68188E+00 +8.83500E-01 +8.05886E+00 -1.62771E+00 +1.38032E+01
 -6.18789E+00 +9.80532E+00 -1.13923E+01 +3.23728E+00 -1.15183E+01 +5.11507E-01 -3.10539E+00 +9.82376E-01
 +9.26044E+00 -6.79901E-01 +1.52289E+01 -6.72949E+00 +8.03057E+00 -1.22519E+01 -8.09862E+00 -9.74736E+00
 -2.04390E+01 +2.13256E+00 -1.87847E+01 +1.51575E+01 -4.77822E+00 +1.78541E+01 +9.47251E+00 +6.07746E+00
 +1.24157E+01 -1.24303E+01 +3.33743E+00 -2.42248E+01 -7.73081E+00 -2.14670E+01 -1.00287E+01 -7.88193E+00
 -2.09130E+00 +5.70622E+00 +7.72485E+00 +1.12583E+01 +1.00950E+01 +9.15976E+00 +3.74304E+00 +5.05978E+00
 -4.20489E+00 +2.55379E+00 -6.25140E+00 +4.32208E-02 -2.27711E+00 -5.26556E+00 +9.22098E-01 -1.16135E+01
 -2.52271E+00 -1.27450E+01 -1.07626E+01 -4.79064E+00 -1.56226E+01 +7.27707E+00 -1.06945E+01 +1.17089E+01
 +2.22799E+00 +4.28407E-01 +1.48378E+01 -2.15317E+01 +2.00967E+01 -3.75294E+01 +1.79576E+01 -3.20787E+01
 +1.34286E+01 -4.35695E+00 +9.74937E+00 +2.95909E+01 +4.64159E+00 +4.83422E+01 -5.94178E+00 +4.07115E+01
 -2.06827E+01 +1.27192E+01 -3.08191E+01 -1.87167E+01 -2.67255E+01 -3.85538E+01 -7.47037E+00 -4.18800E+01
 +1.63664E+01 -3.26650E+01 +3.04266E+01 -1.72608E+01 +2.83336E+01 -2.06256E-01 +1.65339E+01 +1.49265E+01
 +7.54350E+00 +2.35297E+01 +7.98674E+00 +2.15779E+01 +1.28420E+01 +1.01964E+01 +1.12710E+01 -2.57886E+00
 -1.82173E+00 -6.90272E+00 -1.98058E+01 +1.86005E-01 -2.96632E+01 +1.08591E+01 -2.34416E+01 +1.24282E+01
 -4.98911E+00 -1.16670E+00 +1.39327E+01 -2.27281E+01 +2.38133E+01 -3.67486E+01 +2.40707E+01 -3.20610E+01
 +2.07641E+01 -1.09485E+01 +1.89539E+01 +1.33599E+01 +1.79351E+01 +2.80653E+01 +1.35630E+01 +3.02761E+01
 +4.10388E+00 +2.62691E+01 -7.19986E+00 +2.25289E+01 -1.53453E+01 +1.84125E+01 -1.83713E+01 +8.01805E+00
 -1.79903E+01 -1.10140E+01 -1.55005E+01 -3.14137E+01 -8.42392E+00 -4.00233E+01 +6.96929E+00 -2.86347E+01
 +2.88733E+01 -1.89535E+00 +4.65693E+01 +2.52731E+01 +4.62360E+01 +3.85996E+01 +2.27433E+01 +3.41712E+01
 -1.30949E+01 +1.91409E+01 -3.99447E+01 +4.30787E+00 -4.12513E+01 -3.78026E+00 -1.80868E+01 -4.80449E+00
 +1.15724E+01 -1.28578E+00 +2.68479E+01 +4.70124E+00 +1.95762E+01 +1.11476E+01 -1.13028E+00 +1.42081E+01
 -1.80445E+01 +9.37552E+00 -1.97816E+01 -3.58944E+00 -7.80857E+00 -1.71194E+01 +7.65886E+00 -1.93820E+01
 +1.70627E+01 -4.03187E+00 +1.73148E+01 +2.21067E+01 +1.05941E+01 +4.17556E+01 +5.96232E-02 +3.99222E+01
 -1.19227E+01 +1.65209E+01 -2.21568E+01 -1.24174E+01 -2.56485E+01 -2.68359E+01 -1.86174E+01 -1.81927E+01
 -3.34217E+00 +4.58911E+00 +1.09731E+01 +2.33649E+01 +1.41416E+01 +2.55062E+01 +3.47762E+00 +1.24736E+01
 -1.31322E+01 -3.97334E+00 -2.32524E+01 -1.28739E+01 -2.01153E+01 -1.19335E+01 -7.77048E+00 -6.25519E+00
 +3.50490E+00 -1.27601E+00 +6.88183E+00 +2.13665E+00 +4.25220E+00 +6.24849E+00 +2.20422E+00 +1.17625E+01
 +3.34094E+00 +1.58790E+01 +2.43575E+00 +1.51898E+01 -7.97428E+00 +9.61801E+00 -2.78549E+01 +2.49753E+00
 -4.60279E+01 -3.39578E+00 -4.75525E+01 -9.00869E+00 -2.64321E+01 -1.71111E+01 +7.73961E+00 -2.69624E+01
 +3.56374E+01 -3.18833E+01 +4.19859E+01 -2.39140E+01 +2.58647E+01 -2.26408E+00 -3.68203E-01 +2.28512E+01
 -2.13665E+01 +3.61875E+01 -2.89982E+01 +2.92658E+01 -2.49488E+01 +7.67466E+00 -1.60286E+01 -1.31954E+01
 -8.26123E+00 -2.07382E+01 -4.64052E+00 -1.50306E+01 -6.02562E+00 -7.35333E+00 -1.15685E+01 -9.02456E+00
 -1.74122E+01 -2.09258E+01 -1.65709E+01 -3.30217E+01 -3.10246E+00 -3.36525E+01 +2.12135E+01 -1.96341E+01
 +4.41848E+01 +1.70366E+00 +4.93947E+01 +1.92569E+01 +2.83818E+01 +2.64890E+01 -1.08811E+01 +2.39588E+01
 -4.73950E+01 +1.53867E+01 -6.10426E+01 +2.93180E+00 -4.63167E+01 -1.30348E+01 -1.49294E+01 -3.03472E+01
 +1.42621E+01 -4.30027E+01 +2.90067E+01 -4.42754E+01 +2.98297E+01 -3.25111E+01 +2.50629E+01 -1.35115E+01
 +2.11832E+01 +3.55157E+00 +1.79221E+01 +1.31086E+01 +1.15532E+01 +1.63019E+01 +1.32505E+00 +1.73658E+01
 -8.39787E+00 +1.74564E+01 -1.23256E+01 +1.28731E+01 -9.76689E+00 -4.04385E-02 -5.22945E+00 -1.84593E+01
 -3.37724E+00 -3.25824E+01 -3.84180E+00 -3.29433E+01 -1.61465E+00 -1.91858E+01 +7.20524E+00 -1.58647E+00
 +2.03256E+01 +7.04747E+00 +3.03264E+01 +2.26475E+00 +3.10358E+01 -8.27644E+00 +2.28621E+01 -1.17926E+01
 +1.18116E+01 -1.86092E+00 +3.46875E+00 +1.58741E+01 -1.64639E+00 +2.85743E+01 -6.60153E+00 +2.68466E+01
 -1.24445E+01 +1.16616E+01 -1.50926E+01 -7.70065E+00 -8.82828E+00 -2.14882E+01 +6.72567E+00 -2.55172E+01
 +2.36526E+01 -2.10839E+01 +3.09215E+01 -1.10981E+01 +2.37018E+01 +2.22618E+00 +8.11797E+00 +1.60718E+01
 -3.50501E+00 +2.52780E+01 -2.99554E+00 +2.42726E+01 +7.01921E+00 +1.22535E+01 +1.60936E+01 -3.70189E+00
 +1.55345E+01 -1.22545E+01 +5.63797E+00 -6.48985E+00 -5.64790E+00 +9.73149E+00 -1.05347E+01 +2.40640E+01
 -7.83235E+00 +2.53569E+01 -2.33712E+00 +1.25238E+01 +1.11987E+00 -5.08708E+00 +2.29231E+00 -1.58172E+01
 +4.32587E+00 -1.47522E+01 +8.83454E+00 -5.86912E+00 +1.31753E+01 +3.55437E+00 +1.30837E+01 +9.89265E+00
 +7.67313E+00 +1.46760E+01 +1.01040E+00 +2.01386E+01 -1.87418E+00 +2.45919E+01 -4.79087E-01 +2.32182E+01
 +2.59996E-01 +1.36528E+01 -4.83622E+00 +1.57725E-01 -1.49433E+01 -8.73581E+00 -2.26061E+01 -7.53213E+00
 -2.00705E+01 +9.92684E-01 -6.81271E+00 +8.04239E+00 +9.12039E+00 +6.75557E+00 +1.75975E+01 -1.56475E+00
 +1.48012E+01 -8.78549E+00 +5.74131E+00 -7.42622E+00 -1.21734E+00 +2.85109E+00 -2.26584E+00 +1.55401E+01
 -8.90138E-01 +2.33683E+01 -3.22204E+00 +2.38429E+01 -1.11098E+01 +1.92776E+01 -1.99601E+01 +1.24742E+01
