 Created: 16-Jan-2021
 $NMID
 ID='D:\BASISSIMULATI'
 FMTDAT='(8E13.5)'
 VOLUME=   1.00000E+00
 TRAMP=   1.00000E+00
 $END
 +4.13401E+01 +6.27144E+00 +2.06113E+01 +3.32390E+01 -1.22390E+01 +3.02030E+01 -2.57806E+01 +1.61824E+00
 -7.82375E+00 -2.33925E+01 +2.29231E+01 -1.95996E+01 +3.53479E+01 +9.81350E+00 +1.63286E+01 +3.65828E+01
 -1.66397E+01 +3.50569E+01 -3.26980E+01 +7.09930E+00 -1.77033E+01 -1.99850E+01 +1.22275E+01 -2.02245E+01
 +2.67145E+01 +5.80930E+00 +1.08097E+01 +3.18443E+01 -2.06107E+01 +3.17219E+01 -3.75867E+01 +4.83755E+00
 -2.43199E+01 -2.35118E+01 +5.64602E+00 -2.69444E+01 +2.29079E+01 -3.59145E+00 +1.09330E+01 +2.23975E+01
 -1.80407E+01 +2.46351E+01 -3.52318E+01 +1.75144E-01 -2.34712E+01 -2.78734E+01 +6.24754E+00 -3.30659E+01
 +2.57556E+01 -1.13104E+01 +1.72312E+01 +1.54532E+01 -9.66581E+00 +2.08819E+01 -2.75496E+01 -1.46706E-01
 -1.81422E+01 -2.68394E+01 +1.00823E+01 -3.30084E+01 +3.04471E+01 -1.25592E+01 +2.41700E+01 +1.48551E+01
 -1.55205E+00 +2.32296E+01 -2.09047E+01 +5.49288E+00 -1.47667E+01 -1.99316E+01 +1.08374E+01 -2.73835E+01
 +3.09426E+01 -8.97790E+00 +2.61262E+01 +1.79881E+01 +1.25548E+00 +2.81541E+01 -1.95927E+01 +1.27728E+01
 -1.67483E+01 -1.20958E+01 +6.07995E+00 -2.15573E+01 +2.57935E+01 -6.15964E+00 +2.26182E+01 +1.91896E+01
 -7.72937E-01 +3.00577E+01 -2.22014E+01 +1.63055E+01 -2.17675E+01 -8.33746E+00 -1.05479E+00 -1.99751E+01
 +1.88026E+01 -7.84832E+00 +1.79461E+01 +1.54962E+01 -2.99242E+00 +2.67865E+01 -2.38640E+01 +1.47615E+01
 -2.48529E+01 -9.13709E+00 -5.63393E+00 -2.22437E+01 +1.46906E+01 -1.27886E+01 +1.64453E+01 +8.95203E+00
 -1.58302E+00 +2.10508E+01 -2.13511E+01 +1.13847E+01 -2.34065E+01 -1.08270E+01 -5.73381E+00 -2.43622E+01
 +1.46495E+01 -1.67478E+01 +1.85281E+01 +3.88331E+00 +3.08447E+00 +1.71031E+01 -1.57584E+01 +1.01967E+01
 -1.91539E+01 -9.72959E+00 -3.61646E+00 -2.30642E+01 +1.59510E+01 -1.69220E+01 +2.10617E+01 +2.56548E+00
 +7.56102E+00 +1.66107E+01 -1.07206E+01 +1.21943E+01 -1.57622E+01 -5.52836E+00 -2.84708E+00 -1.86692E+01
 +1.52233E+01 -1.41992E+01 +2.09262E+01 +3.59780E+00 +9.03863E+00 +1.76947E+01 -8.65094E+00 +1.50607E+01
 -1.51573E+01 -9.01113E-01 -4.79827E+00 -1.40960E+01 +1.16587E+01 -1.16058E+01 +1.78470E+01 +3.95309E+00
 +7.73471E+00 +1.73957E+01 -8.86111E+00 +1.59550E+01 -1.61863E+01 +1.49671E+00 -7.87710E+00 -1.17208E+01
 +7.22127E+00 -1.11432E+01 +1.40526E+01 +2.06641E+00 +6.03375E+00 +1.45953E+01 -8.88878E+00 +1.41845E+01
 -1.63559E+01 +1.38275E+00 -9.60440E+00 -1.14079E+01 +4.30405E+00 -1.22433E+01 +1.17519E+01 -1.07782E+00
 +5.86965E+00 +1.06320E+01 -7.12594E+00 +1.13513E+01 -1.43908E+01 +5.40699E-01 -9.02808E+00 -1.12415E+01
 +3.52821E+00 -1.28878E+01 +1.12052E+01 -3.39996E+00 +7.11591E+00 +7.57134E+00 -4.07355E+00 +9.41073E+00
 -1.11101E+01 +7.36589E-01 -7.21228E+00 -9.68250E+00 +3.63932E+00 -1.17672E+01 +1.09921E+01 -3.82270E+00
 +8.20233E+00 +6.23131E+00 -1.41068E+00 +8.87670E+00 -8.22538E+00 +2.15050E+00 -5.81311E+00 -6.87151E+00
 +3.09991E+00 -9.29306E+00 +9.71663E+00 -2.97389E+00 +7.87580E+00 +5.79667E+00 -2.33798E-01 +8.75055E+00
 -6.63419E+00 +3.60907E+00 -5.47686E+00 -4.11430E+00 +1.54198E+00 -6.82889E+00 +7.27299E+00 -2.19926E+00
 +6.24957E+00 +4.98421E+00 -2.45838E-01 +7.82129E+00 -5.86187E+00 +3.97544E+00 -5.54113E+00 -2.44861E+00
 -1.91055E-01 -5.26076E+00 +4.64088E+00 -2.18049E+00 +4.36976E+00 +3.33645E+00 -3.94561E-01 +5.83568E+00
 -4.87611E+00 +3.16558E+00 -4.99316E+00 -1.80575E+00 -1.11129E+00 -4.35531E+00 +2.74809E+00 -2.50188E+00
 +3.04630E+00 +1.44202E+00 -3.50178E-02 +3.50801E+00 -3.20684E+00 +1.95698E+00 -3.51462E+00 -1.38838E+00
 -1.02684E+00 -3.30477E+00 +1.65948E+00 -2.33906E+00 +2.19252E+00 +1.30418E-01 +5.75768E-01 +1.62913E+00
 -1.26596E+00 +1.04392E+00 -1.62336E+00 -6.36198E-01 -5.08496E-01 -1.68192E+00 +7.77709E-01 -1.37369E+00
 +1.18097E+00 -3.74465E-01 +7.73321E-01 +3.13414E-01 +2.64728E-01 +4.00172E-01 +3.15963E-02 +2.69702E-01
 -1.18841E-01 +2.00620E-01 -3.48087E-01 -6.58349E-04 -3.37977E-01 -5.07911E-01 +2.86749E-01 -9.03582E-01
 +1.19034E+00 -4.79328E-01 +1.35730E+00 +7.80841E-01 +1.82938E-01 +1.78025E+00 -1.53793E+00 +1.25701E+00
 -2.07688E+00 -7.07106E-01 -5.36579E-01 -2.36064E+00 +1.88786E+00 -1.85223E+00 +2.76107E+00 +7.03229E-01
 +8.48064E-01 +2.93554E+00 -2.30244E+00 +2.38323E+00 -3.54740E+00 -8.55510E-01 -1.26414E+00 -3.81467E+00
 +2.69714E+00 -3.38793E+00 +4.48879E+00 +4.11121E-01 +2.04837E+00 +4.06516E+00 -2.53461E+00 +3.80928E+00
 -4.72717E+00 -4.79489E-01 -1.99365E+00 -4.76742E+00 +3.38172E+00 -4.61229E+00 +6.18355E+00 +3.01082E-01
 +3.35074E+00 +5.46099E+00 -2.70542E+00 +5.72903E+00 -6.11521E+00 +5.34433E-01 -3.26262E+00 -5.18766E+00
 +3.36505E+00 -5.60561E+00 +7.26186E+00 +1.46878E-01 +4.22172E+00 +6.74318E+00 -3.24768E+00 +7.63854E+00
 -8.02498E+00 +1.60462E+00 -5.27510E+00 -5.70339E+00 +2.54248E+00 -7.03924E+00 +7.73357E+00 -7.73536E-01
 +4.82279E+00 +7.15218E+00 -3.81791E+00 +8.78803E+00 -9.93481E+00 +2.05461E+00 -7.36908E+00 -6.87062E+00
 +1.67150E+00 -9.33557E+00 +8.42815E+00 -2.75630E+00 +6.05602E+00 +6.52076E+00 -3.44213E+00 +9.16895E+00
 -1.08287E+01 +2.07782E+00 -8.54842E+00 -8.26923E+00 +1.66004E+00 -1.18615E+01 +1.01214E+01 -4.99722E+00
 +8.55316E+00 +5.78481E+00 -1.63400E+00 +9.83368E+00 -1.03854E+01 +2.84391E+00 -8.70243E+00 -8.62483E+00
 +2.36049E+00 -1.32855E+01 +1.23882E+01 -6.18245E+00 +1.16317E+01 +6.16935E+00 +7.06913E-01 +1.18763E+01
 -9.69168E+00 +5.30034E+00 -9.09758E+00 -7.15277E+00 +2.32834E+00 -1.30262E+01 +1.36326E+01 -5.99428E+00
 +1.36089E+01 +7.67666E+00 +1.89565E+00 +1.49681E+01 -1.03624E+01 +8.80887E+00 -1.12365E+01 -4.76818E+00
 +1.98143E-01 -1.22587E+01 +1.26627E+01 -5.86846E+00 +1.35291E+01 +8.61695E+00 +1.28807E+00 +1.72064E+01
 -1.26746E+01 +1.13322E+01 -1.50140E+01 -3.55277E+00 -3.55868E+00 -1.30371E+01 +1.02974E+01 -7.78654E+00
 +1.25582E+01 +7.12030E+00 +4.05210E-01 +1.68927E+01 -1.47642E+01 +1.14292E+01 -1.82762E+01 -4.60110E+00
 -6.58610E+00 -1.60494E+01 +9.00383E+00 -1.20104E+01 +1.32044E+01 +3.34717E+00 +1.74575E+00 +1.46115E+01
 -1.41990E+01 +1.01264E+01 -1.87424E+01 -6.42915E+00 -6.86278E+00 -1.93705E+01 +1.04427E+01 -1.62351E+01
 +1.67013E+01 -1.07904E-01 +6.08714E+00 +1.31599E+01 -1.06735E+01 +1.03569E+01 -1.66062E+01 -6.02595E+00
 -5.11946E+00 -1.99884E+01 +1.33223E+01 -1.75576E+01 +2.12144E+01 -5.77502E-01 +1.11153E+01 +1.48579E+01
 -6.89590E+00 +1.40185E+01 -1.48926E+01 -1.96046E+00 -4.63577E+00 -1.69804E+01 +1.41749E+01 -1.56194E+01
 +2.31847E+01 +1.67325E+00 +1.33112E+01 +1.87837E+01 -6.20350E+00 +1.95481E+01 -1.66368E+01 +3.62097E+00
 -8.05997E+00 -1.30038E+01 +1.08048E+01 -1.35256E+01 +2.09408E+01 +3.14717E+00 +1.16143E+01 +2.11228E+01
 -8.96548E+00 +2.29281E+01 -2.14725E+01 +6.64465E+00 -1.42974E+01 -1.20370E+01 +4.99069E+00 -1.50334E+01
 +1.68938E+01 +4.06108E-01 +9.02430E+00 +1.88462E+01 -1.16418E+01 +2.16427E+01 -2.53999E+01 +5.22519E+00
 -1.90149E+01 -1.52337E+01 +1.24304E+00 -2.05076E+01 +1.55773E+01 -6.11891E+00 +9.96834E+00 +1.31585E+01
 -1.00229E+01 +1.76465E+01 -2.45438E+01 +2.04571E+00 -1.88081E+01 -1.92211E+01 +2.35027E+00 -2.59680E+01
 +1.90432E+01 -1.19718E+01 +1.56894E+01 +8.83548E+00 -3.70213E+00 +1.58843E+01 -1.93413E+01 +2.09018E+00
 -1.49668E+01 -1.91007E+01 +6.16620E+00 -2.67446E+01 +2.43155E+01 -1.28770E+01 +2.24609E+01 +9.58952E+00
 +2.97126E+00 +1.93681E+01 -1.46173E+01 +7.58038E+00 -1.26519E+01 -1.34941E+01 +7.32150E+00 -2.23453E+01
 +2.59535E+01 -9.27312E+00 +2.49363E+01 +1.40208E+01 +4.93471E+00 +2.57487E+01 -1.49636E+01 +1.52876E+01
 -1.58337E+01 -6.39489E+00 +2.57588E+00 -1.73995E+01 +2.15300E+01 -6.30333E+00 +2.15829E+01 +1.65948E+01
 +1.63098E+00 +2.92462E+01 -1.99052E+01 +1.93693E+01 -2.29987E+01 -3.50217E+00 -5.57282E+00 -1.72662E+01
 +1.44348E+01 -8.82486E+00 +1.65806E+01 +1.30834E+01 -2.07008E+00 +2.63766E+01 -2.39955E+01 +1.72054E+01
 -2.82744E+01 -6.45619E+00 -1.10182E+01 -2.25231E+01 +1.07957E+01 -1.63278E+01 +1.58792E+01 +5.05306E+00
 -5.64201E-01 +1.97014E+01 -2.21220E+01 +1.22841E+01 -2.71862E+01 -1.09165E+01 -1.00790E+01 -2.80787E+01
 +1.33540E+01 -2.31180E+01 +2.11742E+01 -1.39204E+00 +6.75145E+00 +1.55257E+01 -1.47718E+01 +1.09181E+01
 -2.12866E+01 -1.07325E+01 -5.34261E+00 -2.81067E+01 +1.85331E+01 -2.38685E+01 +2.79856E+01 -1.60986E+00
 +1.46339E+01 +1.76358E+01 -7.76774E+00 +1.59122E+01 -1.67837E+01 -4.15038E+00 -3.22209E+00 -2.19349E+01
 +1.98831E+01 -1.90039E+01 +3.00014E+01 +2.86905E+00 +1.71063E+01 +2.34116E+01 -6.54367E+00 +2.36238E+01
 -1.83804E+01 +4.29039E+00 -7.54813E+00 -1.48356E+01 +1.45375E+01 -1.43594E+01 +2.53851E+01 +5.80841E+00
 +1.34189E+01 +2.63775E+01 -1.07153E+01 +2.75209E+01 -2.45464E+01 +8.21279E+00 -1.56907E+01 -1.28102E+01
 +6.12265E+00 -1.53637E+01 +1.86232E+01 +2.50369E+00 +8.77925E+00 +2.26674E+01 -1.44916E+01 +2.46756E+01
 -2.90589E+01 +5.72387E+00 -2.11801E+01 -1.66352E+01 +1.13792E+00 -2.16391E+01 +1.60221E+01 -5.53664E+00
 +9.10438E+00 +1.48445E+01 -1.25033E+01 +1.86054E+01 -2.72303E+01 +1.19153E+00 -2.01416E+01 -2.12028E+01
 +2.51428E+00 -2.74759E+01 +1.94590E+01 -1.21814E+01 +1.51569E+01 +9.24852E+00 -5.10221E+00 +1.56440E+01
 -2.04828E+01 +7.55484E-01 -1.50063E+01 -2.07276E+01 +6.87713E+00 -2.75933E+01 +2.46981E+01 -1.28117E+01
 +2.19617E+01 +9.67873E+00 +2.16679E+00 +1.86398E+01 -1.47322E+01 +6.23419E+00 -1.18651E+01 -1.44445E+01
 +8.13466E+00 -2.22699E+01 +2.58045E+01 -8.72916E+00 +2.39029E+01 +1.38384E+01 +4.18300E+00 +2.43559E+01
 -1.44284E+01 +1.35538E+01 -1.43524E+01 -7.11225E+00 +3.56003E+00 -1.67731E+01 +2.10056E+01 -5.53948E+00
 +2.01863E+01 +1.59381E+01 +1.14960E+00 +2.69710E+01 -1.83643E+01 +1.70296E+01 -2.02874E+01 -4.09175E+00
 -3.77496E+00 -1.59566E+01 +1.41349E+01 -7.44025E+00 +1.52610E+01 +1.25379E+01 -2.00896E+00 +2.38705E+01
 -2.12721E+01 +1.49289E+01 -2.42011E+01 -6.18026E+00 -8.36996E+00 -1.96463E+01 +1.05352E+01 -1.32940E+01
 +1.41307E+01 +5.67644E+00 -7.73259E-01 +1.78921E+01 -1.92237E+01 +1.07763E+01 -2.28428E+01 -9.27241E+00
 -7.73580E+00 -2.32648E+01 +1.18515E+01 -1.81822E+01 +1.75385E+01 +4.48733E-01 +4.68712E+00 +1.41257E+01
