 Created: 16-Jan-2021
 $NMID
 ID='D:\BASISSIMULATI'
 FMTDAT='(8E13.5)'
 VOLUME=   1.00000E+00
 TRAMP=   1.00000E+00
 $END
 +6.40886E+01 +1.03522E+01 +5.73874E+01 +3.00179E+01 +4.45697E+01 +4.62816E+01 +2.72024E+01 +5.72635E+01
 +7.40645E+00 +6.17669E+01 -1.24293E+01 +5.94280E+01 -2.99679E+01 +5.07481E+01 -4.32302E+01 +3.70076E+01
 -5.08438E+01 +2.00746E+01 -5.22014E+01 +2.13999E+00 -4.75101E+01 -1.45822E+01 -3.77271E+01 -2.81451E+01
 -2.43978E+01 -3.71094E+01 -9.42236E+00 -4.07034E+01 +5.21210E+00 -3.88845E+01 +1.76947E+01 -3.22979E+01
 +2.66130E+01 -2.21483E+01 +3.11067E+01 -1.00046E+01 +3.09369E+01 +2.42728E+00 +2.64679E+01 +1.35322E+01
 +1.85731E+01 +2.19818E+01 +8.48332E+00 +2.68757E+01 -2.39583E+00 +2.78153E+01 -1.26693E+01 +2.49064E+01
 -2.11172E+01 +1.87008E+01 -2.68200E+01 +1.00888E+01 -2.92323E+01 +1.66571E-01 -2.82063E+01 -9.90500E+00
 -2.39668E+01 -1.90293E+01 -1.70509E+01 -2.62788E+01 -8.22431E+00 -3.09685E+01 +1.61136E+00 -3.26951E+01
 +1.15104E+01 -3.13462E+01 +2.05651E+01 -2.70850E+01 +2.79741E+01 -2.03166E+01 +3.30960E+01 -1.16429E+01
 +3.54884E+01 -1.81044E+00 +3.49349E+01 +8.34627E+00 +3.14590E+01 +1.79652E+01 +2.53255E+01 +2.62198E+01
 +1.70279E+01 +3.23829E+01 +7.25852E+00 +3.58903E+01 -3.14011E+00 +3.63973E+01 -1.32417E+01 +3.38230E+01
 -2.21190E+01 +2.83748E+01 -2.89358E+01 +2.05454E+01 -3.30388E+01 +1.10794E+01 -3.40381E+01 +9.07822E-01
 -3.18640E+01 -8.94556E+00 -2.67893E+01 -1.74762E+01 -1.94119E+01 -2.38165E+01 -1.05936E+01 -2.73445E+01
 -1.36365E+00 -2.77656E+01 +7.20582E+00 -2.51570E+01 +1.41339E+01 -1.99636E+01 +1.86578E+01 -1.29458E+01
 +2.03333E+01 -5.08272E+00 +1.90943E+01 +2.55629E+00 +1.52618E+01 +8.95404E+00 +9.49895E+00 +1.32827E+01
 +2.71872E+00 +1.50155E+01 -4.04322E+00 +1.39965E+01 -9.77308E+00 +1.04591E+01 -1.36195E+01 +4.98886E+00
 -1.50106E+01 -1.56175E+00 -1.37298E+01 -8.19608E+00 -9.94156E+00 -1.39141E+01 -4.16282E+00 -1.78518E+01
 +2.81432E+00 -1.93984E+01 +1.00364E+01 -1.82763E+01 +1.65219E+01 -1.45723E+01 +2.13948E+01 -8.71800E+00
 +2.39995E+01 -1.42382E+00 +2.39812E+01 +6.42319E+00 +2.13236E+01 +1.38808E+01 +1.63386E+01 +2.00756E+01
 +9.61381E+00 +2.43116E+01 +1.92601E+00 +2.61505E+01 -5.86469E+00 +2.54533E+01 -1.29253E+01 +2.23811E+01
 -1.85493E+01 +1.73582E+01 -2.22334E+01 +1.10031E+01 -2.37228E+01 +4.04238E+00 -2.30220E+01 -2.78332E+00
 -2.03737E+01 -8.80591E+00 -1.62099E+01 -1.35004E+01 -1.10859E+01 -1.65312E+01 -5.60680E+00 -1.77721E+01
 -3.54516E-01 -1.72996E+01 +4.17321E+00 -1.53637E+01 +7.60857E+00 -1.23434E+01 +9.73977E+00 -8.69164E+00
 +1.05175E+01 -4.87996E+00 +1.00434E+01 -1.34647E+00 +8.54508E+00 +1.54672E+00 +6.34004E+00 +3.54398E+00
 +3.79567E+00 +4.51339E+00 +1.28739E+00 +4.45064E+00 -8.40228E-01 +3.47084E+00 -2.30710E+00 +1.79008E+00
 -2.92365E+00 -3.01071E-01 -2.60776E+00 -2.46987E+00 -1.39176E+00 -4.37678E+00 +5.81147E-01 -5.71140E+00
 +3.07096E+00 -6.22610E+00 +5.76467E+00 -5.76444E+00 +8.30825E+00 -4.28148E+00 +1.03444E+01 -1.85368E+00
 +1.15525E+01 +1.32370E+00 +1.16876E+01 +4.95222E+00 +1.06121E+01 +8.65836E+00 +8.31871E+00 +1.20319E+01
 +4.93885E+00 +1.46712E+01 +7.35725E-01 +1.62296E+01 -3.91853E+00 +1.64589E+01 -8.57991E+00 +1.52432E+01
 -1.27800E+01 +1.26186E+01 -1.60788E+01 +8.77598E+00 -1.81161E+01 +4.04531E+00 -1.86555E+01 -1.13732E+00
 -1.76150E+01 -6.27636E+00 -1.50802E+01 -1.08720E+01 -1.12970E+01 -1.44771E+01 -6.64610E+00 -1.67487E+01
 -1.60035E+00 -1.74882E+01 +3.32931E+00 -1.66645E+01 +7.65252E+00 -1.44166E+01 +1.09559E+01 -1.10374E+01
 +1.29504E+01 -6.93735E+00 +1.35029E+01 -2.59536E+00 +1.26499E+01 +1.49867E+00 +1.05898E+01 +4.90211E+00
 +7.65600E+00 +7.27166E+00 +4.27412E+00 +8.40274E+00 +9.08088E-01 +8.25175E+00 -1.99765E+00 +6.93833E+00
 -4.07312E+00 +4.72774E+00 -5.06820E+00 +1.99533E+00 -4.88301E+00 -8.22257E-01 -3.57942E+00 -3.28337E+00
 -1.37261E+00 -4.99820E+00 +1.39666E+00 -5.67920E+00 +4.30555E+00 -5.17895E+00 +6.90330E+00 -3.51074E+00
 +8.76933E+00 -8.49119E-01 +9.56843E+00 +2.48984E+00 +9.09585E+00 +6.08638E+00 +7.30682E+00 +9.46865E+00
 +4.32634E+00 +1.21717E+01 +4.37871E-01 +1.37970E+01 -3.94829E+00 +1.40643E+01 -8.34310E+00 +1.28502E+01
 -1.22378E+01 +1.02072E+01 -1.51663E+01 +6.36162E+00 -1.67636E+01 +1.68883E+00 -1.68120E+01 -3.32962E+00
 -1.52697E+01 -8.16339E+00 -1.22773E+01 -1.22970E+01 -8.14216E+00 -1.52921E+01 -3.30112E+00 -1.68403E+01
 +1.73227E+00 -1.67993E+01 +6.43005E+00 -1.52085E+01 +1.03132E+01 -1.22815E+01 +1.30078E+01 -8.37688E+00
 +1.42871E+01 -3.95200E+00 +1.40939E+01 +4.95136E-01 +1.25413E+01 +4.48654E+00 +9.89209E+00 +7.62059E+00
 +6.52068E+00 +9.61646E+00 +2.86251E+00 +1.03414E+01 -6.40989E-01 +9.81853E+00 -3.59508E+00 +8.21473E+00
 -5.69542E+00 +5.81213E+00 -6.75773E+00 +2.96743E+00 -6.73099E+00 +6.55956E-02 -5.69398E+00 -2.52613E+00
 -3.83718E+00 -4.49807E+00 -1.43406E+00 -5.62798E+00 +1.19389E+00 -5.79851E+00 +3.71340E+00 -5.00215E+00
 +5.81306E+00 -3.33501E+00 +7.23134E+00 -9.81830E-01 +7.77768E+00 +1.80481E+00 +7.34615E+00 +4.72837E+00
 +5.92247E+00 +7.47328E+00 +3.58521E+00 +9.72967E+00 +5.01874E-01 +1.12173E+01 -3.07965E+00 +1.17085E+01
 -6.84483E+00 +1.10502E+01 -1.04320E+01 +9.18341E+00 -1.34585E+01 +6.15956E+00 -1.55530E+01 +2.14997E+00
 -1.63936E+01 -2.55371E+00 -1.57479E+01 -7.55163E+00 -1.35119E+01 -1.23623E+01 -9.74094E+00 -1.64643E+01
 -4.66653E+00 -1.93500E+01 +1.30543E+00 -2.05882E+01 +7.61984E+00 -1.98863E+01 +1.36212E+01 -1.71449E+01
 +1.86230E+01 -1.24938E+01 +2.19910E+01 -6.30287E+00 +2.32302E+01 +8.39583E-01 +2.20628E+01 +8.18001E+00
 +1.84850E+01 +1.48822E+01 +1.27914E+01 +2.01296E+01 +5.56086E+00 +2.32347E+01 -2.39990E+00 +2.37397E+01
 -1.01478E+01 +2.14935E+01 -1.67216E+01 +1.66911E+01 -2.12706E+01 +9.86656E+00 -2.31750E+01 +1.83872E+00
 -2.21412E+01 -6.38735E+00 -1.82552E+01 -1.37495E+01 -1.19847E+01 -1.92718E+01 -4.12777E+00 -2.22009E+01
 +4.28808E+00 -2.21164E+01 +1.21413E+01 -1.89962E+01 +1.83689E+01 -1.32282E+01 +2.21143E+01 -5.56325E+00
 +2.28475E+01 +2.98325E+00 +2.04414E+01 +1.12689E+01 +1.51912E+01 +1.81802E+01 +7.77472E+00 +2.27857E+01
 -8.41191E-01 +2.44620E+01 -9.53377E+00 +2.29773E+01 -1.71781E+01 +1.85178E+01 -2.27987E+01 +1.16571E+01
 -2.56968E+01 +3.27110E+00 -2.55364E+01 -5.58568E+00 -2.23779E+01 -1.38245E+01 -1.66556E+01 -2.04660E+01
 -9.10630E+00 -2.47628E+01 -6.59947E-01 -2.62846E+01 +7.68906E+00 -2.49551E+01 +1.50108E+01 -2.10401E+01
 +2.05507E+01 -1.50913E+01 +2.38088E+01 -7.85622E+00 +2.45782E+01 -1.71751E-01 +2.29420E+01 +7.14355E+00
 +1.92341E+01 +1.33827E+01 +1.39726E+01 +1.80182E+01 +7.77983E+00 +2.07380E+01 +1.30209E+00 +2.14501E+01
 -4.86050E+00 +2.02603E+01 -1.02052E+01 +1.74309E+01 -1.43567E+01 +1.33308E+01 -1.70758E+01 +8.38625E+00
 -1.82539E+01 +3.03879E+00 -1.78960E+01 -2.28560E+00 -1.61031E+01 -7.19585E+00 -1.30552E+01 -1.13468E+01
 -9.00050E+00 -1.44463E+01 -4.24746E+00 -1.62630E+01 +8.40699E-01 -1.66381E+01 +5.85579E+00 -1.55025E+01
 +1.03622E+01 -1.28961E+01 +1.39258E+01 -8.98552E+00 +1.61534E+01 -4.07357E+00 +1.67411E+01 +1.40666E+00
 +1.55236E+01 +6.91662E+00 +1.25162E+01 +1.18583E+01 +7.93968E+00 +1.56384E+01 +2.22132E+00 +1.77438E+01
 -4.03499E+00 +1.78180E+01 -1.01078E+01 +1.57252E+01 -1.52419E+01 +1.15916E+01 -1.87467E+01 +5.81226E+00
 -2.00952E+01 -9.79397E-01 -1.90075E+01 -7.98013E+00 -1.55060E+01 -1.43150E+01 -9.93003E+00 -1.91531E+01
 -2.90595E+00 -2.18234E+01 +4.72609E+00 -2.19143E+01 +1.20191E+01 -1.93399E+01 +1.80459E+01 -1.43618E+01
 +2.20264E+01 -7.56232E+00 +2.34374E+01 +2.29339E-01 +2.20874E+01 +8.04754E+00 +1.81442E+01 +1.49210E+01
 +1.21129E+01 +2.00054E+01 +4.76421E+00 +2.26971E+01 -2.97296E+00 +2.27129E+01 -1.01408E+01 +2.01219E+01
 -1.58833E+01 +1.53277E+01 -1.95588E+01 +9.00364E+00 -2.08190E+01 +1.99094E+00 -1.96436E+01 -4.82202E+00
 -1.63261E+01 -1.06225E+01 -1.14165E+01 -1.47790E+01 -5.63045E+00 -1.69155E+01 +2.59374E-01 -1.69442E+01
 +5.53267E+00 -1.50553E+01 +9.61492E+00 -1.16673E+01 +1.21422E+01 -7.34901E+00 +1.29895E+01 -2.72680E+00
 +1.22621E+01 +1.60753E+00 +1.02537E+01 +5.17387E+00 +7.38188E+00 +7.65578E+00 +4.11339E+00 +8.92165E+00
 +8.91537E-01 +9.01541E+00 -1.92191E+00 +8.12182E+00 -4.08343E+00 +6.51548E+00 -5.47951E+00 +4.50427E+00
 -6.11531E+00 +2.37775E+00 -6.08572E+00 +3.68985E-01 -5.53710E+00 -1.36558E+00 -4.62862E+00 -2.74725E+00
 -3.50114E+00 -3.76048E+00 -2.25896E+00 -4.42854E+00 -9.66431E-01 -4.78668E+00 +3.42235E-01 -4.86021E+00
 +1.64446E+00 -4.65251E+00 +2.90839E+00 -4.14565E+00 +4.07622E+00 -3.31277E+00 +5.05698E+00 -2.13841E+00
 +5.73179E+00 -6.41184E-01 +5.97132E+00 +1.10799E+00 +5.66224E+00 +2.97762E+00 +4.73710E+00 +4.78101E+00
 +3.20073E+00 +6.29616E+00 +1.14662E+00 +7.29736E+00 -1.24153E+00 +7.59350E+00 -3.70545E+00 +7.06573E+00
 -5.94362E+00 +5.69704E+00 -7.65403E+00 +3.58724E+00 -8.58145E+00 +9.49288E-01 -8.56077E+00 -1.91376E+00
 -7.54875E+00 -4.64852E+00 -5.63778E+00 -6.90167E+00 -3.04853E+00 -8.37293E+00 -1.01808E-01 -8.86180E+00
 +2.82622E+00 -8.30002E+00 +5.35864E+00 -6.76403E+00 +7.17327E+00 -4.46507E+00 +8.05006E+00 -1.71832E+00
 +7.90279E+00 +1.10408E+00 +6.78979E+00 +3.62842E+00 +4.90240E+00 +5.53434E+00 +2.53311E+00 +6.60042E+00
 +2.90628E-02 +6.73337E+00 -2.26136E+00 +5.97662E+00 -4.04012E+00 +4.49752E+00 -5.10110E+00 +2.55603E+00
 -5.35543E+00 +4.60632E-01 -4.83730E+00 -1.48079E+00 -3.69030E+00 -3.00713E+00 -2.13771E+00 -3.93984E+00
 -4.42292E-01 -4.20335E+00 +1.13695E+00 -3.82773E+00 +2.38393E+00 -2.93451E+00 +3.15448E+00 -1.70918E+00
 +3.39115E+00 -3.66087E-01 +3.12267E+00 +8.87939E-01 +2.44947E+00 +1.88490E+00 +1.51917E+00 +2.51720E+00
 +4.97053E-01 +2.74672E+00 -4.62717E-01 +2.60118E+00 -1.24025E+00 +2.15988E+00 -1.76402E+00 +1.53247E+00
 -2.01439E+00 +8.35538E-01 -2.01735E+00 +1.71524E-01 -1.83074E+00 -3.86334E-01 -1.52680E+00 -8.00937E-01
 -1.17490E+00 -1.06983E+00 -8.28006E-01 -1.21672E+00 -5.15256E-01 -1.27878E+00 -2.41562E-01 -1.29300E+00
 +6.56369E-03 -1.28492E+00 +2.50978E-01 -1.26219E+00 +5.10512E-01 -1.21400E+00 +7.91208E-01 -1.11632E+00
 +1.08062E+00 -9.41197E-01 +1.34760E+00 -6.67728E-01 +1.54764E+00 -2.91857E-01 +1.63261E+00 +1.67515E-01
