 Created: 16-Jan-2021
 $NMID
 ID='D:\BASISSIMULATI'
 FMTDAT='(8E13.5)'
 VOLUME=   1.00000E+00
 TRAMP=   1.00000E+00
 $END
 +7.52482E+01 +1.25567E+01 +4.92975E+01 +3.76334E+01 -1.95119E+00 +4.53170E+01 -4.57907E+01 +3.28847E+01
 -5.50719E+01 +6.03653E+00 -2.62792E+01 -2.27289E+01 +1.93215E+01 -3.86865E+01 +5.15494E+01 -3.20966E+01
 +5.20353E+01 -4.86049E+00 +2.49713E+01 +2.84569E+01 -8.59960E+00 +4.80380E+01 -2.70888E+01 +4.14269E+01
 -2.25762E+01 +1.28967E+01 -3.45297E+00 -1.81712E+01 +1.43536E+01 -3.02165E+01 +1.93935E+01 -1.50921E+01
 +1.10699E+01 +1.54477E+01 -2.62194E+00 +3.80347E+01 -1.22365E+01 +3.51903E+01 -1.28166E+01 +8.87959E+00
 -5.33155E+00 -2.05789E+01 +5.39950E+00 -2.98532E+01 +1.34866E+01 -1.06139E+01 +1.39932E+01 +2.36753E+01
 +4.71108E+00 +4.75544E+01 -1.18730E+01 +4.25422E+01 -2.78562E+01 +1.08911E+01 -3.27894E+01 -2.60936E+01
 -2.02672E+01 -4.35350E+01 +5.69316E+00 -3.04551E+01 +3.02910E+01 +3.39951E+00 +3.61440E+01 +3.54359E+01
 +1.57610E+01 +4.60237E+01 -2.08803E+01 +3.06164E+01 -5.07763E+01 +6.12387E-01 -5.29474E+01 -2.58184E+01
 -2.39002E+01 -3.52722E+01 +1.83343E+01 -2.54702E+01 +4.57121E+01 -4.08572E+00 +3.96826E+01 +1.70445E+01
 +4.55803E+00 +2.78665E+01 -3.53385E+01 +2.37349E+01 -5.28942E+01 +6.67818E+00 -3.72171E+01 -1.52023E+01
 -6.21271E-01 -3.05559E+01 +3.10756E+01 -3.01034E+01 +3.72255E+01 -1.26379E+01 +1.61494E+01 +1.23734E+01
 -1.53591E+01 +2.90230E+01 -3.52324E+01 +2.49885E+01 -3.15271E+01 +1.01797E+00 -9.11403E+00 -2.77277E+01
 +1.57575E+01 -4.10557E+01 +2.75341E+01 -2.81891E+01 +2.09434E+01 +3.31358E+00 +2.37280E+00 +3.16979E+01
 -1.60196E+01 +3.62233E+01 -2.40958E+01 +1.26087E+01 -1.84830E+01 -2.30572E+01 -2.84706E+00 -4.54467E+01
 +1.47559E+01 -3.82847E+01 +2.54599E+01 -6.26821E+00 +2.32038E+01 +2.82897E+01 +7.91073E+00 +4.15568E+01
 -1.31549E+01 +2.50499E+01 -2.78374E+01 -8.95756E+00 -2.56802E+01 -3.68766E+01 -5.45690E+00 -4.05614E+01
 +2.19189E+01 -1.91154E+01 +3.87955E+01 +1.20037E+01 +3.23535E+01 +3.26749E+01 +4.61588E+00 +3.14550E+01
 -2.71280E+01 +1.15468E+01 -4.12197E+01 -1.32787E+01 -2.69102E+01 -2.84122E+01 +7.12206E+00 -2.67203E+01
 +3.79571E+01 -1.09735E+01 +4.42869E+01 +9.35533E+00 +2.16372E+01 +2.36730E+01 -1.42902E+01 +2.50986E+01
 -3.87727E+01 +1.31269E+01 -3.55910E+01 -6.14000E+00 -8.14172E+00 -2.23649E+01 +2.36926E+01 -2.58455E+01
 +3.81284E+01 -1.32888E+01 +2.65794E+01 +8.90696E+00 -1.40591E+00 +2.71049E+01 -2.60459E+01 +2.85701E+01
 -3.14731E+01 +1.06192E+01 -1.58248E+01 -1.59942E+01 +9.04948E+00 -3.31503E+01 +2.67208E+01 -2.77666E+01
 +2.69471E+01 -1.91651E+00 +1.10210E+01 +2.73203E+01 -1.05670E+01 +3.91868E+01 -2.52421E+01 +2.41409E+01
 -2.52854E+01 -8.60729E+00 -1.11427E+01 -3.69086E+01 +9.53286E+00 -4.10751E+01 +2.58262E+01 -1.78418E+01
 +2.87245E+01 +1.72491E+01 +1.57205E+01 +4.07360E+01 -7.11087E+00 +3.74499E+01 -2.72942E+01 +1.04846E+01
 -3.24064E+01 -2.17477E+01 -1.78724E+01 -3.86057E+01 +8.89046E+00 -3.08158E+01 +3.17667E+01 -5.39681E+00
 +3.57864E+01 +2.04621E+01 +1.74722E+01 +3.12795E+01 -1.17945E+01 +2.25314E+01 -3.26750E+01 +1.85350E+00
 -3.09736E+01 -1.72154E+01 -7.82171E+00 -2.38867E+01 +2.06880E+01 -1.57502E+01 +3.46373E+01 +1.08755E+00
 +2.44136E+01 +1.63007E+01 -2.40172E+00 +2.11550E+01 -2.64790E+01 +1.29880E+01 -3.06020E+01 -3.43026E+00
 -1.18924E+01 -1.82289E+01 +1.63459E+01 -2.17082E+01 +3.42387E+01 -1.02501E+01 +2.92811E+01 +1.05041E+01
 +4.71699E+00 +2.78963E+01 -2.31396E+01 +2.96487E+01 -3.61876E+01 +1.23449E+01 -2.63398E+01 -1.48528E+01
 -1.13150E-01 -3.47940E+01 +2.62631E+01 -3.32344E+01 +3.72327E+01 -9.03102E+00 +2.69392E+01 +2.37939E+01
 +1.82029E+00 +4.44166E+01 -2.38576E+01 +3.89108E+01 -3.62177E+01 +9.95296E+00 -2.90613E+01 -2.44504E+01
 -6.73086E+00 -4.26623E+01 +1.84612E+01 -3.36341E+01 +3.27727E+01 -3.92955E+00 +2.83622E+01 +2.70830E+01
 +7.72458E+00 +4.02694E+01 -1.73659E+01 +2.89353E+01 -3.23420E+01 +2.17737E+00 -2.84648E+01 -2.21851E+01
 -8.43650E+00 -2.96312E+01 +1.49073E+01 -1.76886E+01 +2.65889E+01 +3.83947E+00 +1.93018E+01 +2.03567E+01
 -1.55546E+00 +2.20613E+01 -2.13884E+01 +9.45390E+00 -2.64008E+01 -8.07826E+00 -1.32577E+01 -1.88869E+01
 +8.46479E+00 -1.63723E+01 +2.29713E+01 -2.66962E+00 +1.94723E+01 +1.30524E+01 -2.07442E-02 +2.03408E+01
 -2.19312E+01 +1.38611E+01 -3.05669E+01 -3.16520E+00 -1.91318E+01 -2.05255E+01 +5.41169E+00 -2.69442E+01
 +2.69545E+01 -1.71574E+01 +3.10561E+01 +4.13251E+00 +1.45567E+01 +2.42883E+01 -1.23718E+01 +3.01473E+01
 -3.28517E+01 +1.65670E+01 -3.40420E+01 -9.45030E+00 -1.50551E+01 -3.22885E+01 +1.27309E+01 -3.72647E+01
 +3.27974E+01 -2.02795E+01 +3.34344E+01 +8.91177E+00 +1.45286E+01 +3.23908E+01 -1.26124E+01 +3.53666E+01
 -3.20370E+01 +1.57620E+01 -3.24660E+01 -1.42843E+01 -1.37919E+01 -3.60978E+01 +1.29228E+01 -3.63371E+01
 +3.19484E+01 -1.53238E+01 +3.21723E+01 +1.34696E+01 +1.37368E+01 +3.22158E+01 -1.19961E+01 +2.99559E+01
 -2.93031E+01 +9.08598E+00 -2.77377E+01 -1.67238E+01 -8.60770E+00 -3.14569E+01 +1.58608E+01 -2.66627E+01
 +3.02758E+01 -6.23603E+00 +2.58659E+01 +1.65654E+01 +5.99601E+00 +2.76550E+01 -1.61778E+01 +2.07731E+01
 -2.63641E+01 +1.02737E+00 -1.83987E+01 -1.86421E+01 +1.94996E+00 -2.57207E+01 +2.10232E+01 -1.59490E+01
 +2.63544E+01 +4.10409E+00 +1.47485E+01 +2.13108E+01 -5.86217E+00 +2.44313E+01 -2.18131E+01 +1.14036E+01
 -2.26721E+01 -9.22878E+00 -7.93185E+00 -2.37894E+01 +1.27735E+01 -2.24080E+01 +2.59195E+01 -5.61972E+00
 +2.27537E+01 +1.57900E+01 +4.90898E+00 +2.77331E+01 -1.65203E+01 +2.20705E+01 -2.78689E+01 +2.06936E+00
 -2.15185E+01 -1.95845E+01 -8.96565E-01 -2.89527E+01 +2.13573E+01 -1.98479E+01 +3.11133E+01 +2.18396E+00
 +2.16933E+01 +2.34139E+01 -1.60084E+00 +3.06256E+01 -2.44549E+01 +1.93514E+01 -3.24102E+01 -3.48455E+00
 -2.01349E+01 -2.39808E+01 +4.91868E+00 -2.98109E+01 +2.70485E+01 -1.76189E+01 +3.22939E+01 +5.11665E+00
 +1.74393E+01 +2.46921E+01 -7.90526E+00 +2.94023E+01 -2.75701E+01 +1.65056E+01 -2.93118E+01 -6.13873E+00
 -1.25922E+01 -2.47446E+01 +1.13997E+01 -2.79020E+01 +2.72986E+01 -1.36141E+01 +2.55152E+01 +9.26607E+00
 +8.04957E+00 +2.63281E+01 -1.33595E+01 +2.66175E+01 -2.51301E+01 +9.79146E+00 -2.04033E+01 -1.33358E+01
 -2.89082E+00 -2.75718E+01 +1.60140E+01 -2.33074E+01 +2.45868E+01 -3.10544E+00 +1.78494E+01 +1.97096E+01
 +2.45310E-01 +2.98171E+01 -1.73225E+01 +2.02540E+01 -2.40789E+01 -2.72445E+00 -1.57348E+01 -2.37426E+01
 +2.92665E+00 -2.86649E+01 +2.06885E+01 -1.41376E+01 +2.64036E+01 +1.02213E+01 +1.58009E+01 +2.83951E+01
 -5.42746E+00 +2.86841E+01 -2.44762E+01 +1.12464E+01 -2.90338E+01 -1.24212E+01 -1.52698E+01 -2.73174E+01
 +8.99327E+00 -2.45613E+01 +2.85471E+01 -6.53509E+00 +3.03638E+01 +1.53043E+01 +1.24226E+01 +2.79124E+01
 -1.43277E+01 +2.44080E+01 -3.27153E+01 +7.54252E+00 -3.06556E+01 -1.25658E+01 -9.40112E+00 -2.45138E+01
 +1.71029E+01 -2.18812E+01 +3.15278E+01 -6.47423E+00 +2.47928E+01 +1.28450E+01 +1.97815E+00 +2.50072E+01
 -2.14881E+01 +2.28500E+01 -3.05097E+01 +7.36145E+00 -2.03032E+01 -1.24593E+01 +1.09292E+00 -2.45517E+01
 +1.90328E+01 -2.11324E+01 +2.23766E+01 -4.02186E+00 +1.04008E+01 +1.58544E+01 -7.77200E+00 +2.51852E+01
 -2.00380E+01 +1.72449E+01 -1.92688E+01 -3.01155E+00 -7.15420E+00 -2.17651E+01 +7.86040E+00 -2.56994E+01
 +1.63779E+01 -1.15838E+01 +1.35995E+01 +1.09355E+01 +1.58914E+00 +2.57808E+01 -1.23767E+01 +2.18439E+01
 -1.99660E+01 +1.17738E+00 -1.62619E+01 -2.21207E+01 -2.55567E+00 -3.17282E+01 +1.38605E+01 -2.06326E+01
 +2.31902E+01 +3.90509E+00 +1.86726E+01 +2.54387E+01 +1.32515E+00 +2.96974E+01 -1.93754E+01 +1.41077E+01
 -3.03332E+01 -1.09760E+01 -2.30678E+01 -2.96604E+01 -1.80246E-01 -3.09468E+01 +2.49380E+01 -1.51264E+01
 +3.60394E+01 +7.48470E+00 +2.49248E+01 +2.36715E+01 -2.22874E+00 +2.51363E+01 -2.81490E+01 +1.23724E+01
 -3.57710E+01 -6.76295E+00 -1.99426E+01 -2.19243E+01 +8.83322E+00 -2.55416E+01 +3.15203E+01 -1.61504E+01
 +3.36161E+01 +1.16712E+00 +1.48920E+01 +1.71824E+01 -1.10186E+01 +2.30016E+01 -2.65819E+01 +1.49484E+01
 -2.24661E+01 -2.69124E+00 -3.20457E+00 -1.93084E+01 +1.70583E+01 -2.40198E+01 +2.49586E+01 -1.29284E+01
 +1.66975E+01 +7.38052E+00 -5.86826E-01 +2.33539E+01 -1.48396E+01 +2.34884E+01 -1.74407E+01 +6.84768E+00
 -8.06132E+00 -1.53981E+01 +6.42735E+00 -2.72923E+01 +1.71038E+01 -1.95263E+01 +1.82419E+01 +3.33644E+00
 +9.74978E+00 +2.55478E+01 -3.60192E+00 +3.12564E+01 -1.48546E+01 +1.60222E+01 -1.80103E+01 -9.78095E+00
 -1.07857E+01 -2.83006E+01 +3.79674E+00 -2.69138E+01 +1.80523E+01 -6.99480E+00 +2.31832E+01 +1.74967E+01
 +1.46317E+01 +3.02054E+01 -3.95761E+00 +2.36522E+01 -2.16173E+01 +3.58868E+00 -2.64683E+01 -1.60225E+01
 -1.40522E+01 -2.30102E+01 +8.44408E+00 -1.45995E+01 +2.60267E+01 +2.13853E+00 +2.60243E+01 +1.61551E+01
 +7.53314E+00 +1.96908E+01 -1.70949E+01 +1.21259E+01 -3.05270E+01 -1.06738E+00 -2.28989E+01 -1.23284E+01
 +7.18443E-01 -1.59793E+01 +2.36413E+01 -1.04185E+01 +2.95076E+01 +1.55094E+00 +1.40934E+01 +1.38116E+01
 -1.17110E+01 +1.93490E+01 -2.98695E+01 +1.37903E+01 -2.80858E+01 -1.30718E+00 -8.14640E+00 -1.78863E+01
 +1.60187E+01 -2.52270E+01 +2.85416E+01 -1.68700E+01 +2.23164E+01 +3.84664E+00 +2.78209E+00 +2.43630E+01
 -1.69769E+01 +3.05083E+01 -2.53650E+01 +1.65648E+01 -1.90138E+01 -9.58751E+00 -3.29819E+00 -3.08374E+01
 +1.23184E+01 -3.24381E+01 +2.00495E+01 -1.27152E+01 +1.71488E+01 +1.52005E+01 +6.03572E+00 +3.23532E+01
 -7.56168E+00 +2.73489E+01 -1.70424E+01 +4.35334E+00 -1.74644E+01 -2.01764E+01 -7.97284E+00 -2.94882E+01
 +6.89107E+00 -1.82949E+01 +1.86145E+01 +4.21620E+00 +1.93219E+01 +2.18244E+01 +7.34219E+00 +2.31211E+01
 -1.03775E+01 +8.93742E+00 -2.18512E+01 -9.51099E+00 -1.81902E+01 -1.94502E+01 -7.09508E-01 -1.53114E+01
 +1.88248E+01 -1.37972E+00 +2.59973E+01 +1.24974E+01 +1.44385E+01 +1.80050E+01 -8.67109E+00 +1.30409E+01
 -2.70451E+01 +1.61901E+00 -2.69789E+01 -9.58777E+00 -7.71830E+00 -1.50016E+01 +1.74828E+01 -1.22251E+01
 +3.07354E+01 -2.46408E+00 +2.24824E+01 +9.93327E+00 -1.59579E+00 +1.87268E+01 -2.48159E+01 +1.83238E+01
 -3.15505E+01 +7.25143E+00 -1.80854E+01 -9.54070E+00 +5.48006E+00 -2.21658E+01 +2.30757E+01 -2.15410E+01
