 Created: 16-Jan-2021
 $NMID
 ID='D:\BASISSIMULATI'
 FMTDAT='(8E13.5)'
 VOLUME=   1.00000E+00
 TRAMP=   1.00000E+00
 $END
 +1.20185E+02 +1.95899E+01 +8.09511E+01 +8.47919E+01 +8.47308E+00 +1.04717E+02 -5.59693E+01 +6.95306E+01
 -7.65358E+01 +1.30283E+00 -4.36758E+01 -5.94970E+01 +2.09727E+01 -7.81281E+01 +7.82513E+01 -4.57098E+01
 +9.50928E+01 +1.65703E+01 +6.36690E+01 +7.12154E+01 +4.77014E+00 +8.73010E+01 -4.60135E+01 +5.84127E+01
 -6.02912E+01 +5.06409E+00 -3.34287E+01 -3.91860E+01 +1.41106E+01 -4.87672E+01 +5.07451E+01 -2.11659E+01
 +5.38222E+01 +2.28899E+01 +2.31639E+01 +5.35539E+01 -1.99381E+01 +5.09577E+01 -4.70337E+01 +1.72696E+01
 -4.07357E+01 -2.54760E+01 -5.38900E+00 -4.99066E+01 +3.61874E+01 -4.07523E+01 +5.74434E+01 -4.27161E+00
 +4.48594E+01 +3.59709E+01 +6.29934E+00 +5.40285E+01 -3.40153E+01 +3.77467E+01 -5.05456E+01 -3.77557E+00
 -3.20952E+01 -4.58323E+01 +1.14466E+01 -6.31752E+01 +5.51796E+01 -4.52024E+01 +7.41701E+01 -2.13862E+00
 +5.81810E+01 +4.12877E+01 +1.74083E+01 +6.06098E+01 -2.39304E+01 +4.58793E+01 -4.20312E+01 +7.04000E+00
 -2.72507E+01 -3.24504E+01 +1.08415E+01 -4.96214E+01 +4.97240E+01 -3.51777E+01 +6.74094E+01 +1.75933E+00
 +5.50228E+01 +3.97512E+01 +2.12148E+01 +5.79598E+01 -1.37683E+01 +4.80677E+01 -3.04077E+01 +1.83255E+01
 -2.11354E+01 -1.22307E+01 +6.03166E+00 -2.55107E+01 +3.31745E+01 -1.48732E+01 +4.36398E+01 +1.17048E+01
 +3.18136E+01 +3.72714E+01 +5.78284E+00 +4.65491E+01 -1.83340E+01 +3.49888E+01 -2.65734E+01 +1.08863E+01
 -1.54791E+01 -1.03738E+01 +6.35002E+00 -1.60995E+01 +2.41590E+01 -3.96878E+00 +2.64685E+01 +1.70067E+01
 +1.21086E+01 +3.25685E+01 -9.40706E+00 +3.23452E+01 -2.41888E+01 +1.62756E+01 -2.28500E+01 -5.60056E+00
 -6.35362E+00 -1.96908E+01 +1.47676E+01 -1.75063E+01 +2.72057E+01 -9.61213E-01 +2.33303E+01 +1.89567E+01
 +5.96773E+00 +2.92225E+01 -1.34550E+01 +2.30321E+01 -2.21721E+01 +4.08263E+00 -1.41432E+01 -1.57811E+01
 +6.14696E+00 -2.40299E+01 +2.65073E+01 -1.53106E+01 +3.46696E+01 +5.22076E+00 +2.59254E+01 +2.51468E+01
 +6.00044E+00 +3.25409E+01 -1.25869E+01 +2.33494E+01 -1.83510E+01 +3.80680E+00 -7.92755E+00 -1.35671E+01
 +1.19807E+01 -1.78145E+01 +2.89411E+01 -6.28860E+00 +3.26103E+01 +1.38877E+01 +2.10928E+01 +3.04752E+01
 +1.88670E+00 +3.38620E+01 -1.30768E+01 +2.29809E+01 -1.50642E+01 +5.70664E+00 -3.96463E+00 -6.41523E+00
 +1.19007E+01 -5.66004E+00 +2.13771E+01 +6.98447E+00 +1.78208E+01 +2.26383E+01 +3.42767E+00 +3.04832E+01
 -1.22520E+01 +2.49669E+01 -1.86568E+01 +9.55938E+00 -1.13015E+01 -5.42336E+00 +5.03080E+00 -9.58577E+00
 +1.91662E+01 +5.41356E-01 +2.07587E+01 +1.88460E+01 +7.25689E+00 +3.32061E+01 -1.39335E+01 +3.31774E+01
 -2.96852E+01 +1.69673E+01 -2.93097E+01 -6.83913E+00 -1.15744E+01 -2.41271E+01 +1.39390E+01 -2.38658E+01
 +3.22290E+01 -5.19590E+00 +3.18981E+01 +2.15170E+01 +1.23165E+01 +4.05400E+01 -1.55713E+01 +4.01451E+01
 -3.54826E+01 +1.98340E+01 -3.54370E+01 -9.06147E+00 -1.50046E+01 -2.99088E+01 +1.42747E+01 -3.05947E+01
 +3.56411E+01 -1.07404E+01 +3.70194E+01 +1.80595E+01 +1.81297E+01 +3.91458E+01 -9.47281E+00 +4.06945E+01
 -2.94261E+01 +2.26410E+01 -3.03747E+01 -3.51690E+00 -1.26261E+01 -2.18463E+01 +1.23343E+01 -2.16442E+01
 +2.90700E+01 -3.74761E+00 +2.76654E+01 +2.02947E+01 +9.62460E+00 +3.55653E+01 -1.33554E+01 +3.30299E+01
 -2.68685E+01 +1.49772E+01 -2.28234E+01 -6.65617E+00 -4.39011E+00 -1.79394E+01 +1.61607E+01 -1.17458E+01
 +2.53093E+01 +7.81031E+00 +1.68704E+01 +2.80449E+01 -4.08307E+00 +3.57755E+01 -2.44132E+01 +2.57034E+01
 -3.12208E+01 +3.83033E+00 -2.00374E+01 -1.62573E+01 +2.25610E+00 -2.19260E+01 +2.16586E+01 -9.50334E+00
 +2.58150E+01 +1.32930E+01 +1.18394E+01 +3.20863E+01 -1.17400E+01 +3.48247E+01 -3.02028E+01 +1.94129E+01
 -3.18258E+01 -4.82448E+00 -1.53161E+01 -2.28481E+01 +9.21019E+00 -2.32893E+01 +2.64104E+01 -5.67623E+00
 +2.52917E+01 +1.90723E+01 +6.22721E+00 +3.53065E+01 -1.90337E+01 +3.24109E+01 -3.45007E+01 +1.16163E+01
 -2.99017E+01 -1.44666E+01 -7.30253E+00 -2.94518E+01 +1.98163E+01 -2.33378E+01 +3.46207E+01 +1.04475E+00
 +2.72837E+01 +2.93818E+01 +1.28845E+00 +4.43647E+01 -2.83029E+01 +3.62467E+01 -4.37223E+01 +9.02475E+00
 -3.52257E+01 -2.16201E+01 -7.17369E+00 -3.75194E+01 +2.42998E+01 -2.88822E+01 +4.07327E+01 -2.80360E-01
 +3.22758E+01 +3.18984E+01 +3.57192E+00 +4.90585E+01 -2.89594E+01 +4.13358E+01 -4.68019E+01 +1.33392E+01
 -4.01887E+01 -1.87001E+01 -1.36509E+01 -3.65955E+01 +1.69553E+01 -3.08540E+01 +3.40289E+01 -5.96021E+00
 +2.85727E+01 +2.27319E+01 +5.12385E+00 +3.84372E+01 -2.15226E+01 +3.28923E+01 -3.55815E+01 +1.08399E+01
 -2.97558E+01 -1.34729E+01 -9.18304E+00 -2.53866E+01 +1.23594E+01 -1.87806E+01 +2.13954E+01 +5.99676E-01
 +1.31473E+01 +1.93052E+01 -5.81478E+00 +2.50194E+01 -2.21767E+01 +1.44073E+01 -2.46738E+01 -4.94648E+00
 -1.14279E+01 -1.96446E+01 +8.83064E+00 -1.92982E+01 +2.24119E+01 -3.41213E+00 +1.95881E+01 +1.80793E+01
 +1.10300E+00 +3.10224E+01 -2.19221E+01 +2.61246E+01 -3.47478E+01 +5.17530E+00 -2.83008E+01 -1.95997E+01
 -5.19077E+00 -3.28097E+01 +2.13938E+01 -2.54095E+01 +3.54088E+01 -5.88093E-01 +2.76892E+01 +2.76967E+01
 +1.76959E+00 +4.28139E+01 -2.78486E+01 +3.53951E+01 -4.40782E+01 +9.12274E+00 -3.73365E+01 -2.11879E+01
 -1.13148E+01 -3.81658E+01 +1.90622E+01 -3.20686E+01 +3.63279E+01 -6.52255E+00 +3.06819E+01 +2.36023E+01
 +5.66977E+00 +4.09280E+01 -2.40123E+01 +3.57301E+01 -4.12469E+01 +1.15087E+01 -3.65422E+01 -1.72873E+01
 -1.34345E+01 -3.39510E+01 +1.38956E+01 -2.93917E+01 +2.92676E+01 -7.30493E+00 +2.41542E+01 +1.83668E+01
 +2.55533E+00 +3.20382E+01 -2.17521E+01 +2.58821E+01 -3.38022E+01 +4.34773E+00 -2.65697E+01 -1.88605E+01
 -5.08093E+00 -2.93878E+01 +1.69357E+01 -2.10809E+01 +2.57096E+01 +3.49908E-01 +1.60037E+01 +2.10602E+01
 -5.70174E+00 +2.78237E+01 -2.53623E+01 +1.63389E+01 -3.02453E+01 -6.08485E+00 -1.69775E+01 -2.51347E+01
 +6.27810E+00 -2.85181E+01 +2.48994E+01 -1.37591E+01 +2.69903E+01 +1.01347E+01 +1.09310E+01 +2.82253E+01
 -1.34628E+01 +2.89889E+01 -3.09587E+01 +1.16193E+01 -3.03988E+01 -1.33120E+01 -1.17498E+01 -3.03203E+01
 +1.37267E+01 -2.86202E+01 +3.03532E+01 -8.90798E+00 +2.77350E+01 +1.69440E+01 +7.25469E+00 +3.31448E+01
 -1.86965E+01 +2.97237E+01 -3.43105E+01 +8.71256E+00 -3.00900E+01 -1.70728E+01 -8.69116E+00 -3.19116E+01
 +1.67338E+01 -2.68404E+01 +3.06542E+01 -5.12383E+00 +2.47023E+01 +1.98284E+01 +2.74179E+00 +3.27724E+01
 -2.16316E+01 +2.59970E+01 -3.35507E+01 +3.96027E+00 -2.60211E+01 -1.96167E+01 -4.10022E+00 -3.03234E+01
 +1.84094E+01 -2.19399E+01 +2.76149E+01 -1.37592E-01 +1.81185E+01 +2.12209E+01 -3.77451E+00 +2.87959E+01
 -2.41434E+01 +1.80417E+01 -3.02116E+01 -4.08486E+00 -1.82949E+01 -2.35927E+01 +3.98504E+00 -2.82564E+01
 +2.25439E+01 -1.52448E+01 +2.56745E+01 +7.14778E+00 +1.13721E+01 +2.47095E+01 -1.13955E+01 +2.61981E+01
 -2.82486E+01 +1.03868E+01 -2.83392E+01 -1.30968E+01 -1.11485E+01 -2.96677E+01 +1.30688E+01 -2.87946E+01
 +2.94978E+01 -1.05826E+01 +2.78499E+01 +1.41365E+01 +8.76558E+00 +3.03082E+01 -1.64074E+01 +2.78227E+01
 -3.23812E+01 +7.76784E+00 -2.91725E+01 -1.80647E+01 -8.23035E+00 -3.41771E+01 +1.82933E+01 -3.06787E+01
 +3.47386E+01 -9.30079E+00 +3.13004E+01 +1.75376E+01 +9.93187E+00 +3.40880E+01 -1.67745E+01 +3.06562E+01
 -3.30738E+01 +9.38264E+00 -2.94368E+01 -1.70515E+01 -8.18105E+00 -3.30075E+01 +1.79988E+01 -2.91966E+01
 +3.36812E+01 -8.12257E+00 +2.99129E+01 +1.75755E+01 +9.41267E+00 +3.28150E+01 -1.52970E+01 +2.90961E+01
 -2.96012E+01 +9.40515E+00 -2.55900E+01 -1.38955E+01 -6.59594E+00 -2.67816E+01 +1.51996E+01 -2.20769E+01
 +2.64693E+01 -3.55198E+00 +2.09061E+01 +1.67940E+01 +2.81281E+00 +2.64192E+01 -1.59854E+01 +2.00085E+01
 -2.38063E+01 +2.48838E+00 -1.64380E+01 -1.44722E+01 +4.77675E-01 -2.01070E+01 +1.53936E+01 -1.14018E+01
 +1.84851E+01 +5.19760E+00 +7.99757E+00 +1.82130E+01 -8.74990E+00 +1.87472E+01 -2.02879E+01 +6.31996E+00
 -1.85989E+01 -1.08435E+01 -4.44374E+00 -2.12317E+01 +1.30539E+01 -1.76386E+01 +2.23049E+01 -1.99455E+00
 +1.68326E+01 +1.57200E+01 -3.68906E-01 +2.38152E+01 -1.85375E+01 +1.64424E+01 -2.58717E+01 -2.48559E+00
 -1.70336E+01 -2.15436E+01 +3.33215E+00 -2.88358E+01 +2.33075E+01 -1.94187E+01 +3.09640E+01 +1.54247E+00
 +2.16624E+01 +2.18479E+01 +8.80572E-01 +2.96429E+01 -1.91266E+01 +2.05398E+01 -2.67132E+01 +1.43343E-01
 -1.77215E+01 -1.94595E+01 +2.27707E+00 -2.69804E+01 +2.15784E+01 -1.84967E+01 +2.94143E+01 +5.87463E-01
 +2.21369E+01 +1.91530E+01 +4.89236E+00 +2.71304E+01 -1.19566E+01 +2.12314E+01 -1.92157E+01 +6.31733E+00
 -1.40794E+01 -8.11509E+00 -1.16644E+00 -1.38921E+01 +1.09279E+01 -8.82434E+00 +1.51413E+01 +2.62146E+00
 +1.00196E+01 +1.27218E+01 -6.35806E-03 +1.55640E+01 -8.00813E+00 +1.05293E+01 -9.21926E+00 +2.14685E+00
 -3.94215E+00 -3.33061E+00 +3.04072E+00 -2.23642E+00 +5.98599E+00 +4.14235E+00 +2.22529E+00 +1.06056E+01
 -5.95020E+00 +1.17156E+01 -1.27795E+01 +5.64654E+00 -1.29212E+01 -4.34323E+00 -5.20870E+00 -1.18349E+01
 +6.21129E+00 -1.14023E+01 +1.42108E+01 -2.36087E+00 +1.31362E+01 +1.03468E+01 +2.63004E+00 +1.88600E+01
 -1.16626E+01 +1.71850E+01 -2.11448E+01 +5.15316E+00 -1.93970E+01 -1.09875E+01 -6.31825E+00 -2.19308E+01
 +1.13481E+01 -2.07890E+01 +2.36513E+01 -7.44473E+00 +2.32517E+01 +1.09594E+01 +9.98933E+00 +2.39147E+01
 -8.65118E+00 +2.36924E+01 -2.16806E+01 +1.01198E+01 -2.10622E+01 -8.99004E+00 -6.66840E+00 -2.22234E+01
 +1.33496E+01 -2.13147E+01 +2.72015E+01 -6.24706E+00 +2.64782E+01 +1.44774E+01 +1.13498E+01 +2.87481E+01
 -9.31154E+00 +2.81165E+01 -2.31342E+01 +1.30386E+01 -2.17441E+01 -7.20318E+00 -5.99799E+00 -2.00184E+01
 +1.43549E+01 -1.72084E+01 +2.65272E+01 -1.31784E-01 +2.25713E+01 +2.09474E+01 +4.41931E+00 +3.30694E+01
 -1.71323E+01 +2.86043E+01 -2.89995E+01 +1.01113E+01 -2.39500E+01 -1.10851E+01 -5.22764E+00 -2.18427E+01
 +1.53179E+01 -1.54174E+01 +2.45464E+01 +4.19932E+00 +1.62796E+01 +2.46281E+01 -4.69694E+00 +3.27746E+01
 -2.54806E+01 +2.30765E+01 -3.30650E+01 +1.12903E+00 -2.25406E+01 -1.96745E+01 -3.08099E-01 -2.64730E+01
 +1.97967E+01 -1.50506E+01 +2.51211E+01 +7.38855E+00 +1.21836E+01 +2.66061E+01 -1.10094E+01 +3.02021E+01
