 Created: 16-Jan-2021
 $NMID
 ID='D:\BASISSIMULATI'
 FMTDAT='(8E13.5)'
 VOLUME=   1.00000E+00
 TRAMP=   1.00000E+00
 $END
 +8.59419E+01 +1.36107E+01 +6.88370E+01 -2.60424E+01 +1.68678E+01 -4.17398E+01 -3.84319E+01 -1.97347E+01
 -6.42681E+01 +2.68424E+01 -4.77966E+01 +6.66217E+01 -3.91699E+00 +7.11851E+01 +3.53951E+01 +3.45389E+01
 +4.28994E+01 -2.22766E+01 +1.43349E+01 -6.46265E+01 -2.91101E+01 -6.68534E+01 -5.56240E+01 -2.89589E+01
 -4.47705E+01 +2.36706E+01 -1.75284E+00 +5.72106E+01 +4.57038E+01 +5.16341E+01 +6.57699E+01 +1.34237E+01
 +4.38600E+01 -2.95594E+01 -7.40895E+00 -4.73705E+01 -5.63119E+01 -2.83293E+01 -7.27382E+01 +1.32596E+01
 -4.77225E+01 +4.70857E+01 +1.14594E+00 +4.76509E+01 +4.18556E+01 +1.18258E+01 +4.93612E+01 -3.86794E+01
 +2.18840E+01 -7.15623E+01 -1.86400E+01 -6.53105E+01 -4.20022E+01 -2.34170E+01 -3.04678E+01 +2.79940E+01
 +9.17424E+00 +5.74234E+01 +5.02665E+01 +4.85450E+01 +6.43645E+01 +1.03999E+01 +4.04942E+01 -2.93448E+01
 -7.33967E+00 -4.32992E+01 -4.93444E+01 -2.26264E+01 -5.95776E+01 +1.74766E+01 -3.28812E+01 +4.85294E+01
 +1.20926E+01 +4.82928E+01 +4.55768E+01 +1.58543E+01 +4.64509E+01 -2.77850E+01 +1.58599E+01 -5.38497E+01
 -2.42161E+01 -4.50414E+01 -4.61880E+01 -6.99366E+00 -3.54736E+01 +3.56077E+01 -3.05359E-02 +5.54683E+01
 +3.53874E+01 +4.06044E+01 +4.61474E+01 +1.84750E+00 +2.43422E+01 -3.48431E+01 -1.60069E+01 -4.58693E+01
 -4.84527E+01 -2.54960E+01 -5.17856E+01 +1.08713E+01 -2.39872E+01 +3.75411E+01 +1.67275E+01 +3.59985E+01
 +4.42447E+01 +7.21072E+00 +4.18409E+01 -2.93223E+01 +1.28881E+01 -4.88879E+01 -2.19653E+01 -3.81488E+01
 -3.89611E+01 -3.89887E+00 -2.70930E+01 +3.16928E+01 +4.89905E+00 +4.59429E+01 +3.48410E+01 +3.05711E+01
 +4.22465E+01 -3.20251E+00 +2.19985E+01 -3.25401E+01 -1.24769E+01 -3.83358E+01 -3.84345E+01 -1.77017E+01
 -3.90486E+01 +1.46037E+01 -1.44291E+01 +3.64741E+01 +1.87950E+01 +3.33633E+01 +3.87945E+01 +7.79800E+00
 +3.30209E+01 -2.26888E+01 +6.19936E+00 -3.75569E+01 -2.32887E+01 -2.69943E+01 -3.59418E+01 +1.76678E+00
 -2.40670E+01 +2.95706E+01 +3.46941E+00 +3.82393E+01 +2.76012E+01 +2.25303E+01 +3.20263E+01 -6.73425E+00
 +1.40079E+01 -3.02133E+01 -1.40990E+01 -3.30042E+01 -3.33810E+01 -1.43057E+01 -3.10573E+01 +1.25094E+01
 -8.81734E+00 +2.91939E+01 +1.86057E+01 +2.48827E+01 +3.34398E+01 +3.10536E+00 +2.66238E+01 -2.09529E+01
 +3.49630E+00 -3.08658E+01 -2.01676E+01 -1.99497E+01 -2.88813E+01 +4.48471E+00 -1.76528E+01 +2.62624E+01
 +5.06302E+00 +3.12238E+01 +2.34127E+01 +1.65089E+01 +2.49298E+01 -7.85007E+00 +8.77194E+00 -2.58762E+01
 -1.39866E+01 -2.63122E+01 -2.79956E+01 -9.85431E+00 -2.39297E+01 +1.17242E+01 -4.55142E+00 +2.37426E+01
 +1.73729E+01 +1.84543E+01 +2.77162E+01 -9.32300E-03 +2.03057E+01 -1.87341E+01 +7.35082E-01 -2.48810E+01
 -1.76929E+01 -1.42704E+01 -2.29850E+01 +6.00308E+00 -1.23299E+01 +2.25100E+01 +6.35629E+00 +2.45147E+01
 +2.00511E+01 +1.10045E+01 +1.94804E+01 -8.88426E+00 +5.23343E+00 -2.21513E+01 -1.28569E+01 -2.05901E+01
 -2.24830E+01 -6.02224E+00 -1.71282E+01 +1.12592E+01 -2.99473E-01 +1.96107E+01 +1.69867E+01 +1.38393E+01
 +2.36321E+01 -1.52199E+00 +1.57507E+01 -1.55222E+01 -9.97154E-01 -1.83117E+01 -1.54444E+01 -7.75606E+00
 -1.84735E+01 +9.24210E+00 -8.97641E+00 +2.14765E+01 +5.69964E+00 +2.09400E+01 +1.49667E+01 +8.05061E+00
 +1.22421E+01 -8.81454E+00 -6.66985E-01 -1.90264E+01 -1.49094E+01 -1.67341E+01 -2.06456E+01 -4.52014E+00
 -1.36718E+01 +8.65247E+00 +1.81924E+00 +1.36733E+01 +1.61047E+01 +7.42368E+00 +2.04044E+01 -5.28443E+00
 +1.25866E+01 -1.51687E+01 -1.65666E+00 -1.48963E+01 -1.28264E+01 -4.09032E+00 -1.40173E+01 +1.04172E+01
 -5.37748E+00 +1.91809E+01 +6.29346E+00 +1.64395E+01 +1.24064E+01 +3.88731E+00 +8.52594E+00 -1.05429E+01
 -2.63682E+00 -1.79803E+01 -1.31481E+01 -1.43944E+01 -1.53167E+01 -3.01418E+00 -6.96654E+00 +8.12716E+00
 +7.03405E+00 +1.17461E+01 +1.79711E+01 +6.16273E+00 +1.90225E+01 -3.78503E+00 +9.68003E+00 -1.02854E+01
 -4.05306E+00 -8.06192E+00 -1.37346E+01 +1.92721E+00 -1.40292E+01 +1.30905E+01 -6.01353E+00 +1.76610E+01
 +3.88890E+00 +1.19698E+01 +8.50323E+00 -1.02280E+00 +4.84100E+00 -1.36139E+01 -3.96467E+00 -1.83680E+01
 -1.09774E+01 -1.28864E+01 -1.03801E+01 -1.18827E+00 -1.61255E+00 +9.13300E+00 +1.00957E+01 +1.19889E+01
 +1.71498E+01 +6.67970E+00 +1.46512E+01 -1.96702E+00 +3.69122E+00 -7.18323E+00 -9.31561E+00 -5.04715E+00
 -1.67821E+01 +2.81099E+00 -1.47957E+01 +1.03970E+01 -5.45711E+00 +1.15778E+01 +4.76857E+00 +4.43149E+00
 +9.48523E+00 -7.25036E+00 +6.55700E+00 -1.63369E+01 -7.31620E-01 -1.70162E+01 -6.23392E+00 -8.61839E+00
 -5.38301E+00 +3.93394E+00 +1.55530E+00 +1.33164E+01 +9.63487E+00 +1.44821E+01 +1.26594E+01 +7.72939E+00
 +7.53402E+00 -1.81125E+00 -3.43372E+00 -7.81803E+00 -1.38568E+01 -7.02553E+00 -1.73457E+01 -1.21987E+00
 -1.16272E+01 +4.29279E+00 +1.64664E-02 +4.60836E+00 +1.09045E+01 -1.19810E+00 +1.52349E+01 -9.30143E+00
 +1.16384E+01 -1.36869E+01 +3.70940E+00 -1.02969E+01 -2.72471E+00 +5.40234E-02 -3.65980E+00 +1.19769E+01
 +4.69103E-01 +1.88413E+01 +5.33599E+00 +1.69416E+01 +5.98034E+00 +7.76093E+00 +4.84809E-01 -3.11483E+00
 -8.47016E+00 -9.64803E+00 -1.52525E+01 -9.11611E+00 -1.50226E+01 -3.53399E+00 -7.05408E+00 +2.10411E+00
 +4.60307E+00 +3.46147E+00 +1.35709E+01 -1.43559E-01 +1.50916E+01 -5.39651E+00 +8.89153E+00 -7.47420E+00
 -8.66845E-01 -3.60577E+00 -8.42764E+00 +4.75861E+00 -1.01337E+01 +1.26736E+01 -6.52745E+00 +1.48554E+01
 -1.55359E+00 +9.16622E+00 +4.73761E-01 -1.88936E+00 -1.99872E+00 -1.26446E+01 -6.67856E+00 -1.77424E+01
 -9.09510E+00 -1.53261E+01 -5.84310E+00 -7.90747E+00 +2.83527E+00 -4.44051E-01 +1.29061E+01 +3.00704E+00
 +1.89631E+01 +1.80385E+00 +1.76197E+01 -1.21613E+00 +9.64168E+00 -2.05240E+00 -5.57161E-01 +1.42636E+00
 -7.69138E+00 +7.83635E+00 -8.81027E+00 +1.31360E+01 -4.86543E+00 +1.33862E+01 +2.94102E-01 +7.52789E+00
 +2.71685E+00 -1.70888E+00 +1.00552E+00 -9.38791E+00 -2.92570E+00 -1.14033E+01 -5.42207E+00 -6.98179E+00
 -3.83754E+00 +9.56614E-01 +1.45372E+00 +7.75637E+00 +7.16141E+00 +9.96688E+00 +9.22396E+00 +7.33529E+00
 +5.54259E+00 +2.61224E+00 -2.53005E+00 -5.85330E-01 -1.09350E+01 -3.38305E-01 -1.53857E+01 +2.32331E+00
 -1.39499E+01 +4.28063E+00 -8.07294E+00 +2.64984E+00 -1.44350E+00 -3.05120E+00 +2.47594E+00 -1.03778E+01
 +2.58960E+00 -1.54295E+01 +6.02539E-01 -1.53291E+01 -4.46646E-01 -1.00607E+01 +1.52108E+00 -2.46814E+00
 +6.09332E+00 +3.55118E+00 +1.06185E+01 +5.44355E+00 +1.20337E+01 +3.42328E+00 +8.99974E+00 +5.12470E-02
 +2.89435E+00 -1.66343E+00 -2.99780E+00 -3.15481E-01 -5.54325E+00 +3.05844E+00 -3.69617E+00 +5.85887E+00
 +9.44723E-01 +5.85380E+00 +5.27487E+00 +2.80966E+00 +6.71291E+00 -1.28563E+00 +4.76191E+00 -3.53790E+00
 +1.10939E+00 -2.09124E+00 -1.71795E+00 +2.61080E+00 -2.16918E+00 +8.07603E+00 -7.05154E-01 +1.13315E+01
 +6.19533E-01 +1.07496E+01 -3.03909E-01 +6.93762E+00 -4.06172E+00 +2.16022E+00 -9.18675E+00 -1.24801E+00
 -1.30257E+01 -2.37442E+00 -1.34085E+01 -2.13707E+00 -1.00002E+01 -2.39746E+00 -4.45825E+00 -4.45287E+00
 +6.64633E-01 -7.98202E+00 +3.50091E+00 -1.11735E+01 +3.87750E+00 -1.19348E+01 +3.13249E+00 -9.34083E+00
 +2.94923E+00 -4.33025E+00 +4.07096E+00 +8.14559E-01 +5.79722E+00 +3.84200E+00 +6.58307E+00 +3.83940E+00
 +5.27980E+00 +1.63115E+00 +2.11603E+00 -9.35828E-01 -1.28677E+00 -2.27187E+00 -2.89034E+00 -1.99593E+00
 -1.54648E+00 -9.42472E-01 +2.24679E+00 -2.96269E-01 +6.63557E+00 -5.36250E-01 +9.52989E+00 -9.78947E-01
 +9.79115E+00 -2.60084E-01 +7.71712E+00 +2.59105E+00 +4.56958E+00 +7.26064E+00 +1.55610E+00 +1.20980E+01
 -9.72108E-01 +1.49749E+01 -3.54380E+00 +1.45002E+01 -6.84307E+00 +1.07893E+01 -1.08220E+01 +5.30451E+00
 -1.43581E+01 -8.48846E-02 -1.57688E+01 -4.15617E+00 -1.38694E+01 -6.79744E+00 -8.84760E+00 -8.63235E+00
 -2.33144E+00 -1.01675E+01 +3.43084E+00 -1.11563E+01 +6.75602E+00 -1.06916E+01 +7.30935E+00 -7.97744E+00
 +6.00902E+00 -3.20370E+00 +4.18722E+00 +2.16916E+00 +2.64589E+00 +6.01031E+00 +1.28442E+00 +6.67283E+00
 -4.71128E-01 +3.95619E+00 -2.81578E+00 -7.69010E-01 -4.99609E+00 -5.36612E+00 -5.53312E+00 -8.13440E+00
 -3.16177E+00 -8.61711E+00 +2.14584E+00 -7.51674E+00 +8.82563E+00 -5.85535E+00 +1.43666E+01 -4.04774E+00
 +1.66071E+01 -1.60092E+00 +1.48689E+01 +2.32340E+00 +1.02019E+01 +7.90471E+00 +4.60020E+00 +1.40052E+01
 -2.55941E-01 +1.84394E+01 -3.87300E+00 +1.91071E+01 -6.85965E+00 +1.52866E+01 -1.00083E+01 +8.21140E+00
 -1.32715E+01 +4.93405E-01 -1.54458E+01 -5.28274E+00 -1.48690E+01 -7.90290E+00 -1.06853E+01 -7.94739E+00
 -3.77184E+00 -7.05900E+00 +3.40235E+00 -6.60567E+00 +8.00867E+00 -6.69624E+00 +8.43830E+00 -6.24531E+00
 +5.20509E+00 -4.02621E+00 +5.63386E-01 +7.28652E-02 -2.92130E+00 +4.55122E+00 -3.90762E+00 +7.00632E+00
 -2.90870E+00 +5.64561E+00 -1.62794E+00 +5.87027E-01 -1.50540E+00 -5.98017E+00 -2.52805E+00 -1.09635E+01
 -3.17324E+00 -1.21517E+01 -1.55414E+00 -9.46211E+00 +3.02992E+00 -4.83177E+00 +9.25949E+00 -8.36762E-01
 +1.43382E+01 +1.02057E+00 +1.56304E+01 +1.19274E+00 +1.23307E+01 +1.54757E+00 +6.03280E+00 +3.80441E+00
 -2.21314E-01 +8.06235E+00 -3.81329E+00 +1.24873E+01 -4.10883E+00 +1.44278E+01 -2.67206E+00 +1.22271E+01
 -2.00474E+00 +6.48246E+00 -3.68465E+00 -1.53897E-01 -7.19094E+00 -4.55797E+00 -1.02361E+01 -5.07332E+00
 -1.03864E+01 -2.50884E+00 -6.85295E+00 +4.86351E-01 -1.19907E+00 +1.26027E+00 +3.56391E+00 -1.03118E+00
 +4.91225E+00 -4.87005E+00 +2.47367E+00 -7.45967E+00 -1.72334E+00 -6.70795E+00 -4.60795E+00 -2.74928E+00
 -4.12958E+00 +2.05220E+00 -6.28781E-01 +4.64334E+00 +3.42231E+00 +3.33129E+00 +5.14410E+00 -1.05480E+00
 +3.26861E+00 -5.69372E+00 -9.29368E-01 -7.64880E+00 -4.44203E+00 -5.82244E+00 -4.54815E+00 -1.65752E+00
 -6.79891E-01 +1.89759E+00 +5.13500E+00 +2.45751E+00 +9.56843E+00 -1.15155E-01 +1.01590E+01 -3.57472E+00
 +6.89025E+00 -4.82107E+00 +2.11753E+00 -2.06570E+00 -1.09778E+00 +3.84082E+00 -1.10041E+00 +9.84175E+00
 +1.24966E+00 +1.26019E+01 +3.23590E+00 +1.06489E+01 +2.26267E+00 +5.29519E+00 -2.20956E+00 -2.72587E-01
 -8.11779E+00 -3.11283E+00 -1.20475E+01 -2.42111E+00 -1.14634E+01 +7.89718E-02 -6.42308E+00 +1.48973E+00
