 Created: 16-Jan-2021
 $NMID
 ID='D:\BASISSIMULATI'
 FMTDAT='(8E13.5)'
 VOLUME=   1.00000E+00
 TRAMP=   1.00000E+00
 $END
 +1.47366E+02 +2.25616E+01 +1.26404E+02 +7.63886E+01 +8.54459E+01 +1.16624E+02 +3.21238E+01 +1.36199E+02
 -2.36825E+01 +1.31973E+02 -7.17392E+01 +1.05306E+02 -1.03413E+02 +6.17589E+01 -1.13303E+02 +9.99669E+00
 -1.00243E+02 -3.99061E+01 -6.74707E+01 -7.84142E+01 -2.19544E+01 -9.83600E+01 +2.70042E+01 -9.62966E+01
 +6.96004E+01 -7.31157E+01 +9.74391E+01 -3.38172E+01 +1.05152E+02 +1.35203E+01 +9.14089E+01 +5.93575E+01
 +5.91271E+01 +9.45838E+01 +1.48479E+01 +1.12303E+02 -3.25937E+01 +1.09165E+02 -7.38392E+01 +8.59955E+01
 -1.00864E+02 +4.75837E+01 -1.08558E+02 +1.70069E+00 -9.57161E+01 -4.24717E+01 -6.52506E+01 -7.61798E+01
 -2.35836E+01 -9.28420E+01 +2.06544E+01 -8.93524E+01 +5.83601E+01 -6.66889E+01 +8.17817E+01 -2.97059E+01
 +8.60711E+01 +1.38429E+01 +7.02555E+01 +5.48589E+01 +3.74382E+01 +8.47195E+01 -5.81169E+00 +9.70059E+01
 -5.07590E+01 +8.87947E+01 -8.82350E+01 +6.12587E+01 -1.10461E+02 +1.94566E+01 -1.12599E+02 -2.86475E+01
 -9.37342E+01 -7.37414E+01 -5.70751E+01 -1.06994E+02 -9.35336E+00 -1.21796E+02 +4.04776E+01 -1.15072E+02
 +8.29814E+01 -8.78966E+01 +1.10078E+02 -4.53107E+01 +1.16622E+02 +4.64848E+00 +1.01412E+02 +5.24990E+01
 +6.74332E+01 +8.91508E+01 +2.12807E+01 +1.07669E+02 -2.81130E+01 +1.04615E+02 -7.12101E+01 +8.07156E+01
 -9.97133E+01 +4.07102E+01 -1.08169E+02 -7.56933E+00 -9.50137E+01 -5.47248E+01 -6.28659E+01 -9.16149E+01
 -1.80008E+01 -1.11125E+02 +3.08802E+01 -1.09533E+02 +7.43475E+01 -8.72204E+01 +1.04075E+02 -4.85684E+01
 +1.14450E+02 -1.09082E+00 +1.03644E+02 +4.60466E+01 +7.39469E+01 +8.38173E+01 +3.12895E+01 +1.05089E+02
 -1.59347E+01 +1.05999E+02 -5.85247E+01 +8.66852E+01 -8.82748E+01 +5.12260E+01 -9.95715E+01 +6.81798E+00
 -9.04743E+01 -3.76584E+01 -6.30704E+01 -7.33919E+01 -2.30377E+01 -9.33706E+01 +2.14949E+01 -9.37502E+01
 +6.15624E+01 -7.45921E+01 +8.91357E+01 -3.98310E+01 +9.87014E+01 +3.51995E+00 +8.83396E+01 +4.67662E+01
 +6.00908E+01 +8.12550E+01 +1.95406E+01 +1.00084E+02 -2.52916E+01 +9.94606E+01 -6.55416E+01 +7.94436E+01
 -9.32501E+01 +4.39261E+01 -1.02932E+02 -1.38252E-01 -9.26546E+01 -4.41090E+01 -6.44141E+01 -7.93628E+01
 -2.37397E+01 -9.89904E+01 +2.13980E+01 -9.91544E+01 +6.21559E+01 -7.98408E+01 +9.05573E+01 -4.48572E+01
 +1.01057E+02 -1.08115E+00 +9.16267E+01 +4.28940E+01 +6.41501E+01 +7.84483E+01 +2.40454E+01 +9.86261E+01
 -2.08019E+01 +9.94991E+01 -6.15902E+01 +8.09313E+01 -9.03299E+01 +4.66000E+01 -1.01410E+02 +3.26758E+00
 -9.26931E+01 -4.05504E+01 -6.59312E+01 -7.62585E+01 -2.64129E+01 -9.68685E+01 +1.80788E+01 -9.83668E+01
 +5.87983E+01 -8.04976E+01 +8.77545E+01 -4.68064E+01 +9.92774E+01 -3.93863E+00 +9.11267E+01 +3.96689E+01
 +6.49268E+01 +7.54456E+01 +2.58418E+01 +9.63690E+01 -1.84417E+01 +9.83393E+01 -5.92252E+01 +8.09801E+01
 -8.85057E+01 +4.77074E+01 -1.00543E+02 +5.05550E+00 -9.29847E+01 -3.86071E+01 -6.73191E+01 -7.47197E+01
 -2.85842E+01 -9.62063E+01 +1.56243E+01 -9.88599E+01 +5.66422E+01 -8.21634E+01 +8.64324E+01 -4.93868E+01
 +9.91564E+01 -6.94435E+00 +9.23123E+01 +3.68625E+01 +6.72201E+01 +7.34685E+01 +2.87583E+01 +9.57167E+01
 -1.55923E+01 +9.92521E+01 -5.72123E+01 +8.33654E+01 -8.80240E+01 +5.11235E+01 -1.02064E+02 +8.76299E+00
 -9.66344E+01 -3.55325E+01 -7.28210E+01 -7.32305E+01 -3.52634E+01 -9.71101E+01 +8.76017E+00 -1.02660E+02
 +5.07619E+01 -8.89436E+01 +8.27015E+01 -5.87594E+01 +9.85480E+01 -1.80775E+01 +9.54420E+01 +2.51448E+01
 +7.42316E+01 +6.25268E+01 +3.92811E+01 +8.69024E+01 -2.40699E+00 +9.37117E+01 -4.25811E+01 +8.18738E+01
 -7.33667E+01 +5.39730E+01 -8.88084E+01 +1.57254E+01 -8.60274E+01 -2.51675E+01 -6.57664E+01 -6.05477E+01
 -3.22203E+01 -8.34123E+01 +7.81332E+00 -8.92891E+01 +4.62918E+01 -7.71064E+01 +7.55259E+01 -4.93885E+01
 +8.97013E+01 -1.17403E+01 +8.60253E+01 +2.82759E+01 +6.52721E+01 +6.26464E+01 +3.16209E+01 +8.44989E+01
 -8.17839E+00 +8.94655E+01 -4.61487E+01 +7.65491E+01 -7.46702E+01 +4.83217E+01 -8.79936E+01 +1.04163E+01
 -8.33852E+01 -2.95864E+01 -6.16751E+01 -6.36578E+01 -2.71030E+01 -8.49113E+01 +1.35094E+01 -8.89692E+01
 +5.20972E+01 -7.48379E+01 +8.09386E+01 -4.51180E+01 +9.41773E+01 -5.50806E+00 +8.89828E+01 +3.63011E+01
 +6.61189E+01 +7.21264E+01 +2.98110E+01 +9.48919E+01 -1.30654E+01 +1.00015E+02 -5.43138E+01 +8.63099E+01
 -8.60070E+01 +5.62274E+01 -1.02025E+02 +1.53900E+01 -9.92447E+01 -2.84922E+01 -7.81448E+01 -6.71099E+01
 -4.27146E+01 -9.31590E+01 +3.19685E-01 -1.01748E+02 +4.27963E+01 -9.13354E+01 +7.66937E+01 -6.40153E+01
 +9.56741E+01 -2.51002E+01 +9.62946E+01 +1.79189E+01 +7.86520E+01 +5.68284E+01 +4.63393E+01 +8.42795E+01
 +5.72480E+00 +9.51984E+01 -3.53021E+01 +8.77466E+01 -6.88704E+01 +6.36450E+01 -8.86524E+01 +2.78053E+01
 -9.10747E+01 -1.26568E+01 -7.59841E+01 -4.98300E+01 -4.66385E+01 -7.65578E+01 -9.03233E+00 -8.78291E+01
 +2.93085E+01 -8.17352E+01 +6.08218E+01 -5.98112E+01 +7.93989E+01 -2.66963E+01 +8.15759E+01 +1.08131E+01
 +6.71949E+01 +4.51306E+01 +3.94061E+01 +6.93915E+01 +4.01532E+00 +7.88137E+01 -3.16908E+01 +7.16367E+01
 -6.04090E+01 +4.94570E+01 -7.62801E+01 +1.68944E+01 -7.60585E+01 -1.93420E+01 -5.97588E+01 -5.18016E+01
 -3.06524E+01 -7.37861E+01 +5.38438E+00 -8.06935E+01 +4.10409E+01 -7.09449E+01 +6.90302E+01 -4.63122E+01
 +8.35451E+01 -1.15796E+01 +8.14252E+01 +2.63932E+01 +6.28032E+01 +6.00232E+01 +3.11015E+01 +8.25042E+01
 -7.62078E+00 +8.91604E+01 -4.58436E+01 +7.83857E+01 -7.60553E+01 +5.19837E+01 -9.22265E+01 +1.48388E+01
 -9.10001E+01 -2.60169E+01 -7.23638E+01 -6.27613E+01 -3.96722E+01 -8.82987E+01 +9.86644E-01 -9.76397E+01
 +4.19578E+01 -8.88755E+01 +7.54921E+01 -6.35559E+01 +9.52390E+01 -2.63972E+01 +9.74690E+01 +1.56215E+01
 +8.17890E+01 +5.46002E+01 +5.12123E+01 +8.32355E+01 +1.15709E+01 +9.62185E+01 -2.96142E+01 +9.12450E+01
 -6.45834E+01 +6.94406E+01 -8.68283E+01 +3.51226E+01 -9.23306E+01 -5.05267E+00 -8.03128E+01 -4.33889E+01
 -5.33562E+01 -7.26402E+01 -1.68686E+01 -8.74021E+01 +2.19918E+01 -8.51345E+01 +5.57219E+01 -6.66189E+01
 +7.79329E+01 -3.57657E+01 +8.45791E+01 +1.18563E+00 +7.47168E+01 +3.69140E+01 +5.06486E+01 +6.44623E+01
 +1.74308E+01 +7.85988E+01 -1.81561E+01 +7.68253E+01 -4.89670E+01 +5.98392E+01 -6.89119E+01 +3.13600E+01
 -7.41553E+01 -2.64015E+00 -6.38613E+01 -3.51463E+01 -4.03373E+01 -5.95104E+01 -8.55267E+00 -7.07798E+01
 +2.48699E+01 -6.66825E+01 +5.29894E+01 -4.80753E+01 +6.99418E+01 -1.87666E+01 +7.21184E+01 +1.52486E+01
 +5.88940E+01 +4.69899E+01 +3.27612E+01 +6.98893E+01 -1.15610E+00 +7.91098E+01 -3.61143E+01 +7.25219E+01
 -6.50866E+01 +5.11452E+01 -8.21601E+01 +1.89672E+01 -8.37184E+01 -1.78272E+01 -6.91757E+01 -5.20638E+01
 -4.11153E+01 -7.69882E+01 -4.80539E+00 -8.75984E+01 +3.28149E+01 -8.16402E+01 +6.44822E+01 -6.00668E+01
 +8.40244E+01 -2.68745E+01 +8.75684E+01 +1.16586E+01 +7.43037E+01 +4.81792E+01 +4.66523E+01 +7.56789E+01
 +9.81102E+00 +8.88507E+01 -2.92447E+01 +8.51159E+01 -6.31026E+01 +6.51245E+01 -8.53388E+01 +3.26306E+01
 -9.17514E+01 -6.23294E+00 -8.11617E+01 -4.41366E+01 -5.56297E+01 -7.39650E+01 -2.00438E+01 -9.01805E+01
 +1.88335E+01 -8.98767E+01 +5.36776E+01 -7.33174E+01 +7.80129E+01 -4.38606E+01 +8.74514E+01 -7.28382E+00
 +8.05171E+01 +2.93531E+01 +5.88999E+01 +5.90853E+01 +2.70921E+01 +7.63895E+01 -8.51580E+00 +7.82387E+01
 -4.09019E+01 +6.46613E+01 -6.37906E+01 +3.86980E+01 -7.28718E+01 +5.77084E+00 -6.66243E+01 -2.74092E+01
 -4.65840E+01 -5.41777E+01 -1.70083E+01 -6.92326E+01 +1.59926E+01 -6.96700E+01 +4.56850E+01 -5.55398E+01
 +6.60546E+01 -2.98127E+01 +7.30007E+01 +2.23060E+00 +6.51428E+01 +3.40656E+01 +4.40852E+01 +5.92318E+01
 +1.40874E+01 +7.26238E+01 -1.87929E+01 +7.15093E+01 -4.79123E+01 +5.60733E+01 -6.73686E+01 +2.93823E+01
 -7.31817E+01 -3.22472E+00 -6.40917E+01 -3.51962E+01 -4.18188E+01 -6.00710E+01 -1.07324E+01 -7.27642E+01
 +2.30054E+01 -7.05846E+01 +5.26529E+01 -5.37803E+01 +7.22206E+01 -2.55054E+01 +7.76580E+01 +8.78592E+00
 +6.76631E+01 +4.24015E+01 +4.39541E+01 +6.87190E+01 +1.09491E+01 +8.24847E+01 -2.50843E+01 +8.08481E+01
 -5.72428E+01 +6.39292E+01 -7.93288E+01 +3.48069E+01 -8.70562E+01 -1.06945E+00 -7.88862E+01 -3.69304E+01
 -5.63289E+01 -6.59951E+01 -2.36530E+01 -8.27812E+01 +1.29397E+01 -8.41633E+01 +4.65136E+01 -6.99718E+01
 +7.07390E+01 -4.30186E+01 +8.11101E+01 -8.54419E+00 +7.58063E+01 +2.68037E+01 +5.60294E+01 +5.62598E+01
 +2.57534E+01 +7.42490E+01 -9.06199E+00 +7.74555E+01 -4.16392E+01 +6.54482E+01 -6.57020E+01 +4.07420E+01
 -7.66896E+01 +8.28563E+00 -7.26283E+01 -2.55203E+01 -5.44930E+01 -5.40821E+01 -2.59918E+01 -7.19002E+01
 +7.18291E+00 -7.56334E+01 +3.84851E+01 -6.47343E+01 +6.18061E+01 -4.15320E+01 +7.26699E+01 -1.07511E+01
 +6.91010E+01 +2.14370E+01 +5.19945E+01 +4.86413E+01 +2.49190E+01 +6.55137E+01 -6.60601E+00 +6.88001E+01
 -3.62138E+01 +5.79715E+01 -5.79568E+01 +3.53159E+01 -6.74845E+01 +5.47166E+00 -6.29013E+01 -2.55008E+01
 -4.51372E+01 -5.13266E+01 -1.77576E+01 -6.67634E+01 +1.37471E+01 -6.86414E+01 +4.30522E+01 -5.64927E+01
 +6.42533E+01 -3.26451E+01 +7.30372E+01 -1.76369E+00 +6.75385E+01 +3.00690E+01 +4.87138E+01 +5.65534E+01
 +2.01586E+01 +7.24168E+01 -1.25950E+01 +7.44555E+01 -4.31628E+01 +6.21707E+01 -6.55620E+01 +3.78738E+01
 -7.53866E+01 +6.23836E+00 -7.06741E+01 -2.66103E+01 -5.22950E+01 -5.42924E+01 -2.37861E+01 -7.14199E+01
 +9.33655E+00 -7.46509E+01 +4.06528E+01 -6.33425E+01 +6.40894E+01 -3.96771E+01 +7.51032E+01 -8.23706E+00
 +7.15638E+01 +2.48889E+01 +5.41661E+01 +5.32918E+01 +2.62903E+01 +7.14891E+01 -6.66086E+00 +7.59889E+01
 -3.83172E+01 +6.59628E+01 -6.25820E+01 +4.33998E+01 -7.48164E+01 +1.27091E+01 -7.27350E+01 -2.01461E+01
 -5.68407E+01 -4.88154E+01 -3.03134E+01 -6.77981E+01 +1.62237E+00 -7.35104E+01 +3.27261E+01 -6.49729E+01
 +5.69637E+01 -4.39877E+01 +6.96839E+01 -1.47707E+01 +6.85190E+01 +1.68858E+01 +5.38343E+01 +4.47547E+01
 +2.86411E+01 +6.33958E+01 -2.00811E+00 +6.92166E+01 -3.20220E+01 +6.11674E+01 -5.54714E+01 +4.09334E+01
 -6.77535E+01 +1.25901E+01 -6.64901E+01 -1.82091E+01 -5.19861E+01 -4.53523E+01 -2.71586E+01 -6.34740E+01
