 Created: 16-Jan-2021
 $NMID
 ID='D:\BASISSIMULATI'
 FMTDAT='(8E13.5)'
 VOLUME=   1.00000E+00
 TRAMP=   1.00000E+00
 $END
 +8.69301E+01 +1.33131E+01 +7.44075E+01 +1.91136E+01 +4.32786E+01 +2.55217E+01 +4.62234E+00 +3.42793E+01
 -2.83925E+01 +4.29869E+01 -4.62715E+01 +4.63975E+01 -4.67103E+01 +3.99945E+01 -3.42962E+01 +2.35274E+01
 -1.70334E+01 +2.14170E+00 -2.00491E+00 -1.57804E+01 +7.33611E+00 -2.29062E+01 +1.10716E+01 -1.68618E+01
 +1.06503E+01 -1.46847E+00 +6.61850E+00 +1.53758E+01 -1.95086E+00 +2.58527E+01 -1.59381E+01 +2.59526E+01
 -3.38252E+01 +1.67121E+01 -5.05243E+01 +2.53763E+00 -5.87193E+01 -1.19912E+01 -5.23668E+01 -2.46141E+01
 -3.04095E+01 -3.56099E+01 +1.65970E+00 -4.58474E+01 +3.36379E+01 -5.43257E+01 +5.51246E+01 -5.72682E+01
 +6.03247E+01 -4.97863E+01 +5.04947E+01 -2.93096E+01 +3.27098E+01 +1.41279E+00 +1.57507E+01 +3.39501E+01
 +5.54165E+00 +5.72143E+01 +2.73179E+00 +6.25539E+01 +3.61185E+00 +4.81983E+01 +3.49324E+00 +2.05196E+01
 +2.23861E-01 -8.72795E+00 -4.43843E+00 -2.77963E+01 -6.39472E+00 -3.01258E+01 -2.56796E+00 -1.66841E+01
 +6.26249E+00 +5.49232E+00 +1.51390E+01 +2.73770E+01 +1.74777E+01 +4.21648E+01 +8.99186E+00 +4.73735E+01
 -9.43813E+00 +4.41346E+01 -3.17594E+01 +3.47775E+01 -4.96731E+01 +2.07276E+01 -5.67746E+01 +2.23394E+00
 -5.14890E+01 -2.00693E+01 -3.71900E+01 -4.32205E+01 -1.96630E+01 -6.14602E+01 -3.68302E+00 -6.81336E+01
 +9.09676E+00 -5.91745E+01 +1.97494E+01 -3.60960E+01 +2.97163E+01 -6.41208E+00 +3.83719E+01 +1.91913E+01
 +4.24372E+01 +3.16757E+01 +3.78888E+01 +2.79013E+01 +2.32274E+01 +1.19508E+01 +1.87424E+00 -7.21680E+00
 -1.81901E+01 -2.04430E+01 -2.78021E+01 -2.27473E+01 -2.13419E+01 -1.50472E+01 -1.45678E-01 -2.51445E+00
 +2.74772E+01 +9.13778E+00 +4.98362E+01 +1.70123E+01 +5.72311E+01 +2.20109E+01 +4.62741E+01 +2.70598E+01
 +2.09695E+01 +3.39978E+01 -9.78230E+00 +4.13711E+01 -3.66199E+01 +4.47263E+01 -5.35643E+01 +3.93036E+01
 -5.93702E+01 +2.34102E+01 -5.61791E+01 +2.46897E-01 -4.69022E+01 -2.31104E+01 -3.33272E+01 -3.90908E+01
 -1.61504E+01 -4.34010E+01 +3.42103E+00 -3.69642E+01 +2.20789E+01 -2.49373E+01 +3.44813E+01 -1.35172E+01
 +3.54614E+01 -6.57099E+00 +2.32489E+01 -4.13533E+00 +1.61653E+00 -3.54364E+00 -2.07527E+01 -2.20559E+00
 -3.38025E+01 +1.42363E-03 -3.08660E+01 +4.64328E-01 -1.20758E+01 -4.04586E+00 +1.55373E+01 -1.42839E+01
 +4.13933E+01 -2.66702E+01 +5.63620E+01 -3.41992E+01 +5.67113E+01 -2.99340E+01 +4.49853E+01 -1.11850E+01
 +2.76225E+01 +1.81304E+01 +1.09813E+01 +4.85313E+01 -1.77898E+00 +6.90710E+01 -1.12557E+01 +7.23632E+01
 -1.98190E+01 +5.78611E+01 -2.87200E+01 +3.17133E+01 -3.64019E+01 +3.46486E+00 -3.92156E+01 -1.84209E+01
 -3.40537E+01 -2.97744E+01 -2.10818E+01 -3.11940E+01 -4.61402E+00 -2.60650E+01 +8.64895E+00 -1.78120E+01
 +1.30891E+01 -8.27937E+00 +7.27460E+00 +1.90687E+00 -5.21532E+00 +1.16779E+01 -1.77739E+01 +1.82146E+01
 -2.43669E+01 +1.73981E+01 -2.25796E+01 +6.11851E+00 -1.43316E+01 -1.49347E+01 -3.98218E+00 -3.99992E+01
 +4.80440E+00 -5.97702E+01 +1.13146E+01 -6.53516E+01 +1.76835E+01 -5.26587E+01 +2.65554E+01 -2.48106E+01
 +3.81586E+01 +8.95681E+00 +4.89085E+01 +3.74160E+01 +5.27220E+01 +5.23578E+01 +4.44725E+01 +5.18544E+01
 +2.35520E+01 +4.01842E+01 -4.72657E+00 +2.47506E+01 -3.09665E+01 +1.19709E+01 -4.59435E+01 +4.51468E+00
 -4.50005E+01 +1.24511E+00 -3.01802E+01 -5.51966E-01 -8.98269E+00 -2.43763E+00 +9.45243E+00 -3.52696E+00
 +1.85536E+01 -1.45379E+00 +1.66810E+01 +5.19978E+00 +6.66276E+00 +1.48433E+01 -6.74926E+00 +2.28101E+01
 -1.96416E+01 +2.35816E+01 -3.01996E+01 +1.40416E+01 -3.79859E+01 -4.28243E+00 -4.22110E+01 -2.54992E+01
 -4.06673E+01 -4.21367E+01 -3.04625E+01 -4.88545E+01 -1.03069E+01 -4.49169E+01 +1.71883E+01 -3.40131E+01
 +4.50355E+01 -2.16460E+01 +6.40746E+01 -1.17929E+01 +6.70402E+01 -4.94055E+00 +5.23581E+01 +1.34177E+00
 +2.54508E+01 +9.79669E+00 -3.39198E+00 +2.06809E+01 -2.36103E+01 +3.07529E+01 -2.90630E+01 +3.48716E+01
 -2.03763E+01 +2.93093E+01 -3.85730E+00 +1.46939E+01 +1.21972E+01 -3.39353E+00 +2.15958E+01 -1.67679E+01
 +2.25288E+01 -1.87452E+01 +1.70714E+01 -7.70217E+00 +8.69411E+00 +1.19403E+01 -3.31549E-01 +3.18633E+01
 -9.90681E+00 +4.38858E+01 -2.09983E+01 +4.36327E+01 -3.34842E+01 +3.19262E+01 -4.47241E+01 +1.34309E+01
 -5.01216E+01 -6.29207E+00 -4.55565E+01 -2.33813E+01 -3.02029E+01 -3.64572E+01 -7.84084E+00 -4.54979E+01
 +1.43936E+01 -5.00385E+01 +2.93015E+01 -4.83255E+01 +3.31216E+01 -3.82794E+01 +2.72060E+01 -1.97076E+01
 +1.68966E+01 +3.86858E+00 +8.31015E+00 +2.53897E+01 +4.98559E+00 +3.68804E+01 +6.38233E+00 +3.33530E+01
 +9.02192E+00 +1.58180E+01 +9.39233E+00 -8.48692E+00 +6.64081E+00 -2.90618E+01 +3.25682E+00 -3.68996E+01
 +3.27506E+00 -2.85687E+01 +9.16509E+00 -7.50509E+00 +1.94743E+01 +1.80478E+01 +2.88751E+01 +3.91736E+01
 +3.07844E+01 +5.01718E+01 +2.10991E+01 +5.02227E+01 +8.41161E-01 +4.23020E+01 -2.38970E+01 +3.04578E+01
 -4.47314E+01 +1.73776E+01 -5.49306E+01 +3.72249E+00 -5.23291E+01 -1.06533E+01 -3.97082E+01 -2.48130E+01
 -2.26892E+01 -3.58287E+01 -6.61569E+00 -3.97717E+01 +5.66111E+00 -3.41193E+01 +1.39578E+01 -1.99901E+01
 +1.91941E+01 -2.54943E+00 +2.15266E+01 +1.10015E+01 +1.97183E+01 +1.49085E+01 +1.22976E+01 +7.85773E+00
 -3.23055E-01 -6.30562E+00 -1.44426E+01 -2.06168E+01 -2.37451E+01 -2.86425E+01 -2.21131E+01 -2.76408E+01
 -7.15935E+00 -1.94515E+01 +1.76325E+01 -8.73741E+00 +4.36587E+01 +1.93829E-01 +6.07462E+01 +5.93996E+00
 +6.17713E+01 +1.03541E+01 +4.59299E+01 +1.65752E+01 +1.89442E+01 +2.61246E+01 -9.82283E+00 +3.70626E+01
 -3.17000E+01 +4.45205E+01 -4.21633E+01 +4.33974E+01 -4.17619E+01 +3.16017E+01 -3.44309E+01 +1.18093E+01
 -2.45888E+01 -9.42054E+00 -1.49219E+01 -2.47445E+01 -6.04907E+00 -2.95890E+01 +2.13468E+00 -2.41518E+01
 +8.78218E+00 -1.28077E+01 +1.15769E+01 -1.44167E+00 +7.95321E+00 +5.59432E+00 -2.70650E+00 +7.12218E+00
 -1.75014E+01 +4.62296E+00 -3.04252E+01 +2.45979E-01 -3.49022E+01 -5.07373E+00 -2.71736E+01 -1.20022E+01
 -8.56812E+00 -2.14549E+01 +1.47804E+01 -3.25749E+01 +3.47598E+01 -4.16977E+01 +4.51337E+01 -4.33972E+01
 +4.42882E+01 -3.33301E+01 +3.53902E+01 -1.12868E+01 +2.40148E+01 +1.75113E+01 +1.47781E+01 +4.39575E+01
 +9.02182E+00 +5.89095E+01 +4.85266E+00 +5.74028E+01 -6.89961E-01 +4.09758E+01 -8.89783E+00 +1.68520E+01
 -1.79638E+01 -5.54770E+00 -2.38421E+01 -1.88575E+01 -2.28705E+01 -2.05660E+01 -1.44545E+01 -1.31077E+01
 -2.03383E+00 -1.59907E+00 +8.39434E+00 +9.16165E+00 +1.13969E+01 +1.66229E+01 +5.03881E+00 +2.04543E+01
 -8.09644E+00 +2.10705E+01 -2.23589E+01 +1.81278E+01 -3.20286E+01 +1.02969E+01 -3.40501E+01 -3.42398E+00
 -2.89625E+01 -2.18282E+01 -1.96907E+01 -4.05896E+01 -9.22026E+00 -5.33468E+01 +1.18659E+00 -5.45196E+01
 +1.20545E+01 -4.23597E+01 +2.41179E+01 -2.03838E+01 +3.63722E+01 +3.84559E+00 +4.53502E+01 +2.21108E+01
 +4.64358E+01 +2.93162E+01 +3.66347E+01 +2.55992E+01 +1.71146E+01 +1.56677E+01 -6.23825E+00 +5.85936E+00
 -2.49245E+01 +7.01382E-01 -3.16943E+01 +9.44303E-01 -2.41329E+01 +4.05518E+00 -5.98094E+00 +6.61213E+00
 +1.45801E+01 +6.91196E+00 +2.87683E+01 +6.07185E+00 +3.11138E+01 +6.96352E+00 +2.14426E+01 +1.17688E+01
 +4.11775E+00 +1.98582E+01 -1.47048E+01 +2.74903E+01 -3.00420E+01 +2.96550E+01 -3.96290E+01 +2.29843E+01
 -4.34994E+01 +7.93993E+00 -4.23753E+01 -1.10987E+01 -3.63213E+01 -2.79416E+01 -2.47536E+01 -3.76430E+01
 -7.77698E+00 -3.87086E+01 +1.22703E+01 -3.32325E+01 +3.04785E+01 -2.50568E+01 +4.09246E+01 -1.72625E+01
 +3.95221E+01 -1.06396E+01 +2.65461E+01 -4.04865E+00 +7.18984E+00 +3.72866E+00 -1.04519E+01 +1.20845E+01
 -1.90749E+01 +1.81159E+01 -1.55916E+01 +1.81233E+01 -2.43026E+00 +1.02376E+01 +1.39740E+01 -3.54025E+00
 +2.65888E+01 -1.73937E+01 +3.11524E+01 -2.41338E+01 +2.76776E+01 -1.88422E+01 +1.94612E+01 -1.69584E+00
 +1.04668E+01 +2.16833E+01 +2.84846E+00 +4.26478E+01 -3.85577E+00 +5.34547E+01 -1.15115E+01 +5.06217E+01
 -2.11522E+01 +3.60175E+01 -3.13656E+01 +1.53286E+01 -3.85051E+01 -4.99176E+00 -3.86890E+01 -2.04722E+01
 -3.03362E+01 -2.96662E+01 -1.55778E+01 -3.32969E+01 +4.49398E-01 -3.25165E+01 +1.21004E+01 -2.77156E+01
 +1.60563E+01 -1.87422E+01 +1.28199E+01 -6.23473E+00 +6.03148E+00 +7.14080E+00 +1.08020E-01 +1.68038E+01
 -2.27524E+00 +1.80880E+01 -1.31076E+00 +8.91105E+00 +8.06336E-01 -8.35158E+00 +2.01409E+00 -2.71572E+01
 +2.24186E+00 -3.94263E+01 +3.64241E+00 -3.92777E+01 +8.95421E+00 -2.58861E+01 +1.90466E+01 -3.88321E+00
 +3.13411E+01 +1.89283E+01 +4.03474E+01 +3.52818E+01 +4.02617E+01 +4.15584E+01 +2.82407E+01 +3.87140E+01
 +6.43728E+00 +3.07665E+01 -1.84891E+01 +2.19918E+01 -3.82465E+01 +1.46208E+01 -4.66604E+01 +8.34018E+00
 -4.23024E+01 +1.64741E+00 -2.86760E+01 -6.09624E+00 -1.20487E+01 -1.34625E+01 +1.69113E+00 -1.75070E+01
 +9.37585E+00 -1.57412E+01 +1.09929E+01 -8.18220E+00 +8.37606E+00 +1.97793E+00 +3.35786E+00 +9.68908E+00
 -3.24865E+00 +1.06676E+01 -1.12324E+01 +3.77511E+00 -1.96643E+01 -8.30394E+00 -2.59319E+01 -2.05184E+01
 -2.61929E+01 -2.81660E+01 -1.73138E+01 -2.92337E+01 +7.79078E-01 -2.49937E+01 +2.39121E+01 -1.86056E+01
 +4.46943E+01 -1.27388E+01 +5.55397E+01 -7.82183E+00 +5.22051E+01 -2.08182E+00 +3.59263E+01 +6.67127E+00
 +1.29266E+01 +1.87445E+01 -8.49202E+00 +3.13733E+01 -2.17241E+01 +3.96078E+01 -2.45132E+01 +3.89190E+01
 -1.91947E+01 +2.80216E+01 -1.06568E+01 +1.01687E+01 -3.40910E+00 -7.98743E+00 +4.90249E-01 -1.94550E+01
 +1.59795E+00 -2.02328E+01 +1.57767E+00 -1.10986E+01 +1.29264E+00 +3.05766E+00 -8.37733E-02 +1.58546E+01
 -4.32163E+00 +2.24427E+01 -1.23242E+01 +2.12841E+01 -2.26102E+01 +1.39304E+01 -3.13016E+01 +3.30195E+00
 -3.38524E+01 -8.18989E+00 -2.75720E+01 -1.94346E+01 -1.33957E+01 -2.99881E+01 +4.26302E+00 -3.87588E+01
 +1.95970E+01 -4.32750E+01 +2.82558E+01 -4.03915E+01 +2.93074E+01 -2.82322E+01 +2.52008E+01 -8.16318E+00
 +1.98470E+01 +1.46563E+01 +1.60841E+01 +3.28685E+01 +1.41314E+01 +4.00879E+01 +1.19631E+01 +3.40235E+01
 +7.27292E+00 +1.78016E+01 -3.41900E-01 -1.34844E+00 -8.50156E+00 -1.54243E+01 -1.31599E+01 -1.92589E+01
 -1.11057E+01 -1.25368E+01 -2.29773E+00 +7.07028E-01 +9.49362E+00 +1.46068E+01 +1.82775E+01 +2.44357E+01
