 Created: 16-Jan-2021
 $NMID
 ID='D:\BASISSIMULATI'
 FMTDAT='(8E13.5)'
 VOLUME=   1.00000E+00
 TRAMP=   1.00000E+00
 $END
 +3.52239E+01 +5.39469E+00 +3.10505E+01 +1.60996E+01 +2.34606E+01 +2.43847E+01 +1.37256E+01 +2.91787E+01
 +3.41620E+00 +3.00375E+01 -5.89056E+00 +2.72011E+01 -1.28967E+01 +2.15214E+01 -1.68069E+01 +1.42767E+01
 -1.74496E+01 +6.91278E+00 -1.52741E+01 +7.61321E-01 -1.12295E+01 -3.20909E+00 -6.55036E+00 -4.56192E+00
 -2.49522E+00 -3.45123E+00 -8.94278E-02 -5.61649E-01 +7.71239E-02 +3.05539E+00 -2.04098E+00 +6.21394E+00
 -5.94804E+00 +7.84697E+00 -1.07197E+01 +7.23019E+00 -1.52001E+01 +4.13280E+00 -1.82421E+01 -1.13326E+00
 -1.89440E+01 -7.77339E+00 -1.68348E+01 -1.46659E+01 -1.19724E+01 -2.05812E+01 -4.93847E+00 -2.44198E+01
 +3.26896E+00 -2.54241E+01 +1.14218E+01 -2.33210E+01 +1.82894E+01 -1.83720E+01 +2.28634E+01 -1.13194E+01
 +2.45365E+01 -3.24486E+00 +2.32015E+01 +4.63324E+00 +1.92547E+01 +1.11825E+01 +1.35055E+01 +1.55558E+01
 +7.01136E+00 +1.73307E+01 +8.73561E-01 +1.65637E+01 -3.96747E+00 +1.37520E+01 -6.89670E+00 +9.71421E+00
 -7.71958E+00 +5.41461E+00 -6.67165E+00 +1.76824E+00 -4.34436E+00 -5.35234E-01 -1.54466E+00 -1.15516E+00
 +8.81475E-01 -1.48982E-01 +2.22555E+00 +2.06005E+00 +2.05841E+00 +4.78700E+00 +3.10624E-01 +7.23815E+00
 -2.72235E+00 +8.68069E+00 -6.44864E+00 +8.59485E+00 -1.01062E+01 +6.77924E+00 -1.29200E+01 +3.38967E+00
 -1.42581E+01 -1.09387E+00 -1.37561E+01 -5.96368E+00 -1.13865E+01 -1.04232E+01 -7.46030E+00 -1.37399E+01
 -2.56444E+00 -1.53820E+01 +2.55287E+00 -1.51132E+01 +7.12333E+00 -1.30279E+01 +1.04987E+01 -9.52277E+00
 +1.22632E+01 -5.21322E+00 +1.22970E+01 -8.11350E-01 +1.07812E+01 +3.00782E+00 +8.14669E+00 +5.72644E+00
 +4.97758E+00 +7.06770E+00 +1.89222E+00 +7.02901E+00 -5.75344E-01 +5.86089E+00 -2.07001E+00 +3.99863E+00
 -2.46936E+00 +1.96263E+00 -1.88830E+00 +2.48889E-01 -6.36603E-01 -7.68410E-01 +8.59426E-01 -9.03504E-01
 +2.15358E+00 -1.83531E-01 +2.87419E+00 +1.17155E+00 +2.79759E+00 +2.80693E+00 +1.88706E+00 +4.31494E+00
 +2.91475E-01 +5.32316E+00 -1.69397E+00 +5.57047E+00 -3.69459E+00 +4.95627E+00 -5.33573E+00 +3.55462E+00
 -6.31794E+00 +1.59223E+00 -6.47303E+00 -6.02959E-01 -5.79072E+00 -2.67065E+00 -4.41227E+00 -4.28935E+00
 -2.59451E+00 -5.23551E+00 -6.53372E-01 -5.41932E+00 +1.10015E+00 -4.89161E+00 +2.41823E+00 -3.82245E+00
 +3.15716E+00 -2.45793E+00 +3.29405E+00 -1.06565E+00 +2.91772E+00 +1.19043E-01 +2.19807E+00 +9.34909E-01
 +1.34198E+00 +1.31719E+00 +5.46481E-01 +1.29746E+00 -4.07045E-02 +9.83204E-01 -3.45205E-01 +5.23391E-01
 -3.70998E-01 +6.91731E-02 -1.87013E-01 -2.61107E-01 +9.97463E-02 -4.04903E-01 +3.76950E-01 -3.62232E-01
 +5.57165E-01 -1.86104E-01 +5.98337E-01 +3.96168E-02 +5.10165E-01 +2.28309E-01 +3.45745E-01 +3.17032E-01
 +1.81571E-01 +2.84434E-01 +9.17893E-02 +1.55799E-01 +1.23884E-01 -5.72826E-03 +2.82408E-01 -1.19025E-01
 +5.25184E-01 -1.10473E-01 +7.73127E-01 +6.19413E-02 +9.31264E-01 +3.92538E-01 +9.15602E-01 +8.24524E-01
 +6.78802E-01 +1.26069E+00 +2.27757E-01 +1.58609E+00 -3.72026E-01 +1.69730E+00 -1.00719E+00 +1.53122E+00
 -1.54064E+00 +1.08579E+00 -1.84381E+00 +4.26907E-01 -1.82957E+00 -3.21082E-01 -1.47762E+00 -1.00025E+00
 -8.45750E-01 -1.45423E+00 -6.31064E-02 -1.56592E+00 +6.94113E-01 -1.28896E+00 +1.24012E+00 -6.64929E-01
 +1.42226E+00 +1.78501E-01 +1.15950E+00 +1.04970E+00 +4.67526E-01 +1.73158E+00 -5.36265E-01 +2.02903E+00
 -1.65026E+00 +1.81495E+00 -2.62635E+00 +1.06479E+00 -3.22072E+00 -1.29128E-01 -3.24753E+00 -1.56783E+00
 -2.62376E+00 -2.97974E+00 -1.39509E+00 -4.07279E+00 +2.63937E-01 -4.59430E+00 +2.07699E+00 -4.38644E+00
 +3.71601E+00 -3.42503E+00 +4.86495E+00 -1.83292E+00 +5.28446E+00 +1.36461E-01 +4.86412E+00 +2.14324E+00
 +3.65076E+00 +3.82499E+00 +1.84592E+00 +4.86817E+00 -2.28186E-01 +5.07253E+00 -2.18867E+00 +4.39504E+00
 -3.66633E+00 +2.96357E+00 -4.37987E+00 +1.05634E+00 -4.19462E+00 -9.49695E-01 -3.15347E+00 -2.65209E+00
 -1.47252E+00 -3.70349E+00 +4.98411E-01 -3.88328E+00 +2.34360E+00 -3.14551E+00 +3.66449E+00 -1.63257E+00
 +4.16146E+00 +3.49052E-01 +3.69774E+00 +2.38706E+00 +2.33181E+00 +4.04472E+00 +3.11121E-01 +4.94945E+00
 -1.97294E+00 +4.87071E+00 -4.06032E+00 +3.77120E+00 -5.51363E+00 +1.82031E+00 -6.00730E+00 -6.33857E-01
 -5.39650E+00 -3.12923E+00 -3.75157E+00 -5.17916E+00 -1.35003E+00 -6.36896E+00 +1.37296E+00 -6.44042E+00
 +3.90684E+00 -5.34709E+00 +5.76482E+00 -3.26863E+00 +6.58030E+00 -5.80454E-01 +6.18160E+00 +2.21591E+00
 +4.62934E+00 +4.58891E+00 +2.20870E+00 +6.08063E+00 -6.22821E-01 +6.39764E+00 -3.32251E+00 +5.47084E+00
 -5.36746E+00 +3.47189E+00 -6.35713E+00 +7.82437E-01 -6.09306E+00 -2.07831E+00 -4.61960E+00 -4.55399E+00
 -2.21732E+00 -6.15976E+00 +6.50241E-01 -6.57793E+00 +3.42632E+00 -5.72142E+00 +5.56972E+00 -3.75230E+00
 +6.66136E+00 -1.05127E+00 +6.48741E+00 +1.85623E+00 +5.08244E+00 +4.40292E+00 +2.72365E+00 +6.09159E+00
 -1.22858E-01 +6.59365E+00 -2.89361E+00 +5.81503E+00 -5.03902E+00 +3.91585E+00 -6.13264E+00 +1.27990E+00
 -5.95653E+00 -1.56041E+00 -4.54596E+00 -4.02908E+00 -2.18400E+00 -5.62083E+00 +6.52841E-01 -6.00211E+00
 +3.38779E+00 -5.07885E+00 +5.45739E+00 -3.01724E+00 +6.42324E+00 -2.13299E-01 +6.05987E+00 +2.78318E+00
 +4.40124E+00 +5.37536E+00 +1.73659E+00 +7.03610E+00 -1.44377E+00 +7.41168E+00 -4.54232E+00 +6.39206E+00
 -6.96950E+00 +4.13402E+00 -8.25764E+00 +1.03225E+00 -8.15150E+00 -2.35576E+00 -6.65762E+00 -5.41658E+00
 -4.04280E+00 -7.59844E+00 -7.82243E-01 -8.51660E+00 +2.53255E+00 -8.02607E+00 +5.30802E+00 -6.24743E+00
 +7.06238E+00 -3.54099E+00 +7.51702E+00 -4.34603E-01 +6.64756E+00 +2.48060E+00 +4.68483E+00 +4.66590E+00
 +2.06599E+00 +5.73927E+00 -6.54385E-01 +5.54810E+00 -2.91554E+00 +4.19598E+00 -4.26193E+00 +2.01886E+00
 -4.43302E+00 -4.84554E-01 -3.41384E+00 -2.75418E+00 -1.43648E+00 -4.28142E+00 +1.06726E+00 -4.71133E+00
 +3.55276E+00 -3.91395E+00 +5.47152E+00 -2.01090E+00 +6.38074E+00 +6.47777E-01 +6.03188E+00 +3.55182E+00
 +4.42103E+00 +6.13030E+00 +1.79131E+00 +7.86309E+00 -1.41288E+00 +8.38213E+00 -4.63065E+00 +7.54305E+00
 -7.29164E+00 +5.45323E+00 -8.92430E+00 +2.45118E+00 -9.24457E+00 -9.58384E-01 -8.20767E+00 -4.20073E+00
 -6.01364E+00 -6.73967E+00 -3.06596E+00 -8.17728E+00 +1.08188E-01 -8.32574E+00 +2.95984E+00 -7.23752E+00
 +5.02248E+00 -5.18904E+00 +5.99815E+00 -2.62147E+00 +5.80918E+00 -5.10344E-02 +4.60596E+00 +2.03317E+00
 +2.73007E+00 +3.26371E+00 +6.40881E-01 +3.46342E+00 -1.17940E+00 +2.67498E+00 -2.32322E+00 +1.14649E+00
 -2.53845E+00 -7.23370E-01 -1.77685E+00 -2.46918E+00 -2.01182E-01 -3.65454E+00 +1.84977E+00 -3.96075E+00
 +3.93074E+00 -3.25108E+00 +5.57998E+00 -1.59823E+00 +6.41166E+00 +7.29867E-01 +6.19263E+00 +3.32248E+00
 +4.88856E+00 +5.70616E+00 +2.67108E+00 +7.43627E+00 -1.15125E-01 +8.18212E+00 -3.01813E+00 +7.78920E+00
 -5.56431E+00 +6.30685E+00 -7.34664E+00 +3.97665E+00 -8.09885E+00 +1.18442E+00 -7.74121E+00 -1.61402E+00
 -6.38995E+00 -3.97871E+00 -4.32931E+00 -5.56589E+00 -1.95258E+00 -6.18786E+00 +3.15721E-01 -5.84113E+00
 +2.10088E+00 -4.69842E+00 +3.14649E+00 -3.06727E+00 +3.35761E+00 -1.32406E+00 +2.81084E+00 +1.62687E-01
 +1.73061E+00 +1.10456E+00 +4.37173E-01 +1.34707E+00 -7.22367E-01 +8.94993E-01 -1.44605E+00 -9.47984E-02
 -1.53770E+00 -1.35063E+00 -9.44675E-01 -2.54520E+00 +2.34219E-01 -3.36423E+00 +1.77123E+00 -3.57094E+00
 +3.35739E+00 -3.05350E+00 +4.66546E+00 -1.84678E+00 +5.41510E+00 -1.24559E-01 +5.42770E+00 +1.83527E+00
 +4.66017E+00 +3.70518E+00 +3.21178E+00 +5.17095E+00 +1.30352E+00 +5.99050E+00 -7.65397E-01 +6.03750E+00
 -2.67453E+00 +5.32170E+00 -4.14144E+00 +3.98276E+00 -4.97158E+00 +2.25989E+00 -5.08962E+00 +4.43888E-01
 -4.54697E+00 -1.17842E+00 -3.50494E+00 -2.37631E+00 -2.19803E+00 -3.01405E+00 -8.85299E-01 -3.06947E+00
 +2.00263E-01 -2.62988E+00 +8.94209E-01 -1.86705E+00 +1.12728E+00 -9.97262E-01 +9.31766E-01 -2.35221E-01
 +4.27346E-01 +2.49006E-01 -2.09535E-01 +3.61484E-01 -7.85931E-01 +9.87944E-02 -1.13367E+00 -4.56679E-01
 -1.14334E+00 -1.15860E+00 -7.84628E-01 -1.83037E+00 -1.09454E-01 -2.30338E+00 +7.61639E-01 -2.45170E+00
 +1.66643E+00 -2.21666E+00 +2.43512E+00 -1.61667E+00 +2.92446E+00 -7.41254E-01 +3.04493E+00 +2.68924E-01
 +2.77613E+00 +1.25107E+00 +2.16767E+00 +2.05225E+00 +1.32646E+00 +2.55764E+00 +3.93528E-01 +2.70979E+00
 -4.84284E-01 +2.51551E+00 -1.18178E+00 +2.03987E+00 -1.61668E+00 +1.38943E+00 -1.76080E+00 +6.88697E-01
 -1.63982E+00 +5.52023E-02 -1.32246E+00 -4.21745E-01 -9.02276E-01 -6.94644E-01 -4.76329E-01 -7.61591E-01
 -1.25587E-01 -6.60399E-01 +9.91461E-02 -4.55212E-01 +1.83257E-01 -2.19183E-01 +1.45830E-01 -1.73425E-02
 +3.00404E-02 +1.06599E-01 -1.10689E-01 +1.36963E-01 -2.27192E-01 +8.54639E-02 -2.86284E-01 -1.59204E-02
 -2.77181E-01 -1.26246E-01 -2.11538E-01 -2.07961E-01 -1.17625E-01 -2.37170E-01 -3.05567E-02 -2.09383E-01
 +1.86616E-02 -1.39552E-01 +1.23530E-02 -5.67325E-02 -4.86997E-02 +5.01050E-03 -1.45434E-01 +1.68907E-02
 -2.45830E-01 -3.58834E-02 -3.13890E-01 -1.49284E-01 -3.19857E-01 -3.00815E-01 -2.48948E-01 -4.54986E-01
 -1.06238E-01 -5.72516E-01 +8.36783E-02 -6.20907E-01 +2.82321E-01 -5.83633E-01 +4.46958E-01 -4.65455E-01
 +5.41874E-01 -2.92330E-01 +5.48418E-01 -1.05658E-01 +4.71148E-01 +4.79226E-02 +3.38290E-01 +1.28827E-01
 +1.96005E-01 +1.15898E-01 +9.75248E-02 +1.39173E-02 +8.95004E-02 -1.44911E-01 +1.98737E-01 -3.06314E-01
 +4.22606E-01 -4.05379E-01 +7.25733E-01 -3.81762E-01 +1.04427E+00 -1.95381E-01 +1.29738E+00 +1.61078E-01
 +1.40380E+00 +6.55972E-01 +1.30023E+00 +1.22076E+00 +9.57419E-01 +1.76046E+00 +3.90299E-01 +2.17086E+00
 -3.40477E-01 +2.35915E+00 -1.13652E+00 +2.26377E+00 -1.87814E+00 +1.86922E+00 -2.44613E+00 +1.21231E+00
 -2.74481E+00 +3.78256E-01 -2.72141E+00 -5.13312E-01 -2.37774E+00 -1.32974E+00 -1.77134E+00 -1.95018E+00
 -1.00560E+00 -2.28888E+00 -2.10397E-01 -2.31197E+00 +4.83024E-01 -2.04428E+00 +9.67853E-01 -1.56441E+00
 +1.18301E+00 -9.88747E-01 +1.12538E+00 -4.47551E-01 +8.50252E-01 -5.78369E-02 +4.59634E-01 +1.01463E-01
 +8.05624E-02 +6.76153E-03 -1.62298E-01 -3.04206E-01 -1.74211E-01 -7.39235E-01 +8.76599E-02 -1.17021E+00
