 Created: 16-Jan-2021
 $NMID
 ID='D:\BASISSIMULATI'
 FMTDAT='(8E13.5)'
 VOLUME=   1.00000E+00
 TRAMP=   1.00000E+00
 $END
 +4.81414E+01 +7.37032E+00 +4.13319E+01 +2.59034E+01 +2.76850E+01 +4.02036E+01 +9.46398E+00 +4.78831E+01
 -1.02982E+01 +4.76652E+01 -2.83129E+01 +3.96004E+01 -4.15931E+01 +2.50557E+01 -4.79583E+01 +6.47821E+00
 -4.63988E+01 -1.30237E+01 -3.72385E+01 -3.02098E+01 -2.20700E+01 -4.22566E+01 -3.47293E+00 -4.72293E+01
 +1.54318E+01 -4.43983E+01 +3.15150E+01 -3.43466E+01 +4.21662E+01 -1.88530E+01 +4.57251E+01 -5.73175E-01
 +4.17443E+01 +1.74224E+01 +3.10411E+01 +3.21727E+01 +1.55340E+01 +4.13220E+01 -2.10420E+00 +4.35019E+01
 -1.89140E+01 +3.85382E+01 -3.21531E+01 +2.74488E+01 -3.97517E+01 +1.22407E+01 -4.06399E+01 -4.45561E+00
 -3.48970E+01 -1.98473E+01 -2.37012E+01 -3.14531E+01 -9.09357E+00 -3.75091E+01 +6.39502E+00 -3.72393E+01
 +2.01876E+01 -3.09487E+01 +3.00958E+01 -1.99290E+01 +3.46710E+01 -6.20091E+00 +3.34162E+01 +7.85723E+00
 +2.68259E+01 +1.99253E+01 +1.62563E+01 +2.81291E+01 +3.65456E+00 +3.13336E+01 -8.80010E+00 +2.92964E+01
 -1.90758E+01 +2.26603E+01 -2.56228E+01 +1.27957E+01 -2.76076E+01 +1.52657E+00 -2.50104E+01 -9.20549E+00
 -1.85773E+01 -1.76779E+01 -9.64375E+00 -2.26651E+01 +1.33007E-01 -2.36134E+01 +9.07905E+00 -2.06879E+01
 +1.57914E+01 -1.46914E+01 +1.93578E+01 -6.87834E+00 +1.94753E+01 +1.29714E+00 +1.64520E+01 +8.44881E+00
 +1.11014E+01 +1.34932E+01 +4.55592E+00 +1.58118E+01 -1.96169E+00 +1.53166E+01 -7.36287E+00 +1.24150E+01
 -1.08738E+01 +7.88790E+00 -1.21418E+01 +2.71074E+00 -1.12545E+01 -2.14422E+00 -8.67458E+00 -5.88617E+00
 -5.11086E+00 -8.03210E+00 -1.35479E+00 -8.46159E+00 +1.88182E+00 -7.39564E+00 +4.09672E+00 -5.31040E+00
 +5.07142E+00 -2.80867E+00 +4.87946E+00 -4.78924E-01 +3.83281E+00 +1.22821E+00 +2.38245E+00 +2.08144E+00
 +9.98156E-01 +2.09442E+00 +5.47960E-02 +1.49395E+00 -2.50210E-01 +6.41725E-01 +6.82271E-02 -7.00839E-02
 +8.01002E-01 -3.24506E-01 +1.60955E+00 +3.75960E-02 +2.12069E+00 +9.76181E-01 +2.02885E+00 +2.26063E+00
 +1.18192E+00 +3.52565E+00 -3.69340E-01 +4.36144E+00 -2.36987E+00 +4.41731E+00 -4.40798E+00 +3.49546E+00
 -6.00232E+00 +1.61296E+00 -6.70979E+00 -9.82561E-01 -6.23094E+00 -3.84880E+00 -4.48977E+00 -6.43008E+00
 -1.66964E+00 -8.16834E+00 +1.80420E+00 -8.62134E+00 +5.33382E+00 -7.56344E+00 +8.25749E+00 -5.04752E+00
 +9.97747E+00 -1.41361E+00 +1.00816E+01 +2.75953E+00 +8.43422E+00 +6.75226E+00 +5.21738E+00 +9.83400E+00
 +9.12478E-01 +1.14008E+01 -3.77587E+00 +1.10941E+01 -8.04098E+00 +8.87795E+00 -1.11184E+01 +5.05760E+00
 -1.24268E+01 +2.36040E-01 -1.16790E+01 -4.78603E+00 -8.94169E+00 -9.14873E+00 -4.63245E+00 -1.20854E+01
 +5.47313E-01 -1.30608E+01 +5.73117E+00 -1.18706E+01 +1.00378E+01 -8.68173E+00 +1.27256E+01 -4.00861E+00
 +1.33234E+01 +1.37385E+00 +1.17148E+01 +6.56308E+00 +8.16005E+00 +1.06849E+01 +3.25172E+00 +1.30449E+01
 -2.18724E+00 +1.32480E+01 -7.24573E+00 +1.12661E+01 -1.10811E+01 +7.44089E+00 -1.30628E+01 +2.42324E+00
 -1.28786E+01 -2.94075E+00 -1.05837E+01 -7.75593E+00 -6.58738E+00 -1.12308E+01 -1.57782E+00 -1.28104E+01
 +3.59859E+00 -1.22662E+01 +8.08333E+00 -9.72872E+00 +1.11508E+01 -5.65853E+00 +1.23275E+01 -7.61288E-01
 +1.14658E+01 +4.13657E+00 +8.76048E+00 +8.22954E+00 +4.70681E+00 +1.08674E+01 +9.36066E-03 +1.16598E+01
 -4.54202E+00 +1.05333E+01 -8.20660E+00 +7.73406E+00 -1.04145E+01 +3.77619E+00 -1.08557E+01 -6.52922E-01
 -9.52213E+00 -4.81288E+00 -6.69788E+00 -8.03503E+00 -2.90109E+00 -9.83043E+00 +1.21102E+00 -9.96361E+00
 +4.95636E+00 -8.48111E+00 +7.74143E+00 -5.69204E+00 +9.15525E+00 -2.10589E+00 +9.02887E+00 +1.66008E+00
 +7.45223E+00 +4.98701E+00 +4.74744E+00 +7.35598E+00 +1.40519E+00 +8.42825E+00 -2.00356E+00 +8.09197E+00
 -4.92459E+00 +6.46942E+00 -6.90998E+00 +3.88548E+00 -7.68557E+00 +8.04650E-01 -7.18667E+00 -2.25152E+00
 -5.55782E+00 -4.79189E+00 -3.11849E+00 -6.43363E+00 -3.02354E-01 -6.95845E+00 +2.41868E+00 -6.33914E+00
 +4.61250E+00 -4.73379E+00 +5.95408E+00 -2.45060E+00 +6.27196E+00 +1.09599E-01 +5.56748E+00 +2.52241E+00
 +4.00544E+00 +4.40899E+00 +1.87910E+00 +5.49406E+00 -4.43270E-01 +5.64428E+00 -2.58083E+00 +4.88199E+00
 -4.20125E+00 +3.37364E+00 -5.07086E+00 +1.39602E+00 -5.08659E+00 -7.13067E-01 -4.28576E+00 -2.61116E+00
 -2.83332E+00 -4.00533E+00 -9.89812E-01 -4.69589E+00 +9.34044E-01 -4.60343E+00 +2.62838E+00 -3.77582E+00
 +3.83273E+00 -2.37505E+00 +4.37471E+00 -6.47020E-01 +4.19337E+00 +1.12042E+00 +3.34431E+00 +2.64419E+00
 +1.98654E+00 +3.69003E+00 +3.53830E-01 +4.10740E+00 -1.28440E+00 +3.85010E+00 -2.66644E+00 +2.98004E+00
 -3.57903E+00 +1.65425E+00 -3.88935E+00 +9.73862E-02 -3.56361E+00 -1.43530E+00 -2.66985E+00 -2.69891E+00
 -1.36472E+00 -3.49714E+00 +1.33166E-01 -3.71217E+00 +1.57909E+00 -3.32156E+00 +2.74141E+00 -2.40003E+00
 +3.43812E+00 -1.10579E+00 +3.56490E+00 +3.45952E-01 +3.11059E+00 +1.71819E+00 +2.15758E+00 +2.79027E+00
 +8.67462E-01 +3.39300E+00 -5.45977E-01 +3.43523E+00 -1.85172E+00 +2.91754E+00 -2.83900E+00 +1.93123E+00
 -3.35119E+00 +6.42523E-01 -3.31067E+00 -7.35064E-01 -2.73065E+00 -1.97594E+00 -1.71219E+00 -2.87929E+00
 -4.26837E-01 -3.30164E+00 +9.12117E-01 -3.17980E+00 +2.08502E+00 -2.54041E+00 +2.90203E+00 -1.49472E+00
 +3.23402E+00 -2.19307E-01 +3.03326E+00 +1.07367E+00 +2.34030E+00 +2.17200E+00 +1.27623E+00 +2.89848E+00
 +2.15212E-02 +3.13983E+00 -1.21470E+00 +2.86459E+00 -2.22985E+00 +2.12712E+00 -2.86141E+00 +1.05721E+00
 -3.01333E+00 -1.62871E-01 -2.67081E+00 -1.32960E+00 -1.90112E+00 -2.25262E+00 -8.40727E-01 -2.78615E+00
 +3.29032E-01 -2.85234E+00 +1.41330E+00 -2.45267E+00 +2.23657E+00 -1.66566E+00 +2.67144E+00 -6.31746E-01
 +2.65859E+00 +4.71970E-01 +2.21458E+00 +1.46236E+00 +1.42672E+00 +2.18106E+00 +4.36130E-01 +2.52004E+00
 -5.87661E-01 +2.43786E+00 -1.47604E+00 +1.96415E+00 -2.08935E+00 +1.19193E+00 -2.33891E+00 +2.59554E-01
 -2.19965E+00 -6.74147E-01 -1.71145E+00 -1.45711E+00 -9.69573E-01 -1.96890E+00 -1.06343E-01 -2.13912E+00
 +7.32504E-01 -1.95651E+00 +1.41242E+00 -1.46786E+00 +1.83147E+00 -7.67293E-01 +1.93524E+00 +2.16315E-02
 +1.72302E+00 +7.67573E-01 +1.24492E+00 +1.35307E+00 +5.90909E-01 +1.69261E+00 -1.25871E-01 +1.74442E+00
 -7.88362E-01 +1.51450E+00 -1.29423E+00 +1.05289E+00 -1.57091E+00 +4.43268E-01 -1.58511E+00 -2.11900E-01
 -1.34556E+00 -8.08054E-01 -8.99460E-01 -1.25441E+00 -3.23347E-01 -1.48676E+00 +2.89550E-01 -1.47555E+00
 +8.43598E-01 -1.22862E+00 +1.25452E+00 -7.88590E-01 +1.46091E+00 -2.25671E-01 +1.43224E+00 +3.72831E-01
 +1.17254E+00 +9.14883E-01 +7.19644E-01 +1.31641E+00 +1.40123E-01 +1.51285E+00 -4.79382E-01 +1.46834E+00
 -1.04356E+00 +1.18148E+00 -1.46139E+00 +6.86877E-01 -1.65920E+00 +5.21937E-02 -1.59239E+00 -6.29531E-01
 -1.25410E+00 -1.25162E+00 -6.79371E-01 -1.70855E+00 +5.63573E-02 -1.91219E+00 +8.45034E-01 -1.80719E+00
 +1.55974E+00 -1.38320E+00 +2.07316E+00 -6.81404E-01 +2.27840E+00 +2.06455E-01 +2.10919E+00 +1.14758E+00
 +1.55579E+00 +1.98576E+00 +6.73256E-01 +2.56528E+00 -4.20373E-01 +2.75789E+00 -1.55721E+00 +2.48830E+00
 -2.54307E+00 +1.75364E+00 -3.18868E+00 +6.32360E-01 -3.34373E+00 -7.20194E-01 -2.92813E+00 -2.09070E+00
 -1.95420E+00 -3.23939E+00 -5.34736E-01 -3.94002E+00 +1.12620E+00 -4.02193E+00 +2.76016E+00 -3.40668E+00
 +4.07573E+00 -2.13192E+00 +4.80861E+00 -3.56591E-01 +4.77192E+00 +1.65530E+00 +3.89749E+00 +3.57174E+00
 +2.25977E+00 +5.04578E+00 +7.59711E-02 +5.77651E+00 -2.31957E+00 +5.56737E+00 -4.52474E+00 +4.37098E+00
 -6.13569E+00 +2.31089E+00 -6.81902E+00 -3.25629E-01 -6.37739E+00 -3.12506E+00 -4.79606E+00 -5.61104E+00
 -2.26031E+00 -7.32427E+00 +8.61811E-01 -7.90567E+00 +4.07085E+00 -7.16798E+00 +6.81488E+00 -5.14191E+00
 +8.58354E+00 -2.08659E+00 +9.00139E+00 +1.54004E+00 +7.90369E+00 +5.14852E+00 +5.37965E+00 +8.11309E+00
 +1.77334E+00 +9.87968E+00 -2.36069E+00 +1.00680E+01 -6.34188E+00 +8.54939E+00 -9.47563E+00 +5.48409E+00
 -1.11743E+01 +1.31043E+00 -1.10661E+01 -3.31645E+00 -9.07204E+00 -7.62720E+00 -5.43522E+00 -1.08666E+01
 -6.95016E-01 -1.24259E+01 +4.39211E+00 -1.19564E+01 +8.97379E+00 -9.44245E+00 +1.22454E+01 -5.21955E+00
 +1.35918E+01 +6.78102E-02 +1.27022E+01 +5.56469E+00 +9.63684E+00 +1.03449E+01 +4.83114E+00 +1.35684E+01
 -9.64784E-01 +1.46295E+01 -6.80402E+00 +1.32706E+01 -1.16991E+01 +9.63827E+00 -1.47906E+01 +4.27232E+00
 -1.54994E+01 -1.97459E+00 -1.36345E+01 -8.07373E+00 -9.43772E+00 -1.29918E+01 -3.55396E+00 -1.58678E+01
 +3.06843E+00 -1.61658E+01 +9.33255E+00 -1.37742E+01 +1.41771E+01 -9.03490E+00 +1.67584E+01 -2.69542E+00
 +1.65995E+01 +4.21101E+00 +1.36781E+01 +1.05360E+01 +8.43857E+00 +1.52099E+01 +1.72394E+00 +1.74255E+01
 -5.36185E+00 +1.67789E+01 -1.16383E+01 +1.33443E+01 -1.60482E+01 +7.66651E+00 -1.78385E+01 +6.73709E-01
 -1.66912E+01 -6.47707E+00 -1.27801E+01 -1.25944E+01 -6.74494E+00 -1.66545E+01 +4.15530E-01 -1.79754E+01
 +7.51125E+00 -1.63336E+01 +1.33623E+01 -1.20028E+01 +1.69984E+01 -5.70754E+00 +1.78233E+01 +1.50021E+00
 +1.57136E+01 +8.41960E+00 +1.10386E+01 +1.39047E+01 +4.59408E+00 +1.70579E+01 -2.53490E+00 +1.73796E+01
 -9.16004E+00 +1.48487E+01 -1.41915E+01 +9.92153E+00 -1.68206E+01 +3.44859E+00 -1.66523E+01 -3.47442E+00
 -1.37658E+01 -9.69528E+00 -8.69231E+00 -1.42006E+01 -2.31742E+00 -1.62843E+01 +4.27595E+00 -1.56600E+01
 +9.99459E+00 -1.25003E+01 +1.39197E+01 -7.39634E+00 +1.54576E+01 -1.24708E+00 +1.44305E+01 +4.90106E+00
 +1.10943E+01 +1.00353E+01 +6.08167E+00 +1.33466E+01 +2.82160E-01 +1.43594E+01 -5.31747E+00 +1.30002E+01
 -9.80395E+00 +9.59483E+00 -1.24893E+01 +4.79687E+00 -1.30180E+01 -5.36732E-01 -1.14126E+01 -5.50050E+00
 -8.05183E+00 -9.29667E+00 -3.58890E+00 -1.13658E+01 +1.17467E+00 -1.14699E+01 +5.43408E+00 -9.71556E+00
 +8.51952E+00 -6.51588E+00 +1.00033E+01 -2.50112E+00 +9.75826E+00 +1.60386E+00 +7.96023E+00 +5.11138E+00
 +5.03618E+00 +7.48801E+00 +1.57156E+00 +8.43666E+00 -1.80469E+00 +7.93094E+00 -4.53494E+00 +6.19832E+00
 -6.22636E+00 +3.65855E+00 -6.70735E+00 +8.31510E-01 -6.03864E+00 -1.76630E+00 -4.48031E+00 -3.71634E+00
 -2.42379E+00 -4.76639E+00 -3.04443E-01 -4.86130E+00 +1.48684E+00 -4.13283E+00 +2.67559E+00 -2.85353E+00
