 Created: 16-Jan-2021
 $NMID
 ID='D:\BASISSIMULATI'
 FMTDAT='(8E13.5)'
 VOLUME=   1.00000E+00
 TRAMP=   1.00000E+00
 $END
 +5.26398E+01 +7.86024E+00 +3.02198E+01 +3.85081E+01 -5.54144E+00 +3.77244E+01 -2.20681E+01 +9.84710E+00
 -6.50733E+00 -1.53116E+01 +2.22215E+01 -1.18208E+01 +3.23952E+01 +1.71109E+01 +1.07622E+01 +4.25064E+01
 -2.44087E+01 +3.81178E+01 -4.10796E+01 +6.13935E+00 -2.45229E+01 -2.48604E+01 +8.56733E+00 -2.75866E+01
 +2.65049E+01 -2.20324E+00 +1.33672E+01 +2.43430E+01 -1.59098E+01 +2.49441E+01 -3.06008E+01 -1.21586E+00
 -1.44837E+01 -2.80854E+01 +1.82415E+01 -2.83759E+01 +3.67756E+01 -2.51321E-01 +2.36093E+01 +3.08783E+01
 -8.68258E+00 +3.69971E+01 -2.99192E+01 +1.44066E+01 -2.16655E+01 -1.31998E+01 +5.19705E+00 -1.82316E+01
 +2.15978E+01 +3.83830E+00 +8.98015E+00 +3.02725E+01 -2.24998E+01 +3.34777E+01 -4.38695E+01 +7.98514E+00
 -3.54551E+01 -2.42523E+01 -5.75151E+00 -3.51777E+01 +1.71509E+01 -1.76143E+01 +1.29590E+01 +8.30216E+00
 -1.13954E+01 +1.52202E+01 -2.90348E+01 -4.62778E+00 -1.97240E+01 -3.20243E+01 +1.02851E+01 -3.97245E+01
 +3.43551E+01 -1.90673E+01 +3.13073E+01 +1.16770E+01 +5.72490E+00 +2.51152E+01 -1.68912E+01 +1.11264E+01
 -1.50936E+01 -1.38314E+01 +7.88219E+00 -2.32782E+01 +2.77626E+01 -6.71707E+00 +2.32795E+01 +2.02735E+01
 -2.99577E+00 +3.14408E+01 -2.72079E+01 +1.54848E+01 -2.73956E+01 -1.30768E+01 -4.56553E+00 -2.81444E+01
 +1.87114E+01 -1.72474E+01 +2.04903E+01 +6.83008E+00 +6.26223E-01 +1.90459E+01 -1.95565E+01 +6.73874E+00
 -1.84420E+01 -1.81541E+01 +4.70311E+00 -3.09625E+01 +2.90948E+01 -1.83795E+01 +3.26594E+01 +8.74016E+00
 +1.32345E+01 +2.61059E+01 -9.78021E+00 +1.95002E+01 -1.45920E+01 -1.87140E+00 +1.89712E+00 -1.49192E+01
 +2.15217E+01 -5.45950E+00 +2.29665E+01 +1.80484E+01 +2.66059E+00 +3.29749E+01 -2.18388E+01 +2.46311E+01
 -2.89661E+01 +3.87755E-01 -1.38696E+01 -1.77224E+01 +7.35160E+00 -1.43911E+01 +1.36800E+01 +4.51043E+00
 -4.06264E-01 +1.82342E+01 -1.99588E+01 +1.17096E+01 -2.45325E+01 -9.82092E+00 -8.23008E+00 -2.61366E+01
 +1.46775E+01 -2.18105E+01 +2.37248E+01 -1.02714E+00 +1.19467E+01 +1.67770E+01 -7.83229E+00 +1.58590E+01
 -1.58977E+01 -8.89014E-01 -4.86001E+00 -1.53309E+01 +1.35110E+01 -1.21220E+01 +2.01608E+01 +6.36583E+00
 +7.44664E+00 +2.25926E+01 -1.35638E+01 +2.10388E+01 -2.40016E+01 +3.11848E+00 -1.53909E+01 -1.45239E+01
 +2.57882E+00 -1.63129E+01 +1.19399E+01 -2.57975E+00 +4.02223E+00 +1.13235E+01 -1.24269E+01 +1.03776E+01
 -2.01757E+01 -5.46448E+00 -1.04471E+01 -2.14712E+01 +8.68464E+00 -2.26119E+01 +2.03318E+01 -8.00587E+00
 +1.51106E+01 +8.57974E+00 -1.85523E-01 +1.22991E+01 -9.69176E+00 +1.42115E+00 -4.06707E+00 -1.15266E+01
 +1.06822E+01 -1.23865E+01 +1.94576E+01 +7.96269E-01 +1.29427E+01 +1.61060E+01 -3.48277E+00 +1.95190E+01
 -1.52043E+01 +8.39075E+00 -1.25409E+01 -6.35642E+00 +2.58373E-01 -1.11041E+01 +9.66436E+00 -2.61253E+00
 +6.24705E+00 +9.33034E+00 -6.36575E+00 +1.18805E+01 -1.54178E+01 +1.71635E+00 -1.16332E+01 -1.19642E+01
 +1.90967E+00 -1.65951E+01 +1.30427E+01 -8.34410E+00 +1.23629E+01 +4.55067E+00 +2.00635E+00 +1.00954E+01
 -6.94878E+00 +4.10468E+00 -5.52172E+00 -6.18887E+00 +4.60574E+00 -9.62630E+00 +1.31167E+01 -2.08699E+00
 +1.13155E+01 +9.73265E+00 +4.48796E-01 +1.50688E+01 -9.80576E+00 +9.47919E+00 -1.08332E+01 -1.22069E+00
 -3.14044E+00 -6.95921E+00 +4.65142E+00 -3.17014E+00 +4.49654E+00 +5.18365E+00 -3.37354E+00 +8.89572E+00
 -1.10528E+01 +3.60866E+00 -1.08913E+01 -6.16702E+00 -2.81556E+00 -1.17038E+01 +5.92115E+00 -8.50846E+00
 +7.93421E+00 -3.23411E-01 +2.62932E+00 +4.89475E+00 -3.71771E+00 +2.74570E+00 -4.40088E+00 -3.70188E+00
 +1.27327E+00 -7.34692E+00 +7.67303E+00 -4.12323E+00 +8.57923E+00 +3.25462E+00 +3.13614E+00 +8.22329E+00
 -3.65172E+00 +6.76720E+00 -5.98502E+00 +9.83556E-01 -2.71378E+00 -3.36063E+00 +2.01407E+00 -2.52780E+00
 +3.14292E+00 +1.87129E+00 -4.14500E-01 +4.88585E+00 -5.06675E+00 +3.22254E+00 -6.31906E+00 -1.74611E+00
 -3.07799E+00 -5.63261E+00 +1.62252E+00 -5.36744E+00 +3.81743E+00 -1.88307E+00 +2.33454E+00 +1.20439E+00
 -5.00385E-01 +1.25178E+00 -1.49430E+00 -1.10727E+00 +3.12466E-01 -3.00759E+00 +3.04291E+00 -2.34375E+00
 +4.11249E+00 +3.57165E-01 +2.71184E+00 +2.78132E+00 +2.65197E-01 +3.19527E+00 -1.23879E+00 +1.87634E+00
 -1.11093E+00 +4.33903E-01 -2.37582E-01 +6.26328E-02 +1.55429E-01 +5.98549E-01 -2.76688E-01 +1.09101E+00
 -9.73385E-01 +9.52064E-01 -1.33655E+00 +3.76458E-01 -1.32076E+00 -1.92284E-01 -1.16647E+00 -6.59271E-01
 -8.52978E-01 -1.16705E+00 -1.29492E-01 -1.56168E+00 +8.92546E-01 -1.32879E+00 +1.47660E+00 -2.65838E-01
 +9.20689E-01 +9.27192E-01 -4.68438E-01 +1.08527E+00 -1.33355E+00 -1.63435E-01 -5.35426E-01 -1.68686E+00
 +1.45593E+00 -1.73846E+00 +2.68757E+00 +1.96799E-01 +1.58074E+00 +2.53068E+00 -1.23301E+00 +2.88098E+00
 -3.16386E+00 +5.19158E-01 -2.10130E+00 -2.54714E+00 +1.26263E+00 -3.26565E+00 +3.75166E+00 -6.02581E-01
 +2.69832E+00 +3.10657E+00 -1.21490E+00 +4.17767E+00 -4.28262E+00 +1.25115E+00 -3.29273E+00 -3.04763E+00
 +1.09660E+00 -4.41439E+00 +4.64867E+00 -1.14671E+00 +3.56657E+00 +3.84660E+00 -1.56570E+00 +5.59717E+00
 -5.98559E+00 +1.96978E+00 -5.24349E+00 -3.92742E+00 +2.66366E-01 -6.48365E+00 +5.35820E+00 -3.07647E+00
 +4.97445E+00 +3.07889E+00 -6.87953E-01 +5.80664E+00 -6.03811E+00 +2.04082E+00 -5.40874E+00 -4.85928E+00
 +1.20736E+00 -8.08400E+00 +7.77863E+00 -4.02013E+00 +7.91805E+00 +3.92172E+00 +1.24974E+00 +8.32003E+00
 -5.91072E+00 +4.94243E+00 -6.54872E+00 -2.88245E+00 +6.15064E-02 -7.25757E+00 +7.33948E+00 -3.43669E+00
 +7.66336E+00 +5.24619E+00 -1.81802E-02 +1.03146E+01 -8.79148E+00 +6.37959E+00 -1.02810E+01 -3.33318E+00
 -2.89883E+00 -9.80415E+00 +6.32098E+00 -6.92735E+00 +8.39705E+00 +2.34086E+00 +1.26341E+00 +8.62461E+00
 -7.93123E+00 +5.26634E+00 -9.62957E+00 -4.90468E+00 -1.33447E+00 -1.20093E+01 +9.59445E+00 -8.67519E+00
 +1.28434E+01 +2.54039E+00 +5.22630E+00 +1.13173E+01 -5.96087E+00 +9.50439E+00 -9.86293E+00 -7.90104E-01
 -2.71972E+00 -9.03585E+00 +8.20842E+00 -6.52925E+00 +1.15462E+01 +4.86480E+00 +3.01448E+00 +1.42022E+01
 -1.00489E+01 +1.20127E+01 -1.55410E+01 -2.77630E-01 -8.36239E+00 -1.14216E+01 +4.41002E+00 -1.11535E+01
 +1.02390E+01 -2.93398E-01 +3.39549E+00 +9.86078E+00 -9.21815E+00 +8.52050E+00 -1.46153E+01 -3.83942E+00
 -6.47335E+00 -1.56110E+01 +8.37554E+00 -1.52132E+01 +1.62863E+01 -2.52141E+00 +1.00216E+01 +1.07195E+01
 -4.03921E+00 +1.21634E+01 -1.19502E+01 +9.53373E-01 -5.82083E+00 -1.12769E+01 +8.27598E+00 -1.17108E+01
 +1.60370E+01 +9.43565E-01 +8.92833E+00 +1.48644E+01 -7.19514E+00 +1.64529E+01 -1.74706E+01 +3.68119E+00
 -1.23901E+01 -1.16679E+01 +2.82656E+00 -1.52921E+01 +1.31726E+01 -4.32734E+00 +8.49596E+00 +9.72673E+00
 -6.41014E+00 +1.21848E+01 -1.62932E+01 -3.11146E-01 -1.03397E+01 -1.61922E+01 +7.01009E+00 -2.00217E+01
 +2.00589E+01 -7.58218E+00 +1.69850E+01 +9.78774E+00 +1.41385E+00 +1.60514E+01 -1.10028E+01 +6.08926E+00
 -7.85925E+00 -9.20842E+00 +7.72844E+00 -1.35334E+01 +1.99676E+01 -1.24220E+00 +1.57818E+01 +1.68189E+01
 -2.20676E+00 +2.36378E+01 -1.79111E+01 +1.26023E+01 -1.72632E+01 -5.88052E+00 -1.92473E+00 -1.43522E+01
 +1.22558E+01 -5.28932E+00 +1.07151E+01 +1.14815E+01 -5.45474E+00 +1.83390E+01 -2.03730E+01 +7.20999E+00
 -1.88165E+01 -1.22532E+01 -1.25112E+00 -2.18177E+01 +1.63247E+01 -1.23813E+01 +1.77629E+01 +7.02836E+00
 +2.46668E+00 +1.78970E+01 -1.39832E+01 +1.02268E+01 -1.50436E+01 -7.66057E+00 +5.05011E-01 -1.72192E+01
 +1.71783E+01 -7.90829E+00 +1.78291E+01 +1.22407E+01 +5.20995E-01 +2.41794E+01 -1.93057E+01 +1.63092E+01
 -2.36569E+01 -4.13357E+00 -9.44021E+00 -1.79998E+01 +8.52020E+00 -1.28403E+01 +1.19834E+01 +4.92659E+00
 -2.76592E+00 +1.62718E+01 -2.11010E+01 +8.25252E+00 -2.42328E+01 -1.30846E+01 -7.64273E+00 -2.83084E+01
 +1.42660E+01 -2.33943E+01 +2.19785E+01 -3.41157E+00 +9.77201E+00 +1.23346E+01 -8.74998E+00 +9.08614E+00
 -1.39964E+01 -8.95294E+00 +3.41737E-01 -2.27141E+01 +2.09359E+01 -1.69830E+01 +2.77029E+01 +4.50681E+00
 +1.34461E+01 +2.24281E+01 -8.93356E+00 +2.05217E+01 -1.88081E+01 +1.41130E+00 -7.80268E+00 -1.59163E+01
 +1.21079E+01 -1.46044E+01 +2.03641E+01 +3.61293E+00 +8.03000E+00 +2.01007E+01 -1.32991E+01 +1.76013E+01
 -2.26808E+01 -2.70833E+00 -1.02732E+01 -2.20961E+01 +1.29129E+01 -2.23446E+01 +2.55585E+01 -3.43929E+00
 +1.66755E+01 +1.64146E+01 -3.78172E+00 +1.85365E+01 -1.47384E+01 +1.99847E+00 -4.71838E+00 -1.54854E+01
 +1.67713E+01 -1.49434E+01 +2.83781E+01 +5.13351E+00 +1.77193E+01 +2.70532E+01 -6.42771E+00 +3.09522E+01
 -2.25145E+01 +1.40358E+01 -1.70746E+01 -6.75384E+00 +2.28464E+00 -1.12929E+01 +1.44537E+01 +4.07119E+00
 +5.60130E+00 +2.29674E+01 -1.71274E+01 +2.50627E+01 -3.24176E+01 +6.08606E+00 -2.55137E+01 -1.77598E+01
 -2.65903E+00 -2.53693E+01 +1.48784E+01 -1.11464E+01 +1.14121E+01 +9.65125E+00 -8.00675E+00 +1.58733E+01
 -2.26800E+01 +1.15931E+00 -1.66437E+01 -1.98523E+01 +5.56119E+00 -2.58729E+01 +2.31562E+01 -9.88132E+00
 +1.93082E+01 +1.38241E+01 -2.44901E+00 +2.33617E+01 -2.15912E+01 +1.04286E+01 -2.05084E+01 -1.17443E+01
 -1.53264E+00 -2.14026E+01 +1.55154E+01 -9.54655E+00 +1.28588E+01 +1.12934E+01 -7.70289E+00 +1.93547E+01
 -2.63940E+01 +5.01363E+00 -2.46568E+01 -1.96409E+01 -3.22451E+00 -3.23927E+01 +1.85587E+01 -2.23625E+01
 +2.15060E+01 -4.28627E-01 +5.13995E+00 +1.15375E+01 -1.20538E+01 +2.09587E+00 -1.08890E+01 -1.85933E+01
 +9.59165E+00 -2.87482E+01 +3.10084E+01 -1.63373E+01 +3.34425E+01 +9.02271E+00 +1.47786E+01 +2.52551E+01
 -7.26386E+00 +1.91354E+01 -1.23691E+01 -1.04643E+00 +2.69580E+00 -1.37857E+01 +2.11389E+01 -5.48071E+00
 +2.27591E+01 +1.62552E+01 +3.86364E+00 +3.00592E+01 -1.89606E+01 +2.17419E+01 -2.48862E+01 -1.76290E+00
 -9.03665E+00 -1.90199E+01 +1.28464E+01 -1.48049E+01 +1.97678E+01 +5.28898E+00 +5.85340E+00 +2.05452E+01
 -1.41222E+01 +1.54949E+01 -1.93807E+01 -4.94412E+00 -3.60794E+00 -2.03036E+01 +1.87382E+01 -1.46066E+01
 +2.64042E+01 +7.96522E+00 +1.19387E+01 +2.70395E+01 -1.11600E+01 +2.57431E+01 -2.16529E+01 +6.90159E+00
 -1.11855E+01 -9.99039E+00 +7.77744E+00 -7.98231E+00 +1.43688E+01 +1.07298E+01 -1.06076E-01 +2.69805E+01
