 Created: 16-Jan-2021
 $NMID
 ID='D:\BASISSIMULATI'
 FMTDAT='(8E13.5)'
 VOLUME=   1.00000E+00
 TRAMP=   1.00000E+00
 $END
 +7.82372E+01 +1.26738E+01 +6.29195E+01 -2.36203E+01 +1.65602E+01 -3.70470E+01 -3.15561E+01 -1.52767E+01
 -5.21610E+01 +2.81722E+01 -3.59057E+01 +6.35905E+01 +1.19346E+00 +6.61360E+01 +3.01579E+01 +3.30935E+01
 +2.98879E+01 -1.47313E+01 +1.42910E+00 -4.78741E+01 -3.39856E+01 -4.82405E+01 -5.08113E+01 -2.01881E+01
 -3.70621E+01 +1.43289E+01 -1.69207E+00 +3.19816E+01 +3.27497E+01 +2.36166E+01 +4.59108E+01 -1.33094E+00
 +3.24247E+01 -2.33376E+01 +3.52884E+00 -2.69878E+01 -2.21532E+01 -1.06721E+01 -3.11410E+01 +1.40233E+01
 -2.23487E+01 +3.13236E+01 -5.34893E+00 +3.15242E+01 +7.54124E+00 +1.57938E+01 +9.14720E+00 -6.36872E+00
 +4.98229E-01 -2.38801E+01 -1.15358E+01 -3.00657E+01 -1.91759E+01 -2.47936E+01 -1.77923E+01 -1.28732E+01
 -7.41084E+00 -8.27425E-01 +7.98377E+00 +6.00153E+00 +2.22646E+01 +5.27502E+00 +2.94399E+01 -1.57297E+00
 +2.61193E+01 -9.76563E+00 +1.34981E+01 -1.31942E+01 -2.43858E+00 -7.75021E+00 -1.34682E+01 +5.61853E+00
 -1.37251E+01 +2.04216E+01 -3.68057E+00 +2.78779E+01 +9.50523E+00 +2.24650E+01 +1.62104E+01 +6.15773E+00
 +1.07915E+01 -1.19788E+01 -4.16484E+00 -2.11944E+01 -1.90846E+01 -1.61147E+01 -2.36948E+01 -5.47892E-01
 -1.41598E+01 +1.48702E+01 +3.99346E+00 +1.97927E+01 +1.93778E+01 +1.11618E+01 +2.23376E+01 -4.80754E+00
 +1.13597E+01 -1.70252E+01 -6.10783E+00 -1.71675E+01 -1.88583E+01 -5.21896E+00 -1.93988E+01 +1.07954E+01
 -8.55891E+00 +2.04323E+01 +5.65257E+00 +1.77357E+01 +1.37606E+01 +4.76844E+00 +1.09895E+01 -1.02613E+01
 -1.34001E-01 -1.85758E+01 -1.20153E+01 -1.61981E+01 -1.71109E+01 -5.81577E+00 -1.24498E+01 +5.54677E+00
 -9.47144E-01 +1.10943E+01 +1.07991E+01 +8.11588E+00 +1.64979E+01 -9.13370E-01 +1.35492E+01 -1.01767E+01
 +4.16162E+00 -1.39533E+01 -6.09420E+00 -9.75022E+00 -1.13850E+01 +3.79460E-01 -8.80134E+00 +1.09138E+01
 -4.09387E-02 +1.58406E+01 +9.39147E+00 +1.20991E+01 +1.32762E+01 +1.60878E+00 +8.52093E+00 -9.50278E+00
 -2.54997E+00 -1.43994E+01 -1.31856E+01 -9.88581E+00 -1.62896E+01 +1.19008E+00 -9.20322E+00 +1.13972E+01
 +4.07677E+00 +1.34996E+01 +1.51195E+01 +5.53742E+00 +1.66011E+01 -7.40717E+00 +7.48361E+00 -1.63493E+01
 -5.94707E+00 -1.45790E+01 -1.42410E+01 -2.60079E+00 -1.14330E+01 +1.18582E+01 +5.45489E-01 +1.90608E+01
 +1.30305E+01 +1.41356E+01 +1.67339E+01 +6.53876E-01 +8.47683E+00 -1.18148E+01 -6.37332E+00 -1.45275E+01
 -1.76400E+01 -5.86164E+00 -1.76021E+01 +7.53279E+00 -6.51117E+00 +1.55938E+01 +7.66140E+00 +1.21750E+01
 +1.50347E+01 -5.17262E-01 +1.09073E+01 -1.35855E+01 -1.03622E+00 -1.79090E+01 -1.16357E+01 -1.06455E+01
 -1.30191E+01 +2.92841E+00 -4.22019E+00 +1.34186E+01 +8.34906E+00 +1.40806E+01 +1.57097E+01 +5.40407E+00
 +1.27450E+01 -5.64687E+00 +1.60554E+00 -1.09174E+01 -1.01489E+01 -6.87679E+00 -1.50474E+01 +3.16521E+00
 -1.07711E+01 +1.17595E+01 -1.30168E+00 +1.27128E+01 +6.32395E+00 +5.24850E+00 +7.05913E+00 -5.81860E+00
 +1.09742E+00 -1.36687E+01 -6.69945E+00 -1.40697E+01 -1.04395E+01 -7.82884E+00 -7.18630E+00 +2.73252E-01
 +1.34289E+00 +4.97603E+00 +1.02044E+01 +3.93162E+00 +1.45214E+01 -1.13668E+00 +1.23881E+01 -5.95482E+00
 +5.68104E+00 -6.63345E+00 -1.43720E+00 -2.08110E+00 -5.16043E+00 +5.46517E+00 -4.18628E+00 +1.18962E+01
 -2.19121E-01 +1.36652E+01 +3.29282E+00 +9.77893E+00 +3.35617E+00 +2.28797E+00 -7.03415E-01 -4.92464E+00
 -6.76097E+00 -8.35451E+00 -1.10906E+01 -6.84778E+00 -1.05993E+01 -2.19738E+00 -4.80779E+00 +2.02932E+00
 +3.65651E+00 +2.78409E+00 +1.04677E+01 -4.42377E-01 +1.21472E+01 -5.19977E+00 +8.18414E+00 -7.63027E+00
 +1.33508E+00 -5.07146E+00 -4.16182E+00 +1.98947E+00 -5.33631E+00 +9.97362E+00 -2.38143E+00 +1.43414E+01
 +1.59104E+00 +1.24458E+01 +2.78157E+00 +5.22406E+00 -5.94532E-01 -3.40024E+00 -6.97503E+00 -9.00281E+00
 -1.23902E+01 -9.37143E+00 -1.30308E+01 -5.67970E+00 -7.72656E+00 -1.43312E+00 +1.27030E+00 +9.56641E-03
 +9.63916E+00 -2.34201E+00 +1.35453E+01 -6.55411E+00 +1.17709E+01 -9.13270E+00 +6.18289E+00 -7.34329E+00
 +3.93954E-01 -1.01107E+00 -2.46142E+00 +7.25376E+00 -1.49536E+00 +1.34729E+01 +1.58792E+00 +1.45009E+01
 +3.68588E+00 +9.77312E+00 +2.30793E+00 +1.65231E+00 -2.74617E+00 -5.82241E+00 -9.02525E+00 -9.13783E+00
 -1.26882E+01 -7.27006E+00 -1.07850E+01 -2.26294E+00 -3.26864E+00 +2.02779E+00 +6.56687E+00 +2.40388E+00
 +1.37202E+01 -1.46809E+00 +1.44001E+01 -6.61398E+00 +8.45919E+00 -8.58045E+00 -3.39343E-01 -4.52588E+00
 -6.61994E+00 +4.46537E+00 -6.90602E+00 +1.35915E+01 -1.99255E+00 +1.72033E+01 +3.57316E+00 +1.25652E+01
 +4.71472E+00 +1.91950E+00 -4.12573E-01 -8.73822E+00 -8.82797E+00 -1.35062E+01 -1.45806E+01 -1.04565E+01
 -1.28780E+01 -2.81542E+00 -3.59506E+00 +3.43692E+00 +8.38318E+00 +3.86396E+00 +1.63071E+01 -1.30432E+00
 +1.60085E+01 -7.45714E+00 +8.52528E+00 -9.05241E+00 -8.82923E-01 -3.69742E+00 -6.50671E+00 +6.07885E+00
 -5.98396E+00 +1.45592E+01 -1.48745E+00 +1.67243E+01 +2.31575E+00 +1.14809E+01 +1.82462E+00 +2.06978E+00
 -3.04224E+00 -6.36751E+00 -9.08008E+00 -1.01208E+01 -1.22356E+01 -8.82544E+00 -1.03032E+01 -4.94624E+00
 -4.05987E+00 -1.63782E+00 +3.59355E+00 -7.14685E-01 +9.50003E+00 -1.98206E+00 +1.17451E+01 -3.92636E+00
 +1.00949E+01 -4.86794E+00 +5.63127E+00 -3.74253E+00 +1.96715E-01 -3.60682E-01 -4.09802E+00 +4.52556E+00
 -5.50552E+00 +9.19222E+00 -3.52791E+00 +1.12719E+01 +4.14261E-01 +8.81776E+00 +3.36405E+00 +1.81307E+00
 +2.57520E+00 -6.98456E+00 -2.26979E+00 -1.29934E+01 -8.11631E+00 -1.25109E+01 -1.00974E+01 -5.52603E+00
 -4.99972E+00 +3.62078E+00 +5.75997E+00 +8.77126E+00 +1.61955E+01 +6.30063E+00 +1.94047E+01 -1.84481E+00
 +1.25450E+01 -9.02727E+00 -5.73536E-01 -8.56360E+00 -1.16057E+01 +1.04018E+00 -1.34062E+01 +1.42976E+01
 -5.33616E+00 +2.21536E+01 +5.95260E+00 +1.84552E+01 +1.11842E+01 +4.76731E+00 +5.36497E+00 -1.02664E+01
 -8.20707E+00 -1.68739E+01 -2.00249E+01 -1.12016E+01 -2.12318E+01 +1.79524E+00 -1.02467E+01 +1.19167E+01
 +5.84135E+00 +1.12199E+01 +1.62746E+01 -9.12574E-02 +1.43868E+01 -1.38069E+01 +2.36879E+00 -1.98023E+01
 -1.04871E+01 -1.35302E+01 -1.47030E+01 +6.69920E-01 -7.49760E+00 +1.28473E+01 +5.44298E+00 +1.47531E+01
 +1.44582E+01 +5.69616E+00 +1.31368E+01 -7.30952E+00 +2.84307E+00 -1.49770E+01 -8.65009E+00 -1.25114E+01
 -1.31052E+01 -2.69258E+00 -7.72189E+00 +6.73549E+00 +3.29773E+00 +9.05909E+00 +1.23201E+01 +3.33914E+00
 +1.39578E+01 -5.44009E+00 +8.54530E+00 -1.04991E+01 +1.13716E+00 -8.24273E+00 -2.72618E+00 -3.99435E-01
 -1.01459E+00 +7.86931E+00 +3.89285E+00 +1.19829E+01 +7.59947E+00 +1.08801E+01 +7.11476E+00 +6.95697E+00
 +2.65453E+00 +3.60883E+00 -3.16607E+00 +2.65020E+00 -7.59335E+00 +3.52974E+00 -9.44602E+00 +4.48021E+00
 -9.16986E+00 +4.20350E+00 -7.73463E+00 +2.60834E+00 -5.70514E+00 +3.04645E-01 -3.28538E+00 -2.24311E+00
 -9.41447E-01 -4.89072E+00 +4.02827E-01 -7.24599E+00 +5.78878E-02 -8.23388E+00 -1.49419E+00 -6.62114E+00
 -2.55011E+00 -2.29035E+00 -1.44422E+00 +2.94097E+00 +1.78576E+00 +6.04415E+00 +4.88918E+00 +4.85082E+00
 +4.84562E+00 -8.48779E-02 +3.80049E-01 -5.52612E+00 -6.47767E+00 -7.78959E+00 -1.13132E+01 -5.60572E+00
 -1.03413E+01 -1.29700E+00 -3.31833E+00 +8.71427E-01 +5.98430E+00 -1.92270E+00 +1.23102E+01 -8.54363E+00
 +1.26569E+01 -1.43412E+01 +8.38882E+00 -1.43983E+01 +4.06497E+00 -7.20183E+00 +3.84461E+00 +4.05984E+00
 +8.21881E+00 +1.36012E+01 +1.35707E+01 +1.69911E+01 +1.48816E+01 +1.40188E+01 +9.50078E+00 +8.42497E+00
 -8.49656E-01 +4.86441E+00 -1.12412E+01 +5.49196E+00 -1.68692E+01 +8.68241E+00 -1.60387E+01 +1.06208E+01
 -1.07730E+01 +8.32855E+00 -4.93541E+00 +1.79734E+00 -1.52618E+00 -6.16263E+00 -1.12083E+00 -1.19231E+01
 -2.23498E+00 -1.32235E+01 -2.87690E+00 -1.00978E+01 -1.91600E+00 -4.32120E+00 +5.39423E-01 +1.77952E+00
 +3.54732E+00 +6.22024E+00 +5.83543E+00 +7.72401E+00 +6.07902E+00 +5.92525E+00 +3.23278E+00 +1.66758E+00
 -2.75496E+00 -2.94947E+00 -1.01609E+01 -5.37103E+00 -1.55654E+01 -4.21943E+00 -1.54295E+01 -7.07308E-01
 -8.56763E+00 +1.59557E+00 +2.28042E+00 -9.05868E-01 +1.14489E+01 -8.74214E+00 +1.38505E+01 -1.79785E+01
 +8.75182E+00 -2.21449E+01 +8.43503E-01 -1.66884E+01 -2.73677E+00 -2.85502E+00 +2.29508E+00 +1.22101E+01
 +1.36092E+01 +1.98363E+01 +2.32119E+01 +1.59019E+01 +2.29334E+01 +4.14284E+00 +1.06851E+01 -6.11346E+00
 -7.26934E+00 -6.55055E+00 -2.01268E+01 +3.88018E+00 -2.00290E+01 +1.78073E+01 -7.83384E+00 +2.45559E+01
 +7.22787E+00 +1.79933E+01 +1.40125E+01 +1.33184E+00 +7.46055E+00 -1.48156E+01 -7.73037E+00 -1.98858E+01
 -2.05164E+01 -1.09362E+01 -2.15424E+01 +5.22365E+00 -9.91158E+00 +1.69211E+01 +6.24853E+00 +1.59453E+01
 +1.57525E+01 +3.23346E+00 +1.23908E+01 -1.21203E+01 -8.37078E-01 -1.96128E+01 -1.42065E+01 -1.47671E+01
 -1.83988E+01 -1.90298E+00 -1.09488E+01 +9.47253E+00 +2.53298E+00 +1.16748E+01 +1.28612E+01 +4.02176E+00
 +1.38644E+01 -7.33955E+00 +6.23982E+00 -1.43549E+01 -3.74398E+00 -1.27895E+01 -9.19875E+00 -4.64514E+00
 -7.30081E+00 +4.02367E+00 -4.80754E-01 +7.74952E+00 +6.16591E+00 +5.15244E+00 +8.79118E+00 -9.37624E-01
 +7.04168E+00 -6.19085E+00 +3.40580E+00 -7.84804E+00 +7.87926E-01 -5.92841E+00 +4.98653E-01 -2.22406E+00
 +2.00836E+00 +1.51660E+00 +4.08265E+00 +4.55957E+00 +5.88765E+00 +6.83212E+00 +7.08257E+00 +8.11060E+00
 +7.18361E+00 +7.88003E+00 +5.27713E+00 +6.06681E+00 +7.24952E-01 +3.73778E+00 -5.68865E+00 +2.72159E+00
 -1.14506E+01 +4.13141E+00 -1.35926E+01 +7.00128E+00 -1.08518E+01 +8.46216E+00 -4.98601E+00 +5.72522E+00
 +9.01398E-02 -1.48595E+00 +1.01193E+00 -1.00713E+01 -2.43404E+00 -1.52573E+01 -6.91811E+00 -1.38643E+01
 -7.91319E+00 -6.74679E+00 -3.16368E+00 +1.55026E+00 +5.33875E+00 +5.85151E+00 +1.24818E+01 +3.96574E+00
 +1.35612E+01 -1.81264E+00 +7.66350E+00 -6.45802E+00 -1.59445E+00 -5.94722E+00 -8.52943E+00 -2.22283E-01
 -9.26822E+00 +6.77771E+00 -4.24617E+00 +9.98965E+00 +2.38975E+00 +6.86044E+00 +5.90507E+00 -8.82364E-01
 +4.28853E+00 -8.50237E+00 -5.82179E-01 -1.15254E+01 -4.57534E+00 -8.62537E+00 -4.37910E+00 -2.18598E+00
 +2.35201E-01 +3.63078E+00 +6.43758E+00 +5.75511E+00 +1.04096E+01 +4.00103E+00 +9.86072E+00 +7.34636E-01
