 Created: 16-Jan-2021
 $NMID
 ID='D:\BASISSIMULATI'
 FMTDAT='(8E13.5)'
 VOLUME=   1.00000E+00
 TRAMP=   1.00000E+00
 $END
 +7.28133E+01 +1.10624E+01 +6.15501E+01 -1.11534E+01 +2.63130E+01 -2.29842E+01 -1.68844E+01 -1.55785E+01
 -4.85333E+01 +8.36913E+00 -5.54119E+01 +3.59289E+01 -3.69588E+01 +5.10530E+01 -4.95057E+00 +4.35704E+01
 +2.31717E+01 +1.50868E+01 +3.36022E+01 -2.14796E+01 +2.30755E+01 -4.84964E+01 -1.93358E-01 -5.27798E+01
 -2.17599E+01 -3.23992E+01 -2.92668E+01 +2.45900E+00 -1.91648E+01 +3.48951E+01 +1.75507E+00 +4.99540E+01
 +2.06234E+01 +4.19030E+01 +2.59543E+01 +1.64231E+01 +1.40717E+01 -1.31258E+01 -8.98517E+00 -3.30324E+01
 -3.09353E+01 -3.60729E+01 -3.99897E+01 -2.43326E+01 -3.10615E+01 -6.89079E+00 -8.15085E+00 +5.90765E+00
 +1.81383E+01 +8.17864E+00 +3.63108E+01 +1.11650E+00 +3.96745E+01 -8.61382E+00 +2.90395E+01 -1.33849E+01
 +1.13178E+01 -9.19638E+00 -4.77222E+00 +2.25825E+00 -1.32647E+01 +1.49817E+01 -1.33026E+01 +2.24023E+01
 -8.35145E+00 +2.10921E+01 -3.21772E+00 +1.23512E+01 -9.40629E-01 +9.77729E-01 -1.41734E+00 -7.75720E+00
 -2.32031E+00 -1.09656E+01 -1.36988E+00 -9.18133E+00 +1.73866E+00 -5.21582E+00 +5.06489E+00 -1.85123E+00
 +5.90668E+00 -1.94102E-02 +2.92066E+00 +1.36353E+00 -2.65897E+00 +3.94908E+00 -7.61673E+00 +8.06360E+00
 -8.83588E+00 +1.18417E+01 -5.48952E+00 +1.21425E+01 +1.75073E-01 +6.75049E+00 +4.10879E+00 -3.60365E+00
 +3.09653E+00 -1.48875E+01 -2.89645E+00 -2.15811E+01 -1.02577E+01 -1.97690E+01 -1.36328E+01 -9.68767E+00
 -9.20949E+00 +3.92785E+00 +2.57384E+00 +1.41371E+01 +1.66498E+01 +1.55822E+01 +2.57327E+01 +7.63487E+00
 +2.43128E+01 -4.99763E+00 +1.19922E+01 -1.47188E+01 -5.84280E+00 -1.52892E+01 -2.05768E+01 -5.50552E+00
 -2.48748E+01 +9.83271E+00 -1.66916E+01 +2.23449E+01 -5.13297E-01 +2.46371E+01 +1.49504E+01 +1.45099E+01
 +2.14310E+01 -3.57157E+00 +1.55865E+01 -2.06480E+01 +8.30525E-01 -2.79632E+01 -1.45308E+01 -2.16506E+01
 -2.18506E+01 -4.84792E+00 -1.68896E+01 +1.39302E+01 -2.15737E+00 +2.52829E+01 +1.44322E+01 +2.38443E+01
 +2.38451E+01 +1.09869E+01 +2.08033E+01 -6.10458E+00 +6.61016E+00 -1.84151E+01 -1.15711E+01 -1.99229E+01
 -2.45398E+01 -1.06572E+01 -2.58777E+01 +3.59221E+00 -1.51860E+01 +1.46384E+01 +1.92023E+00 +1.64129E+01
 +1.69315E+01 +8.16240E+00 +2.29065E+01 -5.33803E+00 +1.78765E+01 -1.65478E+01 +5.47388E+00 -1.92952E+01
 -7.37107E+00 -1.20183E+01 -1.42624E+01 +1.56767E+00 -1.25819E+01 +1.46010E+01 -4.48305E+00 +2.07331E+01
 +4.71244E+00 +1.73162E+01 +9.65686E+00 +6.49597E+00 +7.86196E+00 -6.20703E+00 +8.10192E-01 -1.48992E+01
 -7.15675E+00 -1.62265E+01 -1.13975E+01 -1.07172E+01 -9.49589E+00 -2.03160E+00 -2.41141E+00 +5.26814E+00
 +6.23636E+00 +8.11015E+00 +1.22123E+01 +6.21472E+00 +1.28513E+01 +1.77308E+00 +8.24196E+00 -2.11190E+00
 +9.06142E-01 -3.23267E+00 -5.69050E+00 -1.33789E+00 -8.90184E+00 +2.01732E+00 -8.01615E+00 +4.58588E+00
 -4.26068E+00 +4.77526E+00 +1.30592E-01 +2.46657E+00 +3.16080E+00 -1.06667E+00 +3.94721E+00 -3.97809E+00
 +2.86289E+00 -4.87166E+00 +1.02487E+00 -3.46273E+00 -4.65376E-01 -5.86319E-01 -1.07734E+00 +2.35074E+00
 -9.57730E-01 +4.10671E+00 -6.39080E-01 +4.13387E+00 -6.07899E-01 +2.68489E+00 -1.00769E+00 +5.38240E-01
 -1.61250E+00 -1.43920E+00 -2.02308E+00 -2.65199E+00 -1.92502E+00 -2.92389E+00 -1.25409E+00 -2.44011E+00
 -2.04849E-01 -1.58014E+00 +8.81691E-01 -7.43823E-01 +1.66799E+00 -2.25900E-01 +1.93886E+00 -1.46718E-01
 +1.66378E+00 -4.31922E-01 +1.00638E+00 -8.44561E-01 +2.84703E-01 -1.07780E+00 -1.24110E-01 -8.93116E-01
 +6.77808E-02 -2.48567E-01 +8.98509E-01 +6.59042E-01 +2.06602E+00 +1.48344E+00 +2.99044E+00 +1.91885E+00
 +3.04927E+00 +1.88393E+00 +1.90088E+00 +1.57603E+00 -2.69531E-01 +1.33966E+00 -2.74214E+00 +1.41350E+00
 -4.54312E+00 +1.71704E+00 -4.90048E+00 +1.83795E+00 -3.64191E+00 +1.26916E+00 -1.30758E+00 -2.20400E-01
 +1.10465E+00 -2.31033E+00 +2.63694E+00 -4.15471E+00 +2.84049E+00 -4.75379E+00 +1.95189E+00 -3.50132E+00
 +6.80287E-01 -6.03948E-01 -2.59591E-01 +2.89278E+00 -5.78780E-01 +5.53187E+00 -5.41676E-01 +6.12773E+00
 -7.11958E-01 +4.34737E+00 -1.48355E+00 +8.74949E-01 -2.70845E+00 -2.92938E+00 -3.68252E+00 -5.68474E+00
 -3.52912E+00 -6.59834E+00 -1.76263E+00 -5.71088E+00 +1.31601E+00 -3.68897E+00 +4.65487E+00 -1.34489E+00
 +6.92607E+00 +7.91833E-01 +7.18057E+00 +2.59411E+00 +5.30884E+00 +4.12267E+00 +2.04918E+00 +5.28967E+00
 -1.43907E+00 +5.69741E+00 -4.15960E+00 +4.81898E+00 -5.66261E+00 +2.42782E+00 -6.02375E+00 -1.02928E+00
 -5.49976E+00 -4.42964E+00 -4.16745E+00 -6.43728E+00 -1.85887E+00 -6.20783E+00 +1.52167E+00 -3.90893E+00
 +5.52617E+00 -6.92095E-01 +8.94383E+00 +1.93043E+00 +1.01367E+01 +2.96366E+00 +7.87972E+00 +2.51808E+00
 +2.26555E+00 +1.69811E+00 -4.92755E+00 +1.80324E+00 -1.07851E+01 +3.31583E+00 -1.25914E+01 +5.35152E+00
 -9.29657E+00 +6.02516E+00 -2.27314E+00 +3.63291E+00 +5.18179E+00 -2.01120E+00 +9.46232E+00 -8.95630E+00
 +8.57721E+00 -1.37615E+01 +3.30318E+00 -1.32374E+01 -3.16031E+00 -6.39729E+00 -6.94705E+00 +4.53173E+00
 -5.76653E+00 +1.47855E+01 -3.48566E-01 +1.92732E+01 +5.82231E+00 +1.52530E+01 +8.45315E+00 +4.01748E+00
 +5.04163E+00 -9.44732E+00 -3.36875E+00 -1.88127E+01 -1.23953E+01 -1.96234E+01 -1.65390E+01 -1.16726E+01
 -1.23007E+01 +8.02602E-01 -4.59158E-01 +1.13065E+01 +1.38729E+01 +1.45363E+01 +2.36286E+01 +9.24344E+00
 +2.34514E+01 -1.09197E+00 +1.26939E+01 -1.01950E+01 -3.93728E+00 -1.25178E+01 -1.85689E+01 -6.40932E+00
 -2.41184E+01 +4.85704E+00 -1.79561E+01 +1.48289E+01 -3.30561E+00 +1.74777E+01 +1.24032E+01 +1.06757E+01
 +2.13792E+01 -2.41581E+00 +1.94720E+01 -1.48844E+01 +8.20183E+00 -1.97534E+01 -6.23881E+00 -1.38268E+01
 -1.64213E+01 +4.21701E-01 -1.76532E+01 +1.59877E+01 -1.03277E+01 +2.49253E+01 +5.76263E-01 +2.24753E+01
 +8.47946E+00 +9.52760E+00 +8.95153E+00 -7.87485E+00 +2.12550E+00 -2.16811E+01 -7.52505E+00 -2.59085E+01
 -1.38474E+01 -1.94886E+01 -1.25590E+01 -6.45345E+00 -3.67950E+00 +6.48427E+00 +8.48019E+00 +1.35228E+01
 +1.77048E+01 +1.25586E+01 +1.92549E+01 +5.76463E+00 +1.23602E+01 -2.14572E+00 +5.08133E-01 -6.79951E+00
 -1.05221E+01 -6.48839E+00 -1.56990E+01 -2.69521E+00 -1.31625E+01 +1.28686E+00 -4.80284E+00 +2.64306E+00
 +5.12834E+00 +7.86964E-01 +1.24082E+01 -2.44031E+00 +1.48238E+01 -4.12664E+00 +1.27323E+01 -2.26101E+00
 +8.13291E+00 +2.93926E+00 +3.07044E+00 +9.13965E+00 -1.51872E+00 +1.33014E+01 -5.83830E+00 +1.34591E+01
 -1.02989E+01 +9.74689E+00 -1.44537E+01 +4.08525E+00 -1.67100E+01 -1.17624E+00 -1.51574E+01 -4.70734E+00
 -9.02078E+00 -6.76438E+00 +2.76075E-01 -8.53331E+00 +9.30769E+00 -1.07658E+01 +1.42080E+01 -1.27450E+01
 +1.27889E+01 -1.24367E+01 +5.94096E+00 -7.88635E+00 -2.63777E+00 +9.81232E-01 -8.38314E+00 +1.14226E+01
 -8.43102E+00 +1.86621E+01 -3.29730E+00 +1.82456E+01 +3.40486E+00 +8.74674E+00 +7.15434E+00 -6.79432E+00
 +5.38568E+00 -2.17677E+01 -7.04787E-01 -2.90187E+01 -6.61463E+00 -2.45171E+01 -7.15645E+00 -9.67078E+00
 +1.87107E-01 +9.10561E+00 +1.31722E+01 +2.35021E+01 +2.53711E+01 +2.75284E+01 +2.93473E+01 +2.05679E+01
 +2.08197E+01 +7.56713E+00 +1.50008E+00 -3.79282E+00 -2.11230E+01 -7.41351E+00 -3.71683E+01 -2.18406E+00
 -3.92631E+01 +7.45732E+00 -2.63875E+01 +1.41630E+01 -4.55951E+00 +1.20626E+01 +1.60937E+01 +4.16070E-01
 +2.63901E+01 -1.55896E+01 +2.26247E+01 -2.74516E+01 +8.19625E+00 -2.80084E+01 -8.48589E+00 -1.55881E+01
 -1.86280E+01 +4.68534E+00 -1.76764E+01 +2.32407E+01 -7.45853E+00 +3.08814E+01 +5.23472E+00 +2.35308E+01
 +1.27302E+01 +4.37658E+00 +1.08827E+01 -1.77200E+01 +1.35576E+00 -3.26843E+01 -9.44667E+00 -3.41857E+01
 -1.41313E+01 -2.25158E+01 -8.60791E+00 -3.98939E+00 +5.47869E+00 +1.26423E+01 +2.15007E+01 +2.07262E+01
 +3.13315E+01 +1.87643E+01 +2.96237E+01 +1.05018E+01 +1.65686E+01 +2.24695E+00 -2.28602E+00 -9.01366E-01
 -1.89463E+01 +2.22959E+00 -2.69590E+01 +8.63445E+00 -2.43475E+01 +1.32819E+01 -1.40646E+01 +1.22734E+01
 -1.95602E+00 +5.14554E+00 +6.45873E+00 -4.93807E+00 +8.57836E+00 -1.30787E+01 +5.40843E+00 -1.54178E+01
 +2.50950E-01 -1.11788E+01 -3.58736E+00 -2.88768E+00 -4.63106E+00 +5.20210E+00 -3.62977E+00 +9.44799E+00
 -2.50183E+00 +8.55238E+00 -2.69990E+00 +3.80593E+00 -4.13200E+00 -2.09262E+00 -5.30390E+00 -6.75224E+00
 -4.49510E+00 -9.24472E+00 -1.10223E+00 -1.00861E+01 +3.79505E+00 -1.02546E+01 +8.04315E+00 -1.00743E+01
 +9.79356E+00 -8.82453E+00 +8.71953E+00 -5.37148E+00 +6.22949E+00 +6.35783E-01 +4.49293E+00 +7.91635E+00
 +4.89253E+00 +1.37890E+01 +6.93596E+00 +1.55173E+01 +8.41336E+00 +1.20167E+01 +6.80377E+00 +4.82698E+00
 +1.09973E+00 -2.39972E+00 -7.13179E+00 -5.77029E+00 -1.42458E+01 -3.38421E+00 -1.64406E+01 +3.39372E+00
 -1.20546E+01 +1.04773E+01 -2.85460E+00 +1.32488E+01 +6.57530E+00 +9.22649E+00 +1.11610E+01 -3.22584E-01
 +8.15990E+00 -1.08356E+01 -1.12818E+00 -1.68357E+01 -1.18241E+01 -1.49783E+01 -1.79776E+01 -6.05263E+00
 -1.58110E+01 +5.25103E+00 -5.90693E+00 +1.27716E+01 +6.93149E+00 +1.22198E+01 +1.61563E+01 +3.59177E+00
 +1.69895E+01 -8.71745E+00 +9.06386E+00 -1.82166E+01 -3.28272E+00 -1.98089E+01 -1.32627E+01 -1.25623E+01
 -1.52502E+01 -2.26721E-01 -7.80026E+00 +1.07989E+01 +5.55831E+00 +1.49451E+01 +1.81784E+01 +1.04902E+01
 +2.37862E+01 +4.67211E-01 +1.97206E+01 -9.02668E+00 +8.20081E+00 -1.21841E+01 -5.00491E+00 -6.66810E+00
 -1.37186E+01 +5.10128E+00 -1.45639E+01 +1.72248E+01 -8.52981E+00 +2.34427E+01 -1.24374E-01 +2.03973E+01
 +5.31557E+00 +9.31023E+00 +4.61248E+00 -4.75378E+00 -1.60370E+00 -1.55583E+01 -9.42440E+00 -1.88204E+01
 -1.39808E+01 -1.41476E+01 -1.22064E+01 -4.86603E+00 -4.51782E+00 +4.01092E+00 +5.45299E+00 +8.46264E+00
 +1.28446E+01 +7.33326E+00 +1.41272E+01 +2.49219E+00 +8.85277E+00 -2.62112E+00 -2.73972E-01 -5.10943E+00
 -8.92123E+00 -4.16107E+00 -1.33371E+01 -1.22929E+00 -1.20451E+01 +1.11339E+00 -6.22347E+00 +8.67142E-01
 +1.25899E+00 -2.17533E+00 +7.46498E+00 -6.34462E+00 +1.07280E+01 -9.10956E+00 +1.10584E+01 -8.53474E+00
 +9.57932E+00 -4.32903E+00 +7.51054E+00 +2.06136E+00 +5.39525E+00 +8.27562E+00 +3.00748E+00 +1.22315E+01
 -1.15230E-01 +1.30025E+01 -3.97415E+00 +1.09608E+01 -7.77826E+00 +7.24840E+00 -1.02312E+01 +3.01679E+00
