 Created: 16-Jan-2021
 $NMID
 ID='D:\BASISSIMULATI'
 FMTDAT='(8E13.5)'
 VOLUME=   1.00000E+00
 TRAMP=   1.00000E+00
 $END
 +8.51025E+01 +1.10320E+01 +3.67780E+01 +7.43746E+01 -3.94074E+01 +6.29664E+01 -6.27665E+01 -5.68593E+00
 -1.38881E+01 -5.27936E+01 +4.59638E+01 -2.77880E+01 +4.64278E+01 +3.62820E+01 -1.22834E+01 +6.31837E+01
 -6.20175E+01 +2.16410E+01 -4.66597E+01 -4.01607E+01 +1.35538E+01 -5.19317E+01 +4.68269E+01 -3.04684E+00
 +1.39136E+01 +4.56768E+01 -4.59784E+01 +3.30853E+01 -6.02161E+01 -3.07757E+01 -6.63777E+00 -7.50799E+01
 +6.00280E+01 -4.85708E+01 +6.93357E+01 +2.20824E+01 +1.39803E+01 +6.21824E+01 -4.30348E+01 +3.25882E+01
 -4.00200E+01 -2.79583E+01 +1.50239E+01 -4.85872E+01 +5.60672E+01 -6.64103E+00 +3.54966E+01 +4.87478E+01
 -2.27562E+01 +5.48407E+01 -5.28907E+01 +7.02430E+00 -2.37273E+01 -3.78092E+01 +2.64248E+01 -2.83926E+01
 +3.55561E+01 +2.16342E+01 -9.53227E+00 +5.02019E+01 -5.76608E+01 +1.91435E+01 -5.19902E+01 -4.11981E+01
 +4.77062E+00 -6.59699E+01 +5.30923E+01 -2.90503E+01 +4.35398E+01 +2.79802E+01 -8.58238E+00 +4.32746E+01
 -4.21317E+01 +3.78881E+00 -1.96629E+01 -4.20569E+01 +3.17856E+01 -4.07886E+01 +5.35524E+01 +6.06870E+00
 +2.25011E+01 +4.59336E+01 -2.43927E+01 +3.65067E+01 -3.44020E+01 -6.78069E+00 +1.84569E-01 -3.06173E+01
 +3.45735E+01 -6.40481E+00 +2.44698E+01 +3.69820E+01 -2.23437E+01 +4.71212E+01 -5.48297E+01 +8.68676E+00
 -3.69376E+01 -3.88242E+01 +1.17105E+01 -4.58092E+01 +3.84694E+01 -8.06530E+00 +1.68779E+01 +2.96982E+01
 -2.49394E+01 +2.50409E+01 -3.76175E+01 -1.52087E+01 -6.34505E+00 -4.45752E+01 +3.40995E+01 -3.03984E+01
 +4.03439E+01 +1.03931E+01 +9.23662E+00 +3.26089E+01 -2.07204E+01 +1.49282E+01 -1.50449E+01 -1.71941E+01
 +1.74296E+01 -2.26677E+01 +3.60338E+01 +7.27860E+00 +1.58976E+01 +3.94085E+01 -2.34579E+01 +3.70488E+01
 -4.05934E+01 +1.90146E+00 -1.90123E+01 -2.83405E+01 +1.50639E+01 -2.27696E+01 +2.31573E+01 +8.74573E+00
 -2.38452E+00 +2.81198E+01 -3.12217E+01 +1.24856E+01 -3.03430E+01 -2.11003E+01 -7.41820E-01 -3.63851E+01
 +2.54379E+01 -1.89290E+01 +2.21979E+01 +9.26283E+00 -1.91326E+00 +1.64963E+01 -1.56282E+01 -2.49083E+00
 -1.75538E+00 -2.20610E+01 +2.36721E+01 -1.64200E+01 +3.07586E+01 +1.06597E+01 +1.02171E+01 +3.06823E+01
 -1.65105E+01 +2.30904E+01 -2.19869E+01 -2.01466E+00 -3.34091E+00 -1.61888E+01 +1.56930E+01 -4.85300E+00
 +1.23001E+01 +1.72921E+01 -1.02289E+01 +2.39617E+01 -2.74058E+01 +6.85829E+00 -2.15145E+01 -1.61796E+01
 -4.73872E-01 -2.22148E+01 +1.26520E+01 -8.46821E+00 +6.04965E+00 +6.34059E+00 -8.76725E+00 +4.48476E+00
 -1.16571E+01 -1.09529E+01 +2.73740E+00 -2.08206E+01 +1.95119E+01 -1.24156E+01 +2.10391E+01 +6.38167E+00
 +6.69268E+00 +1.66504E+01 -7.28488E+00 +9.73647E+00 -6.50489E+00 -3.92594E+00 +5.99064E+00 -7.47030E+00
 +1.42138E+01 +3.49774E+00 +7.56375E+00 +1.68478E+01 -7.94002E+00 +1.81276E+01 -1.72193E+01 +6.25865E+00
 -1.28491E+01 -6.39330E+00 -2.10779E+00 -8.35686E+00 +2.39298E+00 -1.06472E+00 -3.12610E+00 +4.21964E+00
 -1.04292E+01 -1.80572E-01 -9.49350E+00 -1.01183E+01 +1.95500E-01 -1.50440E+01 +9.64814E+00 -9.97487E+00
 +1.06689E+01 -4.68236E-01 +4.43057E+00 +4.13412E+00 -7.01715E-01 +8.73861E-01 +1.24944E+00 -4.39616E+00
 +7.76537E+00 -4.12312E+00 +1.12601E+01 +2.75894E+00 +7.44356E+00 +1.02275E+01 -5.86490E-01 +1.19235E+01
 -6.20203E+00 +7.46599E+00 -6.12516E+00 +1.98879E+00 -3.01145E+00 +2.95673E-01 -1.78746E+00 +2.23971E+00
 -4.31343E+00 +3.72202E+00 -7.89177E+00 +1.46991E+00 -8.50752E+00 -3.65717E+00 -4.96816E+00 -7.83000E+00
 +1.44911E-01 -8.14648E+00 +3.18604E+00 -5.23538E+00 +2.85839E+00 -2.32210E+00 +1.14566E+00 -2.00288E+00
 +1.15463E+00 -3.85139E+00 +4.02245E+00 -4.95728E+00 +7.72898E+00 -2.80227E+00 +8.90514E+00 +2.17744E+00
 +6.03296E+00 +6.75692E+00 +1.04715E+00 +7.81173E+00 -2.34900E+00 +5.29490E+00 -2.22831E+00 +2.32118E+00
 -3.57271E-01 +2.03157E+00 -3.32087E-01 +4.26852E+00 -3.61882E+00 +5.62746E+00 -7.66731E+00 +3.12692E+00
 -8.39915E+00 -2.27107E+00 -4.67308E+00 -6.28343E+00 +1.63574E-01 -5.75412E+00 +1.67110E+00 -2.20118E+00
 -7.99329E-01 -3.31693E-01 -3.21013E+00 -2.82579E+00 -1.25588E+00 -7.09735E+00 +4.60447E+00 -7.89487E+00
 +9.24070E+00 -3.14677E+00 +8.27821E+00 +3.44552E+00 +2.95189E+00 +6.20021E+00 -1.15747E+00 +3.60154E+00
 -2.78239E-01 -9.72916E-02 +3.37509E+00 +2.45711E-01 +4.20983E+00 +4.73240E+00 -2.15387E-01 +8.22679E+00
 -6.18728E+00 +6.22785E+00 -7.90605E+00 +1.51964E-01 -4.07215E+00 -4.09898E+00 +5.70069E-01 -2.77038E+00
 +6.12210E-01 +1.46866E+00 -3.79845E+00 +2.57717E+00 -7.04809E+00 -1.87982E+00 -4.43479E+00 -7.79331E+00
 +2.40430E+00 -9.01736E+00 +7.20773E+00 -4.22329E+00 +5.98970E+00 +1.67461E+00 +1.28246E+00 +3.07542E+00
 -1.00668E+00 -1.62500E-01 +1.61581E+00 -2.92918E+00 +5.58809E+00 -9.88892E-01 +5.66200E+00 +4.13654E+00
 +1.06082E+00 +7.06430E+00 -3.69168E+00 +4.84004E+00 -4.06553E+00 +2.61704E-01 -6.76155E-01 -1.49896E+00
 +1.62478E+00 +1.10230E+00 -5.06168E-01 +4.32832E+00 -5.05952E+00 +3.61314E+00 -7.05406E+00 -1.17111E+00
 -4.19769E+00 -5.64735E+00 +7.12045E-01 -5.90005E+00 +3.15071E+00 -2.61989E+00 +1.83719E+00 +1.37106E-01
 -3.57113E-01 -2.57717E-01 -1.85207E-01 -2.35292E+00 +2.25080E+00 -2.86256E+00 +4.05353E+00 -7.20942E-01
 +3.25081E+00 +1.91663E+00 +1.00669E+00 +2.55655E+00 -1.16562E-01 +1.32615E+00 +6.31149E-01 +4.85359E-01
 +1.50356E+00 +1.42596E+00 +6.77131E-01 +3.03446E+00 -1.47485E+00 +3.27767E+00 -3.02227E+00 +1.74812E+00
 -2.93513E+00 -6.82674E-02 -2.08669E+00 -8.75182E-01 -1.69744E+00 -1.05961E+00 -1.57440E+00 -1.67831E+00
 -6.38266E-01 -2.55765E+00 +1.06880E+00 -2.36064E+00 +1.92014E+00 -6.87424E-01 +7.94274E-01 +7.84418E-01
 -9.77862E-01 +1.25791E-01 -7.94538E-01 -2.09454E+00 +1.88565E+00 -2.93388E+00 +4.29349E+00 -5.39125E-01
 +3.32719E+00 +3.13290E+00 -4.63551E-01 +4.14303E+00 -2.99812E+00 +1.29890E+00 -1.37845E+00 -1.95633E+00
 +2.25917E+00 -1.37210E+00 +2.86497E+00 +2.71393E+00 -1.34046E+00 +5.16298E+00 -6.01816E+00 +1.99686E+00
 -5.31219E+00 -4.25244E+00 +9.36941E-01 -6.70479E+00 +6.13423E+00 -2.08318E+00 +4.14999E+00 +4.76430E+00
 -3.14371E+00 +5.81374E+00 -7.28512E+00 -7.31200E-01 -2.81703E+00 -7.63821E+00 +5.82414E+00 -6.53740E+00
 +8.76666E+00 +2.07589E+00 +2.12787E+00 +8.67561E+00 -6.83071E+00 +5.43045E+00 -7.57748E+00 -4.24541E+00
 +1.24617E+00 -8.95519E+00 +9.47994E+00 -2.47299E+00 +6.81812E+00 +8.31207E+00 -4.74514E+00 +1.06419E+01
 -1.22951E+01 +7.67802E-01 -6.58183E+00 -1.08330E+01 +6.69363E+00 -1.08537E+01 +1.26035E+01 +1.27936E+00
 +4.04600E+00 +1.19395E+01 -9.42887E+00 +8.57307E+00 -1.20040E+01 -5.40918E+00 +9.98887E-03 -1.38173E+01
 +1.31397E+01 -6.19604E+00 +1.17968E+01 +9.44258E+00 -3.33383E+00 +1.50949E+01 -1.51914E+01 +3.56165E+00
 -9.64332E+00 -1.24164E+01 +7.61991E+00 -1.41351E+01 +1.67173E+01 +1.28459E+00 +6.26510E+00 +1.66291E+01
 -1.27680E+01 +1.37763E+01 -1.87879E+01 -5.09730E+00 -4.30931E+00 -1.91165E+01 +1.47453E+01 -1.22557E+01
 +1.67347E+01 +7.83958E+00 -6.70396E-01 +1.80004E+01 -1.71680E+01 +6.13771E+00 -1.29236E+01 -1.42077E+01
 +8.04274E+00 -1.89020E+01 +2.16539E+01 -1.29270E+00 +1.13461E+01 +1.91850E+01 -1.20673E+01 +1.87617E+01
 -2.18941E+01 -2.90014E+00 -6.18777E+00 -2.12845E+01 +1.76408E+01 -1.46604E+01 +2.19442E+01 +1.04318E+01
 +6.19983E-01 +2.56926E+01 -2.30480E+01 +1.31112E+01 -2.23974E+01 -1.39056E+01 +1.95857E+00 -2.52072E+01
 +2.23037E+01 -8.32384E+00 +1.54073E+01 +1.68386E+01 -1.04339E+01 +2.06006E+01 -2.44992E+01 -2.01708E+00
 -9.16353E+00 -2.48676E+01 +1.89806E+01 -2.05363E+01 +2.75001E+01 +7.43560E+00 +5.65247E+00 +2.75944E+01
 -2.22360E+01 +1.63993E+01 -2.39209E+01 -1.40004E+01 +3.48974E+00 -2.86740E+01 +2.92115E+01 -9.69932E+00
 +2.33564E+01 +2.25995E+01 -8.63400E+00 +3.20518E+01 -3.15082E+01 +7.79624E+00 -2.01198E+01 -2.29438E+01
 +1.17165E+01 -2.57085E+01 +2.69132E+01 +1.66397E+00 +7.84005E+00 +2.63953E+01 -2.30161E+01 +1.85983E+01
 -2.87808E+01 -1.37283E+01 -1.15962E+00 -3.33004E+01 +2.90862E+01 -1.65549E+01 +2.70568E+01 +1.83433E+01
 -5.62915E+00 +3.14764E+01 -3.16283E+01 +7.02482E+00 -2.01897E+01 -2.76615E+01 +1.70947E+01 -3.25020E+01
 +3.85869E+01 -5.11918E-01 +1.96916E+01 +3.35425E+01 -1.88852E+01 +3.22278E+01 -3.44248E+01 -2.01389E+00
 -1.08108E+01 -2.96811E+01 +2.31869E+01 -1.95028E+01 +2.71890E+01 +1.56412E+01 -4.01215E+00 +3.36519E+01
 -3.41615E+01 +1.21016E+01 -2.74080E+01 -2.52722E+01 +9.71827E+00 -3.54956E+01 +3.50058E+01 -6.17820E+00
 +1.89503E+01 +2.93032E+01 -2.06067E+01 +2.95003E+01 -3.79842E+01 -7.24936E+00 -1.17264E+01 -3.99524E+01
 +3.02665E+01 -3.11207E+01 +4.18099E+01 +1.04189E+01 +1.06869E+01 +3.91933E+01 -2.75692E+01 +2.45503E+01
 -3.02813E+01 -1.47680E+01 +3.76136E+00 -3.25272E+01 +3.33979E+01 -8.26744E+00 +2.29118E+01 +2.92722E+01
 -1.64890E+01 +3.55730E+01 -3.94614E+01 +2.14354E+00 -1.90623E+01 -3.31606E+01 +2.15413E+01 -2.95956E+01
 +3.51668E+01 +9.05709E+00 +4.99047E+00 +3.79980E+01 -3.53114E+01 +2.24506E+01 -3.93338E+01 -2.20331E+01
 -8.59619E-01 -4.64889E+01 +3.86131E+01 -2.38175E+01 +3.66201E+01 +2.05417E+01 -2.44561E+00 +3.75989E+01
 -3.29436E+01 +1.03596E+01 -2.04172E+01 -2.75051E+01 +1.92932E+01 -3.09636E+01 +3.89386E+01 +4.45248E+00
 +1.47487E+01 +3.77791E+01 -2.59982E+01 +3.02411E+01 -3.65077E+01 -9.64029E+00 -4.77064E+00 -3.55907E+01
 +3.20613E+01 -1.69873E+01 +3.01094E+01 +2.53148E+01 -1.05127E+01 +4.22296E+01 -4.50295E+01 +1.24797E+01
 -3.45195E+01 -3.26627E+01 +9.91910E+00 -4.44013E+01 +3.97353E+01 -1.13730E+01 +2.38188E+01 +2.80272E+01
 -1.68943E+01 +2.97147E+01 -3.42465E+01 -6.20061E+00 -8.21346E+00 -3.65384E+01 +3.07030E+01 -2.52975E+01
 +3.72844E+01 +1.49931E+01 +3.97598E+00 +3.81711E+01 -3.05217E+01 +1.80510E+01 -2.61578E+01 -2.11896E+01
 +1.19384E+01 -3.28600E+01 +3.89652E+01 -1.77962E+00 +2.17944E+01 +3.76862E+01 -2.27036E+01 +4.04360E+01
 -4.63084E+01 +1.97689E+00 -2.38262E+01 -3.63099E+01 +1.87647E+01 -3.38674E+01 +3.41753E+01 +3.69019E+00
 +7.25634E+00 +3.19474E+01 -2.88307E+01 +1.87150E+01 -3.14671E+01 -1.98425E+01 +2.62717E+00 -3.87814E+01
 +3.44233E+01 -1.64174E+01 +2.81204E+01 +2.11394E+01 -7.63368E+00 +3.06935E+01 -3.01224E+01 +2.06178E+00
