 Created: 19-Jan-2021
 $NMID
 ID='D:\BASISSIMULATI'
 FMTDAT='(8E13.5)'
 VOLUME=   1.00000E+00
 TRAMP=   1.00000E+00
 $END
 +1.48387E+01 +1.62224E-02 +1.32483E+01 +5.81928E+00 +9.23311E+00 +1.01042E+01 +3.87079E+00 +1.19280E+01
 -1.46003E+00 +1.10116E+01 -5.44992E+00 +7.78785E+00 -7.19741E+00 +3.26139E+00 -6.42656E+00 -1.27820E+00
 -3.53037E+00 -4.60551E+00 +5.63994E-01 -5.87563E+00 +4.66375E+00 -4.82485E+00 +7.63475E+00 -1.80832E+00
 +8.69228E+00 +2.32659E+00 +7.58324E+00 +6.48809E+00 +4.61818E+00 +9.63601E+00 +5.54479E-01 +1.10445E+01
 -3.62817E+00 +1.04644E+01 -6.99273E+00 +8.15000E+00 -8.87734E+00 +4.75325E+00 -9.03685E+00 +1.12503E+00
 -7.66417E+00 -1.91669E+00 -5.29710E+00 -3.78739E+00 -2.64648E+00 -4.25585E+00 -3.99239E-01 -3.46011E+00
 +9.49062E-01 -1.82728E+00 +1.19172E+00 +7.03035E-02 +4.21563E-01 +1.67651E+00 -1.03608E+00 +2.58535E+00
 -2.73901E+00 +2.61601E+00 -4.25395E+00 +1.81831E+00 -5.25718E+00 +4.18949E-01 -5.58752E+00 -1.26609E+00
 -5.24671E+00 -2.92219E+00 -4.35886E+00 -4.30401E+00 -3.11044E+00 -5.26694E+00 -1.69388E+00 -5.76271E+00
 -2.71397E-01 -5.81159E+00 +1.03558E+00 -5.46897E+00 +2.13726E+00 -4.80188E+00 +2.95972E+00 -3.88321E+00
 +3.43651E+00 -2.80106E+00 +3.51609E+00 -1.67277E+00 +3.18460E+00 -6.49662E-01 +2.49397E+00 +9.75415E-02
 +1.58059E+00 +4.14664E-01 +6.60320E-01 +2.12945E-01 -6.93950E-03 -4.85575E-01 -1.78842E-01 -1.52502E+00
 +2.96971E-01 -2.62930E+00 +1.42197E+00 -3.45597E+00 +3.01959E+00 -3.68064E+00 +4.75624E+00 -3.09029E+00
 +6.21118E+00 -1.65795E+00 +6.98063E+00 +4.26169E-01 +6.78920E+00 +2.78164E+00 +5.57679E+00 +4.92100E+00
 +3.53345E+00 +6.37035E+00 +1.06812E+00 +6.79587E+00 -1.28498E+00 +6.10109E+00 -2.99988E+00 +4.46546E+00
 -3.69750E+00 +2.31016E+00 -3.25119E+00 +1.97062E-01 -1.82859E+00 -1.31440E+00 +1.43950E-01 -1.81471E+00
 +2.08728E+00 -1.15611E+00 +3.41884E+00 +5.02595E-01 +3.70612E+00 +2.73184E+00 +2.78288E+00 +4.93960E+00
 +7.96561E-01 +6.52398E+00 -1.82651E+00 +7.02990E+00 -4.48932E+00 +6.26811E+00 -6.57718E+00 +4.36491E+00
 -7.61497E+00 +1.72959E+00 -7.38731E+00 -1.05129E+00 -5.99035E+00 -3.36448E+00 -3.80262E+00 -4.72541E+00
 -1.38386E+00 -4.89777E+00 +6.70537E-01 -3.94707E+00 +1.88059E+00 -2.21569E+00 +1.99927E+00 -2.28027E-01
 +1.06723E+00 +1.44779E+00 -6.07329E-01 +2.34474E+00 -2.53579E+00 +2.21101E+00 -4.17842E+00 +1.06542E+00
 -5.08135E+00 -8.17386E-01 -4.98612E+00 -2.98520E+00 -3.88560E+00 -4.92719E+00 -2.01483E+00 -6.20170E+00
 +2.17423E-01 -6.54036E+00 +2.33597E+00 -5.90418E+00 +3.91671E+00 -4.48036E+00 +4.68454E+00 -2.62447E+00
 +4.56918E+00 -7.65538E-01 +3.70805E+00 +7.00069E-01 +2.39936E+00 +1.49972E+00 +1.02028E+00 +1.53959E+00
 -6.73995E-02 +9.13319E-01 -6.00796E-01 -1.33980E-01 -4.69844E-01 -1.27434E+00 +2.68556E-01 -2.17926E+00
 +1.41595E+00 -2.59554E+00 +2.68797E+00 -2.39766E+00 +3.78474E+00 -1.60699E+00 +4.45890E+00 -3.76607E-01
 +4.56630E+00 +1.05176E+00 +4.08986E+00 +2.40650E+00 +3.13405E+00 +3.44641E+00 +1.89385E+00 +4.00934E+00
 +6.07321E-01 +4.04023E+00 -4.97021E-01 +3.59444E+00 -1.24652E+00 +2.81803E+00 -1.55573E+00 +1.91103E+00
 -1.43771E+00 +1.08244E+00 -9.94519E-01 +5.06517E-01 -3.90476E-01 +2.88930E-01 +1.85707E-01 +4.48719E-01
 +5.61672E-01 +9.18690E-01 +6.17035E-01 +1.56330E+00 +3.07041E-01 +2.20974E+00 -3.30057E-01 +2.68575E+00
 -1.18295E+00 +2.85620E+00 -2.09222E+00 +2.65132E+00 -2.88497E+00 +2.08061E+00 -3.41182E+00 +1.22983E+00
 -3.57846E+00 +2.41798E-01 -3.36495E+00 -7.14984E-01 -2.82875E+00 -1.48286E+00 -2.09067E+00 -1.94879E+00
 -1.30708E+00 -2.06778E+00 -6.34568E-01 -1.87085E+00 -1.95186E-01 -1.45574E+00 -5.01226E-02 -9.62729E-01
 -1.87886E-01 -5.41188E-01 -5.29432E-01 -3.14868E-01 -9.48795E-01 -3.53954E-01 -1.30406E+00 -6.60313E-01
 -1.47115E+00 -1.16908E+00 -1.37244E+00 -1.76573E+00 -9.93591E-01 -2.31424E+00 -3.85071E-01 -2.68913E+00
 +3.51411E-01 -2.80401E+00 +1.08775E+00 -2.62977E+00 +1.69928E+00 -2.19889E+00 +2.09229E+00 -1.59541E+00
 +2.22321E+00 -9.33678E-01 +2.10519E+00 -3.31473E-01 +1.80163E+00 +1.16070E-01 +1.40877E+00 +3.55788E-01
 +1.03217E+00 +3.85170E-01 +7.62702E-01 +2.49188E-01 +6.57394E-01 +2.68644E-02 +7.29161E-01 -1.88717E-01
 +9.46795E-01 -3.12080E-01 +1.24455E+00 -2.83913E-01 +1.53853E+00 -8.28022E-02 +1.74588E+00 +2.71839E-01
 +1.80276E+00 +7.25617E-01 +1.67725E+00 +1.20200E+00 +1.37511E+00 +1.61916E+00 +9.37496E-01 +1.90708E+00
 +4.31561E-01 +2.02176E+00 -6.40250E-02 +1.95349E+00 -4.75471E-01 +1.72796E+00 -7.48950E-01 +1.40012E+00
 -8.61319E-01 +1.04194E+00 -8.24293E-01 +7.26793E-01 -6.81169E-01 +5.13565E-01 -4.96689E-01 +4.33866E-01
 -3.42079E-01 +4.85196E-01 -2.78446E-01 +6.31731E-01 -3.42244E-01 +8.12787E-01 -5.36210E-01 +9.57273E-01
 -8.28139E-01 +1.00097E+00 -1.15806E+00 +9.02561E-01 -1.45239E+00 +6.54541E-01 -1.64190E+00 +2.86007E-01
 -1.67900E+00 -1.43560E-01 -1.55010E+00 -5.58352E-01 -1.27969E+00 -8.84763E-01 -9.24662E-01 -1.06977E+00
 -5.60322E-01 -1.09439E+00 -2.61312E-01 -9.78513E-01 -8.24599E-02 -7.75657E-01 -4.46410E-02 -5.58792E-01
 -1.29525E-01 -4.00842E-01 -2.84813E-01 -3.55048E-01 -4.38693E-01 -4.40511E-01 -5.19719E-01 -6.36939E-01
 -4.76719E-01 -8.90152E-01 -2.93256E-01 -1.12696E+00 +7.40239E-03 -1.27538E+00 +3.68262E-01 -1.28466E+00
 +7.13952E-01 -1.13953E+00 +9.71233E-01 -8.64720E-01 +1.08899E+00 -5.18428E-01 +1.05212E+00 -1.76490E-01
 +8.85503E-01 +8.83019E-02 +6.46818E-01 +2.25992E-01 +4.10364E-01 +2.22857E-01 +2.46327E-01 +1.04664E-01
 +2.01339E-01 -7.10666E-02 +2.85728E-01 -2.31584E-01 +4.70996E-01 -3.09536E-01 +6.98110E-01 -2.61936E-01
 +8.94241E-01 -8.21993E-02 +9.93184E-01 +1.98005E-01 +9.53800E-01 +5.17509E-01 +7.71392E-01 +8.02434E-01
 +4.79003E-01 +9.86317E-01 +1.38429E-01 +1.02799E+00 -1.76448E-01 +9.22404E-01 -3.99320E-01 +7.01582E-01
 -4.88776E-01 +4.25634E-01 -4.38659E-01 +1.66481E-01 -2.78888E-01 -1.11998E-02 -6.67511E-02 -6.66779E-02
 +1.28734E-01 +6.82007E-03 +2.45111E-01 +1.81211E-01 +2.42558E-01 +4.01706E-01 +1.13688E-01 +6.01599E-01
 -1.15225E-01 +7.19669E-01 -3.91578E-01 +7.15677E-01 -6.50161E-01 +5.80142E-01 -8.29602E-01 +3.36176E-01
 -8.87375E-01 +3.32475E-02 -8.09761E-01 -2.65274E-01 -6.14580E-01 -4.97544E-01 -3.46324E-01 -6.17833E-01
 -6.51587E-02 -6.06884E-01 +1.67412E-01 -4.75781E-01 +3.02786E-01 -2.62693E-01 +3.16161E-01 -2.34965E-02
 +2.11750E-01 +1.81429E-01 +2.13134E-02 +3.01140E-01 -2.03522E-01 +3.05717E-01 -4.03318E-01 +1.92963E-01
 -5.24569E-01 -1.11818E-02 -5.32088E-01 -2.58582E-01 -4.17300E-01 -4.89896E-01 -2.00576E-01 -6.48214E-01
 +7.30107E-02 -6.92353E-01 +3.43677E-01 -6.06798E-01 +5.50575E-01 -4.05947E-01 +6.46043E-01 -1.31501E-01
 +6.07198E-01 +1.56631E-01 +4.42021E-01 +3.94031E-01 +1.88276E-01 +5.26994E-01 -9.47741E-02 +5.25681E-01
 -3.40165E-01 +3.91909E-01 -4.89353E-01 +1.59445E-01 -5.06783E-01 -1.13600E-01 -3.89161E-01 -3.58670E-01
 -1.66894E-01 -5.13697E-01 +1.02965E-01 -5.38854E-01 +3.50747E-01 -4.27042E-01 +5.11775E-01 -2.06224E-01
 +5.43051E-01 +6.72452E-02 +4.34655E-01 +3.22787E-01 +2.12701E-01 +4.93712E-01 -6.70889E-02 +5.34583E-01
 -3.33664E-01 +4.33198E-01 -5.19094E-01 +2.13916E-01 -5.76288E-01 -6.86505E-02 -4.91245E-01 -3.43979E-01
 -2.86498E-01 -5.44192E-01 -1.48026E-02 -6.21818E-01 +2.55184E-01 -5.61965E-01 +4.57334E-01 -3.85615E-01
 +5.45516E-01 -1.43228E-01 +5.05353E-01 +9.95081E-02 +3.57121E-01 +2.79739E-01 +1.49151E-01 +3.54317E-01
 -5.62694E-02 +3.10832E-01 -2.00417E-01 +1.69888E-01 -2.44130E-01 -2.17952E-02 -1.77858E-01 -2.05279E-01
 -2.31307E-02 -3.26222E-01 +1.74709E-01 -3.49780E-01 +3.60152E-01 -2.69473E-01 +4.83485E-01 -1.07699E-01
 +5.14416E-01 +9.19277E-02 +4.49597E-01 +2.77921E-01 +3.12091E-01 +4.05904E-01 +1.43293E-01 +4.50833E-01
 -1.00710E-02 +4.13049E-01 -1.09865E-01 +3.16641E-01 -1.37281E-01 +2.00911E-01 -9.73599E-02 +1.07737E-01
 -1.61979E-02 +6.87233E-02 +6.80605E-02 +9.59600E-02 +1.17532E-01 +1.79043E-01 +1.06408E-01 +2.89022E-01
 +2.87411E-02 +3.87889E-01 -1.00039E-01 +4.40590E-01 -2.48173E-01 +4.25879E-01 -3.77507E-01 +3.42755E-01
 -4.55239E-01 +2.10642E-01 -4.63891E-01 +6.33669E-02 -4.06563E-01 -6.11766E-02 -3.05939E-01 -1.32514E-01
 -1.97434E-01 -1.36810E-01 -1.18540E-01 -8.11085E-02 -9.75465E-02 +8.61709E-03 -1.44939E-01 +9.49965E-02
 -2.49949E-01 +1.40162E-01 -3.83224E-01 +1.16863E-01 -5.04839E-01 +1.66296E-02 -5.75349E-01 -1.47313E-01
 -5.66772E-01 -3.43150E-01 -4.70491E-01 -5.28705E-01 -2.99924E-01 -6.62489E-01 -8.73272E-02 -7.14566E-01
 +1.24338E-01 -6.74342E-01 +2.92246E-01 -5.53296E-01 +3.84404E-01 -3.82061E-01 +3.87476E-01 -2.02731E-01
 +3.09862E-01 -5.84662E-02 +1.79427E-01 +1.69664E-02 +3.66046E-02 +7.17915E-03 -7.53100E-02 -8.31304E-02
 -1.20297E-01 -2.29442E-01 -7.78649E-02 -3.93149E-01 +5.23440E-02 -5.30291E-01 +2.50419E-01 -6.01271E-01
 +4.80356E-01 -5.79453E-01 +6.97506E-01 -4.56949E-01 +8.57699E-01 -2.46544E-01 +9.26246E-01 +2.04749E-02
 +8.85150E-01 +3.00110E-01 +7.37224E-01 +5.43977E-01 +5.06368E-01 +7.08708E-01 +2.33818E-01 +7.64785E-01
 -2.91257E-02 +7.03207E-01 -2.30851E-01 +5.38619E-01 -3.30037E-01 +3.07991E-01 -3.05157E-01 +6.46465E-02
 -1.60834E-01 -1.31747E-01 +7.06920E-02 -2.27646E-01 +3.33974E-01 -1.88224E-01 +5.60508E-01 -7.29032E-03
 +6.83129E-01 +2.88103E-01 +6.51903E-01 +6.40229E-01 +4.47934E-01 +9.70830E-01 +9.14428E-02 +1.19745E+00
 -3.58652E-01 +1.25278E+00 -8.14671E-01 +1.10261E+00 -1.17838E+00 +7.57707E-01 -1.36383E+00 +2.75846E-01
 -1.31965E+00 -2.47683E-01 -1.04496E+00 -6.99965E-01 -5.94118E-01 -9.76788E-01 -6.79662E-02 -1.00929E+00
 +4.07513E-01 -7.84040E-01 +7.10844E-01 -3.50825E-01 +7.56025E-01 +1.85131E-01 +5.16895E-01 +6.85696E-01
 +3.80525E-02 +1.01253E+00 -5.71588E-01 +1.06225E+00 -1.16218E+00 +7.95056E-01 -1.57838E+00 +2.48980E-01
 -1.69850E+00 -4.64939E-01 -1.46725E+00 -1.18648E+00 -9.13503E-01 -1.74401E+00 -1.47357E-01 -1.99713E+00
 +6.63621E-01 -1.87356E+00 +1.33390E+00 -1.39024E+00 +1.70576E+00 -6.52752E-01 +1.68977E+00 +1.67886E-01
 +1.28941E+00 +8.75809E-01 +6.02974E-01 +1.29851E+00 -1.98469E-01 +1.33053E+00 -9.11988E-01 +9.61425E-01
 -1.35271E+00 +2.80357E-01 -1.40020E+00 -5.44129E-01 -1.02941E+00 -1.30463E+00 -3.18371E-01 -1.80565E+00
