 Created: 19-Jan-2021
 $NMID
 ID='D:\BASISSIMULATI'
 FMTDAT='(8E13.5)'
 VOLUME=   1.00000E+00
 TRAMP=   1.00000E+00
 $END
 +1.21582E+01 +1.33652E-02 +1.03439E+01 +6.37128E+00 +5.47352E+00 +1.08351E+01 -1.00788E+00 +1.20876E+01
 -7.18106E+00 +9.76362E+00 -1.12209E+01 +4.55590E+00 -1.19361E+01 -1.99095E+00 -9.12040E+00 -7.93874E+00
 -3.61195E+00 -1.15295E+01 +2.95600E+00 -1.17051E+01 +8.63947E+00 -8.41887E+00 +1.17591E+01 -2.64815E+00
 +1.13964E+01 +3.89664E+00 +7.66403E+00 +9.27882E+00 +1.67107E+00 +1.19086E+01 -4.80665E+00 +1.10125E+01
 -9.85276E+00 +6.86119E+00 -1.19772E+01 +6.87354E-01 -1.05564E+01 -5.68006E+00 -6.01600E+00 -1.03577E+01
 +2.96363E-01 -1.19650E+01 +6.51117E+00 -1.00314E+01 +1.07907E+01 -5.13432E+00 +1.18724E+01 +1.27346E+00
 +9.44149E+00 +7.29459E+00 +4.22226E+00 +1.11491E+01 -2.23740E+00 +1.17004E+01 -8.02527E+00 +8.79082E+00
 -1.14308E+01 +3.28610E+00 -1.14506E+01 -3.18177E+00 -8.08409E+00 -8.69855E+00 -2.33223E+00 -1.16343E+01
 +4.10030E+00 -1.11249E+01 +9.31017E+00 -7.32633E+00 +1.17586E+01 -1.36717E+00 +1.07259E+01 +4.98694E+00
 +6.52286E+00 +9.85631E+00 +3.97458E-01 +1.18033E+01 -5.83587E+00 +1.02567E+01 -1.03336E+01 +5.67931E+00
 -1.17684E+01 -5.70372E-01 -9.72066E+00 -6.64157E+00 -4.80153E+00 -1.07392E+01 +1.52982E+00 -1.16545E+01
 +7.39882E+00 -9.12182E+00 +1.10706E+01 -3.89559E+00 +1.14627E+01 +2.47446E+00 +8.46445E+00 +8.10276E+00
 +2.96771E+00 +1.13260E+01 -3.39803E+00 +1.11948E+01 -8.74889E+00 +7.75325E+00 -1.15041E+01 +2.02424E+00
 -1.08529E+01 -4.29440E+00 -6.99326E+00 -9.33316E+00 -1.07159E+00 -1.16040E+01 +5.15768E+00 -1.04396E+01
 +9.85192E+00 -6.18981E+00 +1.16253E+01 -1.16212E-01 +9.95804E+00 +5.98222E+00 +5.34852E+00 +1.03020E+01
 -8.35455E-01 +1.15684E+01 -6.76266E+00 +9.41178E+00 -1.06807E+01 +4.47522E+00 -1.14340E+01 -1.77703E+00
 -8.80479E+00 -7.49395E+00 -3.57593E+00 -1.09857E+01 +2.70223E+00 -1.12233E+01 +8.17141E+00 -8.14145E+00
 +1.12155E+01 -2.65681E+00 +1.09381E+01 +3.60490E+00 +7.42648E+00 +8.79073E+00 +1.72416E+00 +1.13688E+01
 -4.47910E+00 +1.05807E+01 -9.34803E+00 +6.66494E+00 -1.14449E+01 +7.84292E-01 -1.01539E+01 -5.31906E+00
 -5.86215E+00 -9.83984E+00 +1.56429E-01 -1.14436E+01 +6.11930E+00 -9.66075E+00 +1.02632E+01 -5.02372E+00
 +1.13655E+01 +1.09168E+00 +9.10497E+00 +6.87463E+00 +4.15544E+00 +1.06155E+01 -2.01518E+00 +1.12112E+01
 -7.58018E+00 +8.49058E+00 -1.08948E+01 +3.26331E+00 -1.09823E+01 -2.92080E+00 -7.82198E+00 -8.23145E+00
 -2.35342E+00 -1.10995E+01 +3.80252E+00 -1.06807E+01 +8.82429E+00 -7.10392E+00 +1.12286E+01 -1.43199E+00
 +1.03086E+01 +4.65452E+00 +6.34147E+00 +9.35501E+00 +5.05259E-01 +1.12816E+01 -5.47121E+00 +9.86893E+00
 -9.82033E+00 +5.53996E+00 -1.12585E+01 -4.20513E-01 -9.36498E+00 -6.24728E+00 -4.70497E+00 -1.02174E+01
 +1.33910E+00 -1.11598E+01 +6.97768E+00 -8.80042E+00 +1.05439E+01 -3.84226E+00 +1.09865E+01 +2.24437E+00
 +8.17934E+00 +7.65773E+00 +2.95777E+00 +1.07980E+01 -3.13029E+00 +1.07401E+01 -8.28309E+00 +7.50617E+00
 -1.09783E+01 +2.05755E+00 -1.04227E+01 -3.99100E+00 -6.78570E+00 -8.84981E+00 -1.14772E+00 -1.10839E+01
 +4.82082E+00 -1.00367E+01 +9.35435E+00 -6.02298E+00 +1.11144E+01 -2.34455E-01 +9.58495E+00 +5.61432E+00
 +5.22334E+00 +9.79362E+00 -6.76095E-01 +1.10701E+01 -6.36634E+00 +9.07092E+00 -1.01650E+01 +4.39234E+00
 -1.09516E+01 -1.57782E+00 -8.49830E+00 -7.07201E+00 -3.53571E+00 -1.04662E+01 +2.46469E+00 -1.07599E+01
 +7.72680E+00 -7.87123E+00 +1.06956E+01 -2.65933E+00 +1.04968E+01 +3.33082E+00 +7.19418E+00 +8.32656E+00
 +1.76919E+00 +1.08521E+01 -4.17048E+00 +1.01644E+01 -8.86751E+00 +6.47193E+00 -1.09348E+01 +8.71333E-01
 -9.76517E+00 -4.97815E+00 -5.70955E+00 -9.34628E+00 +2.81608E-02 -1.09436E+01 +5.74854E+00 -9.30215E+00
 +9.75995E+00 -4.91237E+00 +1.08788E+01 +9.23236E-01 +8.77875E+00 +6.47666E+00 +4.08590E+00 +1.01060E+01
 -1.80790E+00 +1.07411E+01 -7.15780E+00 +8.19878E+00 -1.03826E+01 +3.23584E+00 -1.05319E+01 -2.67624E+00
 -7.56640E+00 -7.78760E+00 -2.36801E+00 -1.05879E+01 +3.52250E+00 -1.02528E+01 +8.36207E+00 -6.88611E+00
 +1.07212E+01 -1.48834E+00 +9.90604E+00 +4.34110E+00 +6.16272E+00 +8.87762E+00 +6.02800E-01 +1.07817E+01
 -5.12666E+00 +9.49433E+00 -9.33104E+00 +5.40128E+00 -1.07694E+01 -2.82632E-01 -9.02070E+00 -5.87405E+00
 -4.60711E+00 -9.71958E+00 +1.16200E+00 -1.06847E+01 +6.57842E+00 -8.48865E+00 +1.00409E+01 -3.78568E+00
 +1.05286E+01 +2.02942E+00 +7.90201E+00 +7.23525E+00 +2.94266E+00 +1.02933E+01 -2.87912E+00 +1.03025E+01
 -7.84033E+00 +7.26499E+00 -1.04752E+01 +2.08382E+00 -1.00081E+01 -3.70546E+00 -6.58211E+00 -8.38985E+00
 -1.21500E+00 -1.05858E+01 +4.50299E+00 -9.64780E+00 +8.88036E+00 -5.85818E+00 +1.06247E+01 -3.42094E-01
 +9.22432E+00 +5.26650E+00 +5.09826E+00 +9.30885E+00 -5.29008E-01 +1.05920E+01 -5.99100E+00 +8.74080E+00
 -9.67273E+00 +4.30763E+00 -1.04882E+01 -1.39246E+00 -8.20077E+00 -6.67181E+00 -3.49175E+00 -9.96986E+00
 +2.24248E+00 -1.03144E+01 +7.30456E+00 -7.60814E+00 +1.01985E+01 -2.65622E+00 +1.00720E+01 +3.07343E+00
 +6.96713E+00 +7.88520E+00 +1.80676E+00 +1.03576E+01 -3.87981E+00 +9.76305E+00 -8.41010E+00 +6.28228E+00
 -1.04462E+01 +9.49146E-01 -9.38989E+00 -4.65631E+00 -5.55841E+00 -8.87597E+00 -8.91789E-02 -1.04642E+01
 +5.39784E+00 -8.95534E+00 +9.27996E+00 -4.80056E+00 +1.04117E+01 +7.67345E-01 +8.46261E+00 +6.09959E+00
 +4.01399E+00 +9.61966E+00 -1.61468E+00 +1.02894E+01 -6.75702E+00 +7.91529E+00 -9.89306E+00 +3.20413E+00
 -1.00986E+01 -2.44718E+00 -7.31732E+00 -7.36592E+00 -2.37653E+00 -1.00987E+01 +3.25930E+00 -9.84067E+00
 +7.92243E+00 -6.67295E+00 +1.02354E+01 -1.53684E+00 +9.51782E+00 +4.04569E+00 +5.98674E+00 +8.42305E+00
 +6.90761E-01 +1.03026E+01 -4.80118E+00 +9.13249E+00 -8.86467E+00 +5.26349E+00 -1.03003E+01 -1.55985E-01
 -8.68756E+00 -5.52083E+00 -4.50825E+00 -9.24460E+00 +9.97701E-01 -1.02287E+01 +6.19997E+00 -8.18630E+00
 +9.56058E+00 -3.72625E+00 +1.00886E+01 +1.82875E+00 +7.63235E+00 +6.83422E+00 +2.92286E+00 +9.81078E+00
 -2.64360E+00 +9.88137E+00 -7.41954E+00 +7.02968E+00 -9.99384E+00 +2.10360E+00 -9.60866E+00 -3.43683E+00
 -6.38257E+00 -7.95221E+00 -1.27404E+00 -1.01088E+01 +4.20323E+00 -9.27262E+00 +8.42890E+00 -5.69558E+00
 +1.01553E+01 -4.39818E-01 +8.87581E+00 +4.93776E+00 +4.97352E+00 +8.84667E+00 -3.93442E-01 +1.01333E+01
 -5.63563E+00 +8.42117E+00 -9.20299E+00 +4.22141E+00 -1.00432E+01 -1.22014E+00 -7.91204E+00 -6.29232E+00
 -3.44445E+00 -9.49574E+00 +2.03475E+00 -9.88600E+00 +6.90361E+00 -7.35210E+00 +9.72326E+00 -2.64798E+00
 +9.66307E+00 +2.83184E+00 +6.74535E+00 +7.46561E+00 +1.83744E+00 +9.88433E+00 -3.60614E+00 +9.37621E+00
 -7.97476E+00 +6.09610E+00 -9.97817E+00 +1.01836E+00 -9.02764E+00 -4.35256E+00 -5.40890E+00 -8.42788E+00
 -1.96288E-01 -1.00045E+01 +5.06619E+00 -8.62001E+00 +8.82221E+00 -4.68856E+00 +9.96338E+00 +6.23243E-01
 +8.15633E+00 +5.74240E+00 +3.94008E+00 +9.15535E+00 -1.43473E+00 +9.85547E+00 -6.37682E+00 +7.63998E+00
 -9.42536E+00 +3.16862E+00 -9.68180E+00 -2.23275E+00 -7.07468E+00 -6.96537E+00 -2.37949E+00 -9.63072E+00
 +3.01201E+00 -9.44384E+00 +7.50432E+00 -6.46446E+00 +9.77036E+00 -1.57806E+00 +9.14349E+00 +3.76735E+00
 +5.81365E+00 +7.99027E+00 +7.69783E-01 +9.84363E+00 -4.49381E+00 +8.78307E+00 -8.42020E+00 +5.12679E+00
 -9.85037E+00 -3.98670E-02 -8.36528E+00 -5.18663E+00 -4.40870E+00 -8.79149E+00 +8.45442E-01 -9.79083E+00
 +5.84131E+00 -7.89320E+00 +9.10192E+00 -3.66433E+00 +9.66573E+00 +1.64155E+00 +7.37026E+00 +6.45364E+00
 +2.89881E+00 +9.34968E+00 -2.42287E+00 +9.47623E+00 -7.01969E+00 +6.80022E+00 -9.53340E+00 +2.11741E+00
 -9.22389E+00 -3.18422E+00 -6.18713E+00 -7.53588E+00 -1.32544E+00 -9.65215E+00 +3.92059E+00 -8.91071E+00
 +7.99896E+00 -5.53531E+00 +9.70543E+00 -5.28279E-01 +8.53908E+00 +4.62712E+00 +4.84934E+00 +8.40607E+00
 -2.68686E-01 +9.69320E+00 -5.29922E+00 +8.11178E+00 -8.75475E+00 +4.13398E+00 -9.61585E+00 -1.06010E+00
 -7.63194E+00 -5.93253E+00 -3.39419E+00 -9.04291E+00 +1.84066E+00 -9.47419E+00 +6.52296E+00 -7.10303E+00
 +9.26891E+00 -2.63505E+00 +9.26949E+00 +2.60517E+00 +6.52885E+00 +7.06676E+00 +1.86176E+00 +9.43151E+00
 -3.34858E+00 +9.00342E+00 -7.56047E+00 +5.91346E+00 -9.52993E+00 +1.07958E+00 -8.67806E+00 -4.06597E+00
 -5.26119E+00 -8.00103E+00 -2.93824E-01 -9.56380E+00 +4.75264E+00 -8.29586E+00 +8.38571E+00 -4.57662E+00
 +9.53320E+00 +4.90216E-01 +7.85968E+00 +5.40413E+00 +3.86448E+00 +8.71219E+00 -1.26727E+00 +9.43864E+00
 -6.01621E+00 +7.37270E+00 -8.97854E+00 +3.12971E+00 -9.28105E+00 -2.03215E+00 -6.83843E+00 -6.58496E+00
 -2.37735E+00 -9.18327E+00 +2.77978E+00 -9.06178E+00 +7.10675E+00 -6.26068E+00 +9.32529E+00 -1.61253E+00
 +8.78262E+00 +3.50519E+00 +5.64355E+00 +7.57830E+00 +8.40471E-01 +9.40393E+00 -4.20362E+00 +8.44570E+00
 -7.99668E+00 +4.99137E+00 -9.41896E+00 +6.63871E-02 -8.05358E+00 -4.87050E+00 -4.30869E+00 -8.35931E+00
 +7.04504E-01 -9.37058E+00 +5.50149E+00 -7.60914E+00 +8.66402E+00 -3.60025E+00 +9.25941E+00 +1.46703E+00
 +7.11562E+00 +6.09252E+00 +2.87093E+00 +8.90904E+00 -2.21611E+00 +9.08650E+00 -6.63981E+00 +6.57658E+00
 -9.09300E+00 +2.12573E+00 -8.85330E+00 -2.94677E+00 -5.99584E+00 -7.13987E+00 -1.36974E+00 -9.21494E+00
 +3.65417E+00 -8.56167E+00 +7.58956E+00 -5.37751E+00 +9.27435E+00 -6.08088E-01 +8.21383E+00 +4.33368E+00
 +4.72593E+00 +7.98611E+00 -1.54068E-01 +9.27111E+00 -4.98085E+00 +7.81239E+00 -8.32709E+00 +4.04563E+00
 -9.20554E+00 -9.11606E-01 -7.36030E+00 -5.59148E+00 -3.34133E+00 -8.61046E+00 +1.65945E+00 -9.07838E+00
 +6.16164E+00 -6.86085E+00 +8.83461E+00 -2.61787E+00 +8.89076E+00 +2.39262E+00 +6.31760E+00 +6.68769E+00
 +1.88020E+00 +8.99829E+00 -3.10626E+00 +8.64424E+00 -7.16629E+00 +5.73443E+00 -9.10069E+00 +1.13336E+00
 -8.34075E+00 -3.79565E+00 -5.11543E+00 -7.59445E+00 -3.82409E-01 -9.14141E+00 +4.45627E+00 -7.98260E+00
 +7.96953E+00 -4.46495E+00 +9.12047E+00 +3.67583E-01 +7.57246E+00 +5.08383E+00 +3.78750E+00 +8.28925E+00
 -1.11158E+00 +9.03830E+00 -5.67424E+00 +7.11331E+00 -8.55173E+00 +3.08776E+00 -8.89573E+00 -1.84460E+00
 -6.60850E+00 -6.22373E+00 -2.37055E+00 -8.75546E+00 +2.56177E+00 -8.69401E+00 +6.72878E+00 -6.06162E+00
