 Created: 19-Jan-2021
 $NMID
 ID='D:\BASISSIMULATI'
 FMTDAT='(8E13.5)'
 VOLUME=   1.00000E+00
 TRAMP=   1.00000E+00
 $END
 +1.50472E+01 +1.65153E-02 +1.27589E+01 +7.53342E+00 +6.69095E+00 +1.23495E+01 -8.31472E-01 +1.27919E+01
 -6.95619E+00 +8.89645E+00 -9.42404E+00 +2.38090E+00 -7.44967E+00 -4.04301E+00 -2.01839E+00 -7.74392E+00
 +4.51525E+00 -7.20800E+00 +9.36575E+00 -2.63091E+00 +1.04203E+01 +4.16624E+00 +7.07285E+00 +1.04608E+01
 +4.61832E-01 +1.37046E+01 -6.97967E+00 +1.25274E+01 -1.24809E+01 +7.27357E+00 -1.40192E+01 -1.36875E-01
 -1.11079E+01 -6.96542E+00 -4.97640E+00 -1.07293E+01 +1.92261E+00 -1.01694E+01 +6.88418E+00 -5.73242E+00
 +8.01442E+00 +6.20103E-01 +4.96854E+00 +6.19686E+00 -9.24959E-01 +8.64372E+00 -7.19923E+00 +6.87190E+00
 -1.12292E+01 +1.48289E+00 -1.12689E+01 -5.47398E+00 -7.13818E+00 -1.13125E+01 -2.90488E-01 -1.37671E+01
 +6.76157E+00 -1.18802E+01 +1.14333E+01 -6.37155E+00 +1.20779E+01 +6.52695E-01 +8.62226E+00 +6.53258E+00
 +2.58144E+00 +9.09871E+00 -3.54999E+00 +7.51670E+00 -7.28684E+00 +2.60139E+00 -7.13112E+00 -3.51912E+00
 -3.15492E+00 -8.25329E+00 +3.03818E+00 -9.57252E+00 +8.95390E+00 -6.80957E+00 +1.21945E+01 -9.16679E-01
 +1.14025E+01 +5.91434E+00 +6.78991E+00 +1.11169E+01 +4.89514E-02 +1.27562E+01 -6.31808E+00 +1.02821E+01
 -9.98145E+00 +4.73320E+00 -9.69189E+00 -1.68245E+00 -5.75790E+00 -6.46253E+00 +9.19318E-02 -7.79342E+00
 +5.40265E+00 -5.25491E+00 +7.96614E+00 +2.81760E-02 +6.68958E+00 +5.84258E+00 +2.01877E+00 +9.76758E+00
 -4.24643E+00 +1.01310E+01 -9.66750E+00 +6.66436E+00 -1.21286E+01 +6.02075E-01 -1.06644E+01 -5.80981E+00
 -5.83109E+00 -1.01982E+01 +5.22335E-01 -1.09906E+01 +5.98704E+00 -8.02155E+00 +8.54058E+00 -2.58242E+00
 +7.33301E+00 +3.09971E+00 +3.00611E+00 +6.74555E+00 -2.57558E+00 +6.91894E+00 -7.07115E+00 +3.58314E+00
 -8.58993E+00 -1.89765E+00 -6.43318E+00 -7.30687E+00 -1.36138E+00 -1.04544E+01 +4.71368E+00 -1.00379E+01
 +9.48599E+00 -6.14813E+00 +1.11608E+01 -2.24823E-01 +9.15200E+00 +5.51675E+00 +4.29965E+00 +8.95715E+00
 -1.47270E+00 +8.89859E+00 -5.92177E+00 +5.52159E+00 -7.36544E+00 +2.97135E-01 -5.33461E+00 -4.60591E+00
 -7.42492E-01 -7.18063E+00 +4.49005E+00 -6.36939E+00 +8.20065E+00 -2.47059E+00 +8.83877E+00 +2.99080E+00
 +6.07064E+00 +7.87277E+00 +9.01124E-01 +1.02619E+01 -4.73031E+00 +9.22131E+00 -8.71588E+00 +5.14884E+00
 -9.60384E+00 -3.91179E-01 -7.15753E+00 -5.29074E+00 -2.43275E+00 -7.72689E+00 +2.65140E+00 -6.86946E+00
 +6.07461E+00 -3.19191E+00 +6.50792E+00 +1.73198E+00 +3.82601E+00 +5.86007E+00 -8.58351E-01 +7.48991E+00
 -5.64552E+00 +5.92416E+00 -8.60366E+00 +1.73450E+00 -8.52749E+00 -3.47491E+00 -5.40396E+00 -7.70585E+00
 -4.05836E-01 -9.35154E+00 +4.57866E+00 -7.82007E+00 +7.69059E+00 -3.75342E+00 +7.82443E+00 +1.23855E+00
 +5.04853E+00 +5.21922E+00 +5.61105E-01 +6.68567E+00 -3.79508E+00 +5.14941E+00 -6.26360E+00 +1.31239E+00
 -5.86167E+00 -3.22530E+00 -2.75528E+00 -6.60550E+00 +1.82042E+00 -7.44454E+00 +6.05840E+00 -5.37054E+00
 +8.29439E+00 -1.15766E+00 +7.65650E+00 +3.58991E+00 +4.39640E+00 +7.07434E+00 -2.23115E-01 +8.00783E+00
 -4.43402E+00 +6.10732E+00 -6.65920E+00 +2.18978E+00 -6.12383E+00 -2.16349E+00 -3.14438E+00 -5.23615E+00
 +1.01326E+00 -5.84925E+00 +4.64441E+00 -3.81342E+00 +6.28001E+00 +1.28071E-02 +5.25860E+00 +4.07527E+00
 +1.97378E+00 +6.74317E+00 -2.29452E+00 +6.94871E+00 -5.89278E+00 +4.59703E+00 -7.44476E+00 +5.89888E-01
 -6.38424E+00 -3.54033E+00 -3.16326E+00 -6.23696E+00 +9.40323E-01 -6.52526E+00 +4.33418E+00 -4.38170E+00
 +5.73700E+00 -7.25982E-01 +4.67197E+00 +2.95471E+00 +1.63767E+00 +5.19635E+00 -2.10453E+00 +5.12938E+00
 -5.03721E+00 +2.80780E+00 -5.98462E+00 -8.27908E-01 -4.56663E+00 -4.33341E+00 -1.33413E+00 -6.33304E+00
 +2.46118E+00 -6.05550E+00 +5.36627E+00 -3.62442E+00 +6.29578E+00 +5.21202E-03 +4.94740E+00 +3.43339E+00
 +1.90444E+00 +5.36755E+00 -1.60841E+00 +5.12269E+00 -4.21434E+00 +2.87508E+00 -4.92320E+00 -4.24379E-01
 -3.50883E+00 -3.43677E+00 -5.81197E-01 -4.96511E+00 +2.66872E+00 -4.41814E+00 +4.94514E+00 -2.02866E+00
 +5.35477E+00 +1.25353E+00 +3.74690E+00 +4.14582E+00 +7.57386E-01 +5.53850E+00 -2.45434E+00 +4.92265E+00
 -4.66635E+00 +2.57527E+00 -5.06963E+00 -5.65159E-01 -3.57248E+00 -3.27742E+00 -8.19393E-01 -4.53765E+00
 +2.07649E+00 -3.91176E+00 +3.97679E+00 -1.70953E+00 +4.16058E+00 +1.15389E+00 +2.59434E+00 +3.52832E+00
 -7.16907E-02 +4.48135E+00 -2.77262E+00 +3.65549E+00 -4.45253E+00 +1.39338E+00 -4.47413E+00 -1.41195E+00
 -2.85587E+00 -3.67666E+00 -2.48628E-01 -4.55067E+00 +2.33214E+00 -3.74074E+00 +3.90862E+00 -1.60932E+00
 +3.91755E+00 +9.83208E-01 +2.41642E+00 +3.02482E+00 +4.36439E-02 +3.74737E+00 -2.24506E+00 +2.91654E+00
 -3.55554E+00 +9.06942E-01 -3.39939E+00 -1.46060E+00 -1.87102E+00 -3.24966E+00 +4.05855E-01 -3.77384E+00
 +2.53489E+00 -2.85474E+00 +3.70136E+00 -8.75880E-01 +3.48408E+00 +1.38217E+00 +2.00570E+00 +3.05480E+00
 -1.31606E-01 +3.52891E+00 -2.09333E+00 +2.67068E+00 -3.14119E+00 +8.61120E-01 -2.91365E+00 -1.16794E+00
 -1.55175E+00 -2.62731E+00 +3.72907E-01 -2.97579E+00 +2.09331E+00 -2.11920E+00 +2.94880E+00 -4.30404E-01
 +2.63497E+00 +1.41107E+00 +1.30735E+00 +2.69118E+00 -4.95446E-01 +2.93650E+00 -2.07259E+00 +2.08655E+00
 -2.83550E+00 +5.00899E-01 -2.52833E+00 -1.19478E+00 -1.31215E+00 -2.35835E+00 +3.13805E-01 -2.57672E+00
 +1.71678E+00 -1.81336E+00 +2.37713E+00 -4.05740E-01 +2.08089E+00 +1.07986E+00 +9.87020E-01 +2.07403E+00
 -4.50368E-01 +2.22060E+00 -1.66840E+00 +1.50162E+00 -2.21401E+00 +2.27788E-01 -1.91003E+00 -1.09541E+00
 -9.08207E-01 -1.96848E+00 +3.84889E-01 -2.08603E+00 +1.47439E+00 -1.44152E+00 +1.96778E+00 -3.13571E-01
 +1.71634E+00 +8.54389E-01 +8.56802E-01 +1.62937E+00 -2.56563E-01 +1.74978E+00 -1.19704E+00 +1.21242E+00
 -1.62852E+00 +2.57456E-01 -1.42419E+00 -7.36209E-01 -6.99564E-01 -1.40015E+00 +2.46600E-01 -1.51142E+00
 +1.05475E+00 -1.06426E+00 +1.44044E+00 -2.56593E-01 +1.29235E+00 +5.97105E-01 +6.99494E-01 +1.18865E+00
 -9.66645E-02 +1.32676E+00 -8.01072E-01 +9.96122E-01 -1.17465E+00 +3.48055E-01 -1.11393E+00 -3.67426E-01
 -6.75157E-01 -8.98156E-01 -3.99284E-02 -1.07768E+00 +5.59367E-01 -8.74328E-01 +9.23672E-01 -3.88698E-01
 +9.50839E-01 +1.93614E-01 +6.59439E-01 +6.72402E-01 +1.69914E-01 +8.99780E-01 -3.44990E-01 +8.22005E-01
 -7.20183E-01 +4.86236E-01 -8.48186E-01 +1.52326E-02 -7.05381E-01 -4.37397E-01 -3.50556E-01 -7.35219E-01
 +9.94378E-02 -7.96281E-01 +5.06871E-01 -6.11498E-01 +7.52016E-01 -2.42336E-01 +7.64463E-01 +1.98978E-01
 +5.40769E-01 +5.80694E-01 +1.45441E-01 +7.87048E-01 -3.05037E-01 +7.50502E-01 -6.72584E-01 +4.73267E-01
 -8.36490E-01 +3.15802E-02 -7.31681E-01 -4.41023E-01 -3.74850E-01 -7.90135E-01 +1.32086E-01 -8.88648E-01
 +6.26542E-01 -6.82672E-01 +9.34344E-01 -2.18726E-01 +9.29884E-01 +3.60866E-01 +5.86990E-01 +8.58005E-01
 -1.04037E-04 +1.08480E+00 -6.38153E-01 +9.34226E-01 -1.09643E+00 +4.28989E-01 -1.18986E+00 -2.73454E-01
 -8.54061E-01 -9.27093E-01 -1.81726E-01 -1.28288E+00 +5.98232E-01 -1.18430E+00 +1.19690E+00 -6.36310E-01
 +1.37231E+00 +1.82524E-01 +1.02774E+00 +9.74939E-01 +2.61359E-01 +1.43156E+00 -6.56876E-01 +1.35121E+00
 -1.37816E+00 +7.28228E-01 -1.60624E+00 -2.30860E-01 -1.21794E+00 -1.17349E+00 -3.23755E-01 -1.73000E+00
 +7.60131E-01 -1.65840E+00 +1.62337E+00 -9.48248E-01 +1.91775E+00 +1.60730E-01 +1.49873E+00 +1.25834E+00
 +4.94512E-01 +1.91630E+00 -7.29275E-01 +1.85689E+00 -1.70148E+00 +1.07134E+00 -2.02673E+00 -1.62289E-01
 -1.54642E+00 -1.37454E+00 -4.13817E-01 -2.08131E+00 +9.51253E-01 -1.97552E+00 +2.01623E+00 -1.05790E+00
 +2.34211E+00 +3.48557E-01 +1.76231E+00 +1.71187E+00 +4.61262E-01 +2.49288E+00 -1.08328E+00 +2.35908E+00
 -2.27734E+00 +1.32551E+00 -2.64168E+00 -2.36694E-01 -2.00680E+00 -1.73333E+00 -5.92438E-01 -2.57436E+00
 +1.06482E+00 -2.40859E+00 +2.31299E+00 -1.27232E+00 +2.63979E+00 +4.10710E-01 +1.88169E+00 +1.98381E+00
 +3.01600E-01 +2.81030E+00 -1.50047E+00 +2.52765E+00 -2.81426E+00 +1.20137E+00 -3.09787E+00 -6.86154E-01
 -2.19880E+00 -2.41327E+00 -4.27406E-01 -3.29776E+00 +1.55155E+00 -2.96894E+00 +2.97175E+00 -1.52442E+00
 +3.26641E+00 +4.94541E-01 +2.29924E+00 +2.30500E+00 +4.30840E-01 +3.18647E+00 -1.61056E+00 +2.76908E+00
 -3.00848E+00 +1.19054E+00 -3.18063E+00 -9.44485E-01 -2.01717E+00 -2.79194E+00 +6.24574E-02 -3.59759E+00
 +2.26169E+00 -2.99940E+00 +3.71308E+00 -1.18209E+00 +3.82087E+00 +1.18167E+00 +2.50431E+00 +3.18548E+00
 +2.42598E-01 +4.04279E+00 -2.10168E+00 +3.40162E+00 -3.61558E+00 +1.49418E+00 -3.69684E+00 -9.42062E-01
 -2.29980E+00 -2.94589E+00 +3.42275E-02 -3.70926E+00 +2.37921E+00 -2.90194E+00 +3.78413E+00 -8.13397E-01
 +3.65071E+00 +1.74841E+00 +1.97922E+00 +3.76660E+00 -6.18154E-01 +4.41468E+00 -3.14670E+00 +3.38892E+00
 -4.61540E+00 +1.04007E+00 -4.42962E+00 -1.75187E+00 -2.63454E+00 -3.91554E+00 +9.05157E-02 -4.60870E+00
 +2.68946E+00 -3.55596E+00 +4.14121E+00 -1.16798E+00 +3.86530E+00 +1.60945E+00 +1.95998E+00 +3.66145E+00
 -8.24729E-01 +4.14410E+00 -3.37340E+00 +2.82472E+00 -4.64178E+00 +1.85800E-01 -4.07308E+00 -2.75330E+00
 -1.82822E+00 -4.83087E+00 +1.26463E+00 -5.20084E+00 +4.02603E+00 -3.67362E+00 +5.38586E+00 -8.02404E-01
 +4.80832E+00 +2.32350E+00 +2.51192E+00 +4.50114E+00 -6.05951E-01 +4.88811E+00 -3.31474E+00 +3.34111E+00
 -4.53383E+00 +4.82477E-01 -3.76346E+00 -2.53596E+00 -1.29163E+00 -4.48267E+00 +1.90838E+00 -4.53452E+00
 +4.55393E+00 -2.61032E+00 +5.55739E+00 +5.85029E-01 +4.46067E+00 +3.82740E+00 +1.62664E+00 +5.85006E+00
 -1.89189E+00 +5.84415E+00 -4.75833E+00 +3.78476E+00 -5.87640E+00 +4.51220E-01 -4.82601E+00 -2.87086E+00
 -2.03707E+00 -4.89180E+00 +1.37120E+00 -4.82805E+00 +4.02602E+00 -2.71820E+00 +4.84270E+00 +5.82923E-01
 +3.45887E+00 +3.73375E+00 +3.87736E-01 +5.43270E+00 -3.17386E+00 +4.93562E+00 -5.81075E+00 +2.35891E+00
 -6.44718E+00 -1.35450E+00 -4.77704E+00 -4.79693E+00 -1.39471E+00 -6.64607E+00 +2.42884E+00 -6.18776E+00
 +5.24017E+00 -3.60423E+00 +5.97497E+00 +8.92263E-02 +4.38188E+00 +3.43769E+00 +1.12884E+00 +5.11818E+00
 -2.45340E+00 +4.46484E+00 -4.89286E+00 +1.73916E+00 -5.15939E+00 -1.96431E+00 -3.07873E+00 -5.14343E+00
