 Created: 19-Jan-2021
 $NMID
 ID='D:\BASISSIMULATI'
 FMTDAT='(8E13.5)'
 VOLUME=   1.00000E+00
 TRAMP=   1.00000E+00
 $END
 +1.54928E+01 +1.49595E-02 +1.53005E+01 +2.04260E+00 +1.47849E+01 +4.00606E+00 +1.39630E+01 +5.85116E+00
 +1.28604E+01 +7.52760E+00 +1.15114E+01 +8.99055E+00 +9.95751E+00 +1.02020E+01 +8.24589E+00 +1.11321E+01
 +6.42818E+00 +1.17597E+01 +4.55863E+00 +1.20731E+01 +2.69242E+00 +1.20706E+01 +8.83863E-01 +1.17600E+01
 -8.15269E-01 +1.11586E+01 -2.35738E+00 +1.02924E+01 -3.70053E+00 +9.19515E+00 -4.80966E+00 +7.90736E+00
 -5.65768E+00 +6.47464E+00 -6.22619E+00 +4.94637E+00 -6.50597E+00 +3.37401E+00 -6.49713E+00 +1.80939E+00
 -6.20895E+00 +3.03046E-01 -5.65948E+00 -1.09738E+00 -4.87476E+00 -2.34868E+00 -3.88790E+00 -3.41336E+00
 -2.73779E+00 -4.26083E+00 -1.46782E+00 -4.86824E+00 -1.24288E-01 -5.22110E+00 +1.24512E+00 -5.31363E+00
 +2.59298E+00 -5.14875E+00 +3.87366E+00 -4.73788E+00 +5.04487E+00 -4.10031E+00 +6.06894E+00 -3.26249E+00
 +6.91407E+00 -2.25691E+00 +7.55522E+00 -1.12098E+00 +7.97489E+00 +1.04427E-01 +8.16351E+00 +1.37639E+00
 +8.11963E+00 +2.65146E+00 +7.84983E+00 +3.88717E+00 +7.36827E+00 +5.04346E+00 +6.69611E+00 +6.08405E+00
 +5.86059E+00 +6.97761E+00 +4.89396E+00 +7.69877E+00 +3.83228E+00 +8.22886E+00 +2.71401E+00 +8.55648E+00
 +1.57865E+00 +8.67775E+00 +4.65311E-01 +8.59629E+00 -5.88728E-01 +8.32298E+00 -1.54928E+00 +7.87541E+00
 -2.38645E+00 +7.27716E+00 -3.07565E+00 +6.55679E+00 -3.59842E+00 +5.74677E+00 -3.94298E+00 +4.88220E+00
 -4.10459E+00 +3.99949E+00 -4.08564E+00 +3.13501E+00 -3.89541E+00 +2.32370E+00 -3.54974E+00 +1.59785E+00
 -3.07026E+00 +9.85872E-01 -2.48363E+00 +5.11316E-01 -1.82040E+00 +1.92006E-01 -1.11394E+00 +3.94272E-02
 -3.99071E-01 +5.83282E-02 +2.89174E-01 +2.46582E-01 +9.16901E-01 +5.95290E-01 +1.45262E+00 +1.08913E+00
 +1.86840E+00 +1.70696E+00 +2.14095E+00 +2.42258E+00 +2.25246E+00 +3.20572E+00 +2.19128E+00 +4.02317E+00
 +1.95238E+00 +4.84000E+00 +1.53757E+00 +5.62085E+00 +9.55408E-01 +6.33122E+00 +2.21008E-01 +6.93875E+00
 -6.44541E-01 +7.41443E+00 -1.61488E+00 +7.73365E+00 -2.65928E+00 +7.87715E+00 -3.74377E+00 +7.83176E+00
 -4.83227E+00 +7.59091E+00 -5.88789E+00 +7.15490E+00 -6.87425E+00 +6.53100E+00 -7.75674E+00 +5.73321E+00
 -8.50376E+00 +4.78186E+00 -9.08789E+00 +3.70292E+00 -9.48684E+00 +2.52717E+00 -9.68428E+00 +1.28920E+00
 -9.67046E+00 +2.61863E-02 -9.44261E+00 -1.22331E+00 -9.00507E+00 -2.42065E+00 -8.36923E+00 -3.52848E+00
 -7.55317E+00 -4.51193E+00 -6.58112E+00 -5.33989E+00 -5.48270E+00 -5.98601E+00 -4.29194E+00 -6.42967E+00
 -3.04617E+00 -6.65667E+00 -1.78485E+00 -6.65976E+00 -5.48212E-01 -6.43889E+00 +6.24016E-01 -6.00130E+00
 +1.69394E+00 -5.36127E+00 +2.62676E+00 -4.53969E+00 +3.39187E+00 -3.56343E+00 +3.96395E+00 -2.46446E+00
 +4.32373E+00 -1.27882E+00 +4.45867E+00 -4.54817E-02 +4.36336E+00 +1.19491E+00 +4.03972E+00 +2.40136E+00
 +3.49694E+00 +3.53382E+00 +2.75117E+00 +4.55452E+00 +1.82503E+00 +5.42911E+00 +7.46869E-01 +6.12782E+00
 -4.50159E-01 +6.62636E+00 -1.72914E+00 +6.90672E+00 -3.05058E+00 +6.95769E+00 -4.37370E+00 +6.77522E+00
 -5.65770E+00 +6.36255E+00 -6.86304E+00 +5.73000E+00 -7.95272E+00 +4.89471E+00 -8.89344E+00 +3.87997E+00
 -9.65656E+00 +2.71453E+00 -1.02191E+01 +1.43159E+00 -1.05642E+01 +6.77691E-02 -1.06818E+01 -1.33808E+00
 -1.05691E+01 -2.74613E+00 -1.02298E+01 -4.11681E+00 -9.67501E+00 -5.41208E+00 -8.92186E+00 -6.59659E+00
 -7.99349E+00 -7.63875E+00 -6.91801E+00 -8.51172E+00 -5.72762E+00 -9.19414E+00 -4.45752E+00 -9.67078E+00
 -3.14478E+00 -9.93292E+00 -1.82715E+00 -9.97852E+00 -5.41813E-01 -9.81221E+00 +6.75712E-01 -9.44501E+00
 +1.79273E+00 -8.89393E+00 +2.78031E+00 -8.18128E+00 +3.61420E+00 -7.33390E+00 +4.27545E+00 -6.38221E+00
 +4.75098E+00 -5.35919E+00 +5.03385E+00 -4.29927E+00 +5.12339E+00 -3.23721E+00 +5.02507E+00 -2.20695E+00
 +4.75027E+00 -1.24057E+00 +4.31571E+00 -3.67234E-01 +3.74284E+00 +3.87627E-01 +3.05706E+00 +1.00312E+00
 +2.28679E+00 +1.46344E+00 +1.46246E+00 +1.75831E+00 +6.15511E-01 +1.88318E+00 -2.22709E-01 +1.83925E+00
 -1.02194E+00 +1.63332E+00 -1.75400E+00 +1.27743E+00 -2.39368E+00 +7.88359E-01 -2.91953E+00 +1.86945E-01
 -3.31444E+00 -5.02690E-01 -3.56620E+00 -1.25402E+00 -3.66772E+00 -2.03908E+00 -3.61720E+00 -2.82939E+00
 -3.41807E+00 -3.59699E+00 -3.07875E+00 -4.31534E+00 -2.61225E+00 -4.96018E+00 -2.03563E+00 -5.51035E+00
 -1.36934E+00 -5.94839E+00 -6.36438E-01 -6.26110E+00 +1.38277E-01 -6.43988E+00 +9.29127E-01 -6.48093E+00
 +1.71047E+00 -6.38526E+00 +2.45760E+00 -6.15860E+00 +3.14755E+00 -5.81104E+00 +3.75988E+00 -5.35665E+00
 +4.27735E+00 -4.81285E+00 +4.68642E+00 -4.19976E+00 +4.97766E+00 -3.53945E+00 +5.14600E+00 -2.85510E+00
 +5.19084E+00 -2.17021E+00 +5.11596E+00 -1.50768E+00 +4.92931E+00 -8.89119E-01 +4.64263E+00 -3.34022E-01
 +4.27102E+00 +1.40841E-01 +3.83228E+00 +5.21986E-01 +3.34626E+00 +7.99629E-01 +2.83413E+00 +9.67978E-01
 +2.31755E+00 +1.02537E+00 +1.81797E+00 +9.74254E-01 +1.35577E+00 +8.21065E-01 +9.49656E-01 +5.75906E-01
 +6.15909E-01 +2.52146E-01 +3.67909E-01 -1.34102E-01 +2.15664E-01 -5.64604E-01 +1.65507E-01 -1.01967E+00
 +2.19907E-01 -1.47890E+00 +3.77435E-01 -1.92189E+00 +6.32853E-01 -2.32898E+00 +9.77348E-01 -2.68194E+00
 +1.39888E+00 -2.96460E+00 +1.88263E+00 -3.16341E+00 +2.41158E+00 -3.26789E+00 +2.96711E+00 -3.27095E+00
 +3.52967E+00 -3.16916E+00 +4.07950E+00 -2.96277E+00 +4.59727E+00 -2.65573E+00 +5.06481E+00 -2.25547E+00
 +5.46571E+00 -1.77264E+00 +5.78584E+00 -1.22071E+00 +6.01386E+00 -6.15468E-01 +6.14160E+00 +2.55391E-02
 +6.16423E+00 +6.83624E-01 +6.08049E+00 +1.33961E+00 +5.89263E+00 +1.97449E+00 +5.60635E+00 +2.57007E+00
 +5.23052E+00 +3.10958E+00 +4.77688E+00 +3.57824E+00 +4.25962E+00 +3.96371E+00 +3.69483E+00 +4.25649E+00
 +3.09998E+00 +4.45023E+00 +2.49331E+00 +4.54187E+00 +1.89318E+00 +4.53172E+00 +1.31750E+00 +4.42340E+00
 +7.83108E-01 +4.22368E+00 +3.05216E-01 +3.94222E+00 -1.03043E-01 +3.59117E+00 -4.31042E-01 +3.18480E+00
 -6.70970E-01 +2.73891E+00 -8.18048E-01 +2.27036E+00 -8.70642E-01 +1.79645E+00 -8.30262E-01 +1.33436E+00
 -7.01468E-01 +9.00572E-01 -4.91665E-01 +5.10362E-01 -2.10812E-01 +1.77293E-01 +1.28946E-01 -8.71851E-02
 +5.13719E-01 -2.74080E-01 +9.28351E-01 -3.77104E-01 +1.35694E+00 -3.92832E-01 +1.78338E+00 -3.20762E-01
 +2.19187E+00 -1.63270E-01 +2.56743E+00 +7.45155E-02 +2.89637E+00 +3.84937E-01 +3.16671E+00 +7.58103E-01
 +3.36853E+00 +1.18226E+00 +3.49422E+00 +1.64418E+00 +3.53872E+00 +2.12968E+00 +3.49959E+00 +2.62401E+00
 +3.37705E+00 +3.11240E+00 +3.17389E+00 +3.58049E+00 +2.89536E+00 +4.01483E+00 +2.54890E+00 +4.40320E+00
 +2.14388E+00 +4.73503E+00 +1.69125E+00 +5.00167E+00 +1.20316E+00 +5.19661E+00 +6.92557E-01 +5.31562E+00
 +1.72732E-01 +5.35683E+00 -3.43071E-01 +5.32071E+00 -8.42076E-01 +5.21001E+00 -1.31235E+00 +5.02957E+00
 -1.74316E+00 +4.78617E+00 -2.12524E+00 +4.48818E+00 -2.45105E+00 +4.14532E+00 -2.71493E+00 +3.76831E+00
 -2.91324E+00 +3.36847E+00 -3.04435E+00 +2.95741E+00 -3.10870E+00 +2.54662E+00 -3.10861E+00 +2.14716E+00
 -3.04824E+00 +1.76934E+00 -2.93335E+00 +1.42242E+00 -2.77104E+00 +1.11439E+00 -2.56957E+00 +8.51763E-01
 -2.33798E+00 +6.39458E-01 -2.08585E+00 +4.80705E-01 -1.82297E+00 +3.77020E-01 -1.55907E+00 +3.28228E-01
 -1.30349E+00 +3.32537E-01 -1.06497E+00 +3.86661E-01 -8.51421E-01 +4.85971E-01 -6.69696E-01 +6.24691E-01
 -5.25474E-01 +7.96106E-01 -4.23135E-01 +9.92794E-01 -3.65694E-01 +1.20687E+00 -3.54782E-01 +1.43021E+00
 -3.90654E-01 +1.65471E+00 -4.72247E-01 +1.87250E+00 -5.97267E-01 +2.07610E+00 -7.62303E-01 +2.25869E+00
 -9.62967E-01 +2.41418E+00 -1.19405E+00 +2.53738E+00 -1.44970E+00 +2.62408E+00 -1.72358E+00 +2.67111E+00
 -2.00907E+00 +2.67638E+00 -2.29943E+00 +2.63888E+00 -2.58795E+00 +2.55865E+00 -2.86814E+00 +2.43675E+00
 -3.13385E+00 +2.27517E+00 -3.37940E+00 +2.07677E+00 -3.59967E+00 +1.84517E+00 -3.79023E+00 +1.58465E+00
 -3.94736E+00 +1.30000E+00 -4.06814E+00 +9.96452E-01 -4.15046E+00 +6.79527E-01 -4.19305E+00 +3.54920E-01
 -4.19547E+00 +2.83877E-02 -4.15810E+00 -2.94368E-01 -4.08211E+00 -6.07806E-01 -3.96943E+00 -9.06644E-01
 -3.82271E+00 -1.18596E+00 -3.64523E+00 -1.44126E+00 -3.44087E+00 -1.66860E+00 -3.21401E+00 -1.86459E+00
 -2.96947E+00 -2.02652E+00 -2.71239E+00 -2.15236E+00 -2.44818E+00 -2.24086E+00 -2.18238E+00 -2.29153E+00
 -1.92059E+00 -2.30467E+00 -1.66832E+00 -2.28142E+00 -1.43091E+00 -2.22371E+00 -1.21340E+00 -2.13424E+00
 -1.02042E+00 -2.01648E+00 -8.56089E-01 -1.87459E+00 -7.23882E-01 -1.71335E+00 -6.26552E-01 -1.53808E+00
 -5.66031E-01 -1.35455E+00 -5.43358E-01 -1.16884E+00 -5.58614E-01 -9.87184E-01 -6.10890E-01 -8.15889E-01
 -6.98262E-01 -6.61115E-01 -8.17805E-01 -5.28740E-01 -9.65625E-01 -4.24192E-01 -1.13692E+00 -3.52282E-01
 -1.32609E+00 -3.17053E-01 -1.52680E+00 -3.21632E-01 -1.73221E+00 -3.68111E-01 -1.93507E+00 -4.57438E-01
 -2.12795E+00 -5.89348E-01 -2.30342E+00 -7.62316E-01 -2.45428E+00 -9.73549E-01 -2.57379E+00 -1.21901E+00
 -2.65586E+00 -1.49351E+00 -2.69526E+00 -1.79077E+00 -2.68784E+00 -2.10360E+00 -2.63067E+00 -2.42408E+00
 -2.52216E+00 -2.74374E+00 -2.36223E+00 -3.05384E+00 -2.15226E+00 -3.34557E+00 -1.89522E+00 -3.61038E+00
 -1.59553E+00 -3.84019E+00 -1.25906E+00 -4.02772E+00 -8.92934E-01 -4.16667E+00 -5.05393E-01 -4.25203E+00
 -1.05554E-01 -4.28020E+00 +2.96841E-01 -4.24922E+00 +6.91714E-01 -4.15883E+00 +1.06896E+00 -4.01054E+00
 +1.41875E+00 -3.80767E+00 +1.73190E+00 -3.55525E+00 +2.00010E+00 -3.25993E+00 +2.21629E+00 -2.92984E+00
 +2.37485E+00 -2.57429E+00 +2.47189E+00 -2.20360E+00 +2.50533E+00 -1.82872E+00 +2.47511E+00 -1.46092E+00
 +2.38316E+00 -1.11142E+00 +2.23343E+00 -7.91042E-01 +2.03181E+00 -5.09831E-01 +1.78594E+00 -2.76710E-01
 +1.50505E+00 -9.91676E-02 +1.19966E+00 +1.70286E-02 +8.81273E-01 +6.80536E-02 +5.62009E-01 +5.21966E-02
 +2.54218E-01 -3.00381E-02 -2.99262E-02 -1.75901E-01 -2.78831E-01 -3.80445E-01 -4.81889E-01 -6.36639E-01
 -6.29848E-01 -9.35571E-01 -7.15148E-01 -1.26670E+00 -7.32211E-01 -1.61817E+00 -6.77660E-01 -1.97720E+00
 -5.50482E-01 -2.33049E+00 -3.52102E-01 -2.66464E+00 -8.63823E-02 -2.96662E+00 +2.40461E-01 -3.22418E+00
