 Created: 19-Jan-2021
 $NMID
 ID='D:\BASISSIMULATI'
 FMTDAT='(8E13.5)'
 VOLUME=   1.00000E+00
 TRAMP=   1.00000E+00
 $END
 +9.55434E+00 +9.71084E-03 +9.02566E+00 +2.72905E+00 +7.64928E+00 +5.08036E+00 +5.62204E+00 +6.79522E+00
 +3.22235E+00 +7.69887E+00 +7.68866E-01 +7.73259E+00 -1.42576E+00 +6.95898E+00 -3.09929E+00 +5.54955E+00
 -4.07594E+00 +3.75676E+00 -4.28911E+00 +1.87505E+00 -3.78760E+00 +1.96654E-01 -2.72486E+00 -1.03123E+00
 -1.33326E+00 -1.64166E+00 +1.12789E-01 -1.57062E+00 +1.33891E+00 -8.64041E-01 +2.11211E+00 +3.31518E-01
 +2.27511E+00 +1.79279E+00 +1.76895E+00 +3.25462E+00 +6.40715E-01 +4.45035E+00 -9.64440E-01 +5.15177E+00
 -2.82553E+00 +5.20285E+00 -4.67873E+00 +4.54242E+00 -6.25619E+00 +3.21277E+00 -7.32483E+00 +1.35314E+00
 -7.71972E+00 -8.20783E-01 -7.36707E+00 -3.04796E+00 -6.29393E+00 -5.05921E+00 -4.62331E+00 -6.61498E+00
 -2.55576E+00 -7.53829E+00 -3.40262E-01 -7.73825E+00 +1.76119E+00 -7.22087E+00 +3.51011E+00 -6.08600E+00
 +4.72399E+00 -4.51107E+00 +5.30005E+00 -2.72415E+00 +5.22722E+00 -9.70464E-01 +4.58467E+00 +5.22683E-01
 +3.52762E+00 +1.57768E+00 +2.26252E+00 +2.09044E+00 +1.01550E+00 +2.04314E+00 -1.30428E-03 +1.50420E+00
 -6.20748E-01 +6.15810E-01 -7.44404E-01 -4.28984E-01 -3.55932E-01 -1.41624E+00 +4.77772E-01 -2.14356E+00
 +1.61759E+00 -2.45041E+00 +2.87360E+00 -2.24190E+00 +4.03362E+00 -1.50275E+00 +4.89481E+00 -2.99588E-01
 +5.29355E+00 +1.22878E+00 +5.12952E+00 +2.89133E+00 +4.38045E+00 +4.47229E+00 +3.10561E+00 +5.76196E+00
 +1.43759E+00 +6.58642E+00 -4.36305E-01 +6.83208E+00 -2.30031E+00 +6.46134E+00 -3.94027E+00 +5.51748E+00
 -5.17324E+00 +4.11799E+00 -5.87232E+00 +2.43754E+00 -5.98340E+00 +6.82983E-01 -5.53130E+00 -9.35769E-01
 -4.61470E+00 -2.23504E+00 -3.39067E+00 -3.08245E+00 -2.05103E+00 -3.41437E+00 -7.94172E-01 -3.24323E+00
 +2.03682E-01 -2.65377E+00 +8.13626E-01 -1.78894E+00 +9.71954E-01 -8.27514E-01 +6.88326E-01 +4.32429E-02
 +4.30817E-02 +6.55830E-01 -8.25809E-01 +8.87590E-01 -1.74420E+00 +6.78973E-01 -2.52845E+00 +4.23498E-02
 -3.01333E+00 -9.39843E-01 -3.07726E+00 -2.12733E+00 -2.66090E+00 -3.34276E+00 -1.77669E+00 -4.39793E+00
 -5.07748E-01 -5.12163E+00 +1.00355E+00 -5.38506E+00 +2.57571E+00 -5.12103E+00 +4.01396E+00 -4.33422E+00
 +5.13808E+00 -3.10105E+00 +5.80800E+00 -1.55908E+00 +5.94374E+00 +1.12336E-01 +5.53640E+00 +1.71743E+00
 +4.64905E+00 +3.07159E+00 +3.40715E+00 +4.02721E+00 +1.98003E+00 +4.49396E+00 +5.56262E-01 +4.45064E+00
 -6.83528E-01 +3.94687E+00 -1.59239E+00 +3.09450E+00 -2.07756E+00 +2.05006E+00 -2.11274E+00 +9.90845E-01
 -1.74053E+00 +8.83139E-02 -1.06455E+00 -5.17340E-01 -2.32719E-01 -7.37672E-01 +5.85918E-01 -5.48537E-01
 +1.22729E+00 +7.09783E-03 +1.55735E+00 +8.26394E-01 +1.49249E+00 +1.76280E+00 +1.01220E+00 +2.64863E+00
 +1.62198E-01 +3.32070E+00 -9.52294E-01 +3.64511E+00 -2.18221E+00 +3.53763E+00 -3.35667E+00 +2.97646E+00
 -4.30826E+00 +2.00587E+00 -4.89752E+00 +7.29909E-01 -5.03336E+00 -7.02575E-01 -4.68613E+00 -2.11937E+00
 -3.89167E+00 -3.34960E+00 -2.74582E+00 -4.24801E+00 -1.39019E+00 -4.71522E+00 +8.38485E-03 -4.71110E+00
 +1.28184E+00 -4.25936E+00 +2.28459E+00 -3.44283E+00 +2.91352E+00 -2.39027E+00 +3.12147E+00 -1.25683E+00
 +2.92226E+00 -2.01081E-01 +2.38675E+00 +6.37894E-01 +1.63068E+00 +1.16001E+00 +7.96234E-01 +1.31749E+00
 +3.02660E-02 +1.12017E+00 -5.37684E-01 +6.32230E-01 -8.14191E-01 -3.90741E-02 -7.54962E-01 -7.60660E-01
 -3.70271E-01 -1.39431E+00 +2.77802E-01 -1.81758E+00 +1.08572E+00 -1.94191E+00 +1.92469E+00 -1.72530E+00
 +2.66022E+00 -1.17781E+00 +3.17203E+00 -3.59425E-01 +3.37147E+00 +6.29468E-01 +3.21390E+00 +1.66310E+00
 +2.70442E+00 +2.60873E+00 +1.89633E+00 +3.34552E+00 +8.82794E-01 +3.78125E+00 -2.17036E-01 +3.86446E+00
 -1.27500E+00 +3.59053E+00 -2.17167E+00 +3.00086E+00 -2.81231E+00 +2.17579E+00 -3.13865E+00 +1.22232E+00
 -3.13531E+00 +2.58529E-01 -2.82988E+00 -6.02696E-01 -2.28712E+00 -1.26864E+00 -1.59836E+00 -1.67819E+00
 -8.67686E-01 -1.80836E+00 -1.97123E-01 -1.67523E+00 +3.27117E-01 -1.32955E+00 +6.45500E-01 -8.47733E-01
 +7.31773E-01 -3.19885E-01 +5.94655E-01 +1.63390E-01 +2.74668E-01 +5.23513E-01 -1.63185E-01 +7.04115E-01
 -6.39642E-01 +6.77648E-01 -1.07275E+00 +4.47746E-01 -1.38916E+00 +4.72844E-02 -1.53365E+00 -4.67331E-01
 -1.47577E+00 -1.02465E+00 -1.21289E+00 -1.54818E+00 -7.69509E-01 -1.96648E+00 -1.93203E-01 -2.22209E+00
 +4.52128E-01 -2.27827E+00 +1.09466E+00 -2.12281E+00 +1.66358E+00 -1.76873E+00 +2.09744E+00 -1.25191E+00
 +2.35105E+00 -6.26152E-01 +2.40010E+00 +4.35208E-02 +2.24333E+00 +6.88605E-01 +1.90190E+00 +1.24487E+00
 +1.41644E+00 +1.65935E+00 +8.42006E-01 +1.89586E+00 +2.41691E-01 +1.93850E+00 -3.20465E-01 +1.79294E+00
 -7.86507E-01 +1.48531E+00 -1.11083E+00 +1.05902E+00 -1.26508E+00 +5.69650E-01 -1.24111E+00 +7.86616E-02
 -1.05185E+00 -3.53634E-01 -7.29754E-01 -6.74989E-01 -3.23121E-01 -8.47345E-01 +1.09502E-01 -8.51477E-01
 +5.06236E-01 -6.89573E-01 +8.09389E-01 -3.85370E-01 +9.72745E-01 +1.82897E-02 +9.67731E-01 +4.64331E-01
 +7.87659E-01 +8.88301E-01 +4.49399E-01 +1.22646E+00 -7.89128E-03 +1.42419E+00 -5.26995E-01 +1.44361E+00
 -1.03946E+00 +1.26941E+00 -1.47427E+00 +9.11961E-01 -1.76735E+00 +4.07169E-01 -1.87057E+00 -1.87165E-01
 -1.75913E+00 -7.98160E-01 -1.43605E+00 -1.34710E+00 -9.33098E-01 -1.75993E+00 -3.07736E-01 -1.97774E+00
 +3.63668E-01 -1.96544E+00 +9.95586E-01 -1.71776E+00 +1.50483E+00 -1.26109E+00 +1.82218E+00 -6.51079E-01
 +1.90260E+00 +3.40620E-02 +1.73231E+00 +7.03764E-01 +1.33175E+00 +1.26740E+00 +7.53727E-01 +1.64708E+00
 +7.68401E-02 +1.78900E+00 -6.05013E-01 +1.67175E+00 -1.19565E+00 +1.31012E+00 -1.61033E+00 +7.53879E-01
 -1.78818E+00 +8.12993E-02 -1.70148E+00 -6.11511E-01 -1.36031E+00 -1.22421E+00 -8.11768E-01 -1.66674E+00
 -1.33766E-01 -1.87264E+00 +5.75885E-01 -1.80916E+00 +1.21350E+00 -1.48263E+00 +1.68470E+00 -9.38114E-01
 +1.91845E+00 -2.53324E-01 +1.87792E+00 +4.72364E-01 +1.56639E+00 +1.13234E+00 +1.02730E+00 +1.62848E+00
 +3.38344E-01 +1.88577E+00 -3.99659E-01 +1.86379E+00 -1.07745E+00 +1.56309E+00 -1.59348E+00 +1.02561E+00
 -1.86906E+00 +3.28860E-01 -1.86031E+00 -4.25163E-01 -1.56495E+00 -1.12493E+00 -1.02307E+00 -1.66579E+00
 -3.11496E-01 -1.96555E+00 +4.67329E-01 -1.97677E+00 +1.20030E+00 -1.69400E+00 +1.78030E+00 -1.15475E+00
 +2.12200E+00 -4.34139E-01 +2.17447E+00 +3.66081E-01 +1.92871E+00 +1.13248E+00 +1.41892E+00 +1.75663E+00
 +7.17366E-01 +2.15102E+00 -7.63235E-02 +2.26183E+00 -8.50002E-01 +2.07668E+00 -1.49556E+00 +1.62617E+00
 -1.92482E+00 +9.79036E-01 -2.08236E+00 +2.31653E-01 -1.95342E+00 -5.06491E-01 -1.56555E+00 -1.12917E+00
 -9.84113E-01 -1.54915E+00 -3.02061E-01 -1.71097E+00 +3.74299E-01 -1.59883E+00 +9.41365E-01 -1.23848E+00
 +1.31375E+00 -6.92850E-01 +1.43693E+00 -5.21643E-02 +1.29507E+00 +5.79919E-01 +9.13038E-01 +1.10206E+00
 +3.52256E-01 +1.43048E+00 -2.98864E-01 +1.51136E+00 -9.38433E-01 +1.32872E+00 -1.46645E+00 +9.06443E-01
 -1.79973E+00 +3.04399E-01 -1.88413E+00 -3.90763E-01 -1.70233E+00 -1.07871E+00 -1.27602E+00 -1.66039E+00
 -6.62304E-01 -2.05258E+00 +5.51002E-02 -2.19991E+00 +7.78486E-01 -2.08260E+00 +1.41061E+00 -1.71878E+00
 +1.86886E+00 -1.16121E+00 +2.09700E+00 -4.88967E-01 +2.07281E+00 +2.04653E-01 +1.81058E+00 +8.26013E-01
 +1.35815E+00 +1.29485E+00 +7.89035E-01 +1.55568E+00 +1.90989E-01 +1.58537E+00 -3.47375E-01 +1.39563E+00
 -7.49753E-01 +1.03043E+00 -9.63225E-01 +5.58558E-01 -9.65612E-01 +6.26962E-02 -7.68092E-01 -3.73357E-01
 -4.12791E-01 -6.77393E-01 +3.42178E-02 -7.99516E-01 +4.93359E-01 -7.19333E-01 +8.83851E-01 -4.48612E-01
 +1.13598E+00 -2.90907E-02 +1.20152E+00 +4.74164E-01 +1.06084E+00 +9.82771E-01 +7.25590E-01 +1.41690E+00
 +2.36795E-01 +1.70717E+00 -3.41466E-01 +1.80491E+00 -9.31632E-01 +1.68913E+00 -1.45414E+00 +1.36943E+00
 -1.83900E+00 +8.84279E-01 -2.03590E+00 +2.95175E-01 -2.02117E+00 -3.22563E-01 -1.80080E+00 -8.90845E-01
 -1.40915E+00 -1.34011E+00 -9.03366E-01 -1.61922E+00 -3.54707E-01 -1.70244E+00 +1.62165E-01 -1.59266E+00
 +5.80170E-01 -1.32028E+00 +8.49507E-01 -9.38060E-01 +9.44648E-01 -5.12798E-01 +8.67603E-01 -1.14973E-01
 +6.47042E-01 +1.91981E-01 +3.33417E-01 +3.61213E-01 -9.12174E-03 +3.69397E-01 -3.12822E-01 +2.20060E-01
 -5.16882E-01 -5.71813E-02 -5.76905E-01 -4.11330E-01 -4.71831E-01 -7.77957E-01 -2.07316E-01 -1.08918E+00
 +1.84941E-01 -1.28415E+00 +6.51822E-01 -1.31857E+00 +1.12668E+00 -1.17164E+00 +1.53931E+00 -8.49563E-01
 +1.82650E+00 -3.84958E-01 +1.94162E+00 +1.67676E-01 +1.86177E+00 +7.39842E-01 +1.59138E+00 +1.25906E+00
 +1.16178E+00 +1.65951E+00 +6.26701E-01 +1.89181E+00 +5.44421E-02 +1.93023E+00 -4.82211E-01 +1.77657E+00
 -9.16759E-01 +1.45973E+00 -1.19885E+00 +1.03135E+00 -1.30170E+00 +5.57873E-01 -1.22598E+00 +1.10445E-01
 -9.99496E-01 -2.46006E-01 -6.72727E-01 -4.62723E-01 -3.10821E-01 -5.14635E-01 +1.66940E-02 -4.04231E-01
 +2.46964E-01 -1.61174E-01 +3.33904E-01 +1.62350E-01 +2.55756E-01 +4.99857E-01 +1.89096E-02 +7.81141E-01
 -3.42669E-01 +9.43582E-01 -7.72369E-01 +9.42428E-01 -1.19954E+00 +7.58426E-01 -1.55043E+00 +4.01574E-01
 -1.75989E+00 -8.96732E-02 -1.78191E+00 -6.53689E-01 -1.59733E+00 -1.21470E+00 -1.21760E+00 -1.69423E+00
 -6.83736E-01 -2.02313E+00 -6.06793E-02 -2.15250E+00 +5.72169E-01 -2.06152E+00 +1.13284E+00 -1.76112E+00
 +1.54929E+00 -1.29278E+00 +1.77048E+00 -7.22490E-01 +1.77443E+00 -1.30874E-01 +1.57174E+00 +3.99168E-01
 +1.20412E+00 +7.95272E-01 +7.37935E-01 +1.00695E+00 +2.53896E-01 +1.01357E+00 -1.65742E-01 +8.27768E-01
 -4.50323E-01 +4.93532E-01 -5.52255E-01 +7.93129E-02 -4.54935E-01 -3.32890E-01 -1.75813E-01 -6.60765E-01
 +2.35988E-01 -8.35187E-01 +7.07187E-01 -8.11795E-01 +1.15190E+00 -5.78789E-01 +1.48542E+00 -1.59608E-01
 +1.63813E+00 +3.90023E-01 +1.56716E+00 +9.90311E-01 +1.26412E+00 +1.54965E+00 +7.57309E-01 +1.97902E+00
 +1.08188E-01 +2.20628E+00 -5.97543E-01 +2.18804E+00 -1.26293E+00 +1.91718E+00 -1.79476E+00 +1.42471E+00
 -2.11824E+00 +7.75666E-01 -2.18900E+00 +5.94194E-02 -2.00040E+00 -6.23904E-01 -1.58504E+00 -1.17899E+00
 -1.00997E+00 -1.53033E+00 -3.66426E-01 -1.63423E+00 +2.44468E-01 -1.48592E+00 +7.27693E-01 -1.12050E+00
