 Created: 19-Jan-2021
 $NMID
 ID='D:\BASISSIMULATI'
 FMTDAT='(8E13.5)'
 VOLUME=   1.00000E+00
 TRAMP=   1.00000E+00
 $END
 +2.20963E+01 +2.51249E-02 +1.87080E+01 +1.08949E+01 +9.86770E+00 +1.77332E+01 -9.01864E-01 +1.81861E+01
 -9.43804E+00 +1.25376E+01 -1.26956E+01 +3.50440E+00 -9.97351E+00 -5.00976E+00 -3.08472E+00 -9.62744E+00
 +4.57571E+00 -8.90971E+00 +9.61491E+00 -3.84905E+00 +1.01466E+01 +2.74592E+00 +6.53786E+00 +7.65643E+00
 +1.08359E+00 +8.78016E+00 -3.20752E+00 +6.06872E+00 -4.12266E+00 +1.45421E+00 -1.33143E+00 -2.17892E+00
 +3.46201E+00 -2.47333E+00 +7.36849E+00 +1.18196E+00 +7.75841E+00 +7.27876E+00 +3.61294E+00 +1.28509E+01
 -3.86712E+00 +1.48688E+01 -1.17008E+01 +1.17193E+01 -1.64328E+01 +4.07240E+00 -1.57164E+01 -5.28681E+00
 -9.44694E+00 -1.26095E+01 +8.51812E-02 -1.48135E+01 +9.11239E+00 -1.08612E+01 +1.39820E+01 -2.26094E+00
 +1.27197E+01 +7.54241E+00 +5.87001E+00 +1.46225E+01 -3.75616E+00 +1.62305E+01 -1.23090E+01 +1.19250E+01
 -1.65499E+01 +3.68545E+00 -1.51918E+01 -5.02384E+00 -9.34618E+00 -1.08012E+01 -1.90361E+00 -1.17648E+01
 +3.84228E+00 -8.27401E+00 +5.68595E+00 -2.61563E+00 +3.43682E+00 +2.16735E+00 -1.12286E+00 +3.74136E+00
 -5.19998E+00 +1.55577E+00 -6.39917E+00 -2.96570E+00 -3.90550E+00 -7.18716E+00 +1.11626E+00 -8.60085E+00
 +6.09042E+00 -6.10251E+00 +8.29524E+00 -5.91997E-01 +6.22430E+00 +5.39259E+00 +3.96422E-01 +8.84542E+00
 -6.77957E+00 +7.72711E+00 -1.20412E+01 +1.99255E+00 -1.27458E+01 -6.27663E+00 -8.10810E+00 -1.37157E+01
 +3.68567E-01 -1.71295E+01 +9.47871E+00 -1.49046E+01 +1.56665E+01 -7.74483E+00 +1.65455E+01 +1.60363E+00
 +1.19128E+01 +9.51902E+00 +3.80893E+00 +1.30435E+01 -4.39217E+00 +1.11145E+01 -9.45050E+00 +4.94950E+00
 -9.62675E+00 -2.56689E+00 -5.34770E+00 -8.20068E+00 +1.10455E+00 -9.78507E+00 +6.71018E+00 -7.10200E+00
 +9.10719E+00 -1.85052E+00 +7.62303E+00 +3.25285E+00 +3.48279E+00 +5.80149E+00 -8.77171E-01 +4.82793E+00
 -3.04643E+00 +1.21376E+00 -1.83515E+00 -2.79714E+00 +2.13861E+00 -4.73832E+00 +6.74375E+00 -3.16614E+00
 +9.37145E+00 +1.58339E+00 +8.22185E+00 +7.48974E+00 +3.23305E+00 +1.17594E+01 -3.79246E+00 +1.21356E+01
 -9.93813E+00 +7.99863E+00 -1.24684E+01 +7.39515E-01 -1.00810E+01 -6.77818E+00 -3.54440E+00 -1.14397E+01
 +4.57967E+00 -1.12393E+01 +1.10106E+01 -6.16997E+00 +1.31476E+01 +1.75703E+00 +1.01719E+01 +9.37114E+00
 +3.36774E+00 +1.36966E+01 -4.47002E+00 +1.31996E+01 -1.02656E+01 +8.38358E+00 -1.19746E+01 +1.48362E+00
 -9.39800E+00 -4.57868E+00 -4.15331E+00 -7.49549E+00 +1.15581E+00 -6.53958E+00 +4.16898E+00 -2.77575E+00
 +3.82650E+00 +1.55097E+00 +7.76876E-01 +4.14129E+00 -3.03234E+00 +3.74425E+00 -5.36588E+00 +7.22562E-01
 -4.82418E+00 -3.17308E+00 -1.54414E+00 -5.70089E+00 +2.85307E+00 -5.26243E+00 +6.04111E+00 -1.73242E+00
 +6.12663E+00 +3.41424E+00 +2.60885E+00 +7.74670E+00 -3.29642E+00 +9.00147E+00 -9.13273E+00 +6.16615E+00
 -1.22735E+01 +1.86608E-02 -1.11053E+01 -7.13733E+00 -5.78726E+00 -1.24341E+01 +1.76443E+00 -1.36745E+01
 +8.66486E+00 -1.02890E+01 +1.22771E+01 -3.59037E+00 +1.13191E+01 +3.78639E+00 +6.37604E+00 +9.00643E+00
 -3.96993E-01 +1.02204E+01 -6.23606E+00 +7.29458E+00 -8.95514E+00 +1.77787E+00 -7.83151E+00 -3.85433E+00
 -3.81078E+00 -7.32106E+00 +1.03185E+00 -7.50905E+00 +4.50160E+00 -4.86980E+00 +5.28854E+00 -1.08573E+00
 +3.50792E+00 +1.81095E+00 +5.44595E-01 +2.43776E+00 -1.70152E+00 +7.08260E-01 -1.79563E+00 -2.17072E+00
 +4.98242E-01 -4.33660E+00 +4.07935E+00 -4.23049E+00 +7.03333E+00 -1.41603E+00 +7.56880E+00 +3.13714E+00
 +4.92448E+00 +7.44818E+00 -1.85479E-01 +9.42338E+00 -5.80802E+00 +7.84561E+00 -9.57560E+00 +2.99598E+00
 -9.75203E+00 -3.38726E+00 -6.02835E+00 -8.80740E+00 +2.93504E-01 -1.10619E+01 +6.81767E+00 -9.18426E+00
 +1.10473E+01 -3.85984E+00 +1.14185E+01 +2.86571E+00 +7.92455E+00 +8.45124E+00 +2.06879E+00 +1.09144E+01
 -3.81861E+00 +9.61480E+00 -7.58347E+00 +5.43714E+00 -8.12347E+00 +3.16508E-01 -5.76094E+00 -3.65700E+00
 -1.97344E+00 -5.14123E+00 +1.36487E+00 -4.05145E+00 +2.86433E+00 -1.46848E+00 +2.21556E+00 +9.80673E-01
 +2.38948E-01 +1.95731E+00 -1.61108E+00 +1.05973E+00 -2.03148E+00 -1.01555E+00 -5.60201E-01 -2.86455E+00
 +2.16297E+00 -3.12065E+00 +4.68972E+00 -1.18942E+00 +5.47189E+00 +2.38441E+00 +3.64900E+00 +6.10159E+00
 -4.61932E-01 +8.16901E+00 -5.41483E+00 +7.33575E+00 -9.21468E+00 +3.51839E+00 -1.01765E+01 -2.07898E+00
 -7.68004E+00 -7.41724E+00 -2.48002E+00 -1.04561E+01 +3.57133E+00 -1.00059E+01 +8.27168E+00 -6.22577E+00
 +9.96165E+00 -5.52564E-01 +8.17859E+00 +4.90121E+00 +3.79668E+00 +8.21399E+00 -1.39107E+00 +8.40895E+00
 -5.45011E+00 +5.77842E+00 -7.09228E+00 +1.66053E+00 -6.13566E+00 -2.20692E+00 -3.45695E+00 -4.45010E+00
 -4.89886E-01 -4.59825E+00 +1.47675E+00 -3.17374E+00 +1.87076E+00 -1.32260E+00 +1.02294E+00 -1.85391E-01
 -9.67311E-02 -3.18984E-01 -4.44678E-01 -1.44318E+00 +5.14609E-01 -2.62332E+00 +2.49721E+00 -2.78924E+00
 +4.51069E+00 -1.33156E+00 +5.33536E+00 +1.51914E+00 +4.14668E+00 +4.72094E+00 +9.79873E-01 +6.85477E+00
 -3.19087E+00 +6.76996E+00 -6.80999E+00 +4.14521E+00 -8.38482E+00 -2.97226E-01 -7.13343E+00 -5.03171E+00
 -3.34761E+00 -8.32768E+00 +1.69245E+00 -8.95028E+00 +6.21792E+00 -6.66126E+00 +8.67114E+00 -2.30738E+00
 +8.30713E+00 +2.53530E+00 +5.44695E+00 +6.20115E+00 +1.28939E+00 +7.58129E+00 -2.61994E+00 +6.50638E+00
 -5.02077E+00 +3.72070E+00 -5.39885E+00 +4.85095E-01 -4.09209E+00 -1.99499E+00 -2.02497E+00 -3.05600E+00
 -2.19228E-01 -2.77157E+00 +6.81102E-01 -1.79446E+00 +6.54246E-01 -9.47423E-01 +2.18147E-01 -7.74509E-01
 +8.25899E-02 -1.27110E+00 +7.20652E-01 -1.91590E+00 +2.07611E+00 -1.97884E+00 +3.55244E+00 -9.46093E-01
 +4.29070E+00 +1.15141E+00 +3.60366E+00 +3.67245E+00 +1.35767E+00 +5.60441E+00 -1.88447E+00 +6.00351E+00
 -5.03731E+00 +4.43733E+00 -6.91592E+00 +1.22585E+00 -6.72677E+00 -2.63451E+00 -4.41214E+00 -5.83866E+00
 -6.97369E-01 -7.27870E+00 +3.18054E+00 -6.47422E+00 +5.94720E+00 -3.74836E+00 +6.76855E+00 -8.20272E-02
 +5.53665E+00 +3.28318E+00 +2.85638E+00 +5.32052E+00 -2.43540E-01 +5.57458E+00 -2.73829E+00 +4.26266E+00
 -3.98688E+00 +2.10111E+00 -3.91228E+00 -4.55131E-02 -2.92742E+00 -1.52704E+00 -1.66705E+00 -2.12595E+00
 -6.65701E-01 -2.05255E+00 -1.33168E-01 -1.74548E+00 +7.86759E-02 -1.59201E+00 +3.20596E-01 -1.71119E+00
 +8.94632E-01 -1.90280E+00 +1.84020E+00 -1.77927E+00 +2.86757E+00 -1.00763E+00 +3.47374E+00 +4.63635E-01
 +3.18610E+00 +2.30962E+00 +1.81736E+00 +3.91903E+00 -3.91872E-01 +4.63496E+00 -2.81551E+00 +4.04091E+00
 -4.65899E+00 +2.16409E+00 -5.26190E+00 -4.96389E-01 -4.35933E+00 -3.13309E+00 -2.19301E+00 -4.91995E+00
 +5.72346E-01 -5.31034E+00 +3.09074E+00 -4.22496E+00 +4.63462E+00 -2.06020E+00 +4.83459E+00 +4.77050E-01
 +3.77184E+00 +2.63349E+00 +1.90091E+00 +3.86413E+00 -1.50665E-01 +3.98285E+00 -1.81580E+00 +3.16440E+00
 -2.76143E+00 +1.81764E+00 -2.94497E+00 +3.98106E-01 -2.55160E+00 -7.56440E-01 -1.85973E+00 -1.50601E+00
 -1.10458E+00 -1.88736E+00 -3.99960E-01 -2.02184E+00 +2.57489E-01 -2.00894E+00 +9.18652E-01 -1.86118E+00
 +1.59356E+00 -1.50850E+00 +2.19515E+00 -8.63590E-01 +2.54647E+00 +9.05463E-02 +2.44950E+00 +1.23903E+00
 +1.78365E+00 +2.33427E+00 +5.87642E-01 +3.06205E+00 -9.14811E-01 +3.15015E+00 -2.36108E+00 +2.47631E+00
 -3.35389E+00 +1.13204E+00 -3.58707E+00 -5.84111E-01 -2.94834E+00 -2.24377E+00 -1.56366E+00 -3.41102E+00
 +2.31647E-01 -3.76986E+00 +1.98493E+00 -3.21664E+00 +3.25242E+00 -1.88998E+00 +3.72125E+00 -1.30911E-01
 +3.29228E+00 +1.61303E+00 +2.10143E+00 +2.91102E+00 +4.75485E-01 +3.46388E+00 -1.16337E+00 +3.17875E+00
 -2.41592E+00 +2.18365E+00 -3.01256E+00 +7.79234E-01 -2.87752E+00 -6.56302E-01 -2.13237E+00 -1.77918E+00
 -1.04010E+00 -2.37339E+00 +8.96973E-02 -2.39600E+00 +1.00041E+00 -1.96187E+00 +1.55722E+00 -1.27681E+00
 +1.76167E+00 -5.48177E-01 +1.71049E+00 +8.97601E-02 +1.52083E+00 +6.04711E-01 +1.25908E+00 +1.03935E+00
 +9.09180E-01 +1.44437E+00 +3.97938E-01 +1.80804E+00 -3.33228E-01 +2.02297E+00 -1.24672E+00 +1.91519E+00
 -2.16387E+00 +1.33023E+00 -2.79111E+00 +2.39929E-01 -2.82015E+00 -1.18391E+00 -2.06747E+00 -2.57553E+00
 -5.92614E-01 -3.47603E+00 +1.26571E+00 -3.50055E+00 +2.96768E+00 -2.50751E+00 +3.94871E+00 -6.94546E-01
 +3.83151E+00 +1.43101E+00 +2.58781E+00 +3.21018E+00 +5.76465E-01 +4.06565E+00 -1.56834E+00 +3.71987E+00
 -3.16270E+00 +2.30680E+00 -3.72537E+00 +3.25807E-01 -3.15392E+00 -1.54854E+00 -1.75030E+00 -2.72549E+00
 -8.40604E-02 -2.91846E+00 +1.24866E+00 -2.23413E+00 +1.86605E+00 -1.09409E+00 +1.73667E+00 -2.63443E-02
 +1.15257E+00 +5.77454E-01 +5.55872E-01 +6.27490E-01 +3.02761E-01 +3.48250E-01 +4.79162E-01 +1.33678E-01
 +8.58945E-01 +3.16156E-01 +1.02835E+00 +9.63884E-01 +6.19479E-01 +1.81115E+00 -4.60965E-01 +2.36492E+00
 -1.92524E+00 +2.14611E+00 -3.18548E+00 +9.54772E-01 -3.59938E+00 -9.71694E-01 -2.77617E+00 -2.99584E+00
 -8.01137E-01 -4.31461E+00 +1.73540E+00 -4.29901E+00 +3.93582E+00 -2.79048E+00 +4.94771E+00 -2.15490E-01
 +4.32408E+00 +2.54649E+00 +2.23167E+00 +4.49813E+00 -5.91634E-01 +4.92574E+00 -3.12203E+00 +3.69466E+00
 -4.46116E+00 +1.30738E+00 -4.19788E+00 -1.30570E+00 -2.56334E+00 -3.17498E+00 -3.11194E-01 -3.69130E+00
 +1.62315E+00 -2.84147E+00 +2.53164E+00 -1.17753E+00 +2.22728E+00 +4.62796E-01 +1.09152E+00 +1.35381E+00
 -1.42553E-01 +1.21328E+00 -7.66664E-01 +3.13836E-01 -4.53818E-01 -6.76859E-01 +5.76481E-01 -1.05031E+00
 +1.66657E+00 -4.35509E-01 +2.05513E+00 +9.83755E-01 +1.28014E+00 +2.52496E+00 -5.45448E-01 +3.32021E+00
 -2.72739E+00 +2.74607E+00 -4.27181E+00 +7.67091E-01 -4.33656E+00 -1.97848E+00 -2.64776E+00 -4.40776E+00
 +3.17178E-01 -5.44892E+00 +3.47884E+00 -4.52507E+00 +5.58728E+00 -1.84529E+00 +5.75351E+00 +1.63861E+00
 +3.84600E+00 +4.60478E+00 +5.70617E-01 +5.90854E+00 -2.81060E+00 +5.06653E+00 -5.00495E+00 +2.46243E+00
 -5.23058E+00 -8.20142E-01 -3.53535E+00 -3.46642E+00 -7.51964E-01 -4.49405E+00 +1.88893E+00 -3.66099E+00
 +3.31207E+00 -1.53687E+00 +3.06625E+00 +7.90145E-01 +1.49671E+00 +2.23326E+00 -4.54178E-01 +2.21203E+00
 -1.72143E+00 +9.08231E-01 -1.64241E+00 -8.45655E-01 -2.83430E-01 -1.99189E+00 +1.58928E+00 -1.78492E+00
