 Created: 19-Jan-2021
 $NMID
 ID='D:\BASISSIMULATI'
 FMTDAT='(8E13.5)'
 VOLUME=   1.00000E+00
 TRAMP=   1.00000E+00
 $END
 +5.08054E+01 +5.02274E-02 +4.89435E+01 +1.30972E+01 +4.36267E+01 +2.51148E+01 +3.52863E+01 +3.51860E+01
 +2.45940E+01 +4.25543E+01 +1.24054E+01 +4.66857E+01 -3.10869E-01 +4.73112E+01 -1.25536E+01 +4.44468E+01
 -2.33716E+01 +3.83909E+01 -3.19417E+01 +2.96968E+01 -3.76356E+01 +1.91251E+01 -4.00699E+01 +7.57857E+00
 -3.91355E+01 -3.97396E+00 -3.50042E+01 -1.45791E+01 -2.81106E+01 -2.33781E+01 -1.91131E+01 -2.96780E+01
 -8.83637E+00 -3.30073E+01 +1.80045E+00 -3.31538E+01 +1.18621E+01 -3.01789E+01 +2.04767E+01 -2.44098E+01
 +2.69089E+01 -1.64085E+01 +3.06210E+01 -6.92125E+00 +3.13168E+01 +3.18658E+00 +2.89641E+01 +1.30060E+01
 +2.37950E+01 +2.16627E+01 +1.62835E+01 +2.83910E+01 +7.10238E+00 +3.25994E+01 -2.93631E+00 +3.39191E+01
 -1.29521E+01 +3.22341E+01 -2.20726E+01 +2.76887E+01 -2.95085E+01 +2.06733E+01 -3.46203E+01 +1.17885E+01
 -3.69731E+01 +1.79191E+00 -3.63715E+01 -8.46866E+00 -3.28750E+01 -1.81287E+01 -2.67908E+01 -2.63817E+01
 -1.86450E+01 -3.25483E+01 -9.13563E+00 -3.61340E+01 +9.29098E-01 -3.68702E+01 +1.07018E+01 -3.47354E+01
 +1.93696E+01 -2.99553E+01 +2.62243E+01 -2.29809E+01 +3.07233E+01 -1.44473E+01 +3.25351E+01 -5.11709E+00
 +3.15669E+01 +4.18778E+00 +2.79706E+01 +1.26580E+01 +2.21276E+01 +1.95680E+01 +1.46136E+01 +2.43394E+01
 +6.14631E+00 +2.65906E+01 -2.47852E+00 +2.61697E+01 -1.04584E+01 +2.31667E+01 -1.70552E+01 +1.79043E+01
 -2.16608E+01 +1.09084E+01 -2.38509E+01 +2.86085E+00 -2.34225E+01 -5.46173E+00 -2.04124E+01 -1.32573E+01
 -1.50937E+01 -1.97702E+01 -7.95193E+00 -2.43583E+01 +3.57285E-01 -2.65512E+01 +9.06625E+00 -2.60926E+01
 +1.73629E+01 -2.29643E+01 +2.44626E+01 -1.73894E+01 +2.96779E+01 -9.81389E+00 +3.24804E+01 -8.69362E-01
 +3.25478E+01 +8.68151E+00 +2.97949E+01 +1.80107E+01 +2.43826E+01 +2.62966E+01 +1.67063E+01 +3.27962E+01
 +7.36370E+00 +3.69098E+01 -2.89536E+00 +3.82350E+01 -1.32321E+01 +3.66025E+01 -2.27906E+01 +3.20933E+01
 -3.07706E+01 +2.50334E+01 -3.64971E+01 +1.59680E+01 -3.94783E+01 +5.61627E+00 -3.94495E+01 -5.18829E+00
 -3.63961E+01 -1.55685E+01 -3.05573E+01 -2.46774E+01 -2.24060E+01 -3.17706E+01 -1.26109E+01 -3.62693E+01
 -1.97986E+00 -3.78106E+01 +8.60768E+00 -3.62781E+01 +1.82747E+01 -3.18135E+01 +2.62210E+01 -2.48042E+01
 +3.17906E+01 -1.58521E+01 +3.45282E+01 -5.72242E+00 +3.42170E+01 +4.72051E+00 +3.08983E+01 +1.45861E+01
 +2.48677E+01 +2.30329E+01 +1.66505E+01 +2.93397E+01 +6.95757E+00 +3.29670E+01 -3.37481E+00 +3.36022E+01
 -1.34554E+01 +3.11867E+01 -2.24135E+01 +2.59209E+01 -2.94726E+01 +1.82470E+01 -3.40157E+01 +8.81258E+00
 -3.56380E+01 -1.58486E+00 -3.41808E+01 -1.20646E+01 -2.97450E+01 -2.17373E+01 -2.26828E+01 -2.97797E+01
 -1.35676E+01 -3.55042E+01 -3.14608E+00 -3.84162E+01 +7.72506E+00 -3.82562E+01 +1.81508E+01 -3.50208E+01
 +2.72734E+01 -2.89628E+01 +3.43436E+01 -2.05694E+01 +3.87840E+01 -1.05211E+01 +4.02361E+01 +3.66119E-01
 +3.85903E+01 +1.12096E+01 +3.39934E+01 +2.11338E+01 +2.68358E+01 +2.93443E+01 +1.77171E+01 +3.51929E+01
 +7.39497E+00 +3.82321E+01 -3.27955E+00 +3.82508E+01 -1.34340E+01 +3.52907E+01 -2.22482E+01 +2.96409E+01
 -2.90223E+01 +2.18117E+01 -3.32358E+01 +1.24898E+01 -3.45890E+01 +2.47877E+00 -3.30271E+01 -7.36979E+00
 -2.87425E+01 -1.62290E+01 -2.21563E+01 -2.33669E+01 -1.38803E+01 -2.82075E+01 -4.66303E+00 -3.03792E+01
 +4.67539E+00 -2.97442E+01 +1.33143E+01 -2.64087E+01 +2.05032E+01 -2.07114E+01 +2.56253E+01 -1.31927E+01
 +2.82505E+01 -4.54626E+00 +2.81706E+01 +4.44191E+00 +2.54159E+01 +1.29623E+01 +2.02513E+01 +2.02523E+01
 +1.31514E+01 +2.56618E+01 +4.75887E+00 +2.87095E+01 -4.17306E+00 +2.91238E+01 -1.28461E+01 +2.68652E+01
 -2.04868E+01 +2.21293E+01 -2.64136E+01 +1.53286E+01 -3.00961E+01 +7.05633E+00 -3.12008E+01 -1.96617E+00
 -2.96194E+01 -1.09521E+01 -2.54780E+01 -1.91179E+01 -1.91259E+01 -2.57513E+01 -1.11044E+01 -3.02732E+01
 -2.10032E+00 -3.22876E+01 +7.11457E+00 -3.16159E+01 +1.57500E+01 -2.83122E+01 +2.30659E+01 -2.26583E+01
 +2.84367E+01 -1.51390E+01 +3.14048E+01 -6.40041E+00 +3.17210E+01 +2.80679E+00 +2.93651E+01 +1.16919E+01
 +2.45478E+01 +1.94927E+01 +1.76926E+01 +2.55417E+01 +9.39862E+00 +2.93236E+01 +3.88923E-01 +3.05198E+01
 -8.55217E+00 +2.90360E+01 -1.66469E+01 +2.50105E+01 -2.31916E+01 +1.88016E+01 -2.76173E+01 +1.09573E+01
 -2.95390E+01 +2.16757E+00 -2.87895E+01 -6.79532E+00 -2.54334E+01 -1.51435E+01 -1.97621E+01 -2.21416E+01
 -1.22687E+01 -2.71704E+01 -3.60551E+00 -2.97807E+01 +5.47189E+00 -2.97321E+01 +1.41698E+01 -2.70141E+01
 +2.17250E+01 -2.18475E+01 +2.74703E+01 -1.46660E+01 +3.08924E+01 -6.07877E+00 +3.16763E+01 +3.18109E+00
 +2.97329E+01 +1.23197E+01 +2.52071E+01 +2.05501E+01 +1.84658E+01 +2.71600E+01 +1.00671E+01 +3.15731E+01
 +7.12609E-01 +3.33981E+01 -8.81172E+00 +3.24631E+01 -1.77031E+01 +2.88304E+01 -2.52099E+01 +2.27917E+01
 -3.06961E+01 +1.48431E+01 -3.36955E+01 +5.64387E+00 -3.39513E+01 -4.04026E+00 -3.14380E+01 -1.34016E+01
 -2.63642E+01 -2.16595E+01 -1.91540E+01 -2.81261E+01 -1.04117E+01 -3.22652E+01 -8.69833E-01 -3.37374E+01
 +8.67271E+00 -3.24285E+01 +1.74188E+01 -2.84591E+01 +2.46406E+01 -2.21741E+01 +2.97410E+01 -1.41126E+01
 +3.23045E+01 -4.96212E+00 +3.21314E+01 +4.50048E+00 +2.92545E+01 +1.34750E+01 +2.39359E+01 +2.12061E+01
 +1.66434E+01 +2.70474E+01 +8.01056E+00 +3.05160E+01 -1.21809E+00 +3.13334E+01 -1.02508E+01 +2.94479E+01
 -1.83164E+01 +2.50391E+01 -2.47298E+01 +1.85010E+01 -2.89506E+01 +1.04079E+01 -3.06283E+01 +1.46470E+00
 -2.96322E+01 -7.55385E+00 -2.60614E+01 -1.58699E+01 -2.02355E+01 -2.27689E+01 -1.26671E+01 -2.76610E+01
 -4.01633E+00 -3.01306E+01 +4.96539E+00 -2.99723E+01 +1.35006E+01 -2.72073E+01 +2.08527E+01 -2.20812E+01
 +2.63885E+01 -1.50422E+01 +2.96333E+01 -6.70237E+00 +3.03104E+01 +2.21577E+00 +2.83650E+01 +1.09413E+01
 +2.39684E+01 +1.87215E+01 +1.75022E+01 +2.48861E+01 +9.52615E+00 +2.89054E+01 +7.28640E-01 +3.04350E+01
 -8.13204E+00 +2.93451E+01 -1.62933E+01 +2.57317E+01 -2.30536E+01 +1.99077E+01 -2.78329E+01 +1.23755E+01
 -3.02222E+01 +3.78408E+00 -3.00183E+01 -5.12765E+00 -2.72414E+01 -1.35940E+01 -2.21325E+01 -2.08885E+01
 -1.51329E+01 -2.63862E+01 -6.84556E+00 -2.96175E+01 +2.01645E+00 -3.03077E+01 +1.06916E+01 -2.84011E+01
 +1.84354E+01 -2.40650E+01 +2.45841E+01 -1.76753E+01 +2.86121E+01 -9.78374E+00 +3.01762E+01 -1.07077E+00
 +2.91457E+01 +7.71347E+00 +2.56128E+01 +1.58135E+01 +1.98849E+01 +2.25332E+01 +1.24577E+01 +2.72960E+01
 +3.97273E+00 +2.96938E+01 -4.83798E+00 +2.95222E+01 -1.32148E+01 +2.67980E+01 -2.04358E+01 +2.17571E+01
 -2.58783E+01 +1.48348E+01 -2.90731E+01 +6.62815E+00 -2.97436E+01 -2.15568E+00 -2.78304E+01 -1.07596E+01
 -2.34958E+01 -1.84419E+01 -1.71100E+01 -2.45394E+01 -9.21950E+00 -2.85248E+01 -4.99997E-01 -3.00512E+01
 +8.30124E+00 -2.89824E+01 +1.64294E+01 -2.54038E+01 +2.31865E+01 -1.96158E+01 +2.79912E+01 -1.21076E+01
 +3.04284E+01 -3.51567E+00 +3.02844E+01 +5.43093E+00 +2.75651E+01 +1.39724E+01 +2.24956E+01 +2.13832E+01
 +1.55006E+01 +2.70338E+01 +7.16823E+00 +3.04439E+01 -1.80037E+00 +3.13237E+01 -1.06505E+01 +2.95976E+01
 -1.86385E+01 +2.54109E+01 -2.50946E+01 +1.91167E+01 -2.94798E+01 +1.12458E+01 -3.14314E+01 +2.46077E+00
 -3.07934E+01 -6.50027E+00 -2.76291E+01 -1.48867E+01 -2.22149E+01 -2.19992E+01 -1.50165E+01 -2.72491E+01
 -6.64833E+00 -3.02078E+01 +2.17913E+00 -3.06428E+01 +1.07202E+01 -2.85366E+01 +1.82578E+01 -2.40875E+01
 +2.41640E+01 -1.76914E+01 +2.79537E+01 -9.90774E+00 +2.93249E+01 -1.41024E+00 +2.81839E+01 +7.07051E+00
 +2.46524E+01 +1.48101E+01 +1.90558E+01 +2.11523E+01 +1.18945E+01 +2.55647E+01 +3.80035E+00 +2.76840E+01
 -4.51859E+00 +2.73464E+01 -1.23389E+01 +2.46007E+01 -1.89841E+01 +1.97031E+01 -2.38828E+01 +1.30944E+01
 -2.66174E+01 +5.36133E+00 -2.69596E+01 -2.81477E+00 -2.48889E+01 -1.07170E+01 -2.05944E+01 -1.76546E+01
 -1.44572E+01 -2.30231E+01 -7.01711E+00 -2.63556E+01 +1.07455E+00 -2.73631E+01 +9.11134E+00 -2.59586E+01
 +1.63930E+01 -2.22647E+01 +2.22860E+01 -1.66019E+01 +2.62780E+01 -9.46081E+00 +2.80218E+01 -1.45938E+00
 +2.73656E+01 +6.71090E+00 +2.43647E+01 +1.43447E+01 +1.92776E+01 +2.07841E+01 +1.25423E+01 +2.54748E+01
 +4.73874E+00 +2.80147E+01 -3.46157E+00 +2.81874E+01 -1.13539E+01 +2.59817E+01 -1.82609E+01 +2.15914E+01
 -2.35916E+01 +1.53987E+01 -2.68919E+01 +7.94119E+00 -2.78838E+01 -1.35312E-01 -2.64895E+01 -8.13233E+00
 -2.28377E+01 -1.53593E+01 -1.72524E+01 -2.11932E+01 -1.02248E+01 -2.51326E+01 -2.37058E+00 -2.68407E+01
 +5.62308E+00 -2.61748E+01 +1.30573E+01 -2.31982E+01 +1.92819E+01 -1.81754E+01 +2.37515E+01 -1.15485E+01
 +2.60731E+01 -3.89970E+00 +2.60401E+01 +4.09912E+00 +2.36502E+01 +1.17446E+01 +1.91062E+01 +1.83624E+01
 +1.27988E+01 +2.33658E+01 +5.27288E+00 +2.63064E+01 -2.81887E+00 +2.69132E+01 -1.07721E+01 +2.51160E+01
 -1.78913E+01 +2.10527E+01 -2.35499E+01 +1.50574E+01 -2.72439E+01 +7.63238E+00 -2.86360E+01 -5.94633E-01
 -2.75846E+01 -8.92375E+00 -2.41568E+01 -1.66428E+01 -1.86229E+01 -2.30882E+01 -1.14342E+01 -2.77016E+01
 -3.18466E+00 -3.00783E+01 +5.43911E+00 -3.00013E+01 +1.37162E+01 -2.74607E+01 +2.09527E+01 -2.26551E+01
 +2.65403E+01 -1.59745E+01 +3.00085E+01 -7.96791E+00 +3.10643E+01 +7.03168E-01 +2.96171E+01 +9.32061E+00
 +2.57865E+01 +1.71705E+01 +1.98924E+01 +2.36033E+01 +1.24275E+01 +2.80891E+01 +4.01582E+00 +3.02620E+01
 -4.64034E+00 +2.99511E+01 -1.28198E+01 +2.71943E+01 -1.98434E+01 +2.22352E+01 -2.51315E+01 +1.55019E+01
 -2.82527E+01 +7.57008E+00 -2.89599E+01 -8.85449E-01 -2.72106E+01 -9.14866E+00 -2.31702E+01 -1.65228E+01
 -1.71972E+01 -2.23894E+01 -9.81197E+00 -2.62605E+01 -1.65241E+00 -2.78194E+01 +6.58077E+00 -2.69470E+01
 +1.41837E+01 -2.37314E+01 +2.05091E+01 -1.84595E+01 +2.50212E+01 -1.15917E+01 +2.73406E+01 -3.72243E+00
 +2.72762E+01 +4.47105E+00 +2.48405E+01 +1.22866E+01 +2.02479E+01 +1.90568E+01 +1.38956E+01 +2.42060E+01
 +6.32894E+00 +2.72987E+01 -1.80542E+00 +2.80758E+01 -9.81513E+00 +2.64766E+01 -1.70212E+01 +2.26423E+01
 -2.28160E+01 +1.69038E+01 -2.67144E+01 +9.75210E+00 -2.83947E+01 +1.79617E+00 -2.77254E+01 -6.28990E+00
