 Created: 19-Jan-2021
 $NMID
 ID='D:\BASISSIMULATI'
 FMTDAT='(8E13.5)'
 VOLUME=   1.00000E+00
 TRAMP=   1.00000E+00
 $END
 +2.43021E+01 +2.38443E-02 +2.32323E+01 +3.52465E+00 +2.01911E+01 +6.83396E+00 +1.55273E+01 +9.77244E+00
 +9.76939E+00 +1.21708E+01 +3.55906E+00 +1.38782E+01 -2.42891E+00 +1.47741E+01 -7.56933E+00 +1.47824E+01
 -1.13616E+01 +1.38858E+01 -1.34871E+01 +1.21385E+01 -1.38423E+01 +9.67267E+00 -1.25434E+01 +6.69698E+00
 -9.90332E+00 +3.48489E+00 -6.38432E+00 +3.52276E-01 -2.53364E+00 -2.37417E+00 +1.08914E+00 -4.39479E+00
 +3.98312E+00 -5.47620E+00 +5.76643E+00 -5.48669E+00 +6.21857E+00 -4.42189E+00 +5.30017E+00 -2.41617E+00
 +3.14884E+00 +2.63593E-01 +5.29487E-02 +3.24261E+00 -3.59184E+00 +6.07942E+00 -7.33668E+00 +8.31938E+00
 -1.07365E+01 +9.55400E+00 -1.34022E+01 +9.47830E+00 -1.50425E+01 +7.93807E+00 -1.54896E+01 +4.96010E+00
 -1.47086E+01 +7.60065E-01 -1.27894E+01 -4.27424E+00 -9.92626E+00 -9.62310E+00 -6.38600E+00 -1.46944E+01
 -2.47366E+00 -1.88954E+01 +1.50211E+00 -2.17067E+01 +5.25834E+00 -2.27508E+01 +8.55921E+00 -2.18427E+01
 +1.12285E+01 -1.90189E+01 +1.31532E+01 -1.45374E+01 +1.42803E+01 -8.85013E+00 +1.46093E+01 -2.55032E+00
 +1.41819E+01 +3.69932E+00 +1.30738E+01 +9.24713E+00 +1.13870E+01 +1.35322E+01 +9.24580E+00 +1.61526E+01
 +6.79374E+00 +1.69129E+01 +4.19176E+00 +1.58452E+01 +1.61450E+00 +1.32013E+01 -7.56283E-01 +9.41671E+00
 -2.74246E+00 +5.05148E+00 -4.18451E+00 +7.16829E-01 -4.95945E+00 -3.00368E+00 -4.99966E+00 -5.62748E+00
 -4.30914E+00 -6.83161E+00 -2.97410E+00 -6.48921E+00 -1.16446E+00 -4.67989E+00 +8.75657E-01 -1.67333E+00
 +2.84912E+00 +2.11085E+00 +4.43748E+00 +6.16084E+00 +5.33991E+00 +9.93993E+00 +5.31478E+00 +1.29542E+01
 +4.21807E+00 +1.48118E+01 +2.03282E+00 +1.52667E+01 -1.11565E+00 +1.42420E+01 -4.96229E+00 +1.18312E+01
 -9.12391E+00 +8.27826E+00 -1.31385E+01 +3.94089E+00 -1.65182E+01 -7.57482E-01 -1.88097E+01 -5.37978E+00
 -1.96540E+01 -9.52466E+00 -1.88379E+01 -1.28671E+01 -1.63297E+01 -1.51858E+01 -1.22923E+01 -1.63758E+01
 -7.07283E+00 -1.64459E+01 -1.16719E+00 -1.55037E+01 +4.83523E+00 -1.37312E+01 +1.03211E+01 -1.13560E+01
 +1.47277E+01 -8.62327E+00 +1.76125E+01 -5.76960E+00 +1.87098E+01 -3.00474E+00 +1.79642E+01 -4.99628E-01
 +1.55387E+01 +1.61828E+00 +1.17951E+01 +3.26431E+00 +7.24760E+00 +4.39249E+00 +2.49797E+00 +4.99050E+00
 -1.84127E+00 +5.07536E+00 -5.22457E+00 +4.69107E+00 -7.24224E+00 +3.90822E+00 -7.67118E+00 +2.82456E+00
 -6.50114E+00 +1.56513E+00 -3.93318E+00 +2.79699E-01 -3.50889E-01 -8.63889E-01 +3.73163E+00 -1.69161E+00
 +7.73764E+00 -2.04026E+00 +1.11025E+01 -1.77814E+00 +1.33453E+01 -8.26912E-01 +1.41284E+01 +8.18839E-01
 +1.32966E+01 +3.07808E+00 +1.08929E+01 +5.77924E+00 +7.14853E+00 +8.66794E+00 +2.44909E+00 +1.14274E+01
 -2.71634E+00 +1.37104E+01 -7.81736E+00 +1.51797E+01 -1.23465E+01 +1.55521E+01 -1.58775E+01 +1.46403E+01
 -1.81099E+01 +1.23869E+01 -1.88963E+01 +8.88371E+00 -1.82490E+01 +4.37373E+00 -1.63264E+01 -7.66625E-01
 -1.34038E+01 -6.06421E+00 -9.83259E+00 -1.10008E+01 -5.99342E+00 -1.50737E+01 -2.25191E+00 -1.78581E+01
 +1.07981E+00 -1.90624E+01 +3.77030E+00 -1.85686E+01 +5.68309E+00 -1.64526E+01 +6.77785E+00 -1.29794E+01
 +7.10015E+00 -8.57530E+00 +6.76305E+00 -3.77662E+00 +5.92423E+00 +8.35236E-01 +4.76259E+00 +4.70682E+00
 +3.45756E+00 +7.38292E+00 +2.17332E+00 +8.56515E+00 +1.04876E+00 +8.15086E+00 +1.92964E-01 +6.24694E+00
 -3.15306E-01 +3.15649E+00 -4.25869E-01 -6.60183E-01 -1.15169E-01 -4.64506E+00 +6.14471E-01 -8.21477E+00
 +1.73366E+00 -1.08361E+01 +3.18313E+00 -1.20951E+01 +4.87055E+00 -1.17498E+01 +6.66869E+00 -9.76156E+00
 +8.41724E+00 -6.29859E+00 +9.92968E+00 -1.71421E+00 +1.10066E+01 +3.49894E+00 +1.14546E+01 +8.77130E+00
 +1.11104E+01 +1.35274E+01 +9.86529E+00 +1.72557E+01 +7.68891E+00 +1.95691E+01 +4.64586E+00 +2.02473E+01
 +9.02920E-01 +1.92578E+01 -3.27639E+00 +1.67520E+01 -7.55088E+00 +1.30397E+01 -1.15335E+01 +8.54477E+00
 -1.48330E+01 +3.74950E+00 -1.71002E+01 -8.65074E-01 -1.80742E+01 -4.87465E+00 -1.76201E+01 -7.95652E+00
 -1.57542E+01 -9.91864E+00 -1.26512E+01 -1.07104E+01 -8.63131E+00 -1.04152E+01 -4.12809E+00 -9.22758E+00
 +3.60533E-01 -7.41892E+00 +4.33168E+00 -5.29743E+00 +7.34026E+00 -3.16826E+00 +9.05664E+00 -1.29876E+00
 +9.31145E+00 +1.07332E-01 +8.12075E+00 +9.24461E-01 +5.68783E+00 +1.10850E+00 +2.38049E+00 +6.89892E-01
 -1.31379E+00 -2.40558E-01 -4.84933E+00 -1.55001E+00 -7.69260E+00 -3.08269E+00 -9.39217E+00 -4.67688E+00
 -9.63900E+00 -6.17816E+00 -8.30899E+00 -7.44804E+00 -5.48184E+00 -8.36842E+00 -1.43364E+00 -8.84334E+00
 +3.39616E+00 -8.79949E+00 +8.45891E+00 -8.18728E+00 +1.31651E+01 -6.98360E+00 +1.69582E+01 -5.19659E+00
 +1.93835E+01 -2.87178E+00 +2.01438E+01 -9.81196E-02 +1.91350E+01 +2.98827E+00 +1.64563E+01 +6.20477E+00
 +1.23949E+01 +9.32927E+00 +7.38782E+00 +1.21145E+01 +1.96534E+00 +1.43092E+01 -3.31478E+00 +1.56852E+01
 -7.93474E+00 +1.60657E+01 -1.14765E+01 +1.53533E+01 -1.36665E+01 +1.35509E+01 -1.44011E+01 +1.07731E+01
 -1.37485E+01 +7.24459E+00 -1.19303E+01 +3.28374E+00 -9.28459E+00 -7.27507E-01 -6.21726E+00 -4.38490E+00
 -3.14761E+00 -7.30952E+00 -4.56777E-01 -9.19594E+00 +1.55554E+00 -9.85415E+00 +2.70059E+00 -9.23917E+00
 +2.91395E+00 -7.46333E+00 +2.25220E+00 -4.78870E+00 +8.75050E-01 -1.59919E+00 -9.83368E-01 +1.64453E+00
 -3.04931E+00 +4.46243E+00 -5.04498E+00 +6.41735E+00 -6.72032E+00 +7.17400E+00 -7.87733E+00 +6.54656E+00
 -8.38491E+00 +4.52823E+00 -8.18390E+00 +1.29802E+00 -7.28323E+00 -2.79671E+00 -5.74956E+00 -7.28025E+00
 -3.69324E+00 -1.16062E+01 -1.25329E+00 -1.52259E+01 +1.41608E+00 -1.76578E+01 +4.15609E+00 -1.85500E+01
 +6.81055E+00 -1.77265E+01 +9.23028E+00 -1.52111E+01 +1.12759E+01 -1.12268E+01 +1.28207E+01 -6.16872E+00
 +1.37548E+01 -5.56210E-01 +1.39918E+01 +5.03090E+00 +1.34780E+01 +1.00231E+01 +1.22020E+01 +1.39298E+01
 +1.02053E+01 +1.63969E+01 +7.58890E+00 +1.72458E+01 +4.51486E+00 +1.64903E+01 +1.20099E+00 +1.43277E+01
 -2.09341E+00 +1.11083E+01 -5.08964E+00 +7.28624E+00 -7.51826E+00 +3.35896E+00 -9.15096E+00 -1.95670E-01
 -9.83152E+00 -2.97735E+00 -9.50136E+00 -4.70867E+00 -8.21510E+00 -5.26267E+00 -6.14289E+00 -4.66982E+00
 -3.55770E+00 -3.10490E+00 -8.07756E-01 -8.56355E-01 +1.72317E+00 +1.71660E+00 +3.66332E+00 +4.23296E+00
 +4.70233E+00 +6.33812E+00 +4.63561E+00 +7.74525E+00 +3.39749E+00 +8.26504E+00 +1.07775E+00 +7.82089E+00
 -2.08173E+00 +6.44922E+00 -5.71067E+00 +4.28598E+00 -9.35242E+00 +1.54288E+00 -1.25193E+01 -1.52267E+00
 -1.47546E+01 -4.63911E+00 -1.56929E+01 -7.54974E+00 -1.51104E+01 -1.00357E+01 -1.29594E+01 -1.19312E+01
 -9.37967E+00 -1.31302E+01 -4.68715E+00 -1.35859E+01 +6.61194E-01 -1.33045E+01 +6.12074E+00 -1.23355E+01
 +1.11248E+01 -1.07620E+01 +1.51537E+01 -8.69092E+00 +1.77986E+01 -6.24641E+00 +1.88108E+01 -3.56509E+00
 +1.81322E+01 -7.93100E-01 +1.58998E+01 +1.91664E+00 +1.24267E+01 +4.40832E+00 +8.16083E+00 +6.52973E+00
 +3.62696E+00 +8.14185E+00 -6.39889E-01 +9.13142E+00 -4.16078E+00 +9.42520E+00 -6.57062E+00 +9.00375E+00
 -7.65990E+00 +7.91207E+00 -7.39540E+00 +6.26447E+00 -5.91776E+00 +4.24130E+00 -3.51704E+00 +2.07637E+00
 -5.90067E-01 +3.52632E-02 +2.41414E+00 -1.61393E+00 +5.05337E+00 -2.63403E+00 +6.94771E+00 -2.85226E+00
 +7.82469E+00 -2.18879E+00 +7.54856E+00 -6.75801E-01 +6.13091E+00 +1.53675E+00 +3.72223E+00 +4.19079E+00
 +5.86697E-01 +6.94524E+00 -2.93541E+00 +9.41439E+00 -6.47215E+00 +1.12153E+01 -9.66488E+00 +1.20183E+01
 -1.22080E+01 +1.15939E+01 -1.38791E+01 +9.84921E+00 -1.45560E+01 +6.84877E+00 -1.42210E+01 +2.81569E+00
 -1.29517E+01 -1.88791E+00 -1.09029E+01 -6.79954E+00 -8.28175E+00 -1.14095E+01 -5.32079E+00 -1.52223E+01
 -2.25273E+00 -1.78182E+01 +7.10212E-01 -1.89069E+01 +3.39074E+00 -1.83662E+01 +5.65407E+00 -1.62592E+01
 +7.40949E+00 -1.28295E+01 +8.60750E+00 -8.47209E+00 +9.23449E+00 -3.68551E+00 +9.30702E+00 +9.89847E-01
 +8.86711E+00 +5.03862E+00 +7.97933E+00 +8.03411E+00 +6.72960E+00 +9.69031E+00 +5.22453E+00 +9.89551E+00
 +3.59015E+00 +8.72324E+00 +1.96829E+00 +6.41936E+00 +5.09356E-01 +3.36714E+00 -6.38876E-01 +3.53520E-02
 -1.34617E+00 -3.08364E+00 -1.51688E+00 -5.53751E+00 -1.10674E+00 -6.97098E+00 -1.36540E-01 -7.16893E+00
 +1.30035E+00 -6.08040E+00 +3.03906E+00 -3.82087E+00 +4.85437E+00 -6.53356E-01 +6.48183E+00 +3.04862E+00
 +7.64740E+00 +6.85061E+00 +8.10221E+00 +1.03124E+01 +7.65821E+00 +1.30417E+01 +6.21960E+00 +1.47387E+01
 +3.80515E+00 +1.52280E+01 +5.57290E-01 +1.44720E+01 -3.26448E+00 +1.25682E+01 -7.30632E+00 +9.72911E+00
 -1.11571E+01 +6.25048E+00 -1.43955E+01 +2.47213E+00 -1.66422E+01 -1.26317E+00 -1.76088E+01 -4.64711E+00
 -1.71388E+01 -7.43527E+00 -1.52328E+01 -9.46570E+00 -1.20551E+01 -1.06658E+01 -7.91936E+00 -1.10476E+01
 -3.25420E+00 -1.06947E+01 +1.44615E+00 -9.74252E+00 +5.68165E+00 -8.35688E+00 +9.00792E+00 -6.71287E+00
 +1.10919E+01 -4.97764E+00 +1.17538E+01 -3.29800E+00 +1.09904E+01 -1.79342E+00 +8.97469E+00 -5.53757E-01
 +6.03421E+00 +3.59713E-01 +2.60825E+00 +9.11757E-01 -8.08918E-01 +1.09072E+00 -3.73190E+00 +9.07314E-01
 -5.74677E+00 +3.95061E-01 -6.56394E+00 -3.88091E-01 -6.05468E+00 -1.35810E+00 -4.26634E+00 -2.40472E+00
 -1.41481E+00 -3.39463E+00 +2.14477E+00 -4.17893E+00 +5.96469E+00 -4.60557E+00 +9.56248E+00 -4.53608E+00
 +1.24820E+01 -3.86497E+00 +1.43497E+01 -2.53913E+00 +1.49196E+01 -5.74150E-01 +1.40999E+01 +1.93569E+00
 +1.19606E+01 +4.81656E+00 +8.71985E+00 +7.82488E+00 +4.71286E+00 +1.06681E+01 +3.47761E-01 +1.30349E+01
 -3.94545E+00 +1.46313E+01 -7.76585E+00 +1.52193E+01 -1.07859E+01 +1.46514E+01 -1.27840E+01 +1.28966E+01
 -1.36620E+01 +1.00544E+01 -1.34463E+01 +6.35136E+00 -1.22739E+01 +2.12231E+00 -1.03668E+01 -2.22432E+00
 -7.99798E+00 -6.25264E+00 -5.45554E+00 -9.55131E+00 -3.00863E+00 -1.17849E+01 -8.80027E-01 -1.27378E+01
 +7.72365E-01 -1.23440E+01 +1.86364E+00 -1.06986E+01 +2.38027E+00 -8.04939E+00 +2.37037E+00 -4.76758E+00
 +1.92864E+00 -1.30238E+00 +1.17889E+00 +1.87554E+00 +2.57157E-01 +4.33450E+00 -7.02575E-01 +5.73787E+00
 -1.57862E+00 +5.88857E+00 -2.26761E+00 +4.75578E+00 -2.68698E+00 +2.48016E+00 -2.77513E+00 -6.43226E-01
