 Created: 19-Jan-2021
 $NMID
 ID='D:\BASISSIMULATI'
 FMTDAT='(8E13.5)'
 VOLUME=   1.00000E+00
 TRAMP=   1.00000E+00
 $END
 +8.10176E+00 +7.82089E-03 +8.00590E+00 +1.20046E+00 +7.73558E+00 +2.36505E+00 +7.29697E+00 +3.47622E+00
 +6.69991E+00 +4.50984E+00 +5.95765E+00 +5.44347E+00 +5.08663E+00 +6.25692E+00 +4.10603E+00 +6.93263E+00
 +3.03742E+00 +7.45607E+00 +1.90423E+00 +7.81607E+00 +7.31301E-01 +8.00505E+00 -4.55742E-01 +8.01913E+00
 -1.63098E+00 +7.85829E+00 -2.76881E+00 +7.52632E+00 -3.84446E+00 +7.03072E+00 -4.83457E+00 +6.38255E+00
 -5.71769E+00 +5.59620E+00 -6.47471E+00 +4.68903E+00 -7.08934E+00 +3.68102E+00 -7.54838E+00 +2.59430E+00
 -7.84207E+00 +1.45271E+00 -7.96427E+00 +2.81229E-01 -7.91257E+00 -8.94550E-01 -7.68838E+00 -2.04897E+00
 -7.29686E+00 -3.15690E+00 -6.74680E+00 -4.19423E+00 -6.05046E+00 -5.13845E+00 -5.22326E+00 -5.96913E+00
 -4.28343E+00 -6.66831E+00 -3.25166E+00 -7.22096E+00 -2.15058E+00 -7.61526E+00 -1.00433E+00 -7.84284E+00
 +1.62022E-01 -7.89902E+00 +1.32301E+00 -7.78283E+00 +2.45333E+00 -7.49708E+00 +3.52836E+00 -7.04826E+00
 +4.52475E+00 -6.44643E+00 +5.42089E+00 -5.70494E+00 +6.19740E+00 -4.84019E+00 +6.83752E+00 -3.87124E+00
 +7.32751E+00 -2.81937E+00 +7.65692E+00 -1.70767E+00 +7.81881E+00 -5.60460E-01 +7.80992E+00 +5.97168E-01
 +7.63071E+00 +1.73996E+00 +7.28535E+00 +2.84300E+00 +6.78165E+00 +3.88231E+00 +6.13082E+00 +4.83531E+00
 +5.34730E+00 +5.68136E+00 +4.44839E+00 +6.40217E+00 +3.45387E+00 +6.98222E+00 +2.38558E+00 +7.40907E+00
 +1.26694E+00 +7.67366E+00 +1.22419E-01 +7.77048E+00 -1.02297E+00 +7.69766E+00 -2.14426E+00 +7.45708E+00
 -3.21701E+00 +7.05423E+00 -4.21792E+00 +6.49816E+00 -5.12527E+00 +5.80124E+00 -5.91941E+00 +4.97889E+00
 -6.58320E+00 +4.04924E+00 -7.10237E+00 +3.03273E+00 -7.46582E+00 +1.95168E+00 -7.66587E+00 +8.29756E-01
 -7.69841E+00 -3.08505E-01 -7.56300E+00 -1.43825E+00 -7.26285E+00 -2.53485E+00 -6.80477E+00 -3.57445E+00
 -6.19900E+00 -4.53446E+00 -5.45898E+00 -5.39406E+00 -4.60105E+00 -6.13467E+00 -3.64413E+00 -6.74032E+00
 -2.60923E+00 -7.19801E+00 -1.51904E+00 -7.49799E+00 -3.97440E-01 -7.63398E+00 +7.31071E-01 -7.60325E+00
 +1.84187E+00 -7.40674E+00 +2.91075E+00 -7.04900E+00 +3.91447E+00 -6.53808E+00 +4.83124E+00 -5.88537E+00
 +5.64120E+00 -5.10532E+00 +6.32685E+00 -4.21515E+00 +6.87344E+00 -3.23444E+00 +7.26926E+00 -2.18473E+00
 +7.50592E+00 -1.08902E+00 +7.57850E+00 +2.87258E-02 +7.48568E+00 +1.14409E+00 +7.22974E+00 +2.23275E+00
 +6.81653E+00 +3.27100E+00 +6.25529E+00 +4.23629E+00 +5.55851E+00 +5.10766E+00 +4.74158E+00 +5.86627E+00
 +3.82253E+00 +6.49575E+00 +2.82155E+00 +6.98256E+00 +1.76060E+00 +7.31632E+00 +6.62917E-01 +7.48999E+00
 -4.47501E-01 +7.50003E+00 -1.54641E+00 +7.34647E+00 -2.60988E+00 +7.03293E+00 -3.61475E+00 +6.56649E+00
 -4.53920E+00 +5.95757E+00 -5.36321E+00 +5.21967E+00 -6.06895E+00 +4.36909E+00 -6.64122E+00 +3.42455E+00
 -7.06774E+00 +2.40681E+00 -7.33945E+00 +1.33817E+00 -7.45066E+00 +2.42019E-01 -7.39919E+00 -8.57687E-01
 -7.18643E+00 -1.93696E+00 -6.81726E+00 -2.97230E+00 -6.29999E+00 -3.94118E+00 -5.64613E+00 -4.82259E+00
 -4.87015E+00 -5.59743E+00 -3.98917E+00 -6.24897E+00 -3.02257E+00 -6.76321E+00 -1.99157E+00 -7.12913E+00
 -9.18744E-01 -7.33898E+00 +1.72433E-01 -7.38845E+00 +1.25814E+00 -7.27669E+00 +2.31470E+00 -7.00641E+00
 +3.31911E+00 -6.58374E+00 +4.24956E+00 -6.01814E+00 +5.08587E+00 -5.32217E+00 +5.80994E+00 -4.51122E+00
 +6.40616E+00 -3.60315E+00 +6.86173E+00 -2.61792E+00 +7.16692E+00 -1.57714E+00 +7.31533E+00 -5.03601E-01
 +7.30395E+00 +5.79240E-01 +7.13330E+00 +1.64775E+00 +6.80733E+00 +2.67864E+00 +6.33341E+00 +3.64950E+00
 +5.72210E+00 +4.53923E+00 +4.98694E+00 +5.32857E+00 +4.14418E+00 +6.00045E+00 +3.21236E+00 +6.54041E+00
 +2.21193E+00 +6.93688E+00 +1.16484E+00 +7.18142E+00 +9.39785E-02 +7.26896E+00 -9.77248E-01 +7.19782E+00
 -2.02548E+00 +6.96981E+00 -3.02789E+00 +6.59015E+00 -3.96269E+00 +6.06735E+00 -4.80959E+00 +5.41304E+00
 -5.55027E+00 +4.64170E+00 -6.16874E+00 +3.77033E+00 -6.65169E+00 +2.81810E+00 -6.98881E+00 +1.80591E+00
 -7.17298E+00 +7.55909E-01 -7.20041E+00 -3.08924E-01 -7.07076E+00 -1.36535E+00 -6.78710E+00 -2.39034E+00
 -6.35585E+00 -3.36158E+00 -5.78667E+00 -4.25799E+00 -5.09216E+00 -5.06012E+00 -4.28769E+00 -5.75063E+00
 -3.39097E+00 -6.31464E+00 -2.42169E+00 -6.74004E+00 -1.40113E+00 -7.01777E+00 -3.51598E-01 -7.14200E+00
 +7.03949E-01 -7.11027E+00 +1.74249E+00 -6.92352E+00 +2.74139E+00 -6.58606E+00 +3.67894E+00 -6.10549E+00
 +4.53477E+00 -5.49250E+00 +5.29036E+00 -4.76069E+00 +5.92938E+00 -3.92620E+00 +6.43808E+00 -3.00739E+00
 +6.80557E+00 -2.02442E+00 +7.02404E+00 -9.98851E-01 +7.08898E+00 +4.68978E-02 +6.99921E+00 +1.08998E+00
 +6.75693E+00 +2.10766E+00 +6.36765E+00 +3.07777E+00 +5.84011E+00 +3.97923E+00 +5.18602E+00 +4.79248E+00
 +4.41985E+00 +5.49994E+00 +3.55849E+00 +6.08633E+00 +2.62087E+00 +6.53906E+00 +1.62756E+00 +6.84846E+00
 +6.00310E-01 +7.00801E+00 -4.38419E-01 +7.01447E+00 -1.46596E+00 +6.86793E+00 -2.45991E+00 +6.57183E+00
 -3.39865E+00 +6.13286E+00 -4.26179E+00 +5.56082E+00 -5.03063E+00 +4.86840E+00 -5.68854E+00 +4.07088E+00
 -6.22136E+00 +3.18584E+00 -6.61765E+00 +2.23269E+00 -6.86898E+00 +1.23235E+00 -6.97011E+00 +2.06700E-01
 -6.91906E+00 -8.21849E-01 -6.71719E+00 -1.83086E+00 -6.36913E+00 -2.79835E+00 -5.88270E+00 -3.70330E+00
 -5.26874E+00 -4.52605E+00 -4.54083E+00 -5.24880E+00 -3.71503E+00 -5.85594E+00 -2.80949E+00 -6.33441E+00
 -1.84411E+00 -6.67397E+00 -8.40015E-01 -6.86744E+00 +1.80822E-01 -6.91082E+00 +1.19611E+00 -6.80342E+00
 +2.18372E+00 -6.54780E+00 +3.12215E+00 -6.14977E+00 +3.99102E+00 -5.61824E+00 +4.77148E+00 -4.96501E+00
 +5.44664E+00 -4.20452E+00 +6.00196E+00 -3.35352E+00 +6.42550E+00 -2.43072E+00 +6.70823E+00 -1.45635E+00
 +6.84421E+00 -4.51746E-01 +6.83071E+00 +5.61133E-01 +6.66825E+00 +1.56018E+00 +6.36061E+00 +2.52364E+00
 +5.91473E+00 +3.43054E+00 +5.34055E+00 +4.26120E+00 +4.65079E+00 +4.99762E+00 +3.86068E+00 +5.62388E+00
 +2.98761E+00 +6.12650E+00 +2.05075E+00 +6.49472E+00 +1.07063E+00 +6.72070E+00 +6.86999E-02 +6.79976E+00
 -9.33156E-01 +6.73038E+00 -1.91309E+00 +6.51433E+00 -2.84976E+00 +6.15653E+00 -3.72280E+00 +5.66503E+00
 -4.51328E+00 +5.05074E+00 -5.20409E+00 +4.32725E+00 -5.78030E+00 +3.51053E+00 -6.22955E+00 +2.61852E+00
 -6.54222E+00 +1.67081E+00 -6.71172E+00 +6.88135E-01 -6.73457E+00 -3.08001E-01 -6.61050E+00 -1.29586E+00
 -6.34245E+00 -2.25390E+00 -5.93649E+00 -3.16128E+00 -5.40169E+00 -3.99829E+00 -4.74993E+00 -4.74678E+00
 -3.99558E+00 -5.39057E+00 -3.15528E+00 -5.91578E+00 -2.24748E+00 -6.31114E+00 -1.29209E+00 -6.56824E+00
 -3.10018E-01 -6.68168E+00 +6.77276E-01 -6.64921E+00 +1.64825E+00 -6.47178E+00 +2.58175E+00 -6.15347E+00
 +3.45747E+00 -5.70145E+00 +4.25642E+00 -5.12580E+00 +4.96128E+00 -4.43925E+00 +5.55682E+00 -3.65697E+00
 +6.03024E+00 -2.79615E+00 +6.37139E+00 -1.87570E+00 +6.57305E+00 -9.15780E-01 +6.63103E+00 +6.26026E-02
 +6.54430E+00 +1.03808E+00 +6.31497E+00 +1.98939E+00 +5.94828E+00 +2.89582E+00 +5.45242E+00 +3.73767E+00
 +4.83843E+00 +4.49668E+00 +4.11987E+00 +5.15642E+00 +3.31259E+00 +5.70266E+00 +2.43433E+00 +6.12368E+00
 +1.50435E+00 +6.41047E+00 +5.43021E-01 +6.55700E+00 -4.28642E-01 +6.56030E+00 -1.38943E+00 +6.42050E+00
 -2.31841E+00 +6.14090E+00 -3.19536E+00 +5.72780E+00 -4.00125E+00 +5.19042E+00 -4.71860E+00 +4.54069E+00
 -5.33192E+00 +3.79294E+00 -5.82798E+00 +2.96364E+00 -6.19616E+00 +2.07101E+00 -6.42862E+00 +1.13461E+00
 -6.52051E+00 +1.74931E-01 -6.47004E+00 -7.87056E-01 -6.27853E+00 -1.73037E+00 -5.95040E+00 -2.63446E+00
 -5.49299E+00 -3.47967E+00 -4.91651E+00 -4.24767E+00 -4.23370E+00 -4.92182E+00 -3.45962E+00 -5.48756E+00
 -2.61131E+00 -5.93274E+00 -1.70737E+00 -6.24782E+00 -7.67616E-01 -6.42614E+00 +1.87406E-01 -6.46403E+00
 +1.13684E+00 -6.36087E+00 +2.05999E+00 -6.11915E+00 +2.93677E+00 -5.74435E+00 +3.74811E+00 -5.24485E+00
 +4.47644E+00 -4.63175E+00 +5.10599E+00 -3.91859E+00 +5.62319E+00 -3.12108E+00 +6.01694E+00 -2.25675E+00
 +6.27884E+00 -1.34457E+00 +6.40339E+00 -4.04484E-01 +6.38808E+00 +5.42944E-01 +6.23347E+00 +1.47704E+00
 +5.94316E+00 +2.37746E+00 +5.52368E+00 +3.22462E+00 +4.98438E+00 +4.00011E+00 +4.33722E+00 +4.68714E+00
 +3.59648E+00 +5.27087E+00 +2.77847E+00 +5.73873E+00 +1.90114E+00 +6.08069E+00 +9.83725E-01 +6.28949E+00
 +4.62938E-02 +6.36079E+00 -8.90676E-01 +6.29325E+00 -1.80675E+00 +6.08856E+00 -2.68198E+00 +5.75140E+00
 -3.49734E+00 +5.28932E+00 -4.23515E+00 +4.71262E+00 -4.87943E+00 +4.03404E+00 -5.41627E+00 +3.26853E+00
 -5.83415E+00 +2.43295E+00 -6.12412E+00 +1.54561E+00 -6.28008E+00 +6.25957E-01 -6.29882E+00 -3.05907E-01
 -6.18015E+00 -1.22964E+00 -5.92688E+00 -2.12510E+00 -5.54474E+00 -2.97280E+00 -5.04227E+00 -3.75434E+00
 -4.43062E+00 -4.45277E+00 -3.72329E+00 -5.05299E+00 -2.93587E+00 -5.54206E+00 -2.08566E+00 -5.90949E+00
 -1.19129E+00 -6.14746E+00 -2.72338E-01 -6.25098E+00 +6.51107E-01 -6.21800E+00 +1.55890E+00 -6.04945E+00
 +2.43127E+00 -5.74924E+00 +3.24925E+00 -5.32410E+00 +3.99507E+00 -4.78351E+00 +4.65259E+00 -4.13944E+00
 +5.20761E+00 -3.40610E+00 +5.64818E+00 -2.59963E+00 +5.96487E+00 -1.73772E+00 +6.15096E+00 -8.39266E-01
 +6.20262E+00 +7.60829E-02 +6.11891E+00 +9.88336E-01 +5.90188E+00 +1.87760E+00 +5.55647E+00 +2.72452E+00
 +5.09041E+00 +3.51069E+00 +4.51407E+00 +4.21905E+00 +3.84017E+00 +4.83429E+00 +3.08358E+00 +5.34312E+00
 +2.26093E+00 +5.73462E+00 +1.39025E+00 +6.00044E+00 +4.90623E-01 +6.13497E+00 -4.18295E-01 +6.13548E+00
 -1.31666E+00 +6.00218E+00 -2.18491E+00 +5.73817E+00 -3.00413E+00 +5.34944E+00 -3.75655E+00 +4.84464E+00
 -4.42586E+00 +4.23497E+00 -4.99759E+00 +3.53389E+00 -5.45943E+00 +2.75684E+00 -5.80147E+00 +1.92088E+00
 -6.01644E+00 +1.04434E+00 -6.09985E+00 +1.46402E-01 -6.05010E+00 -7.53323E-01 -5.86847E+00 -1.63521E+00
 -5.55914E+00 -2.48004E+00 -5.12904E+00 -3.26946E+00 -4.58776E+00 -3.98633E+00 -3.94727E+00 -4.61514E+00
 -3.22169E+00 -5.14230E+00 -2.42698E+00 -5.55648E+00 -1.58059E+00 -5.84883E+00 -7.01059E-01 -6.01315E+00
 +1.92385E-01 -6.04606E+00 +1.08023E+00 -5.94706E+00 +1.94312E+00 -5.71851E+00 +2.76228E+00 -5.36560E+00
