 Created: 19-Jan-2021
 $NMID
 ID='D:\BASISSIMULATI'
 FMTDAT='(8E13.5)'
 VOLUME=   1.00000E+00
 TRAMP=   1.00000E+00
 $END
 +1.62003E+01 +1.60234E-02 +1.52264E+01 +2.32419E+00 +1.24555E+01 +4.46892E+00 +8.23030E+00 +6.29622E+00
 +3.06948E+00 +7.66095E+00 -2.39860E+00 +8.43473E+00 -7.51554E+00 +8.51719E+00 -1.16754E+01 +7.84973E+00
 -1.43990E+01 +6.42971E+00 -1.53913E+01 +4.32243E+00 -1.45736E+01 +1.66763E+00 -1.20877E+01 -1.32215E+00
 -8.27234E+00 -4.37341E+00 -3.61552E+00 -7.17404E+00 +1.31082E+00 -9.40489E+00 +5.92371E+00 -1.07773E+01
 +9.70081E+00 -1.10724E+01 +1.22411E+01 -1.01757E+01 +1.33079E+01 -8.10291E+00 +1.28486E+01 -5.01047E+00
 +1.09909E+01 -1.18912E+00 +8.01722E+00 +2.96138E+00 +4.32073E+00 +6.97397E+00 +3.51702E-01 +1.03684E+01
 -3.43960E+00 +1.27109E+01 -6.65541E+00 +1.36725E+01 -8.99204E+00 +1.30765E+01 -1.02664E+01 +1.09292E+01
 -1.04251E+01 +7.42838E+00 -9.53779E+00 +2.94673E+00 -7.77568E+00 -2.00784E+00 -5.38166E+00 -6.85159E+00
 -2.63568E+00 -1.09963E+01 +1.79101E-01 -1.39239E+01 +2.80501E+00 -1.52537E+01 +5.03085E+00 -1.47945E+01
 +6.70372E+00 -1.25725E+01 +7.73227E+00 -8.83242E+00 +8.08295E+00 -4.00994E+00 +7.77178E+00 +1.32092E+00
 +6.85444E+00 +6.51869E+00 +5.41691E+00 +1.09548E+01 +3.56823E+00 +1.40927E+01 +1.43588E+00 +1.55555E+01
 -8.36972E-01 +1.51729E+01 -3.09360E+00 +1.30022E+01 -5.16715E+00 +9.31902E+00 -6.88710E+00 +4.58140E+00
 -8.08977E+00 -6.29880E-01 -8.63290E+00 -5.68534E+00 -8.41332E+00 -9.98589E+00 -7.38523E+00 -1.30365E+01
 -5.57608E+00 -1.45053E+01 -3.09652E+00 -1.42597E+01 -1.41482E-01 -1.23776E+01 +3.01991E+00 -9.13040E+00
 +6.06613E+00 -4.94338E+00 +8.65541E+00 -3.37328E-01 +1.04652E+01 +4.13869E+00 +1.12342E+01 +7.97532E+00
 +1.08013E+01 +1.07626E+01 +9.13518E+00 +1.22340E+01 +6.35016E+00 +1.22904E+01 +2.70358E+00 +1.10015E+01
 -1.42550E+00 +8.58677E+00 -5.57552E+00 +5.37914E+00 -9.25539E+00 +1.77737E+00 -1.20049E+01 -1.80533E+00
 -1.34550E+01 -4.99020E+00 -1.33789E+01 -7.47301E+00 -1.17287E+01 -9.05110E+00 -8.64820E+00 -9.63547E+00
 -4.46360E+00 -9.24794E+00 +3.51858E-01 -8.00574E+00 +5.23267E+00 -6.09718E+00 +9.59003E+00 -3.75280E+00
 +1.28858E+01 -1.21653E+00 +1.47018E+01 +1.27940E+00 +1.47954E+01 +3.53334E+00 +1.31329E+01 +5.38574E+00
 +9.89753E+00 +6.72360E+00 +5.46825E+00 +7.47945E+00 +3.74159E-01 +7.62693E+00 -4.77130E+00 +7.17523E+00
 -9.34719E+00 +6.16438E+00 -1.28031E+01 +4.66235E+00 -1.47279E+01 +2.76413E+00 -1.49009E+01 +5.91816E-01
 -1.33177E+01 -1.70587E+00 -1.01885E+01 -3.95659E+00 -5.90939E+00 -5.97155E+00 -1.00995E+00 -7.55788E+00
 +3.91511E+00 -8.53601E+00 +8.28095E+00 -8.76070E+00 +1.15847E+01 -8.14323E+00 +1.34655E+01 -6.67115E+00
 +1.37441E+01 -4.42195E+00 +1.24393E+01 -1.56724E+00 +9.75841E+00 +1.63501E+00 +6.06384E+00 +4.86092E+00
 +1.82287E+00 +7.75286E+00 -2.45415E+00 +9.96005E+00 -6.27759E+00 +1.11830E+01 -9.23627E+00 +1.12158E+01
 -1.10421E+01 +9.98011E+00 -1.15569E+01 +7.54554E+00 -1.07983E+01 +4.13172E+00 -8.92717E+00 +9.10618E-02
 -6.21741E+00 -4.12725E+00 -3.01532E+00 -8.02846E+00 +3.06568E-01 -1.11325E+01 +3.39422E+00 -1.30355E+01
 +5.94996E+00 -1.34650E+01 +7.75947E+00 -1.23197E+01 +8.70567E+00 -9.68935E+00 +8.76942E+00 -5.85031E+00
 +8.01890E+00 -1.23631E+00 +6.59062E+00 +3.61183E+00 +4.66609E+00 +8.11193E+00 +2.44789E+00 +1.17132E+01
 +1.38451E-01 +1.39667E+01 -2.07624E+00 +1.45833E+01 -4.03711E+00 +1.34730E+01 -5.61698E+00 +1.07582E+01
 -6.72147E+00 +6.75964E+00 -7.28760E+00 +1.95774E+00 -7.28209E+00 -3.06792E+00 -6.70086E+00 -7.71117E+00
 -5.57030E+00 -1.14154E+01 -3.95017E+00 -1.37428E+01 -1.93678E+00 -1.44285E+01 +3.35287E-01 -1.34111E+01
 +2.69514E+00 -1.08378E+01 +4.94274E+00 -7.04278E+00 +6.86239E+00 -2.50152E+00 +8.24228E+00 +2.23089E+00
 +8.89845E+00 +6.59050E+00 +8.70045E+00 +1.00743E+01 +7.59493E+00 +1.23001E+01 +5.62311E+00 +1.30495E+01
 +2.92840E+00 +1.22880E+01 -2.48498E-01 +1.01618E+01 -3.58819E+00 +6.97234E+00 -6.72392E+00 +3.13174E+00
 -9.28268E+00 -8.92201E-01 -1.09315E+01 -4.63541E+00 -1.14225E+01 -7.69275E+00 -1.06313E+01 -9.76242E+00
 -8.58123E+00 -1.06745E+01 -5.45077E+00 -1.04014E+01 -1.56055E+00 -9.04983E+00 +2.65900E+00 -6.83725E+00
 +6.71639E+00 -4.05734E+00 +1.01183E+01 -1.03944E+00 +1.24324E+01 +1.89186E+00 +1.33443E+01 +4.45188E+00
 +1.27024E+01 +6.42197E+00 +1.05424E+01 +7.66450E+00 +7.08895E+00 +8.12626E+00 +2.73209E+00 +7.83189E+00
 -2.01773E+00 +6.86972E+00 -6.59182E+00 +5.37351E+00 -1.04340E+01 +3.50337E+00 -1.30711E+01 +1.42861E+00
 -1.41738E+01 -6.85658E-01 -1.35994E+01 -2.68734E+00 -1.14112E+01 -4.44222E+00 -7.87172E+00 -5.83595E+00
 -3.40940E+00 -6.77507E+00 +1.43486E+00 -7.18843E+00 +6.07616E+00 -7.03050E+00 +9.95903E+00 -6.28657E+00
 +1.26265E+01 -4.97944E+00 +1.37761E+01 -3.17589E+00 +1.32949E+01 -9.90951E-01 +1.12703E+01 +1.41229E+00
 +7.97507E+00 +3.82933E+00 +3.82933E+00 +6.02814E+00 -6.55534E-01 +7.77018E+00 -4.94234E+00 +8.83674E+00
 -8.53505E+00 +9.05772E+00 -1.10380E+01 +8.33885E+00 -1.22006E+01 +6.68295E+00 -1.19412E+01 +4.20126E+00
 -1.03498E+01 +1.11173E+00 -7.66846E+00 -2.27708E+00 -4.25396E+00 -5.59591E+00 -5.28713E-01 -8.45578E+00
 +3.07374E+00 -1.04954E+01 +6.16087E+00 -1.14286E+01 +8.42452E+00 -1.10865E+01 +9.67070E+00 -9.44587E+00
 +9.83301E+00 -6.64149E+00 +8.96938E+00 -2.95784E+00 +7.24418E+00 +1.19916E+00 +4.89933E+00 +5.34782E+00
 +2.21943E+00 +8.98848E+00 -5.04152E-01 +1.16662E+01 -3.00530E+00 +1.30299E+01 -5.06783E+00 +1.28810E+01
 -6.54081E+00 +1.12022E+01 -7.34389E+00 +8.16546E+00 -7.46405E+00 +4.11411E+00 -6.94567E+00 -4.76827E-01
 -5.87696E+00 -5.05843E+00 -4.37545E+00 -9.07610E+00 -2.57494E+00 -1.20395E+01 -6.15388E-01 -1.35850E+01
 +1.36391E+00 -1.35220E+01 +3.22833E+00 -1.18576E+01 +4.85041E+00 -8.79611E+00 +6.11245E+00 -4.71238E+00
 +6.91055E+00 -1.04465E-01 +7.16111E+00 +4.46977E+00 +6.80971E+00 +8.46293E+00 +5.84139E+00 +1.14062E+01
 +4.29061E+00 +1.29663E+01 +2.24835E+00 +1.29846E+01 -1.35930E-01 +1.14927E+01 -2.65969E+00 +8.70381E+00
 -5.08102E+00 +4.98183E+00 -7.14039E+00 +7.91528E-01 -8.58889E+00 -3.36175E+00 -9.21966E+00 -6.99543E+00
 -8.89836E+00 -9.70773E+00 -7.58827E+00 -1.12230E+01 -5.36534E+00 -1.14192E+01 -2.42009E+00 -1.03349E+01
 +9.55581E-01 -8.15564E+00 +4.39633E+00 -5.18361E+00 +7.50347E+00 -1.79393E+00 +9.89287E+00 +1.61444E+00
 +1.12446E+01 +4.66731E+00 +1.13473E+01 +7.05712E+00 +1.01321E+01 +8.57304E+00 +7.68825E+00 +9.11675E+00
 +4.26072E+00 +8.70312E+00 +2.25818E-01 +7.44726E+00 -3.95073E+00 +5.54117E+00 -7.76940E+00 +3.22411E+00
 -1.07591E+01 +7.51459E-01 -1.25376E+01 -1.63396E+00 -1.28629E+01 -3.72457E+00 -1.16673E+01 -5.36296E+00
 -9.06965E+00 -6.44852E+00 -5.36442E+00 -6.93669E+00 -9.87055E-01 -6.83268E+00 +3.53899E+00 -6.18205E+00
 +7.66733E+00 -5.06055E+00 +1.08973E+01 -3.56513E+00 +1.28373E+01 -1.80715E+00 +1.32540E+01 +9.18748E-02
 +1.21020E+01 +2.00305E+00 +9.52836E+00 +3.79233E+00 +5.85362E+00 +5.32410E+00 +1.52980E+00 +6.46713E+00
 -2.91734E+00 +7.10376E+00 -6.95486E+00 +7.14202E+00 -1.01091E+01 +6.52938E+00 -1.20230E+01 +5.26608E+00
 -1.24983E+01 +3.41540E+00 -1.15153E+01 +1.10805E+00 -9.23035E+00 -1.46137E+00 -5.95137E+00 -4.04730E+00
 -2.09442E+00 -6.37521E+00 +1.87112E+00 -8.17093E+00 +5.48201E+00 -9.19433E+00 +8.33714E+00 -9.27276E+00
 +1.01431E+01 -8.32969E+00 +1.07439E+01 -6.40360E+00 +1.01322E+01 -3.65367E+00 +8.44083E+00 -3.49898E-01
 +5.91862E+00 +3.15230E+00 +2.89257E+00 +6.45074E+00 -2.75992E-01 +9.14430E+00 -3.23626E+00 +1.08837E+01
 -5.68753E+00 +1.14190E+01 -7.40907E+00 +1.06363E+01 -8.27749E+00 +8.57913E+00 -8.27057E+00 +5.45015E+00
 -7.45866E+00 +1.59176E+00 -5.98638E+00 -2.55187E+00 -4.04805E+00 -6.48768E+00 -1.86116E+00 -9.73473E+00
 +3.58577E-01 -1.18855E+01 +2.41758E+00 -1.26591E+01 +4.15836E+00 -1.19400E+01 +5.46666E+00 -9.79515E+00
 +6.27264E+00 -6.46860E+00 +6.54750E+00 -2.35294E+00 +6.29773E+00 +2.05883E+00 +5.55891E+00 +6.23470E+00
 +4.39067E+00 +9.67037E+00 +2.87334E+00 +1.19527E+01 +1.10641E+00 +1.28114E+01 -7.92413E-01 +1.21523E+01
 -2.68869E+00 +1.00678E+01 -4.43510E+00 +6.82385E+00 -5.87873E+00 +2.82420E+00 -6.87235E+00 -1.44169E+00
 -7.28933E+00 -5.46110E+00 -7.04056E+00 -8.76212E+00 -6.09112E+00 -1.09711E+01 -4.47376E+00 -1.18561E+01
 -2.29614E+00 -1.13513E+01 +2.60593E-01 -9.55960E+00 +2.95323E+00 -6.73404E+00 +5.49811E+00 -3.24087E+00
 +7.60111E+00 +4.89819E-01 +8.99289E+00 +4.01917E+00 +9.46496E+00 +6.95311E+00 +8.90158E+00 +8.98733E+00
 +7.30249E+00 +9.93865E+00 +4.79244E+00 +9.75941E+00 +1.61495E+00 +8.53419E+00 -1.89005E+00 +6.46058E+00
 -5.32293E+00 +3.81753E+00 -8.27141E+00 +9.26523E-01 -1.03621E+01 -1.88913E+00 -1.13100E+01 -4.34121E+00
 -1.09586E+01 -6.20563E+00 -9.30591E+00 -7.34061E+00 -6.51041E+00 -7.69295E+00 -2.87709E+00 -7.29323E+00
 +1.17641E+00 -6.24189E+00 +5.16945E+00 -4.68953E+00 +8.61752E+00 -2.81482E+00 +1.10936E+01 -8.03378E-01
 +1.22832E+01 +1.16982E+00 +1.20262E+01 +2.95298E+00 +1.03393E+01 +4.42458E+00 +7.41579E+00 +5.49570E+00
 +3.60294E+00 +6.10895E+00 -6.41003E-01 +6.23586E+00 -4.80399E+00 +5.87423E+00 -8.38450E+00 +5.04676E+00
 -1.09544E+01 +3.80116E+00 -1.22121E+01 +2.21154E+00 -1.20195E+01 +3.79622E-01 -1.04173E+01 -1.56546E+00
 -7.61742E+00 -3.47072E+00 -3.97414E+00 -5.16727E+00 +6.28120E-02 -6.48317E+00 +4.00601E+00 -7.26060E+00
 +7.39156E+00 -7.37566E+00 +9.83568E+00 -6.75818E+00 +1.10794E+01 -5.40844E+00 +1.10164E+01 -3.40743E+00
 +9.69970E+00 -9.18069E-01 +7.32960E+00 +1.82444E+00 +4.22223E+00 +4.53315E+00 +7.66056E-01 +6.89939E+00
 -2.62879E+00 +8.62914E+00 -5.58095E+00 +9.48116E+00 -7.78177E+00 +9.30194E+00 -9.02746E+00 +8.05201E+00
 -9.23614E+00 +5.81944E+00 -8.44867E+00 +2.81747E+00 -6.81448E+00 -6.34530E-01 -4.56533E+00 -4.14521E+00
 -1.98154E+00 -7.29699E+00 +6.44318E-01 -9.69772E+00 +3.04147E+00 -1.10316E+01 +4.98845E+00 -1.11026E+01
 +6.33150E+00 -9.86393E+00 +6.99269E+00 -7.42914E+00 +6.96803E+00 -4.06306E+00 +6.31764E+00 -1.52437E-01
 +5.15032E+00 +3.83992E+00 +3.60587E+00 +7.43203E+00 +1.83775E+00 +1.01833E+01 -1.51576E-03 +1.17510E+01
 -1.77100E+00 +1.19346E+01 -3.34784E+00 +1.07028E+01 -4.63010E+00 +8.19868E+00 -5.53742E+00 +4.72237E+00
