 Created: 19-Jan-2021
 $NMID
 ID='D:\BASISSIMULATI'
 FMTDAT='(8E13.5)'
 VOLUME=   1.00000E+00
 TRAMP=   1.00000E+00
 $END
 +2.70711E+01 +2.81008E-02 +2.54140E+01 +8.55630E+00 +2.08308E+01 +1.57835E+01 +1.41138E+01 +2.06959E+01
 +6.38612E+00 +2.27130E+01 -1.11952E+00 +2.17791E+01 -7.29593E+00 +1.83468E+01 -1.13605E+01 +1.32611E+01
 -1.29784E+01 +7.57183E+00 -1.22888E+01 +2.31714E+00 -9.83295E+00 -1.67451E+00 -6.40745E+00 -3.92374E+00
 -2.87742E+00 -4.35543E+00 +5.98353E-03 -3.26448E+00 +1.74524E+00 -1.20683E+00 +2.16600E+00 +1.15353E+00
 +1.40767E+00 +3.20356E+00 -1.55335E-01 +4.50933E+00 -2.03660E+00 +4.88692E+00 -3.77146E+00 +4.40488E+00
 -5.02813E+00 +3.32478E+00 -5.67106E+00 +2.00040E+00 -5.76499E+00 +7.65264E-01 -5.52403E+00 -1.61410E-01
 -5.22386E+00 -7.26959E-01 -5.10333E+00 -1.04454E+00 -5.28330E+00 -1.34291E+00 -5.72447E+00 -1.88301E+00
 -6.23461E+00 -2.86596E+00 -6.52219E+00 -4.35843E+00 -6.28097E+00 -6.25607E+00 -5.28195E+00 -8.29523E+00
 -3.44774E+00 -1.01100E+01 -8.88921E-01 -1.13198E+01 +2.10786E+00 -1.16248E+01 +5.13752E+00 -1.08834E+01
 +7.76581E+00 -9.15361E+00 +9.62773E+00 -6.68425E+00 +1.05103E+01 -3.86070E+00 +1.03987E+01 -1.11658E+00
 +9.47463E+00 +1.16578E+00 +8.06606E+00 +2.74160E+00 +6.56260E+00 +3.55493E+00 +5.31624E+00 +3.74240E+00
 +4.55310E+00 +3.58830E+00 +4.31827E+00 +3.44244E+00 +4.46764E+00 +3.62134E+00 +4.70931E+00 +4.31760E+00
 +4.68445E+00 +5.54052E+00 +4.06797E+00 +7.10346E+00 +2.66395E+00 +8.66208E+00 +4.71944E-01 +9.79520E+00
 -2.29326E+00 +1.01093E+01 -5.23450E+00 +9.34203E+00 -7.85161E+00 +7.43939E+00 -9.64989E+00 +4.58754E+00
 -1.02531E+01 +1.19015E+00 -9.49473E+00 -2.20497E+00 -7.46700E+00 -5.01475E+00 -4.51427E+00 -6.74151E+00
 -1.17251E+00 -7.07914E+00 +1.93345E+00 -5.98125E+00 +4.21303E+00 -3.67649E+00 +5.22722E+00 -6.27331E-01
 +4.77556E+00 +2.55863E+00 +2.93490E+00 +5.24619E+00 +4.26953E-02 +6.89421E+00 -3.37047E+00 +7.15650E+00
 -6.68416E+00 +5.94214E+00 -9.30498E+00 +3.42459E+00 -1.07733E+01 -1.68212E-05 -1.08391E+01 -3.79450E+00
 -9.49368E+00 -7.38359E+00 -6.95417E+00 -1.02565E+01 -3.60767E+00 -1.20491E+01 +7.07237E-02 -1.25907E+01
 +3.60704E+00 -1.19110E+01 +6.60628E+00 -1.02084E+01 +8.80482E+00 -7.79212E+00 +1.00901E+01 -5.01312E+00
 +1.04883E+01 -2.19885E+00 +1.01279E+01 +3.93994E-01 +9.19107E+00 +2.60200E+00 +7.86642E+00 +4.35240E+00
 +6.31380E+00 +5.64077E+00 +4.64820E+00 +6.49910E+00 +2.94274E+00 +6.96495E+00 +1.24604E+00 +7.06123E+00
 -3.94330E-01 +6.79137E+00 -1.91209E+00 +6.14992E+00 -3.21368E+00 +5.14364E+00 -4.18498E+00 +3.81488E+00
 -4.71217E+00 +2.25837E+00 -4.71136E+00 +6.24353E-01 -4.15839E+00 -8.95286E-01 -3.10983E+00 -2.09624E+00
 -1.70774E+00 -2.80039E+00 -1.65007E-01 -2.89459E+00 +1.26726E+00 -2.36013E+00 +2.34409E+00 -1.28457E+00
 +2.87321E+00 +1.47867E-01 +2.75354E+00 +1.68652E+00 +1.99649E+00 +3.05937E+00 +7.25084E-01 +4.02355E+00
 -8.49381E-01 +4.41043E+00 -2.46828E+00 +4.15559E+00 -3.87536E+00 +3.30747E+00 -4.86443E+00 +2.01301E+00
 -5.31501E+00 +4.84058E-01 -5.20860E+00 -1.04772E+00 -4.62284E+00 -2.37712E+00 -3.70601E+00 -3.36282E+00
 -2.63832E+00 -3.94799E+00 -1.58970E+00 -4.16053E+00 -6.83663E-01 -4.09408E+00 +2.44769E-02 -3.87519E+00
 +5.50779E-01 -3.62547E+00 +9.67416E-01 -3.42789E+00 +1.37355E+00 -3.30560E+00 +1.86015E+00 -3.21789E+00
 +2.47767E+00 -3.07402E+00 +3.21493E+00 -2.76121E+00 +3.99429E+00 -2.17954E+00 +4.68466E+00 -1.27525E+00
 +5.12924E+00 -6.41442E-02 +5.18181E+00 +1.36084E+00 +4.74311E+00 +2.83998E+00 +3.78891E+00 +4.17314E+00
 +2.38338E+00 +5.15672E+00 +6.74612E-01 +5.62321E+00 -1.12720E+00 +5.47511E+00 -2.78428E+00 +4.70612E+00
 -4.07166E+00 +3.40544E+00 -4.81538E+00 +1.74448E+00 -4.92130E+00 -5.11360E-02 -4.38923E+00 -1.73839E+00
 -3.31056E+00 -3.09548E+00 -1.85065E+00 -3.95509E+00 -2.20117E-01 -4.22667E+00 +1.35900E+00 -3.90485E+00
 +2.68602E+00 -3.06363E+00 +3.60773E+00 -1.83906E+00 +4.03443E+00 -4.04564E-01 +3.94457E+00 +1.05601E+00
 +3.37914E+00 +2.37277E+00 +2.42836E+00 +3.40834E+00 +1.21446E+00 +4.06878E+00 -1.26011E-01 +4.30697E+00
 -1.45766E+00 +4.11997E+00 -2.65784E+00 +3.54248E+00 -3.62423E+00 +2.63870E+00 -4.27910E+00 +1.49426E+00
 -4.57145E+00 +2.09156E-01 -4.47822E+00 -1.10847E+00 -4.00525E+00 -2.34822E+00 -3.18782E+00 -3.40380E+00
 -2.09033E+00 -4.18049E+00 -8.03887E-01 -4.60344E+00 +5.59015E-01 -4.62627E+00 +1.87325E+00 -4.23828E+00
 +3.01284E+00 -3.46883E+00 +3.86467E+00 -2.38738E+00 +4.34213E+00 -1.09825E+00 +4.39656E+00 +2.69634E-01
 +4.02443E+00 +1.57709E+00 +3.26876E+00 +2.69103E+00 +2.21430E+00 +3.50040E+00 +9.77176E-01 +3.92939E+00
 -3.09591E-01 +3.94563E+00 -1.51232E+00 +3.56264E+00 -2.51225E+00 +2.83603E+00 -3.21823E+00 +1.85472E+00
 -3.57495E+00 +7.28597E-01 -3.56606E+00 -4.25151E-01 -3.21225E+00 -1.49510E+00 -2.56541E+00 -2.38630E+00
 -1.70019E+00 -3.02769E+00 -7.04494E-01 -3.37587E+00 +3.29635E-01 -3.41553E+00 +1.31387E+00 -3.15744E+00
 +2.16968E+00 -2.63469E+00 +2.83267E+00 -1.89822E+00 +3.25546E+00 -1.01214E+00 +3.40942E+00 -4.91903E-02
 +3.28573E+00 +9.13794E-01 +2.89582E+00 +1.80041E+00 +2.27104E+00 +2.53947E+00 +1.46137E+00 +3.07004E+00
 +5.32745E-01 +3.34644E+00 -4.37138E-01 +3.34288E+00 -1.36468E+00 +3.05689E+00 -2.16748E+00 +2.51112E+00
 -2.77217E+00 +1.75267E+00 -3.12203E+00 +8.49892E-01 -3.18343E+00 -1.13390E-01 -2.95026E+00 -1.04581E+00
 -2.44548E+00 -1.85760E+00 -1.71951E+00 -2.47004E+00 -8.45537E-01 -2.82394E+00 +8.78775E-02 -2.88621E+00
 +9.86032E-01 -2.65359E+00 +1.75808E+00 -2.15315E+00 +2.32665E+00 -1.43943E+00 +2.63598E+00 -5.88559E-01
 +2.65764E+00 +3.09930E-01 +2.39323E+00 +1.16266E+00 +1.87377E+00 +1.88228E+00 +1.15605E+00 +2.39647E+00
 +3.16109E-01 +2.65519E+00 -5.58982E-01 +2.63538E+00 -1.38043E+00 +2.34270E+00 -2.06687E+00 +1.81009E+00
 -2.55246E+00 +1.09364E+00 -2.79301E+00 +2.66074E-01 -2.76967E+00 -5.91188E-01 -2.48972E+00 -1.39652E+00
 -1.98468E+00 -2.07615E+00 -1.30608E+00 -2.57101E+00 -5.19359E-01 -2.84162E+00 +3.03121E-01 -2.87068E+00
 +1.08923E+00 -2.66331E+00 +1.77364E+00 -2.24509E+00 +2.30313E+00 -1.65836E+00 +2.64033E+00 -9.57324E-01
 +2.76567E+00 -2.02631E-01 +2.67760E+00 +5.44034E-01 +2.39138E+00 +1.22487E+00 +1.93675E+00 +1.79002E+00
 +1.35474E+00 +2.20073E+00 +6.94104E-01 +2.43136E+00 +7.58709E-03 +2.47049E+00 -6.51823E-01 +2.32110E+00
 -1.23444E+00 +1.99994E+00 -1.69717E+00 +1.53616E+00 -2.00640E+00 +9.69262E-01 -2.14039E+00 +3.46365E-01
 -2.09105E+00 -2.81046E-01 -1.86483E+00 -8.60873E-01 -1.48265E+00 -1.34441E+00 -9.78748E-01 -1.69035E+00
 -3.98350E-01 -1.86851E+00 +2.05735E-01 -1.86280E+00 +7.77408E-01 -1.67331E+00 +1.26216E+00 -1.31699E+00
 +1.61218E+00 -8.26893E-01 +1.79115E+00 -2.49850E-01 +1.77836E+00 +3.57346E-01 +1.57152E+00 +9.33012E-01
 +1.18800E+00 +1.41653E+00 +6.64094E-01 +1.75467E+00 +5.22514E-02 +1.90756E+00 -5.83715E-01 +1.85379E+00
 -1.17503E+00 +1.59373E+00 -1.65547E+00 +1.15064E+00 -1.96906E+00 +5.69201E-01 -2.07722E+00 -8.87323E-02
 -1.96410E+00 -7.50752E-01 -1.63944E+00 -1.34231E+00 -1.13832E+00 -1.79587E+00 -5.17422E-01 -2.05967E+00
 +1.51659E-01 -2.10472E+00 +7.91529E-01 -1.92894E+00 +1.32915E+00 -1.55775E+00 +1.70567E+00 -1.04065E+00
 +1.88431E+00 -4.44388E-01 +1.85521E+00 +1.56562E-01 +1.63615E+00 +6.90646E-01 +1.26912E+00 +1.09939E+00
 +8.13273E-01 +1.34540E+00 +3.35212E-01 +1.41695E+00 -1.01602E-01 +1.32828E+00 -4.46622E-01 +1.11570E+00
 -6.69503E-01 +8.30120E-01 -7.63639E-01 +5.27363E-01 -7.45400E-01 +2.57985E-01 -6.49241E-01 +5.84634E-02
 -5.19635E-01 -5.46888E-02 -4.01336E-01 -8.67929E-02 -3.29846E-01 -6.25348E-02 -3.23886E-01 -1.96272E-02
 -3.81358E-01 +1.88693E-04 -4.79632E-01 -3.89254E-02 -5.80186E-01 -1.57984E-01 -6.36804E-01 -3.57059E-01
 -6.05843E-01 -6.13287E-01 -4.56615E-01 -8.83555E-01 -1.79868E-01 -1.11160E+00 +2.07409E-01 -1.23838E+00
 +6.61999E-01 -1.21386E+00 +1.11959E+00 -1.00816E+00 +1.50444E+00 -6.19830E-01 +1.74198E+00 -7.95786E-02
 +1.77240E+00 +5.51598E-01 +1.56267E+00 +1.18984E+00 +1.11485E+00 +1.74050E+00 +4.68911E-01 +2.11298E+00
 -3.00613E-01 +2.23592E+00 -1.09409E+00 +2.07019E+00 -1.80090E+00 +1.61725E+00 -2.31606E+00 +9.21388E-01
 -2.55677E+00 +6.50859E-02 -2.47607E+00 -8.41793E-01 -2.07124E+00 -1.67757E+00 -1.38565E+00 -2.32655E+00
 -5.03375E-01 -2.69624E+00 +4.62327E-01 -2.73130E+00 +1.38516E+00 -2.42191E+00 +2.14379E+00 -1.80534E+00
 +2.63904E+00 -9.60535E-01 +2.80758E+00 +3.35672E-03 +2.63005E+00 +9.62548E-01 +2.13278E+00 +1.79584E+00
 +1.38296E+00 +2.40086E+00 +4.78353E-01 +2.70696E+00 -4.66608E-01 +2.68324E+00 -1.33616E+00 +2.34074E+00
 -2.02774E+00 +1.72909E+00 -2.46393E+00 +9.28584E-01 -2.60039E+00 +3.89635E-02 -2.42937E+00 -8.33164E-01
 -1.97880E+00 -1.58679E+00 -1.30760E+00 -2.13744E+00 -4.98098E-01 -2.42574E+00 +3.53479E-01 -2.42298E+00
 +1.14741E+00 -2.13357E+00 +1.79106E+00 -1.59438E+00 +2.20884E+00 -8.71022E-01 +2.35081E+00 -5.13097E-02
 +2.19926E+00 +7.63894E-01 +1.77224E+00 +1.47191E+00 +1.12343E+00 +1.98076E+00 +3.37480E-01 +2.22167E+00
 -4.79180E-01 +2.16001E+00 -1.21177E+00 +1.80263E+00 -1.75339E+00 +1.20004E+00 -2.02199E+00 +4.41945E-01
 -1.97520E+00 -3.53962E-01 -1.62033E+00 -1.05925E+00 -1.01673E+00 -1.55567E+00 -2.69253E-01 -1.75644E+00
 +4.87171E-01 -1.62404E+00 +1.11005E+00 -1.18049E+00 +1.47535E+00 -5.07592E-01 +1.50235E+00 +2.64418E-01
 +1.17234E+00 +9.78403E-01 +5.36793E-01 +1.47904E+00 -2.87524E-01 +1.64357E+00 -1.13683E+00 +1.40862E+00
 -1.82935E+00 +7.87323E-01 -2.20027E+00 -1.27362E-01 -2.13587E+00 -1.17513E+00 -1.60007E+00 -2.15508E+00
 -6.47353E-01 -2.86246E+00 +5.81388E-01 -3.12870E+00 +1.88032E+00 -2.85687E+00 +3.01429E+00 -2.04521E+00
 +3.76214E+00 -7.93421E-01 +3.95965E+00 +7.10489E-01 +3.53354E+00 +2.22104E+00 +2.51941E+00 +3.47848E+00
 +1.05958E+00 +4.25635E+00 -6.19258E-01 +4.40423E+00 -2.24505E+00 +3.87730E+00 -3.54846E+00 +2.74664E+00
 -4.31118E+00 +1.18825E+00 -4.40508E+00 -5.47485E-01 -3.81473E+00 -2.17992E+00 -2.63927E+00 -3.44739E+00
 -1.07337E+00 -4.15218E+00 +6.28392E-01 -4.19297E+00 +2.19676E+00 -3.57882E+00 +3.39366E+00 -2.42303E+00
 +4.05007E+00 -9.18963E-01 +4.08946E+00 +6.96663E-01 +3.53326E+00 +2.18514E+00 +2.48905E+00 +3.34381E+00
