 Created: 19-Jan-2021
 $NMID
 ID='D:\BASISSIMULATI'
 FMTDAT='(8E13.5)'
 VOLUME=   1.00000E+00
 TRAMP=   1.00000E+00
 $END
 +1.51097E+01 +1.50117E-02 +1.46356E+01 +3.50793E+00 +1.33072E+01 +6.75121E+00 +1.12270E+01 +9.52863E+00
 +8.55310E+00 +1.16623E+01 +5.48515E+00 +1.30268E+01 +2.24758E+00 +1.35581E+01 -9.29267E-01 +1.32581E+01
 -3.82821E+00 +1.21925E+01 -6.26287E+00 +1.04838E+01 -8.09225E+00 +8.29952E+00 -9.23114E+00 +5.83616E+00
 -9.65540E+00 +3.30194E+00 -9.40173E+00 +8.98128E-01 -8.56205E+00 -1.19819E+00 -7.27317E+00 -2.84885E+00
 -5.70255E+00 -3.96547E+00 -4.03172E+00 -4.51547E+00 -2.43878E+00 -4.52289E+00 -1.08167E+00 -4.06385E+00
 -8.36328E-02 -3.25738E+00 +4.77654E-01 -2.25222E+00 +5.76508E-01 -1.21127E+00 +2.40534E-01 -2.94727E-01
 -4.53197E-01 +3.56115E-01 -1.38671E+00 +6.33148E-01 -2.41357E+00 +4.72369E-01 -3.37405E+00 -1.39527E-01
 -4.11150E+00 -1.16349E+00 -4.48848E+00 -2.51155E+00 -4.40109E+00 -4.05492E+00 -3.79011E+00 -5.63619E+00
 -2.64799E+00 -7.08424E+00 -1.02103E+00 -8.23068E+00 +9.93602E-01 -8.92619E+00 +3.25554E+00 -9.05527E+00
 +5.59305E+00 -8.54804E+00 +7.81793E+00 -7.38801E+00 +9.74201E+00 -5.61509E+00 +1.11940E+01 -3.32347E+00
 +1.20347E+01 -6.54713E-01 +1.21703E+01 +2.21349E+00 +1.15603E+01 +5.08187E+00 +1.02228E+01 +7.74605E+00
 +8.23287E+00 +1.00136E+01 +5.71732E+00 +1.17202E+01 +2.84420E+00 +1.27431E+01 -1.90780E-01 +1.30114E+01
 -3.18034E+00 +1.25116E+01 -5.92254E+00 +1.12884E+01 -8.23707E+00 +9.44025E+00 -9.97965E+00 +7.11095E+00
 -1.10530E+01 +4.47679E+00 -1.14139E+01 +1.73169E+00 -1.10753E+01 -9.29145E-01 -1.01033E+01 -3.32536E+00
 -8.61078E+00 -5.30588E+00 -6.74546E+00 -6.76055E+00 -4.67669E+00 -7.62790E+00 -2.57990E+00 -7.89841E+00
 -6.21195E-01 -7.61320E+00 +1.05682E+00 -6.85818E+00 +2.34669E+00 -5.75442E+00 +3.18424E+00 -4.44556E+00
 +3.55257E+00 -3.08363E+00 +3.48156E+00 -1.81438E+00 +3.04303E+00 -7.63694E-01 +2.34214E+00 -2.61470E-02
 +1.50583E+00 +3.43145E-01 +6.69472E-01 +3.32790E-01 -3.70601E-02 -2.49040E-02 -5.02510E-01 -6.58147E-01
 -6.45392E-01 -1.46364E+00 -4.22131E-01 -2.31752E+00 +1.68541E-01 -3.08816E+00 +1.08531E+00 -3.64972E+00
 +2.24813E+00 -3.89503E+00 +3.54579E+00 -3.74675E+00 +4.84653E+00 -3.16561E+00 +6.01058E+00 -2.15512E+00
 +6.90364E+00 -7.62230E-01 +7.40989E+00 +9.26093E-01 +7.44334E+00 +2.79005E+00 +6.95660E+00 +4.68726E+00
 +5.94615E+00 +6.46524E+00 +4.45366E+00 +7.97483E+00 +2.56330E+00 +9.08344E+00 +3.95136E-01 +9.68696E+00
 -1.90454E+00 +9.71917E+00 -4.17537E+00 +9.15783E+00 -6.25621E+00 +8.02701E+00 -7.99862E+00 +6.39540E+00
 -9.27909E+00 +4.37072E+00 -1.00092E+01 +2.09085E+00 -1.01427E+01 -2.87548E-01 -9.67890E+00 -2.60193E+00
 -8.66196E+00 -4.69716E+00 -7.17695E+00 -6.43791E+00 -5.34186E+00 -7.71928E+00 -3.29735E+00 -8.47456E+00
 -1.19465E+00 -8.67964E+00 +8.17167E-01 -8.35366E+00 +2.60336E+00 -7.55596E+00 +4.05418E+00 -6.37961E+00
 +5.09307E+00 -4.94234E+00 +5.68167E+00 -3.37541E+00 +5.82143E+00 -1.81181E+00 +5.55156E+00 -3.74628E-01
 +4.94375E+00 +8.33330E-01 +4.09414E+00 +1.73772E+00 +3.11335E+00 +2.29799E+00 +2.11553E+00 +2.50948E+00
 +1.20745E+00 +2.40206E+00 +4.78633E-01 +2.03575E+00 -6.61604E-03 +1.49349E+00 -2.14527E-01 +8.72041E-01
 -1.44172E-01 +2.71843E-01 +1.73456E-01 -2.13312E-01 +6.79396E-01 -5.05679E-01 +1.29331E+00 -5.51253E-01
 +1.92205E+00 -3.25033E-01 +2.46930E+00 +1.66586E-01 +2.84548E+00 +8.86497E-01 +2.97693E+00 +1.77051E+00
 +2.81344E+00 +2.73360E+00 +2.33363E+00 +3.67808E+00 +1.54743E+00 +4.50303E+00 +4.95774E-01 +5.11400E+00
 -7.52760E-01 +5.43215E+00 -2.10781E+00 +5.40192E+00 -3.46515E+00 +4.99665E+00 -4.71586E+00 +4.22148E+00
 -5.75601E+00 +3.11344E+00 -6.49584E+00 +1.73867E+00 -6.86775E+00 +1.87047E-01 -6.83223E+00 -1.43531E+00
 -6.38148E+00 -3.01492E+00 -5.54004E+00 -4.44039E+00 -4.36283E+00 -5.61168E+00 -2.93043E+00 -6.44832E+00
 -1.34230E+00 -6.89577E+00 +2.91526E-01 -6.92962E+00 +1.85957E+00 -6.55705E+00 +3.25796E+00 -5.81565E+00
 +4.39860E+00 -4.76967E+00 +5.21598E+00 -3.50405E+00 +5.67170E+00 -2.11692E+00 +5.75670E+00 -7.11150E-01
 +5.49086E+00 +6.14297E-01 +4.92016E+00 +1.77232E+00 +4.11172E+00 +2.69440E+00 +3.14709E+00 +3.33546E+00
 +2.11467E+00 +3.67650E+00 +1.10173E+00 +3.72485E+00 +1.86851E-01 +3.51208E+00 -5.66458E-01 +3.08987E+00
 -1.11465E+00 +2.52417E+00 -1.43693E+00 +1.88844E+00 -1.53591E+00 +1.25634E+00 -1.43599E+00 +6.94787E-01
 -1.17991E+00 +2.57932E-01 -8.23569E-01 -1.75036E-02 -4.29905E-01 -1.15007E-01 -6.22498E-02 -3.90540E-02
 +2.22103E-01 +1.86154E-01 +3.77562E-01 +5.19816E-01 +3.74616E-01 +9.09180E-01 +2.02538E-01 +1.29523E+00
 -1.29785E-01 +1.61886E+00 -5.94950E-01 +1.82694E+00 -1.14990E+00 +1.87772E+00 -1.74026E+00 +1.74499E+00
 -2.30573E+00 +1.42084E+00 -2.78591E+00 +9.16463E-01 -3.12620E+00 +2.61322E-01 -3.28305E+00 -4.99525E-01
 -3.22807E+00 -1.30947E+00 -2.95090E+00 -2.10547E+00 -2.46019E+00 -2.82366E+00 -1.78303E+00 -3.40511E+00
 -9.62616E-01 -3.80096E+00 -5.45259E-02 -3.97670E+00 +8.78023E-01 -3.91509E+00 +1.76957E+00 -3.61755E+00
 +2.55790E+00 -3.10389E+00 +3.18919E+00 -2.41044E+00 +3.62228E+00 -1.58683E+00 +3.83181E+00 -6.91614E-01
 +3.80992E+00 +2.12632E-01 +3.56641E+00 +1.06456E+00 +3.12739E+00 +1.80896E+00 +2.53259E+00 +2.40102E+00
 +1.83160E+00 +2.80954E+00 +1.07939E+00 +3.01887E+00 +3.31636E-01 +3.02950E+00 -3.59951E-01 +2.85713E+00
 -9.51629E-01 +2.53059E+00 -1.41082E+00 +2.08864E+00 -1.71814E+00 +1.57615E+00 -1.86822E+00 +1.03986E+00
 -1.86919E+00 +5.24260E-01 -1.74105E+00 +6.78644E-02 -1.51304E+00 -2.99758E-01 -1.22035E+00 -5.59977E-01
 -9.00457E-01 -7.05988E-01 -5.89462E-01 -7.42560E-01 -3.18811E-01 -6.84715E-01 -1.12599E-01 -5.55535E-01
 +1.42544E-02 -3.83328E-01 +5.68578E-02 -1.98449E-01 +2.01788E-02 -3.01082E-02 -8.20661E-02 +9.65435E-02
 -2.29323E-01 +1.62783E-01 -3.96690E-01 +1.57934E-01 -5.57719E-01 +8.01151E-02 -6.87246E-01 -6.39147E-02
 -7.63975E-01 -2.59760E-01 -7.72580E-01 -4.87111E-01 -7.05136E-01 -7.21986E-01 -5.61767E-01 -9.39259E-01
 -3.50490E-01 -1.11521E+00 -8.62803E-02 -1.22986E+00 +2.10495E-01 -1.26887E+00 +5.16125E-01 -1.22484E+00
 +8.05859E-01 -1.09788E+00 +1.05623E+00 -8.95498E-01 +1.24719E+00 -6.31759E-01 +1.36386E+00 -3.25850E-01
 +1.39772E+00 -2.53179E-04 +1.34721E+00 +3.21343E-01 +1.21758E+00 +6.16155E-01 +1.02026E+00 +8.64241E-01
 +7.71598E-01 +1.05010E+00 +4.91207E-01 +1.16381E+00 +2.00179E-01 +1.20155E+00 -8.08002E-02 +1.16562E+00
 -3.33174E-01 +1.06387E+00 -5.41935E-01 +9.08663E-01 -6.96638E-01 +7.15494E-01 -7.91931E-01 +5.01467E-01
 -8.27582E-01 +2.83689E-01 -8.08043E-01 +7.78144E-02 -7.41612E-01 -1.03160E-01 -6.39325E-01 -2.49747E-01
 -5.13683E-01 -3.56419E-01 -3.77376E-01 -4.21628E-01 -2.42109E-01 -4.47454E-01 -1.17667E-01 -4.38927E-01
 -1.12651E-02 -4.03134E-01 +7.27557E-02 -3.48229E-01 +1.32889E-01 -2.82441E-01 +1.70128E-01 -2.13222E-01
 +1.87386E-01 -1.46577E-01 +1.88784E-01 -8.66787E-02 +1.78879E-01 -3.57430E-02 +1.61954E-01 +5.80944E-03
 +1.41446E-01 +3.89742E-02 +1.19573E-01 +6.56257E-02 +9.72007E-02 +8.79095E-02 +7.39483E-02 +1.07652E-01
 +4.85059E-02 +1.25878E-01 +1.91099E-02 +1.42486E-01 -1.58998E-02 +1.56158E-01 -5.75247E-02 +1.64475E-01
 -1.05636E-01 +1.64258E-01 -1.58664E-01 +1.52075E-01 -2.13493E-01 +1.24844E-01 -2.65599E-01 +8.04586E-02
 -3.09413E-01 +1.83404E-02 -3.38885E-01 -6.01530E-02 -3.48185E-01 -1.51537E-01 -3.32459E-01 -2.50265E-01
 -2.88552E-01 -3.49051E-01 -2.15597E-01 -4.39456E-01 -1.15409E-01 -5.12644E-01 +7.40073E-03 -5.60279E-01
 +1.45604E-01 -5.75432E-01 +2.89833E-01 -5.53413E-01 +4.29327E-01 -4.92432E-01 +5.52875E-01 -3.93999E-01
 +6.49865E-01 -2.63007E-01 +7.11339E-01 -1.07481E-01 +7.30937E-01 +6.20182E-02 +7.05623E-01 +2.33260E-01
 +6.36117E-01 +3.93429E-01 +5.26967E-01 +5.30311E-01 +3.86241E-01 +6.33462E-01 +2.24864E-01 +6.95246E-01
 +5.56410E-02 +7.11624E-01 -1.07933E-01 +6.82610E-01 -2.52960E-01 +6.12335E-01 -3.68411E-01 +5.08692E-01
 -4.46228E-01 +3.82606E-01 -4.82161E-01 +2.46968E-01 -4.76233E-01 +1.15351E-01 -4.32778E-01 +6.22815E-04
 -3.60039E-01 -8.64010E-02 -2.69350E-01 -1.38125E-01 -1.73977E-01 -1.51037E-01 -8.77249E-02 -1.26177E-01
 -2.34426E-02 -6.91328E-02 +8.41309E-03 +1.04303E-02 +1.01916E-03 +9.96887E-02 -4.79091E-02 +1.83943E-01
 -1.35651E-01 +2.48145E-01 -2.54514E-01 +2.78530E-01 -3.92385E-01 +2.64183E-01 -5.33759E-01 +1.98382E-01
 -6.61165E-01 +7.95849E-02 -7.56859E-01 -8.80703E-02 -8.04626E-01 -2.94805E-01 -7.91519E-01 -5.25804E-01
 -7.09363E-01 -7.62341E-01 -5.55869E-01 -9.83344E-01 -3.35232E-01 -1.16726E+00 -5.81381E-02 -1.29404E+00
 +2.58832E-01 -1.34711E+00 +5.94385E-01 -1.31503E+00 +9.24176E-01 -1.19284E+00 +1.22281E+00 -9.82788E-01
 +1.46602E+00 -6.94456E-01 +1.63281E+00 -3.44249E-01 +1.70737E+00 +4.57698E-02 +1.68060E+00 +4.49567E-01
 +1.55103E+00 +8.39223E-01 +1.32518E+00 +1.18723E+00 +1.01712E+00 +1.46879E+00 +6.47443E-01 +1.66394E+00
 +2.41594E-01 +1.75921E+00 -1.72180E-01 +1.74886E+00 -5.65194E-01 +1.63531E+00 -9.10713E-01 +1.42894E+00
 -1.18618E+00 +1.14719E+00 -1.37506E+00 +8.13031E-01 -1.46819E+00 +4.52901E-01 -1.46443E+00 +9.44367E-02
 -1.37059E+00 -2.35961E-01 -1.20069E+00 -5.15397E-01 -9.74520E-01 -7.26423E-01 -7.15743E-01 -8.58464E-01
 -4.49611E-01 -9.08591E-01 -2.00604E-01 -8.81582E-01 +9.85824E-03 -7.89265E-01 +1.65380E-01 -6.49195E-01
 +2.56057E-01 -4.82811E-01 +2.79313E-01 -3.13233E-01 +2.40024E-01 -1.62907E-01 +1.49908E-01 -5.13381E-02
 +2.62616E-02 +6.88821E-03 -1.09860E-01 +3.60211E-03 -2.35835E-01 -6.20868E-02 -3.29829E-01 -1.83638E-01
 -3.73098E-01 -3.47661E-01 -3.52000E-01 -5.35178E-01 -2.59541E-01 -7.23458E-01 -9.62853E-02 -8.88237E-01
 +1.29450E-01 -1.00614E+00 +4.02153E-01 -1.05704E+00 +7.00377E-01 -1.02619E+00 +9.98592E-01 -9.05851E-01
 +1.26947E+00 -6.96315E-01 +1.48638E+00 -4.06175E-01 +1.62588E+00 -5.18541E-02 +1.66996E+00 +3.43617E-01
 +1.60787E+00 +7.52439E-01 +1.43723E+00 +1.14435E+00 +1.16455E+00 +1.48922E+00 +8.04811E-01 +1.75961E+00
 +3.80431E-01 +1.93320E+00 -8.05378E-02 +1.99474E+00 -5.46661E-01 +1.93746E+00 -9.85710E-01 +1.76365E+00
 -1.36732E+00 +1.48458E+00 -1.66548E+00 +1.11957E+00 -1.86067E+00 +6.94362E-01 -1.94141E+00 +2.39014E-01
