 Created: 19-Jan-2021
 $NMID
 ID='D:\BASISSIMULATI'
 FMTDAT='(8E13.5)'
 VOLUME=   1.00000E+00
 TRAMP=   1.00000E+00
 $END
 +2.08245E+01 +2.24406E-02 +1.85674E+01 +8.93019E+00 +1.26330E+01 +1.57664E+01 +4.44803E+00 +1.91202E+01
 -4.09633E+00 +1.84449E+01 -1.11247E+01 +1.41562E+01 -1.52356E+01 +7.48240E+00 -1.58162E+01 +1.13723E-01
 -1.31397E+01 -6.24644E+00 -8.22762E+00 -1.03067E+01 -2.52813E+00 -1.14774E+01 +2.49352E+00 -9.95532E+00
 +5.73733E+00 -6.59407E+00 +6.72170E+00 -2.60939E+00 +5.64722E+00 +7.89086E-01 +3.26716E+00 +2.73249E+00
 +6.14680E-01 +2.90331E+00 -1.32624E+00 +1.57179E+00 -1.90867E+00 -5.39542E-01 -9.90281E-01 -2.51222E+00
 +1.05928E+00 -3.52677E+00 +3.50226E+00 -3.10845E+00 +5.47605E+00 -1.25584E+00 +6.25875E+00 +1.57739E+00
 +5.47843E+00 +4.63245E+00 +3.20949E+00 +7.07532E+00 -6.42728E-02 +8.23455E+00 -3.59961E+00 +7.77851E+00
 -6.60555E+00 +5.78571E+00 -8.45156E+00 +2.69713E+00 -8.81331E+00 -8.25547E-01 -7.72079E+00 -4.08608E+00
 -5.50575E+00 -6.52639E+00 -2.67578E+00 -7.83780E+00 +2.38407E-01 -7.98647E+00 +2.81295E+00 -7.15827E+00
 +4.80141E+00 -5.65284E+00 +6.13347E+00 -3.77010E+00 +6.85483E+00 -1.72954E+00 +7.04109E+00 +3.53224E-01
 +6.72487E+00 +2.43189E+00 +5.86743E+00 +4.45876E+00 +4.38702E+00 +6.31358E+00 +2.23262E+00 +7.76767E+00
 -5.27590E-01 +8.50617E+00 -3.64213E+00 +8.20864E+00 -6.66973E+00 +6.66512E+00 -9.04542E+00 +3.88831E+00
 -1.02089E+01 +1.78913E-01 -9.76148E+00 -3.88726E+00 -7.60480E+00 -7.55898E+00 -4.01342E+00 -1.00768E+01
 +3.87658E-01 -1.08653E+01 +4.74505E+00 -9.69546E+00 +8.17164E+00 -6.76793E+00 +9.96412E+00 -2.68740E+00
 +9.78363E+00 +1.67170E+00 +7.74754E+00 +5.37591E+00 +4.40360E+00 +7.66480E+00 +5.90018E-01 +8.14106E+00
 -2.78211E+00 +6.86580E+00 -4.96564E+00 +4.33134E+00 -5.56821E+00 +1.31846E+00 -4.64428E+00 -1.32292E+00
 -2.66321E+00 -2.90855E+00 -3.62630E-01 -3.10456E+00 +1.47100E+00 -2.01079E+00 +2.23238E+00 -1.19833E-01
 +1.67284E+00 +1.83591E+00 -2.81304E-02 +3.10499E+00 -2.31534E+00 +3.14279E+00 -4.41904E+00 +1.77818E+00
 -5.57926E+00 -7.26108E-01 -5.26990E+00 -3.73670E+00 -3.35992E+00 -6.41887E+00 -1.66333E-01 -7.96506E+00
 +3.61574E+00 -7.81967E+00 +7.08703E+00 -5.83873E+00 +9.37497E+00 -2.34126E+00 +9.85950E+00 +1.96098E+00
 +8.33413E+00 +6.13575E+00 +5.06110E+00 +9.25854E+00 +7.08061E-01 +1.06366E+01 -3.81463E+00 +9.97187E+00
 -7.57205E+00 +7.42305E+00 -9.82156E+00 +3.55533E+00 -1.01744E+01 -8.05262E-01 -8.66534E+00 -4.77191E+00
 -5.71793E+00 -7.59930E+00 -2.02174E+00 -8.83862E+00 +1.64293E+00 -8.41124E+00 +4.58556E+00 -6.58977E+00
 +6.34720E+00 -3.89966E+00 +6.77298E+00 -9.72934E-01 +6.00525E+00 +1.60527E+00 +4.40835E+00 +3.41930E+00
 +2.45167E+00 +4.28850E+00 +5.85575E-01 +4.26730E+00 -8.58421E-01 +3.58883E+00 -1.72152E+00 +2.57474E+00
 -2.01930E+00 +1.53917E+00 -1.89909E+00 +7.12421E-01 -1.57153E+00 +2.00836E-01 -1.23887E+00 -1.27393E-02
 -1.03962E+00 -3.52770E-02 -1.02166E+00 -1.16877E-02 -1.14589E+00 -7.22374E-02 -1.31395E+00 -2.93853E-01
 -1.40765E+00 -6.83395E-01 -1.32735E+00 -1.18332E+00 -1.01876E+00 -1.69379E+00 -4.83708E-01 -2.10194E+00
 +2.24577E-01 -2.30916E+00 +1.01649E+00 -2.24996E+00 +1.78500E+00 -1.90054E+00 +2.42291E+00 -1.27834E+00
 +2.83577E+00 -4.36648E-01 +2.95035E+00 +5.42371E-01 +2.72098E+00 +1.55416E+00 +2.13584E+00 +2.47823E+00
 +1.22404E+00 +3.18690E+00 +6.18893E-02 +3.55865E+00 -1.22532E+00 +3.49691E+00 -2.47038E+00 +2.95237E+00
 -3.48281E+00 +1.94372E+00 -4.07888E+00 +5.70076E-01 -4.11848E+00 -9.91328E-01 -3.54082E+00 -2.50578E+00
 -2.38927E+00 -3.71898E+00 -8.16837E-01 -4.40592E+00 +9.32476E-01 -4.42005E+00 +2.56496E+00 -3.73081E+00
 +3.79377E+00 -2.43868E+00 +4.39841E+00 -7.62173E-01 +4.27306E+00 +1.00232E+00 +3.45150E+00 +2.53990E+00
 +2.10175E+00 +3.58234E+00 +4.90621E-01 +3.96396E+00 -1.07380E+00 +3.65475E+00 -2.30838E+00 +2.76279E+00
 -3.01418E+00 +1.50557E+00 -3.11478E+00 +1.57474E-01 -2.66502E+00 -1.01355E+00 -1.82916E+00 -1.80459E+00
 -8.34837E-01 -2.11781E+00 +8.48451E-02 -1.97312E+00 +7.46433E-01 -1.49179E+00 +1.05493E+00 -8.56613E-01
 +1.01767E+00 -2.60159E-01 +7.31380E-01 +1.45413E-01 +3.47249E-01 +2.84117E-01 +2.45605E-02 +1.69316E-01
 -1.14576E-01 -1.07740E-01 -1.75639E-02 -4.09575E-01 +2.87009E-01 -5.94927E-01 +7.00387E-01 -5.60249E-01
 +1.08339E+00 -2.69401E-01 +1.29630E+00 +2.35748E-01 +1.23812E+00 +8.45868E-01 +8.75061E-01 +1.41239E+00
 +2.51325E-01 +1.78567E+00 -5.19942E-01 +1.85311E+00 -1.28279E+00 +1.56794E+00 -1.87479E+00 +9.61719E-01
 -2.16448E+00 +1.38220E-01 -2.08117E+00 -7.49316E-01 -1.63043E+00 -1.53173E+00 -8.92281E-01 -2.06022E+00
 -3.31499E-03 -2.23719E+00 +8.72748E-01 -2.03504E+00 +1.57897E+00 -1.49955E+00 +1.99619E+00 -7.37871E-01
 +2.06467E+00 +1.05432E-01 +1.79253E+00 +8.78530E-01 +1.25000E+00 +1.45208E+00 +5.51801E-01 +1.74250E+00
 -1.68145E-01 +1.72454E+00 -7.83735E-01 +1.43137E+00 -1.20004E+00 +9.43146E-01 -1.36853E+00 +3.67404E-01
 -1.29178E+00 -1.84328E-01 -1.01765E+00 -6.18456E-01 -6.24926E-01 -8.75611E-01 -2.04255E-01 -9.38425E-01
 +1.61524E-01 -8.29979E-01 +4.13333E-01 -6.04045E-01 +5.25185E-01 -3.29897E-01 +5.05434E-01 -7.53974E-02
 +3.90395E-01 +1.07844E-01 +2.32350E-01 +1.94136E-01 +8.51059E-02 +1.86472E-01 -9.42797E-03 +1.12279E-01
 -3.05868E-02 +1.36746E-02 +1.76982E-02 -6.50978E-02 +1.09975E-01 -8.98531E-02 +2.07653E-01 -4.53209E-02
 +2.70358E-01 +6.13375E-02 +2.67303E-01 +2.02992E-01 +1.85843E-01 +3.40142E-01 +3.51471E-02 +4.31593E-01
 -1.55784E-01 +4.45454E-01 -3.45157E-01 +3.67713E-01 -4.88631E-01 +2.06314E-01 -5.50220E-01 -1.01913E-02
 -5.11173E-01 -2.39026E-01 -3.74741E-01 -4.32983E-01 -1.65740E-01 -5.51260E-01 +7.49089E-02 -5.68765E-01
 +2.99298E-01 -4.81748E-01 +4.63144E-01 -3.08505E-01 +5.35418E-01 -8.51240E-02 +5.04828E-01 +1.42667E-01
 +3.81773E-01 +3.29593E-01 +1.95460E-01 +4.40546E-01 -1.30249E-02 +4.57749E-01 -1.99993E-01 +3.83877E-01
 -3.28637E-01 +2.40585E-01 -3.76624E-01 +6.29484E-02 -3.40181E-01 -1.08768E-01 -2.33946E-01 -2.38106E-01
 -8.68023E-02 -3.00141E-01 +6.52083E-02 -2.86306E-01 +1.87190E-01 -2.05404E-01 +2.53043E-01 -8.07406E-02
 +2.50808E-01 +5.57900E-02 +1.84635E-01 +1.71238E-01 +7.31066E-02 +2.39018E-01 -5.55654E-02 +2.44594E-01
 -1.70273E-01 +1.88243E-01 -2.44109E-01 +8.44281E-02 -2.60245E-01 -4.19647E-02 -2.15355E-01 -1.61540E-01
 -1.19914E-01 -2.47086E-01 +4.55413E-03 -2.79531E-01 +1.30557E-01 -2.51884E-01 +2.30813E-01 -1.70383E-01
 +2.84148E-01 -5.27261E-02 +2.79830E-01 +7.60951E-02 +2.19485E-01 +1.89343E-01 +1.16319E-01 +2.64205E-01
 -8.05517E-03 +2.86377E-01 -1.28378E-01 +2.52670E-01 -2.21014E-01 +1.71211E-01 -2.68627E-01 +5.93399E-02
 -2.63358E-01 -6.02150E-02 -2.07972E-01 -1.64037E-01 -1.14868E-01 -2.32611E-01 -3.29290E-03 -2.53927E-01
 +1.04626E-01 -2.25490E-01 +1.88200E-01 -1.54434E-01 +2.32052E-01 -5.58320E-02 +2.28855E-01 +5.03999E-02
 +1.80487E-01 +1.43394E-01 +9.74666E-02 +2.05284E-01 -3.19316E-03 +2.24529E-01 -1.01293E-01 +1.98015E-01
 -1.77319E-01 +1.31590E-01 -2.16193E-01 +3.89266E-02 -2.10214E-01 -6.10909E-02 -1.60646E-01 -1.48018E-01
 -7.76127E-02 -2.03884E-01 +2.17549E-02 -2.16864E-01 +1.16630E-01 -1.83863E-01 +1.86702E-01 -1.11423E-01
 +2.16472E-01 -1.46922E-02 +1.98761E-01 +8.54861E-02 +1.36627E-01 +1.66853E-01 +4.31593E-02 +2.10572E-01
 -6.09437E-02 +2.05602E-01 -1.51646E-01 +1.51596E-01 -2.06867E-01 +5.95786E-02 -2.11669E-01 -4.99138E-02
 -1.62163E-01 -1.50984E-01 -6.71479E-02 -2.18030E-01 +5.30401E-02 -2.31729E-01 +1.70400E-01 -1.84003E-01
 +2.55167E-01 -8.07861E-02 +2.82559E-01 +5.81862E-02 +2.38910E-01 +2.02720E-01 +1.25802E-01 +3.18109E-01
 -3.88563E-02 +3.72569E-01 -2.23262E-01 +3.44646E-01 -3.87374E-01 +2.29001E-01 -4.90850E-01 +3.92315E-02
 -5.01753E-01 -1.93107E-01 -4.04278E-01 -4.23359E-01 -2.03816E-01 -6.01828E-01 +7.18938E-02 -6.83640E-01
 +3.76111E-01 -6.38573E-01 +6.50647E-01 -4.58851E-01 +8.36500E-01 -1.63140E-01 +8.85722E-01 +2.04395E-01
 +7.72255E-01 +5.80289E-01 +4.99450E-01 +8.92496E-01 +1.02427E-01 +1.07392E+00 -3.55744E-01 +1.07632E+00
 -7.93901E-01 +8.81822E-01 -1.12730E+00 +5.09327E-01 -1.28426E+00 +1.41267E-02 -1.22169E+00 -5.20054E-01
 -9.36138E-01 -9.95579E-01 -4.67546E-01 -1.31959E+00 +1.05771E-01 -1.42323E+00 +6.80623E-01 -1.27732E+00
 +1.14873E+00 -9.00693E-01 +1.41891E+00 -3.58814E-01 +1.43692E+00 +2.47789E-01 +1.19835E+00 +8.03415E-01
 +7.51055E-01 +1.20139E+00 +1.86088E-01 +1.36728E+00 -3.81478E-01 +1.27573E+00 -8.37852E-01 +9.56470E-01
 -1.09617E+00 +4.87877E-01 -1.11634E+00 -2.12124E-02 -9.14101E-01 -4.57194E-01 -5.56589E-01 -7.28947E-01
 -1.45207E-01 -7.89860E-01 +2.10330E-01 -6.48939E-01 +4.20377E-01 -3.67837E-01 +4.38925E-01 -4.41853E-02
 +2.76065E-01 +2.14835E-01 -4.23990E-03 +3.22023E-01 -3.00966E-01 +2.35086E-01 -5.03423E-01 -2.98233E-02
 -5.22320E-01 -3.99952E-01 -3.16355E-01 -7.63257E-01 +9.28979E-02 -9.97167E-01 +6.22193E-01 -1.00164E+00
 +1.14421E+00 -7.27992E-01 +1.51756E+00 -1.95913E-01 +1.62198E+00 +5.06209E-01 +1.38990E+00 +1.23816E+00
 +8.26445E-01 +1.83828E+00 +1.27338E-02 +2.16013E+00 -9.08628E-01 +2.10677E+00 -1.76246E+00 +1.65435E+00
 -2.37763E+00 +8.59798E-01 -2.62294E+00 -1.49265E-01 -2.43436E+00 -1.19947E+00 -1.82777E+00 -2.10578E+00
 -8.95432E-01 -2.70701E+00 +2.12423E-01 -2.89531E+00 +1.31603E+00 -2.63417E+00 +2.23825E+00 -1.96247E+00
 +2.83414E+00 -9.84987E-01 +3.01298E+00 +1.47321E-01 +2.74995E+00 +1.26285E+00 +2.08701E+00 +2.19598E+00
 +1.12427E+00 +2.81086E+00 +4.13628E-03 +3.01969E+00 -1.10926E+00 +2.79411E+00 -2.05287E+00 +2.16886E+00
 -2.68760E+00 +1.23773E+00 -2.91910E+00 +1.41645E-01 -2.71378E+00 -9.50579E-01 -2.10728E+00 -1.86743E+00
 -1.20261E+00 -2.46310E+00 -1.56235E-01 -2.64466E+00 +8.47538E-01 -2.39259E+00 +1.63080E+00 -1.76896E+00
 +2.05873E+00 -9.09292E-01 +2.07076E+00 +2.64084E-03 +1.69758E+00 +7.73802E-01 +1.05794E+00 +1.24674E+00
 +3.33267E-01 +1.33967E+00 -2.76096E-01 +1.07066E+00 -6.03463E-01 +5.57479E-01 -5.63848E-01 -9.64483E-03
 -1.83674E-01 -4.17946E-01 +3.98289E-01 -4.93189E-01 +9.62255E-01 -1.55828E-01 +1.26569E+00 +5.44363E-01
 +1.11482E+00 +1.42760E+00 +4.30316E-01 +2.22134E+00 -7.12411E-01 +2.62922E+00 -2.08272E+00 +2.41531E+00
