 Created: 19-Jan-2021
 $NMID
 ID='D:\BASISSIMULATI'
 FMTDAT='(8E13.5)'
 VOLUME=   1.00000E+00
 TRAMP=   1.00000E+00
 $END
 +2.40505E+01 +2.40287E-02 +2.34461E+01 +4.19212E+00 +2.18851E+01 +8.09583E+00 +1.94604E+01 +1.15318E+01
 +1.63100E+01 +1.43255E+01 +1.26086E+01 +1.63411E+01 +8.55667E+00 +1.74885E+01 +4.36876E+00 +1.77281E+01
 +2.60554E-01 +1.70716E+01 -3.56350E+00 +1.55801E+01 -6.92163E+00 +1.33596E+01 -9.66455E+00 +1.05535E+01
 -1.16830E+01 +7.33245E+00 -1.29126E+01 +3.88433E+00 -1.33358E+01 +4.02002E-01 -1.29810E+01 -2.92794E+00
 -1.19189E+01 -5.93597E+00 -1.02560E+01 -8.47891E+00 -8.12692E+00 -1.04472E+01 -5.68449E+00 -1.17698E+01
 -3.08980E+00 -1.24166E+01 -5.01844E-01 -1.23979E+01 +1.93208E+00 -1.17618E+01 +4.08475E+00 -1.05889E+01
 +5.85570E+00 -8.98574E+00 +7.17586E+00 -7.07631E+00 +8.00986E+00 -4.99357E+00 +8.35610E+00 -2.87040E+00
 +8.24458E+00 -8.31297E-01 +7.73279E+00 +1.01498E+00 +6.90006E+00 +2.58125E+00 +5.84077E+00 +3.80605E+00
 +4.65695E+00 +4.65573E+00 +3.45088E+00 +5.12468E+00 +2.31804E+00 +5.23354E+00 +1.34098E+00 +5.02589E+00
 +5.84440E-01 +4.56348E+00 +9.19791E-02 +3.92062E+00 -1.15772E-01 +3.17798E+00 -4.11473E-02 +2.41642E+00
 +2.92082E-01 +1.71110E+00 +8.41631E-01 +1.12644E+00 +1.55074E+00 +7.12048E-01 +2.35297E+00 +4.99965E-01
 +3.17745E+00 +5.03285E-01 +3.95407E+00 +7.16162E-01 +4.61845E+00 +1.11515E+00 +5.11616E+00 +1.66168E+00
 +5.40618E+00 +2.30548E+00 +5.46314E+00 +2.98859E+00 +5.27855E+00 +3.64977E+00 +4.86077E+00 +4.22889E+00
 +4.23393E+00 +4.67104E+00 +3.43584E+00 +4.93018E+00 +2.51515E+00 +4.97205E+00 +1.52796E+00 +4.77614E+00
 +5.34114E-01 +4.33683E+00 -4.06579E-01 +3.66349E+00 -1.23794E+00 +2.77972E+00 -1.91064E+00 +1.72175E+00
 -2.38491E+00 +5.36190E-01 -2.63250E+00 -7.22740E-01 -2.63805E+00 -1.99627E+00 -2.39956E+00 -3.22427E+00
 -1.92822E+00 -4.34843E+00 -1.24747E+00 -5.31514E+00 -3.91585E-01 -6.07810E+00 +5.96326E-01 -6.60044E+00
 +1.66662E+00 -6.85631E+00 +2.76566E+00 -6.83193E+00 +3.83844E+00 -6.52599E+00 +4.83118E+00 -5.94957E+00
 +5.69383E+00 -5.12546E+00 +6.38230E+00 -4.08705E+00 +6.86036E+00 -2.87675E+00 +7.10129E+00 -1.54412E+00
 +7.08895E+00 -1.43749E-01 +6.81857E+00 +1.26711E+00 +6.29693E+00 +2.63090E+00 +5.54216E+00 +3.89220E+00
 +4.58306E+00 +5.00007E+00 +3.45797E+00 +5.91017E+00 +2.21320E+00 +6.58670E+00 +9.01149E-01 +7.00400E+00
 -4.21884E-01 +7.14775E+00 -1.69815E+00 +7.01566E+00 -2.87099E+00 +6.61775E+00 -3.88744E+00 +5.97601E+00
 -4.70069E+00 +5.12357E+00 -5.27242E+00 +4.10326E+00 -5.57476E+00 +2.96574E+00 -5.59184E+00 +1.76721E+00
 -5.32080E+00 +5.66695E-01 -4.77219E+00 -5.76806E-01 -3.96974E+00 -1.60727E+00 -2.94943E+00 -2.47452E+00
 -1.75788E+00 -3.13691E+00 -4.50209E-01 -3.56356E+00 +9.12690E-01 -3.73610E+00 +2.26718E+00 -3.64977E+00
 +3.55016E+00 -3.31379E+00 +4.70239E+00 -2.75095E+00 +5.67165E+00 -1.99643E+00 +6.41554E+00 -1.09590E+00
 +6.90381E+00 -1.02972E-01 +7.11995E+00 +9.23827E-01 +7.06213E+00 +1.92442E+00 +6.74314E+00 +2.84066E+00
 +6.18962E+00 +3.61977E+00 +5.44036E+00 +4.21739E+00 +4.54394E+00 +4.60027E+00 +3.55573E+00 +4.74818E+00
 +2.53455E+00 +4.65512E+00 +1.53903E+00 +4.32955E+00 +6.24088E-01 +3.79386E+00 -1.62394E-01 +3.08285E+00
 -7.82404E-01 +2.24147E+00 -1.21001E+00 +1.32197E+00 -1.43273E+00 +3.80508E-01 -1.45213E+00 -5.26400E-01
 -1.28332E+00 -1.34549E+00 -9.53770E-01 -2.03009E+00 -5.01153E-01 -2.54306E+00 +2.93715E-02 -2.85902E+00
 +5.88395E-01 -2.96585E+00 +1.12575E+00 -2.86530E+00 +1.59401E+00 -2.57262E+00 +1.95181E+00 -2.11534E+00
 +2.16667E+00 -1.53126E+00 +2.21727E+00 -8.65703E-01 +2.09487E+00 -1.68334E-01 +1.80390E+00 +5.10302E-01
 +1.36163E+00 +1.12227E+00 +7.96952E-01 +1.62556E+00 +1.48335E-01 +1.98689E+00 -5.38829E-01 +2.18400E+00
 -1.21541E+00 +2.20712E+00 -1.83195E+00 +2.05952E+00 -2.34212E+00 +1.75727E+00 -2.70596E+00 +1.32802E+00
 -2.89273E+00 +8.09054E-01 -2.88305E+00 +2.44622E-01 -2.67041E+00 -3.17156E-01 -2.26171E+00 -8.27674E-01
 -1.67696E+00 -1.24127E+00 -9.48073E-01 -1.51843E+00 -1.16903E-01 -1.62866E+00 +7.67424E-01 -1.55262E+00
 +1.65164E+00 -1.28371E+00 +2.48173E+00 -8.28615E-01 +3.20645E+00 -2.07117E-01 +3.78058E+00 +5.49039E-01
 +4.16785E+00 +1.39804E+00 +4.34329E+00 +2.29056E+00 +4.29487E+00 +3.17284E+00 +4.02428E+00 +3.99007E+00
 +3.54685E+00 +4.68977E+00 +2.89067E+00 +5.22520E+00 +2.09485E+00 +5.55825E+00 +1.20709E+00 +5.66193E+00
 +2.80774E-01 +5.52207E+00 -6.28299E-01 +5.13835E+00 -1.46535E+00 +4.52441E+00 -2.17993E+00 +3.70707E+00
 -2.72900E+00 +2.72489E+00 -3.07946E+00 +1.62593E+00 -3.21019E+00 +4.64928E-01 -3.11322E+00 -6.99784E-01
 -2.79417E+00 -1.80969E+00 -2.27186E+00 -2.80940E+00 -1.57717E+00 -3.64981E+00 -7.51094E-01 -4.29079E+00
 +1.57708E-01 -4.70342E+00 +1.09579E+00 -4.87146E+00 +2.00812E+00 -4.79213E+00 +2.84124E+00 -4.47608E+00
 +3.54642E+00 -3.94655E+00 +4.08241E+00 -3.23790E+00 +4.41772E+00 -2.39342E+00 +4.53242E+00 -1.46276E+00
 +4.41909E+00 -4.98961E-01 +4.08314E+00 +4.44603E-01 +3.54237E+00 +1.31729E+00 +2.82574E+00 +2.07400E+00
 +1.97168E+00 +2.67763E+00 +1.02569E+00 +3.10103E+00 +3.77018E-02 +3.32831E+00 -9.40827E-01 +3.35550E+00
 -1.85984E+00 +3.19046E+00 -2.67348E+00 +2.85217E+00 -3.34262E+00 +2.36930E+00 -3.83695E+00 +1.77831E+00
 -4.13648E+00 +1.12110E+00 -4.23249E+00 +4.42356E-01 -4.12776E+00 -2.13165E-01 -3.83613E+00 -8.03329E-01
 -3.38146E+00 -1.29112E+00 -2.79600E+00 -1.64676E+00 -2.11829E+00 -1.84942E+00 -1.39077E+00 -1.88826E+00
 -6.57194E-01 -1.76297E+00 +4.00231E-02 -1.48359E+00 +6.62253E-01 -1.06973E+00 +1.17688E+00 -5.49244E-01
 +1.55910E+00 +4.36269E-02 +1.79321E+00 +6.70409E-01 +1.87338E+00 +1.29083E+00 +1.80369E+00 +1.86531E+00
 +1.59766E+00 +2.35738E+00 +1.27722E+00 +2.73591E+00 +8.71076E-01 +2.97693E+00 +4.12776E-01 +3.06506E+00
 -6.15310E-02 +2.99435E+00 -5.15469E-01 +2.76855E+00 -9.14786E-01 +2.40078E+00 -1.22954E+00 +1.91266E+00
 -1.43601E+00 +1.33284E+00 -1.51814E+00 +6.95225E-01 -1.46856E+00 +3.67989E-02 -1.28898E+00 -6.04672E-01
 -9.90062E-01 -1.19298E+00 -5.90663E-01 -1.69567E+00 -1.16616E-01 -2.08605E+00 +4.00951E-01 -2.34473E+00
 +9.27624E-01 -2.46077E+00 +1.42791E+00 -2.43224E+00 +1.86751E+00 -2.26626E+00 +2.21549E+00 -1.97842E+00
 +2.44629E+00 -1.59175E+00 +2.54133E+00 -1.13510E+00 +2.49019E+00 -6.41351E-01 +2.29132E+00 -1.45220E-01
 +1.95216E+00 +3.18940E-01 +1.48866E+00 +7.19333E-01 +9.24373E-01 +1.02873E+00 +2.89000E-01 +1.22618E+00
 -3.83438E-01 +1.29831E+00 -1.05666E+00 +1.24016E+00 -1.69432E+00 +1.05543E+00 -2.26225E+00 +7.56271E-01
 -2.73048E+00 +3.62428E-01 -3.07507E+00 -9.99969E-02 -3.27948E+00 -6.00222E-01 -3.33562E+00 -1.10475E+00
 -3.24417E+00 -1.57949E+00 -3.01458E+00 -1.99192E+00 -2.66440E+00 -2.31316E+00 -2.21811E+00 -2.51977E+00
 -1.70566E+00 -2.59530E+00 -1.16051E+00 -2.53129E+00 -6.17635E-01 -2.32791E+00 -1.11326E-01 -1.99395E+00
 +3.26897E-01 -1.54636E+00 +6.70209E-01 -1.00926E+00 +8.98099E-01 -4.12527E-01 +9.97608E-01 +2.09970E-01
 +9.64093E-01 +8.22394E-01 +8.01489E-01 +1.38906E+00 +5.22047E-01 +1.87658E+00 +1.45561E-01 +2.25581E+00
 -3.01850E-01 +2.50364E+00 -7.89346E-01 +2.60434E+00 -1.28326E+00 +2.55056E+00 -1.74916E+00 +2.34371E+00
 -2.15393E+00 +1.99397E+00 -2.46784E+00 +1.51972E+00 -2.66635E+00 +9.46433E-01 -2.73166E+00 +3.05285E-01
 -2.65381E+00 -3.68683E-01 -2.43140E+00 -1.03856E+00 -2.07170E+00 -1.66769E+00 -1.59036E+00 -2.22179E+00
 -1.01060E+00 -2.67091E+00 -3.61847E-01 -2.99114E+00 +3.21807E-01 -3.16602E+00 +1.00359E+00 -3.18742E+00
 +1.64609E+00 -3.05605E+00 +2.21342E+00 -2.78139E+00 +2.67325E+00 -2.38112E+00 +2.99866E+00 -1.88013E+00
 +3.16970E+00 -1.30903E+00 +3.17456E+00 -7.02437E-01 +3.01026E+00 -9.69164E-02 +2.68284E+00 +4.71086E-01
 +2.20708E+00 +9.67359E-01 +1.60568E+00 +1.36190E+00 +9.07989E-01 +1.63061E+00 +1.48387E-01 +1.75672E+00
 -6.35628E-01 +1.73168E+00 -1.40554E+00 +1.55568E+00 -2.12393E+00 +1.23758E+00 -2.75657E+00 +7.94373E-01
 -3.27427E+00 +2.50161E-01 -3.65448E+00 -3.65263E-01 -3.88242E+00 -1.01818E+00 -3.95182E+00 -1.67293E+00
 -3.86515E+00 -2.29397E+00 -3.63328E+00 -2.84798E+00 -3.27475E+00 -3.30573E+00 -2.81448E+00 -3.64376E+00
 -2.28222E+00 -3.84569E+00 -1.71069E+00 -3.90308E+00 -1.13358E+00 -3.81577E+00 -5.83470E-01 -3.59182E+00
 -8.99895E-02 -3.24684E+00 +3.21959E-01 -2.80294E+00 +6.33558E-01 -2.28725E+00 +8.33057E-01 -1.73023E+00
 +9.16288E-01 -1.16371E+00 +8.86690E-01 -6.18965E-01 +7.54848E-01 -1.24783E-01 +5.37579E-01 +2.94205E-01
 +2.56641E-01 +6.18932E-01 -6.28581E-02 +8.36908E-01 -3.94234E-01 +9.42787E-01 -7.11067E-01 +9.38459E-01
 -9.88986E-01 +8.32670E-01 -1.20727E+00 +6.40195E-01 -1.35020E+00 +3.80641E-01 -1.40796E+00 +7.69522E-02
 -1.37726E+00 -2.46265E-01 -1.26135E+00 -5.64490E-01 -1.06966E+00 -8.54984E-01 -8.17036E-01 -1.09832E+00
 -5.22568E-01 -1.27962E+00 -2.08172E-01 -1.38950E+00 +1.03006E-01 -1.42455E+00 +3.88234E-01 -1.38740E+00
 +6.26787E-01 -1.28637E+00 +8.01366E-01 -1.13468E+00 +8.99250E-01 -9.49425E-01 +9.13111E-01 -7.50153E-01
 +8.41426E-01 -5.57429E-01 +6.88488E-01 -3.91287E-01 +4.64007E-01 -2.69766E-01 +1.82336E-01 -2.07630E-01
 -1.38596E-01 -2.15337E-01 -4.78579E-01 -2.98343E-01 -8.16538E-01 -4.56777E-01 -1.13197E+00 -6.85496E-01
 -1.40631E+00 -9.74517E-01 -1.62408E+00 -1.30977E+00 -1.77384E+00 -1.67413E+00 -1.84877E+00 -2.04861E+00
 -1.84696E+00 -2.41366E+00 -1.77130E+00 -2.75049E+00 -1.62907E+00 -3.04220E+00 -1.43124E+00 -3.27486E+00
 -1.19154E+00 -3.43822E+00 -9.25397E-01 -3.52621E+00 -6.48794E-01 -3.53709E+00 -3.77190E-01 -3.47329E+00
 -1.24530E-01 -3.34103E+00 +9.75619E-02 -3.14958E+00 +2.80357E-01 -2.91047E+00 +4.18337E-01 -2.63659E+00
 +5.09236E-01 -2.34118E+00 +5.53840E-01 -2.03701E+00 +5.55553E-01 -1.73557E+00 +5.19810E-01 -1.44655E+00
 +4.53373E-01 -1.17743E+00 +3.63601E-01 -9.33330E-01 +2.57747E-01 -7.17150E-01 +1.42349E-01 -5.29795E-01
 +2.27712E-02 -3.70622E-01 -9.70900E-02 -2.37970E-01 -2.14891E-01 -1.29719E-01 -3.29747E-01 -4.38331E-02
 -4.41961E-01 +2.11779E-02 -5.52628E-01 +6.59248E-02 -6.63153E-01 +8.99645E-02 -7.74744E-01 +9.18001E-02
 -8.87934E-01 +6.90518E-02 -1.00220E+00 +1.87807E-02 -1.11568E+00 -6.20729E-02 -1.22512E+00 -1.76182E-01
