 Created: 19-Jan-2021
 $NMID
 ID='D:\BASISSIMULATI'
 FMTDAT='(8E13.5)'
 VOLUME=   1.00000E+00
 TRAMP=   1.00000E+00
 $END
 +2.64032E+01 +3.02702E-02 +2.36308E+01 +3.41250E+00 +1.61350E+01 +6.27240E+00 +5.72617E+00 +8.21227E+00
 -5.13311E+00 +8.95004E+00 -1.39515E+01 +8.36881E+00 -1.88245E+01 +6.56128E+00 -1.88819E+01 +3.85149E+00
 -1.44581E+01 +7.73023E-01 -6.94862E+00 -2.00978E+00 +1.59320E+00 -3.83453E+00 +9.00345E+00 -4.20339E+00
 +1.35482E+01 -2.93414E+00 +1.43179E+01 -2.51794E-01 +1.13834E+01 +3.21838E+00 +5.69152E+00 +6.57083E+00
 -1.24955E+00 +8.83455E+00 -7.79507E+00 +9.23209E+00 -1.25752E+01 +7.41201E+00 -1.47872E+01 +3.58386E+00
 -1.43062E+01 -1.49331E+00 -1.16074E+01 -6.67839E+00 -7.54952E+00 -1.07353E+01 -3.09751E+00 -1.26652E+01
 +9.26963E-01 -1.19895E+01 +4.00300E+00 -8.90094E+00 +5.94776E+00 -4.23061E+00 +6.84787E+00 +7.66469E-01
 +6.93070E+00 +4.75210E+00 +6.43376E+00 +6.67782E+00 +5.52101E+00 +6.08265E+00 +4.26976E+00 +3.22753E+00
 +2.72029E+00 -9.75836E-01 +9.54749E-01 -5.22434E+00 -8.38790E-01 -8.19797E+00 -2.35447E+00 -8.94111E+00
 -3.22390E+00 -7.13919E+00 -3.12558E+00 -3.20903E+00 -1.91114E+00 +1.82394E+00 +2.99325E-01 +6.62553E+00
 +3.09399E+00 +9.94076E+00 +5.83715E+00 +1.09551E+01 +7.81676E+00 +9.52204E+00 +8.43214E+00 +6.19125E+00
 +7.36677E+00 +2.03006E+00 +4.69224E+00 -1.70491E+00 +8.69227E-01 -3.94638E+00 -3.35824E+00 -4.13060E+00
 -7.14622E+00 -2.35361E+00 -9.75992E+00 +6.75364E-01 -1.07488E+01 +3.86590E+00 -1.00396E+01 +6.09047E+00
 -7.92597E+00 +6.53401E+00 -4.96315E+00 +4.94225E+00 -1.80636E+00 +1.69440E+00 +9.56450E-01 -2.31936E+00
 +2.92861E+00 -5.97534E+00 +3.95524E+00 -8.26142E+00 +4.09695E+00 -8.58324E+00 +3.54910E+00 -6.93835E+00
 +2.54518E+00 -3.90708E+00 +1.28333E+00 -4.65825E-01 -9.87374E-02 +2.31725E+00 -1.49820E+00 +3.60934E+00
 -2.79197E+00 +3.06277E+00 -3.78728E+00 +9.12614E-01 -4.21259E+00 -2.10442E+00 -3.76811E+00 -4.98192E+00
 -2.22947E+00 -6.75295E+00 +4.27590E-01 -6.78141E+00 +3.93026E+00 -4.94817E+00 +7.68709E+00 -1.67873E+00
 +1.08706E+01 +2.19137E+00 +1.25996E+01 +5.66833E+00 +1.21812E+01 +7.89008E+00 +9.34393E+00 +8.36709E+00
 +4.38689E+00 +7.10474E+00 -1.81397E+00 +4.57657E+00 -7.96482E+00 +1.56361E+00 -1.26510E+01 -1.08537E+00
 -1.47006E+01 -2.69756E+00 -1.35154E+01 -2.95171E+00 -9.27287E+00 -1.93871E+00 -2.93091E+00 -9.81977E-02
 +3.97933E+00 +1.93984E+00 +9.72643E+00 +3.55276E+00 +1.28232E+01 +4.29943E+00 +1.24231E+01 +4.02117E+00
 +8.55710E+00 +2.84700E+00 +2.14369E+00 +1.11370E+00 -5.23765E+00 -7.63294E-01 -1.17498E+01 -2.41981E+00
 -1.57707E+01 -3.63123E+00 -1.63085E+01 -4.33600E+00 -1.32467E+01 -4.59727E+00 -7.35624E+00 -4.52808E+00
 -7.50464E-02 -4.21677E+00 +6.87919E+00 -3.68579E+00 +1.19546E+01 -2.90047E+00 +1.41469E+01 -1.82194E+00
 +1.32181E+01 -4.77657E-01 +9.70126E+00 +9.85821E-01 +4.70412E+00 +2.29887E+00 -4.23555E-01 +3.12616E+00
 -4.45711E+00 +3.17327E+00 -6.59629E+00 +2.30800E+00 -6.62007E+00 +6.50591E-01 -4.86809E+00 -1.40760E+00
 -2.07200E+00 -3.27681E+00 +8.98630E-01 -4.32224E+00 +3.29231E+00 -4.05744E+00 +4.65806E+00 -2.31837E+00
 +4.90935E+00 +6.41379E-01 +4.26649E+00 +4.17434E+00 +3.11348E+00 +7.38668E+00 +1.82940E+00 +9.37546E+00
 +6.56348E-01 +9.49007E+00 -3.52948E-01 +7.54004E+00 -1.29758E+00 +3.88238E+00 -2.32475E+00 -6.45293E-01
 -3.50765E+00 -4.93460E+00 -4.75816E+00 -7.90419E+00 -5.81334E+00 -8.80172E+00 -6.30625E+00 -7.42168E+00
 -5.89865E+00 -4.17323E+00 -4.42813E+00 +2.52761E-02 -2.01402E+00 +3.99767E+00 +9.22746E-01 +6.63643E+00
 +3.74217E+00 +7.21063E+00 +5.75206E+00 +5.56664E+00 +6.41062E+00 +2.16413E+00 +5.50111E+00 -2.06166E+00
 +3.22038E+00 -5.96949E+00 +1.48024E-01 -8.53368E+00 -2.90024E+00 -9.12385E+00 -5.09496E+00 -7.66324E+00
 -5.82591E+00 -4.62395E+00 -4.87594E+00 -8.66464E-01 -2.48298E+00 +2.62319E+00 +7.28902E-01 +5.01700E+00
 +3.92839E+00 +5.86476E+00 +6.31174E+00 +5.18854E+00 +7.32303E+00 +3.43112E+00 +6.79512E+00 +1.28335E+00
 +4.97214E+00 -5.48832E-01 +2.41168E+00 -1.56146E+00 -1.97964E-01 -1.58656E+00 -2.24564E+00 -8.06449E-01
 -3.36477E+00 +3.48107E-01 -3.51091E+00 +1.37436E+00 -2.93104E+00 +1.88453E+00 -2.04193E+00 +1.73867E+00
 -1.26433E+00 +1.07956E+00 -8.72017E-01 +2.61244E-01 -9.07199E-01 -3.00323E-01 -1.18905E+00 -2.99043E-01
 -1.40860E+00 +3.30023E-01 -1.27244E+00 +1.36842E+00 -6.40877E-01 +2.37873E+00 +3.92627E-01 +2.85586E+00
 +1.51256E+00 +2.41440E+00 +2.28321E+00 +9.47035E-01 +2.30829E+00 -1.30321E+00 +1.39295E+00 -3.78682E+00
 -3.50740E-01 -5.79957E+00 -2.49717E+00 -6.69733E+00 -4.41009E+00 -6.10667E+00 -5.42849E+00 -4.06237E+00
 -5.07934E+00 -1.02446E+00 -3.24883E+00 +2.23581E+00 -2.53497E-01 +4.85019E+00 +3.21812E+00 +6.10481E+00
 +6.28247E+00 +5.65236E+00 +8.10774E+00 +3.62001E+00 +8.15780E+00 +5.78607E-01 +6.35870E+00 -2.61853E+00
 +3.13513E+00 -5.07954E+00 -6.97607E-01 -6.12768E+00 -4.15665E+00 -5.48949E+00 -6.36519E+00 -3.36246E+00
 -6.79622E+00 -3.44922E-01 -5.41472E+00 +2.74757E+00 -2.67730E+00 +5.12124E+00 +6.09070E-01 +6.22541E+00
 +3.52495E+00 +5.89103E+00 +5.30106E+00 +4.34909E+00 +5.52735E+00 +2.13015E+00 +4.24872E+00 -1.17308E-01
 +1.92338E+00 -1.82845E+00 -7.37606E-01 -2.67947E+00 -2.99551E+00 -2.65428E+00 -4.30210E+00 -2.00605E+00
 -4.44435E+00 -1.13406E+00 -3.57506E+00 -4.23818E-01 -2.12675E+00 -1.08002E-01 -6.43549E-01 -1.95995E-01
 +4.09599E-01 -4.93956E-01 +7.96005E-01 -7.04364E-01 +5.66962E-01 -5.65603E-01 +1.61117E-02 +2.21106E-02
 -4.51323E-01 +9.33383E-01 -4.85596E-01 +1.84353E+00 +6.46168E-02 +2.33830E+00 +1.08466E+00 +2.07107E+00
 +2.22641E+00 +9.12156E-01 +3.03064E+00 -9.65224E-01 +3.09720E+00 -3.09892E+00 +2.24383E+00 -4.85530E+00
 +5.96466E-01 -5.61870E+00 -1.42357E+00 -4.99464E+00 -3.21627E+00 -2.96057E+00 -4.18899E+00 +8.89546E-02
 -3.95251E+00 +3.42423E+00 -2.46267E+00 +6.17170E+00 -5.87116E-02 +7.56105E+00 +2.61869E+00 +7.15488E+00
 +4.80787E+00 +4.99034E+00 +5.85152E+00 +1.58687E+00 +5.39761E+00 -2.18613E+00 +3.51286E+00 -5.34585E+00
 +6.72046E-01 -7.06857E+00 -2.37516E+00 -6.91885E+00 -4.82023E+00 -4.96817E+00 -6.02920E+00 -1.76911E+00
 -5.72286E+00 +1.80621E+00 -4.04940E+00 +4.81440E+00 -1.52933E+00 +6.50199E+00 +1.10847E+00 +6.50359E+00
 +3.14712E+00 +4.92185E+00 +4.08985E+00 +2.27083E+00 +3.79266E+00 -6.94193E-01 +2.48353E+00 -3.20443E+00
 +6.66625E-01 -4.69233E+00 -1.05337E+00 -4.93021E+00 -2.16790E+00 -4.05671E+00 -2.41824E+00 -2.49154E+00
 -1.85852E+00 -7.73933E-01 -8.11330E-01 +6.17890E-01 +2.64635E-01 +1.40673E+00 +9.47120E-01 +1.57344E+00
 +1.00263E+00 +1.31885E+00 +4.66286E-01 +9.51526E-01 -3.77411E-01 +7.46626E-01 -1.10549E+00 +8.29532E-01
 -1.31970E+00 +1.12684E+00 -8.04516E-01 +1.40201E+00 +3.76468E-01 +1.36158E+00 +1.88182E+00 +7.91623E-01
 +3.19434E+00 -3.27857E-01 +3.79251E+00 -1.77624E+00 +3.33518E+00 -3.13611E+00 +1.79703E+00 -3.91845E+00
 -4.93561E-01 -3.73035E+00 -2.93161E+00 -2.42896E+00 -4.80801E+00 -2.06463E-01 -5.52564E+00 +2.42869E+00
 -4.79173E+00 +4.77662E+00 -2.72448E+00 +6.14378E+00 +1.62767E-01 +6.05490E+00 +3.09840E+00 +4.41277E+00
 +5.27166E+00 +1.55268E+00 +6.06862E+00 -1.83028E+00 +5.25343E+00 -4.86452E+00 +3.03981E+00 -6.74394E+00
 +3.04485E-02 -6.95792E+00 -2.95724E+00 -5.44025E+00 -5.12639E+00 -2.59174E+00 -5.92617E+00 +8.31216E-01
 -5.20056E+00 +3.92953E+00 -3.21798E+00 +5.91295E+00 -5.76130E-01 +6.31607E+00 +1.98508E+00 +5.11633E+00
 +3.80316E+00 +2.72175E+00 +4.47750E+00 -1.64033E-01 +3.96459E+00 -2.75534E+00 +2.55968E+00 -4.41025E+00
 +7.77023E-01 -4.80090E+00 -8.27836E-01 -3.98024E+00 -1.83392E+00 -2.33095E+00 -2.07250E+00 -4.19394E-01
 -1.65204E+00 +1.19401E+00 -8.87897E-01 +2.12562E+00 -1.66315E-01 +2.26726E+00 +2.06818E-01 +1.78579E+00
 +1.18380E-01 +1.03024E+00 -3.17313E-01 +3.83860E-01 -8.12440E-01 +1.15435E-01 -1.02747E+00 +2.82315E-01
 -7.15900E-01 +7.18327E-01 +1.61622E-01 +1.10902E+00 +1.39727E+00 +1.12576E+00 +2.58830E+00 +5.69199E-01
 +3.26745E+00 -5.31124E-01 +3.06926E+00 -1.89973E+00 +1.87557E+00 -3.09084E+00 -1.12112E-01 -3.63453E+00
 -2.40326E+00 -3.20552E+00 -4.34854E+00 -1.75671E+00 -5.33285E+00 +4.30948E-01 -4.97187E+00 +2.80480E+00
 -3.24888E+00 +4.69089E+00 -5.45269E-01 +5.49494E+00 +2.44994E+00 +4.89157E+00 +4.92845E+00 +2.94130E+00
 +6.19451E+00 +9.49312E-02 +5.87068E+00 -2.92012E+00 +4.01475E+00 -5.30069E+00 +1.11071E+00 -6.39693E+00
 -2.06492E+00 -5.90098E+00 -4.66259E+00 -3.93802E+00 -6.00015E+00 -1.03173E+00 -5.75272E+00 +2.04565E+00
 -4.03673E+00 +4.49345E+00 -1.36481E+00 +5.70718E+00 +1.51232E+00 +5.44079E+00 +3.82729E+00 +3.86026E+00
 +5.01324E+00 +1.47588E+00 +4.85239E+00 -1.02225E+00 +3.51471E+00 -2.97233E+00 +1.48016E+00 -3.92779E+00
 -6.25748E-01 -3.76745E+00 -2.22839E+00 -2.69962E+00 -2.96982E+00 -1.16511E+00 -2.79435E+00 +3.23820E-01
 -1.93217E+00 +1.35304E+00 -7.92730E-01 +1.72888E+00 +1.91164E-01 +1.51563E+00 +7.13892E-01 +9.80703E-01
 +6.91515E-01 +4.71312E-01 +2.70732E-01 +2.69432E-01 -2.46888E-01 +4.78003E-01 -5.35272E-01 +9.79433E-01
 -3.80224E-01 +1.48142E+00 +2.28227E-01 +1.63390E+00 +1.08169E+00 +1.17525E+00 +1.82400E+00 +5.43927E-02
 +2.08275E+00 -1.51748E+00 +1.61613E+00 -3.10876E+00 +4.22058E-01 -4.19414E+00 -1.23125E+00 -4.32752E+00
 -2.86907E+00 -3.30455E+00 -3.95169E+00 -1.25892E+00 -4.05016E+00 +1.34429E+00 -2.99877E+00 +3.82289E+00
 -9.72559E-01 +5.46886E+00 +1.54005E+00 +5.76050E+00 +3.86585E+00 +4.52956E+00 +5.34052E+00 +2.02995E+00
 +5.50905E+00 -1.11710E+00 +4.27057E+00 -4.08827E+00 +1.92109E+00 -6.08721E+00 -9.21771E-01 -6.56979E+00
 -3.49143E+00 -5.39901E+00 -5.09172E+00 -2.88306E+00 -5.29722E+00 +3.14132E-01 -4.07456E+00 +3.36294E+00
 -1.78829E+00 +5.50131E+00 +9.09331E-01 +6.24222E+00 +3.27062E+00 +5.49520E+00 +4.66805E+00 +3.56910E+00
 +4.76833E+00 +1.06014E+00 +3.61443E+00 -1.33640E+00 +1.59400E+00 -3.03068E+00 -6.92016E-01 -3.69647E+00
 -2.61649E+00 -3.33778E+00 -3.70982E+00 -2.24938E+00 -3.78417E+00 -8.90922E-01 -2.96344E+00 +2.79071E-01
 -1.61520E+00 +9.52613E-01 -2.12236E-01 +1.05646E+00 +8.27732E-01 +7.46806E-01 +1.27058E+00 +3.21377E-01
 +1.12239E+00 +8.42963E-02 +5.99521E-01 +2.14393E-01 +2.74271E-02 +6.85731E-01 -2.92754E-01 +1.27007E+00
