 Created: 19-Jan-2021
 $NMID
 ID='D:\BASISSIMULATI'
 FMTDAT='(8E13.5)'
 VOLUME=   1.00000E+00
 TRAMP=   1.00000E+00
 $END
 +1.69976E+01 +1.90840E-02 +1.53426E+01 +6.83903E+00 +1.09015E+01 +1.21491E+01 +4.70246E+00 +1.48679E+01
 -1.85427E+00 +1.45258E+01 -7.32958E+00 +1.13609E+01 -1.05806E+01 +6.24694E+00 -1.10191E+01 +4.72870E-01
 -8.73325E+00 -4.56954E+00 -4.44689E+00 -7.71483E+00 +6.69188E-01 -8.29081E+00 +5.28656E+00 -6.26206E+00
 +8.23708E+00 -2.21935E+00 +8.78379E+00 +2.77798E+00 +6.78226E+00 +7.46510E+00 +2.69774E+00 +1.06748E+01
 -2.52114E+00 +1.16081E+01 -7.67740E+00 +1.00096E+01 -1.16105E+01 +6.21008E+00 -1.34624E+01 +1.03133E+00
 -1.28628E+01 -4.41915E+00 -9.99472E+00 -9.01100E+00 -5.52914E+00 -1.18476E+01 -4.51225E-01 -1.24571E+01
 +4.17732E+00 -1.08765E+01 +7.46077E+00 -7.61465E+00 +8.86043E+00 -3.51013E+00 +8.29283E+00 +4.78995E-01
 +6.11787E+00 +3.49906E+00 +3.02616E+00 +4.98676E+00 -1.41797E-01 +4.77617E+00 -2.59839E+00 +3.10740E+00
 -3.78516E+00 +5.41547E-01 -3.48372E+00 -2.19174E+00 -1.84055E+00 -4.37392E+00 +6.93640E-01 -5.46080E+00
 +3.48906E+00 -5.19321E+00 +5.89243E+00 -3.63370E+00 +7.37472E+00 -1.12743E+00 +7.63766E+00 +1.79714E+00
 +6.65869E+00 +4.55926E+00 +4.67008E+00 +6.65551E+00 +2.08403E+00 +7.75860E+00 -6.13400E-01 +7.76640E+00
 -2.97152E+00 +6.79576E+00 -4.66230E+00 +5.12966E+00 -5.52877E+00 +3.13583E+00 -5.58928E+00 +1.17965E+00
 -5.00325E+00 -4.48124E-01 -4.01303E+00 -1.57451E+00 -2.87934E+00 -2.15387E+00 -1.82666E+00 -2.24825E+00
 -1.00934E+00 -1.98940E+00 -5.01436E-01 -1.53604E+00 -3.06505E-01 -1.03810E+00 -3.78772E-01 -6.14994E-01
 -6.45918E-01 -3.48839E-01 -1.02592E+00 -2.88556E-01 -1.43473E+00 -4.57764E-01 -1.78651E+00 -8.59777E-01
 -1.99160E+00 -1.47591E+00 -1.95868E+00 -2.25777E+00 -1.60543E+00 -3.11823E+00 -8.78117E-01 -3.92816E+00
 +2.24005E-01 -4.52527E+00 +1.62787E+00 -4.73806E+00 +3.17842E+00 -4.42260E+00 +4.65054E+00 -3.50427E+00
 +5.78326E+00 -2.01305E+00 +6.33193E+00 -1.00244E-01 +6.12753E+00 +1.97236E+00 +5.12820E+00 +3.87315E+00
 +3.44772E+00 +5.26553E+00 +1.35000E+00 +5.88365E+00 -7.93879E-01 +5.60076E+00 -2.57964E+00 +4.47188E+00
 -3.65974E+00 +2.73696E+00 -3.82807E+00 +7.79632E-01 -3.07790E+00 -9.52321E-01 -1.61622E+00 -2.04837E+00
 +1.72607E-01 -2.23510E+00 +1.80860E+00 -1.44969E+00 +2.82649E+00 +1.32807E-01 +2.88922E+00 +2.12824E+00
 +1.87711E+00 +4.02450E+00 -7.06205E-02 +5.29821E+00 -2.57455E+00 +5.54046E+00 -5.09262E+00 +4.56144E+00
 -7.04059E+00 +2.44766E+00 -7.92803E+00 -4.44292E-01 -7.47799E+00 -3.55850E+00 -5.70078E+00 -6.26064E+00
 -2.90258E+00 -7.98183E+00 +3.75273E-01 -8.35177E+00 +3.47411E+00 -7.28927E+00 +5.76619E+00 -5.02727E+00
 +6.79911E+00 -2.06494E+00 +6.40200E+00 +9.43409E-01 +4.72750E+00 +3.33761E+00 +2.21870E+00 +4.60429E+00
 -4.92583E-01 +4.49699E+00 -2.73266E+00 +3.09472E+00 -3.94409E+00 +7.84599E-01 -3.81752E+00 -1.82817E+00
 -2.36605E+00 -4.06232E+00 +7.59618E-02 -5.32128E+00 +2.92974E+00 -5.23483E+00 +5.50678E+00 -3.74826E+00
 +7.16986E+00 -1.13764E+00 +7.48250E+00 +2.05224E+00 +6.31180E+00 +5.13299E+00 +3.86040E+00 +7.43124E+00
 +6.20555E-01 +8.44349E+00 -2.73899E+00 +7.95109E+00 -5.52622E+00 +6.06871E+00 -7.18329E+00 +3.21537E+00
 -7.41147E+00 +1.56508E-02 -6.23483E+00 -2.84527E+00 -3.98862E+00 -4.77845E+00 -1.23620E+00 -5.42330E+00
 +1.36517E+00 -4.72458E+00 +3.21756E+00 -2.93745E+00 +3.91870E+00 -5.60759E-01 +3.35009E+00 +1.78472E+00
 +1.69746E+00 +3.50342E+00 -5.99725E-01 +4.16299E+00 -2.95632E+00 +3.59124E+00 -4.78078E+00 +1.91065E+00
 -5.61257E+00 -4.96154E-01 -5.22596E+00 -3.08007E+00 -3.67723E+00 -5.25522E+00 -1.28575E+00 -6.53372E+00
 +1.44456E+00 -6.63433E+00 +3.94373E+00 -5.54083E+00 +5.70567E+00 -3.49830E+00 +6.39943E+00 -9.50139E-01
 +5.93695E+00 +1.56763E+00 +4.48341E+00 +3.54926E+00 +2.41001E+00 +4.63053E+00 +2.02035E-01 +4.66361E+00
 -1.65481E+00 +3.73989E+00 -2.78331E+00 +2.15780E+00 -2.99418E+00 +3.45222E-01 -2.31931E+00 -1.24370E+00
 -9.93421E-01 -2.23296E+00 +6.09364E-01 -2.40639E+00 +2.06750E+00 -1.74934E+00 +3.01038E+00 -4.42721E-01
 +3.20051E+00 +1.18689E+00 +2.58168E+00 +2.74763E+00 +1.28415E+00 +3.87362E+00 -4.12424E-01 +4.30600E+00
 -2.14752E+00 +3.94611E+00 -3.56297E+00 +2.87036E+00 -4.38139E+00 +1.30552E+00 -4.46271E+00 -4.27892E-01
 -3.82737E+00 -1.98980E+00 -2.64312E+00 -3.09485E+00 -1.18033E+00 -3.57046E+00 +2.52364E-01 -3.38676E+00
 +1.37682E+00 -2.65363E+00 +2.00303E+00 -1.58748E+00 +2.06397E+00 -4.57044E-01 +1.62124E+00 +4.78627E-01
 +8.42494E-01 +1.02596E+00 -4.29057E-02 +1.09461E+00 -7.98581E-01 +7.10251E-01 -1.23382E+00 +1.17705E-03
 -1.24283E+00 -8.36534E-01 -8.23056E-01 -1.58636E+00 -6.98693E-02 -2.06014E+00 +8.49506E-01 -2.13764E+00
 +1.73597E+00 -1.78921E+00 +2.40292E+00 -1.07749E+00 +2.71523E+00 -1.39525E-01 +2.61503E+00 +8.45875E-01
 +2.12963E+00 +1.69753E+00 +1.36113E+00 +2.26933E+00 +4.61136E-01 +2.47808E+00 -4.03162E-01 +2.31642E+00
 -1.08394E+00 +1.84938E+00 -1.48135E+00 +1.19609E+00 -1.56036E+00 +5.01699E-01 -1.35308E+00 -9.42163E-02
 -9.47074E-01 -4.85954E-01 -4.63044E-01 -6.21060E-01 -2.70783E-02 -5.07392E-01 +2.56385E-01 -2.07177E-01
 +3.25396E-01 +1.79876E-01 +1.71202E-01 +5.40293E-01 -1.62800E-01 +7.72067E-01 -5.92967E-01 +8.06139E-01
 -1.01515E+00 +6.19894E-01 -1.32780E+00 +2.40301E-01 -1.45350E+00 -2.63425E-01 -1.35460E+00 -7.95667E-01
 -1.03998E+00 -1.25509E+00 -5.61936E-01 -1.55575E+00 -4.24929E-03 -1.64423E+00 +5.35810E-01 -1.50950E+00
 +9.67572E-01 -1.18371E+00 +1.22498E+00 -7.34092E-01 +1.27887E+00 -2.48001E-01 +1.14125E+00 +1.85648E-01
 +8.60833E-01 +4.94520E-01 +5.11271E-01 +6.36882E-01 +1.74542E-01 +6.08695E-01 -7.67161E-02 +4.42527E-01
 -1.94242E-01 +1.98788E-01 -1.63470E-01 -4.86636E-02 -5.30265E-03 -2.29302E-01 +2.29836E-01 -2.91473E-01
 +4.74192E-01 -2.13397E-01 +6.58349E-01 -7.35918E-03 +7.26918E-01 +2.83657E-01 +6.50832E-01 +5.96018E-01
 +4.33647E-01 +8.59862E-01 +1.10565E-01 +1.01467E+00 -2.59474E-01 +1.02256E+00 -6.06797E-01 +8.76444E-01
 -8.66177E-01 +6.01351E-01 -9.90824E-01 +2.48683E-01 -9.62135E-01 -1.15151E-01 -7.93147E-01 -4.23201E-01
 -5.25029E-01 -6.22277E-01 -2.17510E-01 -6.83965E-01 +6.45371E-02 -6.09984E-01 +2.65327E-01 -4.30808E-01
 +3.50040E-01 -1.97984E-01 +3.11767E-01 +2.80041E-02 +1.72059E-01 +1.91567E-01 -2.48916E-02 +2.54380E-01
 -2.23015E-01 +2.03578E-01 -3.67548E-01 +5.40059E-02 -4.17629E-01 -1.55851E-01 -3.55463E-01 -3.73216E-01
 -1.90078E-01 -5.43422E-01 +4.50881E-02 -6.22523E-01 +3.00086E-01 -5.87244E-01 +5.19964E-01 -4.40098E-01
 +6.57213E-01 -2.08590E-01 +6.82341E-01 +6.11753E-02 +5.90226E-01 +3.14960E-01 +4.00917E-01 +5.02484E-01
 +1.54806E-01 +5.88409E-01 -9.66146E-02 +5.59782E-01 -3.02263E-01 +4.28350E-01 -4.22610E-01 +2.27345E-01
 -4.37985E-01 +3.59998E-03 -3.52262E-01 -1.93141E-01 -1.91222E-01 -3.21250E-01 +3.88441E-03 -3.56122E-01
 +1.86022E-01 -2.95027E-01 +3.13039E-01 -1.56962E-01 +3.56921E-01 +2.23409E-02 +3.09605E-01 +1.98975E-01
 +1.84171E-01 +3.30987E-01 +1.12706E-02 +3.87769E-01 -1.68261E-01 +3.56647E-01 -3.12869E-01 +2.45273E-01
 -3.89646E-01 +7.94199E-02 -3.81523E-01 -1.03221E-01 -2.90740E-01 -2.61729E-01 -1.37936E-01 -3.61151E-01
 +4.28329E-02 -3.80125E-01 +2.11910E-01 -3.15307E-01 +3.32896E-01 -1.81686E-01 +3.80538E-01 -8.84631E-03
 +3.45938E-01 +1.65863E-01 +2.38022E-01 +3.05674E-01 +8.10450E-02 +3.82339E-01 -9.11658E-02 +3.81955E-01
 -2.42870E-01 +3.07436E-01 -3.44204E-01 +1.77221E-01 -3.77396E-01 +2.06271E-02 -3.40070E-01 -1.28997E-01
 -2.45031E-01 -2.41725E-01 -1.16708E-01 -2.97436E-01 +1.48323E-02 -2.89743E-01 +1.20854E-01 -2.26684E-01
 +1.80315E-01 -1.28157E-01 +1.84200E-01 -2.07999E-02 +1.36937E-01 +6.84155E-02 +5.47052E-02 +1.18364E-01
 -3.88646E-02 +1.18335E-01 -1.18479E-01 +7.00082E-02 -1.63085E-01 -1.34875E-02 -1.60531E-01 -1.11090E-01
 -1.09968E-01 -1.98965E-01 -2.15661E-02 -2.56046E-01 +8.62696E-02 -2.68678E-01 +1.91413E-01 -2.33329E-01
 +2.73129E-01 -1.56859E-01 +3.16585E-01 -5.44157E-02 +3.15739E-01 +5.44342E-02 +2.74040E-01 +1.50327E-01
 +2.02905E-01 +2.18362E-01 +1.18465E-01 +2.51013E-01 +3.74660E-02 +2.49106E-01 -2.66454E-02 +2.20733E-01
 -6.65154E-02 +1.78528E-01 -8.19579E-02 +1.36066E-01 -7.91612E-02 +1.04328E-01 -6.83485E-02 +8.91201E-02
 -6.05818E-02 +9.00199E-02 -6.45717E-02 +1.01030E-01 -8.43080E-02 +1.12671E-01 -1.18080E-01 +1.14903E-01
 -1.59075E-01 +1.00084E-01 -1.97344E-01 +6.51854E-02 -2.22569E-01 +1.27264E-02 -2.26908E-01 -4.97950E-02
 -2.07163E-01 -1.11796E-01 -1.65726E-01 -1.62320E-01 -1.10061E-01 -1.92866E-01 -5.08550E-02 -1.99596E-01
 +6.85783E-04 -1.84363E-01 +3.57286E-02 -1.54276E-01 +5.01470E-02 -1.19897E-01 +4.56986E-02 -9.24794E-02
 +2.97154E-02 -8.09450E-02 +1.33326E-02 -8.93201E-02 +8.63700E-03 -1.15309E-01 +2.53872E-02 -1.50405E-01
 +6.80868E-02 -1.81595E-01 +1.34144E-01 -1.94355E-01 +2.13636E-01 -1.76286E-01 +2.90856E-01 -1.20593E-01
 +3.47421E-01 -2.85590E-02 +3.66351E-01 +8.96478E-02 +3.36256E-01 +2.16164E-01 +2.54691E-01 +3.28537E-01
 +1.29817E-01 +4.04227E-01 -2.01585E-02 +4.25605E-01 -1.69868E-01 +3.84387E-01 -2.91577E-01 +2.84441E-01
 -3.61008E-01 +1.42160E-01 -3.62981E-01 -1.59112E-02 -2.95599E-01 -1.57966E-01 -1.71871E-01 -2.53490E-01
 -1.81498E-02 -2.80178E-01 +1.30594E-01 -2.29682E-01 +2.37926E-01 -1.10769E-01 +2.74142E-01 +5.11070E-02
 +2.23745E-01 +2.18091E-01 +9.04120E-02 +3.47496E-01 -1.01956E-01 +4.01244E-01 -3.12746E-01 +3.55216E-01
 -4.92371E-01 +2.06317E-01 -5.92888E-01 -2.46011E-02 -5.79310E-01 -2.95074E-01 -4.39070E-01 -5.48602E-01
 -1.87240E-01 -7.26245E-01 +1.34129E-01 -7.79938E-01 +4.62980E-01 -6.84582E-01 +7.29506E-01 -4.45990E-01
 +8.71352E-01 -1.02429E-01 +8.48472E-01 +2.81189E-01 +6.54153E-01 +6.25788E-01 +3.19283E-01 +8.54944E-01
 -9.17026E-02 +9.12493E-01 -4.92966E-01 +7.76876E-01 -7.95315E-01 +4.68596E-01 -9.26393E-01 +4.85036E-02
 -8.48466E-01 -3.93417E-01 -5.69437E-01 -7.56826E-01 -1.44019E-01 -9.53540E-01 +3.35921E-01 -9.28761E-01
 +7.60330E-01 -6.75935E-01 +1.02544E+00 -2.41324E-01 +1.05835E+00 +2.83467E-01 +8.35934E-01 +7.80048E-01
 +3.93279E-01 +1.12921E+00 -1.80961E-01 +1.23866E+00 -7.62029E-01 +1.06608E+00 -1.21595E+00 +6.31893E-01
