 Created: 19-Jan-2021
 $NMID
 ID='D:\BASISSIMULATI'
 FMTDAT='(8E13.5)'
 VOLUME=   1.00000E+00
 TRAMP=   1.00000E+00
 $END
 +8.10450E+00 +8.49814E-03 +7.89912E+00 +1.78429E+00 +7.30977E+00 +3.47048E+00 +6.36570E+00 +4.98518E+00
 +5.11341E+00 +6.25496E+00 +3.61431E+00 +7.21844E+00 +1.94172E+00 +7.82921E+00 +1.77292E-01 +8.05812E+00
 -1.59300E+00 +7.89462E+00 -3.28301E+00 +7.34730E+00 -4.81064E+00 +6.44337E+00 -6.10182E+00 +5.22738E+00
 -7.09412E+00 +3.75898E+00 -7.73971E+00 +2.11000E+00 -8.00774E+00 +3.60952E-01 -7.88576E+00 -1.40291E+00
 -7.38031E+00 -3.09575E+00 -6.51659E+00 -4.63532E+00 -5.33718E+00 -5.94695E+00 -3.89996E+00 -6.96720E+00
 -2.27525E+00 -7.64688E+00 -5.42401E-01 -7.95345E+00 +1.21412E+00 -7.87260E+00 +2.90882E+00 -7.40885E+00
 +4.45933E+00 -6.58538E+00 +5.79046E+00 -5.44281E+00 +6.83778E+00 -4.03723E+00 +7.55079E+00 -2.43743E+00
 +7.89532E+00 -7.21564E-01 +7.85518E+00 +1.02672E+00 +7.43294E+00 +2.72230E+00 +6.64973E+00 +4.28278E+00
 +5.54423E+00 +5.63244E+00 +4.17073E+00 +6.70596E+00 +2.59648E+00 +7.45153E+00 +8.98364E-01 +7.83341E+00
 -8.40789E-01 +7.83357E+00 -2.53631E+00 +7.45261E+00 -4.10577E+00 +6.70967E+00 -5.47301E+00 +5.64146E+00
 -6.57184E+00 +4.30046E+00 -7.34920E+00 +2.75233E+00 -7.76780E+00 +1.07273E+00 -7.80782E+00 -6.56425E-01
 -7.46791E+00 -2.35093E+00 -6.76521E+00 -3.92840E+00 -5.73447E+00 -5.31226E+00 -4.42636E+00 -6.43551E+00
 -2.90494E+00 -7.24389E+00 -1.24459E+00 -7.69857E+00 +4.73710E-01 -7.77799E+00 +2.16627E+00 -7.47887E+00
 +3.75077E+00 -6.81636E+00 +5.15031E+00 -5.82326E+00 +6.29708E+00 -4.54841E+00 +7.13568E+00 -3.05427E+00
 +7.62581E+00 -1.41388E+00 +7.74415E+00 +2.92730E-01 +7.48554E+00 +1.98241E+00 +6.86315E+00 +3.57300E+00
 +5.90784E+00 +4.98725E+00 +4.66659E+00 +6.15665E+00 +3.20025E+00 +7.02468E+00 +1.58052E+00 +7.54958E+00
 -1.13564E-01 +7.70636E+00 -1.79947E+00 +7.48796E+00 -3.39517E+00 +6.90560E+00 -4.82320E+00 +5.98818E+00
 -6.01432E+00 +4.78087E+00 -6.91096E+00 +3.34286E+00 -7.46997E+00 +1.74446E+00 -7.66467E+00 +6.37049E-02
 -7.48617E+00 -1.61751E+00 -6.94373E+00 -3.21740E+00 -6.06431E+00 -4.65824E+00 -4.89124E+00 -5.87019E+00
 -3.48203E+00 -6.79464E+00 -1.90564E+00 -7.38706E+00 -2.39000E-01 -7.61916E+00 +1.43665E+00 -7.48022E+00
 +3.03977E+00 -6.97756E+00 +4.49249E+00 -6.13622E+00 +5.72435E+00 -4.99766E+00 +6.67579E+00 -3.61774E+00
 +7.30094E+00 -2.06398E+00 +7.56990E+00 -4.12245E-01 +7.47015E+00 +1.25696E+00 +7.00713E+00 +2.86239E+00
 +6.20392E+00 +4.32604E+00 +5.10013E+00 +5.57692E+00 +3.74995E+00 +6.55451E+00 +2.21945E+00 +7.21168E+00
 +5.83365E-01 +7.51695E+00 -1.07853E+00 +7.45603E+00 -2.68535E+00 +7.03246E+00 -4.15899E+00 +6.26741E+00
 -5.42798E+00 +5.19864E+00 -6.43090E+00 +3.87862E+00 -7.11937E+00 +2.37197E+00 -7.46038E+00 +7.52289E-01
 -7.43790E+00 -9.01453E-01 -7.05359E+00 -2.50874E+00 -6.32671E+00 -3.99145E+00 -5.29316E+00 -5.27764E+00
 -4.00372E+00 -6.30505E+00 -2.52150E+00 -7.02409E+00 -9.18945E-01 -7.40027E+00 +7.25809E-01 -7.41582E+00
 +2.33267E+00 -7.07055E+00 +3.82352E+00 -6.38183E+00 +5.12600E+00 -5.38370E+00 +6.17706E+00 -4.12521E+00
 +6.92594E+00 -2.66799E+00 +7.33668E+00 -1.08327E+00 +7.38983E+00 +5.51679E-01 +7.08338E+00 +2.15722E+00
 +6.43278E+00 +3.65528E+00 +5.47024E+00 +4.97316E+00 +4.24307E+00 +6.04702E+00 +2.81139E+00 +6.82499E+00
 +1.24518E+00 +7.26969E+00 -3.79147E-01 +7.36001E+00 -1.98248E+00 +7.09211E+00 -3.48685E+00 +6.47958E+00
 -4.81921E+00 +5.55278E+00 -5.91502E+00 +4.35727E+00 -6.72133E+00 +2.95165E+00 -7.19938E+00 +1.40464E+00
 -7.32640E+00 -2.08289E-01 -7.09679E+00 -1.80855E+00 -6.52226E+00 -3.31831E+00 -5.63132E+00 -4.66426E+00
 -4.46779E+00 -5.78117E+00 -3.08873E+00 -6.61506E+00 -1.56156E+00 -7.12581E+00 +3.91829E-02 -7.28907E+00
 +1.63551E+00 -7.09745E+00 +3.14976E+00 -6.56083E+00 +4.50839E+00 -5.70585E+00 +5.64555E+00 -4.57461E+00
 +6.50626E+00 -3.22259E+00 +7.04907E+00 -1.71590E+00 +7.24808E+00 -1.28095E-01 +7.09415E+00 +1.46345E+00
 +6.59531E+00 +2.98130E+00 +5.77638E+00 +4.35172E+00 +4.67771E+00 +5.50826E+00 +3.35318E+00 +6.39501E+00
 +1.86759E+00 +6.96924E+00 +2.93473E-01 +7.20349E+00 -1.29245E+00 +7.08692E+00 -2.81301E+00 +6.62574E+00
 -4.19432E+00 +5.84292E+00 -5.36940E+00 +4.77707E+00 -6.28141E+00 +3.48047E+00 -6.88638E+00 +2.01658E+00
 -7.15537E+00 +4.56878E-01 -7.07581E+00 -1.12261E+00 -6.65213E+00 -2.64499E+00 -5.90547E+00 -4.03631E+00
 -4.87267E+00 -5.22906E+00 -3.60443E+00 -6.16555E+00 -2.16282E+00 -6.80059E+00 -6.18242E-01 -7.10378E+00
 +9.53988E-01 -7.06088E+00 +2.47734E+00 -6.67452E+00 +3.87777E+00 -5.96404E+00 +5.08734E+00 -4.96451E+00
 +6.04751E+00 -3.72502E+00 +6.71194E+00 -2.30625E+00 +7.04879E+00 -7.77496E-01 +7.04216E+00 +7.86683E-01
 +6.69294E+00 +2.31013E+00 +6.01864E+00 +3.71880E+00 +5.05258E+00 +4.94433E+00 +3.84221E+00 +5.92738E+00
 +2.44682E+00 +6.62051E+00 +9.34574E-01 +6.99046E+00 -6.20767E-01 +7.01972E+00 -2.14347E+00 +6.70742E+00
 -3.55949E+00 +6.06928E+00 -4.80012E+00 +5.13685E+00 -5.80526E+00 +3.95598E+00 -6.52639E+00 +2.58449E+00
 -6.92887E+00 +1.08941E+00 -6.99361E+00 -4.56320E-01 -6.71800E+00 -1.97742E+00 -6.11598E+00 -3.39994E+00
 -5.21734E+00 -4.65480E+00 -4.06629E+00 -5.68123E+00 -2.71921E+00 -6.42965E+00 -1.24195E+00 -6.86408E+00
 +2.93416E-01 -6.96388E+00 +1.81210E+00 -6.72471E+00 +3.24023E+00 -6.15875E+00 +4.50848E+00 -5.29404E+00
 +5.55539E+00 -4.17313E+00 +6.33038E+00 -2.85094E+00 +6.79617E+00 -1.39213E+00 +6.93058E+00 +1.32129E-01
 +6.72759E+00 +1.64756E+00 +6.19762E+00 +3.08046E+00 +5.36694E+00 +4.36124E+00 +4.27646E+00 +5.42783E+00
 +2.97964E+00 +6.22866E+00 +1.53988E+00 +6.72521E+00 +2.74674E-02 +6.89378E+00 -1.48391E+00 +6.72669E+00
 -2.92072E+00 +6.23260E+00 -4.21318E+00 +5.43605E+00 -5.29862E+00 +4.37629E+00 -6.12458E+00 +3.10527E+00
 -6.65127E+00 +1.68516E+00 -6.85353E+00 +1.85303E-01 -6.72204E+00 -1.32122E+00 -6.26372E+00 -2.76109E+00
 -5.50137E+00 -4.06438E+00 -4.47257E+00 -5.16788E+00 -3.22778E+00 -6.01822E+00 -1.82791E+00 -6.57442E+00
 -3.41310E-01 -6.80990E+00 +1.15957E+00 -6.71369E+00 +2.60167E+00 -6.29100E+00 +3.91494E+00 -5.56291E+00
 +5.03567E+00 -4.56531E+00 +5.90966E+00 -3.34716E+00 +6.49475E+00 -1.96808E+00 +6.76294E+00 -4.95420E-01
 +6.70169E+00 +9.99036E-01 +6.31448E+00 +2.44254E+00 +5.62066E+00 +3.76495E+00 +4.65448E+00 +4.90211E+00
 +3.46337E+00 +5.79898E+00 +2.10562E+00 +6.41232E+00 +6.47568E-01 +6.71272E+00 -8.39704E-01 +6.68607E+00
 -2.28379E+00 +6.33417E+00 -3.61450E+00 +5.67465E+00 -4.76726E+00 +4.74008E+00 -5.68628E+00 +3.57637E+00
 -6.32721E+00 +2.24048E+00 -6.65931E+00 +7.97691E-01 -6.66689E+00 -6.81645E-01 -6.35011E+00 -2.12550E+00
 -5.72487E+00 -3.46367E+00 -4.82210E+00 -4.63123E+00 -3.68613E+00 -5.57164E+00 -2.37262E+00 -6.23950E+00
 -9.45727E-01 -6.60275E+00 +5.24934E-01 -6.64420E+00 +1.96775E+00 -6.36233E+00 +3.31256E+00 -5.77136E+00
 +4.49410E+00 -4.90053E+00 +5.45514E+00 -3.79264E+00 +6.14927E+00 -2.50198E+00 +6.54314E+00 -1.09162E+00
 +6.61805E+00 +3.69643E-01 +6.37086E+00 +1.81062E+00 +5.81411E+00 +3.16125E+00 +4.97536E+00 +4.35596E+00
 +3.89587E+00 +5.33687E+00 +2.62853E+00 +6.05659E+00 +1.23530E+00 +6.48051E+00 -2.15845E-01 +6.58849E+00
 -1.65421E+00 +6.37574E+00 -3.00984E+00 +5.85314E+00 -4.21690E+00 +5.04660E+00 -5.21691E+00 +3.99579E+00
 -5.96154E+00 +2.75223E+00 -6.41496E+00 +1.37672E+00 -6.55557E+00 -6.36072E-02 -6.37702E+00 -1.49858E+00
 -5.88849E+00 -2.85840E+00 -5.11424E+00 -4.07701E+00 -4.09239E+00 -5.09536E+00 -2.87304E+00 -5.86421E+00
 -1.51583E+00 -6.34654E+00 -8.70009E-02 -6.51935E+00 +1.34382E+00 -6.37471E+00 +2.70702E+00 -5.92016E+00
 +3.93637E+00 -5.17829E+00 +4.97228E+00 -4.18565E+00 +5.76466E+00 -2.99093E+00 +6.27533E+00 -1.65257E+00
 +6.47989E+00 -2.35914E-01 +6.36888E+00 +1.19000E+00 +5.94818E+00 +2.55578E+00 +5.23875E+00 +3.79507E+00
 +4.27555E+00 +4.84778E+00 +3.10586E+00 +5.66298E+00 +1.78690E+00 +6.20139E+00 +3.83066E-01 +6.43725E+00
 -1.03720E+00 +6.35955E+00 -2.40477E+00 +5.97257E+00 -3.65320E+00 +5.29562E+00 -4.72193E+00 +4.36209E+00
 -5.55926E+00 +3.21780E+00 -6.12480E+00 +1.91875E+00 -6.39148E+00 +5.28395E-01 -6.34677E+00 -8.85486E-01
 -5.99336E+00 -2.25407E+00 -5.34891E+00 -3.51084E+00 -4.44524E+00 -4.59483E+00 -3.32671E+00 -5.45357E+00
 -2.04810E+00 -6.04563E+00 -6.71841E-01 -6.34264E+00 +7.34940E-01 -6.33059E+00 +2.10376E+00 -6.01057E+00
 +3.36807E+00 -5.39863E+00 +4.46654E+00 -4.52500E+00 +5.34598E+00 -3.43258E+00 +5.96395E+00 -2.17488E+00
 +6.29079E+00 -8.13342E-01 +6.31106E+00 +5.85630E-01 +6.02425E+00 +1.95392E+00 +5.44480E+00 +3.22499E+00
 +4.60136E+00 +4.33717E+00 +3.53538E+00 +5.23659E+00 +2.29907E+00 +5.87983E+00 +9.52842E-01 +6.23600E+00
 -4.37626E-01 +6.28821E+00 -1.80462E+00 +6.03441E+00 -3.08167E+00 +5.48742E+00 -4.20679E+00 +4.67431E+00
 -5.12547E+00 +3.63507E+00 -5.79335E+00 +2.42061E+00 -6.17832E+00 +1.09028E+00 -6.26210E+00 -2.90996E-01
 -6.04109E+00 -1.65595E+00 -5.52651E+00 -2.93820E+00 -4.74386E+00 -4.07549E+00 -3.73165E+00 -5.01271E+00
 -2.53947E+00 -5.70458E+00 -1.22562E+00 -6.11783E+00 +1.45807E-01 -6.23278E+00 +1.50798E+00 -6.04432E+00
 +2.79466E+00 -5.56209E+00 +3.94334E+00 -4.81001E+00 +4.89838E+00 -3.82509E+00 +5.61360E+00 -2.65562E+00
 +6.05458E+00 -1.35878E+00 +6.20031E+00 +2.12414E-03 +6.04415E+00 +1.36079E+00 +5.59417E+00 +2.65112E+00
 +4.87274E+00 +3.81044E+00 +3.91537E+00 +4.78256E+00 +2.76901E+00 +5.52047E+00 +1.48973E+00 +5.98865E+00
 +1.39989E-01 +6.16472E+00 -1.21445E+00 +6.04060E+00 -2.50768E+00 +5.62278E+00 -3.67687E+00 +4.93206E+00
 -4.66534E+00 +4.00248E+00 -5.42529E+00 +2.87962E+00 -5.92009E+00 +1.61842E+00 -6.12609E+00 +2.80469E-01
 -6.03372E+00 -1.06903E+00 -5.64794E+00 -2.36440E+00 -4.98799E+00 -3.54271E+00 -4.08640E+00 -4.54680E+00
 -2.98741E+00 -5.32811E+00 -1.74480E+00 -5.84897E+00 -4.19257E-01 -6.08445E+00 +9.24604E-01 -6.02354E+00
 +2.22137E+00 -5.66967E+00 +3.40803E+00 -5.04052E+00 +4.42702E+00 -4.16712E+00 +5.22903E+00 -3.09235E+00
 +5.77537E+00 -1.86882E+00 +6.03988E+00 -5.56293E-01 +6.01012E+00 +7.81241E-01 +5.68800E+00 +2.07867E+00
 +5.08966E+00 +3.27293E+00 +4.24463E+00 +4.30608E+00 +3.19442E+00 +5.12811E+00 +1.99044E+00 +5.69935E+00
