 Created: 19-Jan-2021
 $NMID
 ID='D:\BASISSIMULATI'
 FMTDAT='(8E13.5)'
 VOLUME=   1.00000E+00
 TRAMP=   1.00000E+00
 $END
 +7.14128E+01 +7.04898E-02 +6.93512E+01 +1.57936E+01 +6.35043E+01 +3.04583E+01 +5.42927E+01 +4.31226E+01
 +4.23729E+01 +5.29956E+01 +2.85856E+01 +5.94953E+01 +1.38913E+01 +6.22903E+01 -7.03781E-01 +6.13220E+01
 -1.42243E+01 +5.68046E+01 -2.57992E+01 +4.92044E+01 -3.47260E+01 +3.91996E+01 -4.05211E+01 +2.76242E+01
 -4.29522E+01 +1.53997E+01 -4.20499E+01 +3.46210E+00 -3.80992E+01 -7.31195E+00 -3.16097E+01 -1.61725E+01
 -2.32692E+01 -2.25522E+01 -1.38834E+01 -2.61070E+01 -4.30744E+00 -2.67371E+01 +4.62537E+00 -2.45885E+01
 +1.21717E+01 -2.00333E+01 +1.77376E+01 -1.36331E+01 +2.09240E+01 -6.08570E+00 +2.15558E+01 +1.83698E+00
 +1.96911E+01 +9.35730E+00 +1.56103E+01 +1.57590E+01 +9.78750E+00 +2.04481E+01 +2.84469E+00 +2.30029E+01
 -4.50549E+00 +2.32076E+01 -1.15242E+01 +2.10688E+01 -1.75128E+01 +1.68122E+01 -2.18742E+01 +1.08599E+01
 -2.41665E+01 +3.79174E+00 -2.41410E+01 -3.70787E+00 -2.17649E+01 -1.09111E+01 -1.72236E+01 -1.71121E+01
 -1.09055E+01 -2.16900E+01 -3.36779E+00 -2.41649E+01 +4.71180E+00 -2.42415E+01 +1.25938E+01 -2.18365E+01
 +1.95419E+01 -1.70886E+01 +2.48874E+01 -1.03485E+01 +2.80884E+01 -2.15087E+00 +2.87787E+01 +6.82958E+00
 +2.68020E+01 +1.58345E+01 +2.22277E+01 +2.40857E+01 +1.53490E+01 +3.08517E+01 +6.66048E+00 +3.55105E+01
 -3.18036E+00 +3.76034E+01 -1.34063E+01 +3.68763E+01 -2.32032E+01 +3.33037E+01 -3.17772E+01 +2.70937E+01
 -3.84208E+01 +1.86738E+01 -4.25727E+01 +8.65840E+00 -4.38655E+01 -2.20010E+00 -4.21581E+01 -1.30712E+01
 -3.75496E+01 -2.31140E+01 -3.03738E+01 -3.15454E+01 -2.11733E+01 -3.77048E+01 -1.06579E+01 -4.11089E+01
 +3.52527E-01 -4.14923E+01 +1.09933E+01 -3.88307E+01 +2.04251E+01 -3.33442E+01 +2.79020E+01 -2.54814E+01
 +3.28325E+01 -1.58837E+01 +3.48279E+01 -5.33520E+00 +3.37350E+01 +5.30049E+00 +2.96494E+01 +1.51494E+01
 +2.29087E+01 +2.33978E+01 +1.40664E+01 +2.93579E+01 +3.84828E+00 +3.25235E+01 -6.90588E+00 +3.26116E+01
 -1.73089E+01 +2.95856E+01 -2.64974E+01 +2.36588E+01 -3.37010E+01 +1.52779E+01 -3.83037E+01 +5.08792E+00
 -3.98938E+01 -6.11931E+00 -3.82960E+01 -1.74679E+01 -3.35860E+01 -2.80676E+01 -2.60840E+01 -3.70845E+01
 -1.63289E+01 -4.38065E+01 -5.03506E+00 -4.77001E+01 +6.96430E+00 -4.84513E+01 +1.87839E+01 -4.59893E+01
 +2.95560E+01 -4.04912E+01 +3.84991E+01 -3.23659E+01 +4.49784E+01 -2.22202E+01 +4.85547E+01 -1.08091E+01
 +4.90168E+01 +1.02542E+00 +4.63956E+01 +1.24218E+01 +4.09583E+01 +2.25675E+01 +3.31843E+01 +3.07626E+01
 +2.37228E+01 +3.64739E+01 +1.33390E+01 +3.93749E+01 +2.85036E+00 +3.93678E+01 -6.94062E+00 +3.65879E+01
 -1.53107E+01 +3.13876E+01 -2.16736E+01 +2.43033E+01 -2.56251E+01 +1.60084E+01 -2.69730E+01 +7.25383E+00
 -2.57485E+01 -1.19515E+00 -2.21995E+01 -8.62378E+00 -1.67648E+01 -1.44270E+01 -1.00337E+01 -1.81587E+01
 -2.69298E+00 -1.95673E+01 +4.53447E+00 -1.86141E+01 +1.09523E+01 -1.54731E+01 +1.59514E+01 -1.05135E+01
 +1.90621E+01 -4.26495E+00 +1.99945E+01 +2.63087E+00 +1.86624E+01 +9.47744E+00 +1.51904E+01 +1.55855E+01
 +9.90196E+00 +2.03344E+01 +3.29105E+00 +2.32267E+01 -4.02176E+00 +2.39334E+01 -1.13435E+01 +2.23234E+01
 -1.79700E+01 +1.84766E+01 -2.32475E+01 +1.26785E+01 -2.66313E+01 +5.39754E+00 -2.77343E+01 -2.75399E+00
 -2.63632E+01 -1.10713E+01 -2.25378E+01 -1.88169E+01 -1.64930E+01 -2.52837E+01 -8.66157E+00 -2.98560E+01
 +3.58781E-01 -3.20635E+01 +9.85366E+00 -3.16235E+01 +1.90499E+01 -2.84677E+01 +2.71790E+01 -2.27518E+01
 +3.35414E+01 -1.48459E+01 +3.75645E+01 -5.30738E+00 +3.88525E+01 +5.16174E+00 +3.72203E+01 +1.57702E+01
 +3.27117E+01 +2.57003E+01 +2.55986E+01 +3.41739E+01 +1.63619E+01 +4.05146E+01 +5.65461E+00 +4.42039E+01
 -5.74824E+00 +4.49230E+01 -1.70105E+01 +4.25799E+01 -2.73009E+01 +3.73181E+01 -3.58584E+01 +2.95060E+01
 -4.20528E+01 +1.97091E+01 -4.54345E+01 +8.64494E+00 -4.57698E+01 -2.87248E+00 -4.30595E+01 -1.39975E+01
 -3.75376E+01 -2.39192E+01 -2.96527E+01 -3.19253E+01 -2.00311E+01 -3.74574E+01 -9.42646E+00 -4.01549E+01
 +1.34087E+00 -3.98815E+01 +1.14493E+01 -3.67345E+01 +2.01413E+01 -3.10349E+01 +2.67836E+01 -2.32995E+01
 +3.09160E+01 -1.41977E+01 +3.22869E+01 -4.49613E+00 +3.08709E+01 +5.00454E+00 +2.68682E+01 +1.35345E+01
 +2.06859E+01 +2.04168E+01 +1.29022E+01 +2.51218E+01 +4.21694E+00 +2.73083E+01 -4.60697E+00 +2.68495E+01
 -1.28074E+01 +2.38411E+01 -1.96857E+01 +1.85905E+01 -2.46641E+01 +1.15896E+01 -2.73328E+01 +3.47139E+00
 -2.74816E+01 -5.04363E+00 -2.51168E+01 -1.32088E+01 -2.04578E+01 -2.03139E+01 -1.39178E+01 -2.57445E+01
 -6.06740E+00 -2.90329E+01 +2.41453E+00 -2.98964E+01 +1.07984E+01 -2.82603E+01 +1.83656E+01 -2.42627E+01
 +2.44693E+01 -1.82425E+01 +2.85885E+01 -1.07097E+01 +3.03715E+01 -2.30169E+00 +2.96653E+01 +6.27041E+00
 +2.65280E+01 +1.42822E+01 +2.12234E+01 +2.10570E+01 +1.41986E+01 +2.60226E+01 +6.04614E+00 +2.87597E+01
 -2.54572E+00 +2.90368E+01 -1.08512E+01 +2.68298E+01 -1.81680E+01 +2.23238E+01 -2.38760E+01 +1.58981E+01
 -2.74895E+01 +8.09398E+00 -2.86984E+01 -4.30240E-01 -2.73938E+01 -8.95435E+00 -2.36778E+01 -1.67565E+01
 -1.78551E+01 -2.31734E+01 -1.04079E+01 -2.76564E+01 -1.95605E+00 -2.98167E+01 +6.79463E+00 -2.94588E+01
 +1.51108E+01 -2.65970E+01 +2.22929E+01 -2.14546E+01 +2.77329E+01 -1.44457E+01 +3.09659E+01 -6.14137E+00
 +3.17082E+01 +2.77731E+00 +2.98819E+01 +1.15758E+01 +2.56214E+01 +1.95264E+01 +1.92632E+01 +2.59692E+01
 +1.13182E+01 +3.03660E+01 +2.42999E+00 +3.23456E+01 -6.67791E+00 +3.17346E+01 -1.52616E+01 +2.85721E+01
 -2.26180E+01 +2.31070E+01 -2.81429E+01 +1.57777E+01 -3.13804E+01 +7.17656E+00 -3.20612E+01 -1.99873E+00
 -3.01242E+01 -1.10020E+01 -2.57224E+01 -1.91001E+01 -1.92100E+01 -2.56326E+01 -1.11138E+01 -3.00662E+01
 -2.09007E+00 -3.20381E+01 +7.12908E+00 -3.13860E+01 +1.57956E+01 -2.81612E+01 +2.32068E+01 -2.26241E+01
 +2.87622E+01 -1.52231E+01 +3.20130E+01 -6.55755E+00 +3.26982E+01 +2.67145E+00 +3.07656E+01 +1.17182E+01
 +2.63758E+01 +1.98536E+01 +1.98883E+01 +2.64245E+01 +1.18319E+01 +3.09067E+01 +2.86088E+00 +3.29477E+01
 -6.29870E+00 +3.23946E+01 -1.49088E+01 +2.93063E+01 -2.22797E+01 +2.39473E+01 -2.78261E+01 +1.67659E+01
 -3.11148E+01 +8.35619E+00 -3.18997E+01 -5.90870E-01 -3.01406E+01 -9.34491E+00 -2.60059E+01 -1.71961E+01
 -1.98579E+01 -2.35136E+01 -1.22217E+01 -2.77969E+01 -3.74118E+00 -2.97165E+01 +4.87448E+00 -2.91402E+01
 +1.29099E+01 -2.61432E+01 +1.97028E+01 -2.10009E+01 +2.46981E+01 -1.41650E+01 +2.74942E+01 -6.22515E+00
 +2.78751E+01 +2.14012E+00 +2.58278E+01 +1.02206E+01 +2.15426E+01 +1.73335E+01 +1.53966E+01 +2.28799E+01
 +7.92152E+00 +2.63950E+01 -2.40867E-01 +2.75858E+01 -8.39266E+00 +2.63557E+01 -1.58382E+01 +2.28118E+01
 -2.19420E+01 +1.72557E+01 -2.61820E+01 +1.01582E+01 -2.81927E+01 +2.11953E+00 -2.77957E+01 -6.18046E+00
 -2.50147E+01 -1.40393E+01 -2.00731E+01 -2.07905E+01 -1.33760E+01 -2.58587E+01 -5.47586E+00 -2.88082E+01
 +2.97267E+00 -2.93789E+01 +1.12675E+01 -2.75082E+01 +1.87172E+01 -2.33361E+01 +2.46983E+01 -1.71945E+01
 +2.87071E+01 -9.57908E+00 +3.04016E+01 -1.10920E+00 +2.96296E+01 +7.52364E+00 +2.64417E+01 +1.56126E+01
 +2.10872E+01 +2.24938E+01 +1.39940E+01 +2.76011E+01 +5.73312E+00 +3.05126E+01 -3.02804E+00 +3.09855E+01
 -1.15804E+01 +2.89761E+01 -1.92315E+01 +2.46431E+01 -2.53624E+01 +1.83349E+01 -2.94779E+01 +1.05607E+01
 -3.12476E+01 +1.94871E+00 -3.05324E+01 -6.80565E+00 -2.73955E+01 -1.49965E+01 -2.20973E+01 -2.19654E+01
 -1.50730E+01 -2.71554E+01 -6.89726E+00 -3.01559E+01 +1.76397E+00 -3.07365E+01 +1.02078E+01 -2.88646E+01
 +1.77522E+01 -2.47080E+01 +2.37921E+01 -1.86204E+01 +2.78485E+01 -1.11111E+01 +2.96076E+01 -2.80341E+00
 +2.89457E+01 +5.61785E+00 +2.59385E+01 +1.34625E+01 +2.08543E+01 +2.00920E+01 +1.41310E+01 +2.49719E+01
 +6.33884E+00 +2.77157E+01 -1.86678E+00 +2.81156E+01 -9.80033E+00 +2.61596E+01 -1.68029E+01 +2.20312E+01
 -2.22966E+01 +1.60938E+01 -2.58325E+01 +8.85917E+00 -2.71272E+01 +9.45191E-01 -2.60863E+01 -6.97653E+00
 -2.28108E+01 -1.42365E+01 -1.75890E+01 -2.02231E+01 -1.08715E+01 -2.44337E+01 -3.23336E+00 -2.65158E+01
 +4.67424E+00 -2.62969E+01 +1.21784E+01 -2.37979E+01 +1.86407E+01 -1.92315E+01 +2.35105E+01 -1.29845E+01
 +2.63711E+01 -5.58459E+00 +2.69742E+01 +2.34286E+00 +2.52608E+01 +1.01275E+01 +2.13660E+01 +1.71099E+01
 +1.56082E+01 +2.26961E+01 +8.46258E+00 +2.64078E+01 +5.21559E-01 +2.79218E+01 -7.55409E+00 +2.70973E+01
 -1.50901E+01 +2.39879E+01 -2.14549E+01 +1.88374E+01 -2.61115E+01 +1.20599E+01 -2.86626E+01 +4.20570E+00
 -2.88837E+01 -4.08364E+00 -2.67417E+01 -1.21285E+01 -2.23981E+01 -1.92670E+01 -1.61957E+01 -2.49097E+01
 -8.63131E+00 -2.85883E+01 -3.14411E-01 -2.99939E+01 +8.08245E+00 -2.90032E+01 +1.58789E+01 -2.56881E+01
 +2.24424E+01 -2.03106E+01 +2.72403E+01 -1.33008E+01 +2.98832E+01 -5.22205E+00 +3.01570E+01 +3.27515E+00
 +2.80402E+01 +1.15065E+01 +2.37056E+01 +1.88099E+01 +1.75057E+01 +2.45994E+01 +9.94411E+00 +2.84129E+01
 +1.63370E+00 +2.99498E+01 -6.75340E+00 +2.90952E+01 -1.45409E+01 +2.59290E+01 -2.11038E+01 +2.07184E+01
 -2.59188E+01 +1.38960E+01 -2.86075E+01 +6.02369E+00 -2.89662E+01 -2.25380E+00 -2.69824E+01 -1.02618E+01
 -2.28345E+01 -1.73512E+01 -1.68773E+01 -2.29516E+01 -9.61125E+00 -2.66174E+01 -1.64129E+00 -2.80643E+01
 +6.37347E+00 -2.71916E+01 +1.37742E+01 -2.40900E+01 +1.99565E+01 -1.90327E+01 +2.44200E+01 -1.24526E+01
 +2.68092E+01 -4.90567E+00 +2.69420E+01 +2.97568E+00 +2.48239E+01 +1.05349E+01 +2.06470E+01 +1.71459E+01
 +1.47730E+01 +2.22645E+01 +7.70250E+00 +2.54736E+01 +3.32209E-02 +2.65167E+01 -7.59035E+00 +2.53187E+01
 -1.45304E+01 +2.19918E+01 -2.02090E+01 +1.68248E+01 -2.41557E+01 +1.02590E+01 -2.60462E+01 +2.85095E+00
 -2.57295E+01 -4.77468E+00 -2.32392E+01 -1.19769E+01 -1.87908E+01 -1.81519E+01 -1.27628E+01 -2.27835E+01
 -5.66519E+00 -2.54858E+01 +1.90362E+00 -2.60353E+01 +9.30680E+00 -2.43888E+01 +1.59223E+01 -2.06874E+01
 +2.11946E+01 -1.52439E+01 +2.46814E+01 -8.51684E+00 +2.60899E+01 -1.07187E+00 +2.53015E+01 +6.46526E+00
 +2.23815E+01 +1.34611E+01 +1.75737E+01 +1.93273E+01 +1.12799E+01 +2.35695E+01 +4.02668E+00 +2.58290E+01
