 Created: 19-Jan-2021
 $NMID
 ID='D:\BASISSIMULATI'
 FMTDAT='(8E13.5)'
 VOLUME=   1.00000E+00
 TRAMP=   1.00000E+00
 $END
 +4.48831E+01 +4.95262E-02 +4.10563E+01 +5.94110E+00 +3.09663E+01 +1.20441E+01 +1.74314E+01 +1.81991E+01
 +3.99819E+00 +2.35454E+01 -6.23213E+00 +2.67305E+01 -1.15316E+01 +2.64812E+01 -1.19009E+01 +2.22721E+01
 -8.77504E+00 +1.47615E+01 -4.26536E+00 +5.75467E+00 -2.92046E-01 -2.33292E+00 +2.03593E+00 -7.31247E+00
 +2.58499E+00 -8.01465E+00 +1.92146E+00 -4.70478E+00 +8.04862E-01 +1.05256E+00 -2.66587E-01 +7.01628E+00
 -1.24204E+00 +1.11111E+01 -2.38442E+00 +1.21396E+01 -3.94069E+00 +1.00878E+01 -5.83595E+00 +5.94060E+00
 -7.58433E+00 +1.13702E+00 -8.47975E+00 -3.05929E+00 -7.96689E+00 -5.99347E+00 -5.98503E+00 -7.69619E+00
 -3.08140E+00 -8.62945E+00 -2.05877E-01 -9.28303E+00 +1.73279E+00 -9.85579E+00 +2.33472E+00 -1.01860E+01
 +1.95710E+00 -9.94272E+00 +1.59510E+00 -8.94141E+00 +2.42479E+00 -7.37519E+00 +5.20991E+00 -5.80252E+00
 +9.85559E+00 -4.86916E+00 +1.53372E+01 -4.90133E+00 +2.00639E+01 -5.59770E+00 +2.25298E+01 -6.02032E+00
 +2.19640E+01 -4.94481E+00 +1.86774E+01 -1.44411E+00 +1.39374E+01 +4.55882E+00 +9.41875E+00 +1.20516E+01
 +6.47173E+00 +1.91668E+01 +5.54419E+00 +2.38380E+01 +6.02087E+00 +2.46228E+01 +6.55609E+00 +2.13380E+01
 +5.74596E+00 +1.52124E+01 +2.82775E+00 +8.46017E+00 -1.91944E+00 +3.43154E+00 -7.26108E+00 +1.68564E+00
 -1.15425E+01 +3.37727E+00 -1.34263E+01 +7.21906E+00 -1.24916E+01 +1.10369E+01 -9.41765E+00 +1.26829E+01
 -5.67028E+00 +1.09196E+01 -2.83720E+00 +5.90844E+00 -1.92114E+00 -8.88952E-01 -2.91599E+00 -7.33208E+00
 -4.85679E+00 -1.14641E+01 -6.31293E+00 -1.22469E+01 -6.08947E+00 -9.87602E+00 -3.80803E+00 -5.58268E+00
 -9.91527E-02 -1.05438E+00 +3.67871E+00 +2.24278E+00 +6.05895E+00 +3.54509E+00 +6.13780E+00 +2.90237E+00
 +3.99144E+00 +9.34570E-01 +6.57090E-01 -1.58784E+00 -2.30181E+00 -4.10182E+00 -3.44061E+00 -6.37420E+00
 -1.99900E+00 -8.36310E+00 +1.84992E+00 -9.94410E+00 +7.14584E+00 -1.07024E+01 +1.25775E+01 -9.95322E+00
 +1.69831E+01 -7.01980E+00 +1.96828E+01 -1.64607E+00 +2.05238E+01 +5.67728E+00 +1.96727E+01 +1.36739E+01
 +1.73241E+01 +2.06046E+01 +1.35232E+01 +2.48498E+01 +8.21834E+00 +2.55104E+01 +1.51751E+00 +2.27575E+01
 -6.01748E+00 +1.77607E+01 -1.32490E+01 +1.22133E+01 -1.86548E+01 +7.65558E+00 -2.08165E+01 +4.89505E+00
 -1.90175E+01 +3.78014E+00 -1.36760E+01 +3.41985E+00 -6.37396E+00 +2.73438E+00 +5.92512E-01 +1.06581E+00
 +5.00357E+00 -1.44969E+00 +5.53892E+00 -3.93205E+00 +2.28936E+00 -5.20946E+00 -3.27328E+00 -4.45515E+00
 -8.87341E+00 -1.69537E+00 -1.23270E+01 +2.07144E+00 -1.23856E+01 +5.22550E+00 -9.18087E+00 +6.20526E+00
 -4.09119E+00 +4.21347E+00 +8.96680E-01 -3.75602E-01 +4.04483E+00 -6.10483E+00 +4.56823E+00 -1.09947E+01
 +2.89237E+00 -1.33384E+01 +3.77012E-01 -1.23859E+01 -1.34500E+00 -8.62327E+00 -1.10359E+00 -3.52962E+00
 +1.32454E+00 +1.07016E+00 +5.17976E+00 +3.76730E+00 +9.11545E+00 +4.11327E+00 +1.18173E+01 +2.72281E+00
 +1.25507E+01 +9.15968E-01 +1.13948E+01 +8.43516E-02 +9.08572E+00 +1.07772E+00 +6.57892E+00 +3.87928E+00
 +4.56725E+00 +7.68931E+00 +3.19282E+00 +1.13425E+01 +2.07952E+00 +1.38374E+01 +6.42864E-01 +1.47232E+01
 -1.50521E+00 +1.41791E+01 -4.27982E+00 +1.27848E+01 -7.12358E+00 +1.11341E+01 -9.28203E+00 +9.51097E+00
 -1.02049E+01 +7.79827E+00 -9.85494E+00 +5.65656E+00 -8.75135E+00 +2.85675E+00 -7.71198E+00 -4.34030E-01
 -7.41816E+00 -3.59322E+00 -8.02577E+00 -5.76920E+00 -9.03411E+00 -6.29492E+00 -9.50098E+00 -5.07800E+00
 -8.51867E+00 -2.75008E+00 -5.72529E+00 -4.65929E-01 -1.59292E+00 +5.84840E-01 +2.67233E+00 -2.62128E-01
 +5.60195E+00 -2.78430E+00 +6.10971E+00 -5.90315E+00 +4.01502E+00 -8.12500E+00 +1.92112E-01 -8.21317E+00
 -3.74491E+00 -5.79086E+00 -6.09887E+00 -1.58884E+00 -5.80432E+00 +2.79821E+00 -2.88161E+00 +5.56286E+00
 +1.57672E+00 +5.46986E+00 +5.88541E+00 +2.42978E+00 +8.49925E+00 -2.39952E+00 +8.67157E+00 -7.04165E+00
 +6.74429E+00 -9.48601E+00 +3.94356E+00 -8.49639E+00 +1.77992E+00 -4.10198E+00 +1.33032E+00 +2.43102E+00
 +2.73049E+00 +9.12226E+00 +5.10657E+00 +1.40587E+01 +6.97245E+00 +1.60977E+01 +6.90832E+00 +1.52039E+01
 +4.21153E+00 +1.23076E+01 -7.70001E-01 +8.78708E+00 -6.76233E+00 +5.83340E+00 -1.20803E+01 +3.99031E+00
 -1.52939E+01 +3.05550E+00 -1.57529E+01 +2.34874E+00 -1.37526E+01 +1.17925E+00 -1.03020E+01 -7.37091E-01
 -6.62982E+00 -3.11660E+00 -3.67725E+00 -5.26745E+00 -1.80352E+00 -6.46935E+00 -8.12063E-01 -6.36463E+00
 -2.37882E-01 -5.15411E+00 +2.86929E-01 -3.49802E+00 +7.96416E-01 -2.17776E+00 +1.00570E+00 -1.69873E+00
 +5.55405E-01 -2.04432E+00 -6.66415E-01 -2.71226E+00 -2.32297E+00 -3.01644E+00 -3.68492E+00 -2.49644E+00
 -3.94225E+00 -1.21536E+00 -2.62608E+00 +2.22252E-01 +7.93695E-02 +9.59813E-01 +3.31643E+00 +3.52127E-01
 +5.87115E+00 -1.63011E+00 +6.70448E+00 -4.27315E+00 +5.45525E+00 -6.36252E+00 +2.66677E+00 -6.70705E+00
 -3.94730E-01 -4.71039E+00 -2.27425E+00 -7.16411E-01 -1.98746E+00 +4.05388E+00 +4.93945E-01 +7.97191E+00
 +4.16454E+00 +9.68409E+00 +7.37103E+00 +8.70520E+00 +8.50693E+00 +5.64890E+00 +6.71565E+00 +1.97890E+00
 +2.28947E+00 -6.21118E-01 -3.41822E+00 -9.85109E-01 -8.53565E+00 +1.01683E+00 -1.14361E+01 +4.41195E+00
 -1.13906E+01 +7.54267E+00 -8.82774E+00 +8.78555E+00 -5.09854E+00 +7.25505E+00 -1.85904E+00 +3.18536E+00
 -3.54050E-01 -2.17057E+00 -9.16932E-01 -7.06964E+00 -2.89524E+00 -9.99422E+00 -5.01384E+00 -1.02403E+01
 -5.99180E+00 -8.13269E+00 -5.12398E+00 -4.79790E+00 -2.56928E+00 -1.62366E+00 +7.66534E-01 +3.34885E-01
 +3.67442E+00 +7.37078E-01 +5.18890E+00 -2.26714E-02 +4.98187E+00 -1.12757E+00 +3.43511E+00 -1.80344E+00
 +1.38575E+00 -1.69804E+00 -3.06085E-01 -9.97571E-01 -1.14399E+00 -2.46442E-01 -1.15220E+00 +1.14282E-02
 -7.46584E-01 -4.33043E-01 -4.13481E-01 -1.32494E+00 -3.85373E-01 -2.08726E+00 -4.96305E-01 -2.15303E+00
 -2.97554E-01 -1.30413E+00 +6.30654E-01 +1.72924E-01 +2.34704E+00 +1.60877E+00 +4.39195E+00 +2.29876E+00
 +5.91506E+00 +1.89965E+00 +6.05071E+00 +6.62939E-01 +4.36649E+00 -6.34592E-01 +1.15690E+00 -1.05268E+00
 -2.58635E+00 +2.13679E-02 -5.54600E+00 +2.49418E+00 -6.64289E+00 +5.50364E+00 -5.53627E+00 +7.73277E+00
 -2.81870E+00 +7.98008E+00 +2.05494E-01 +5.73322E+00 +2.07880E+00 +1.47510E+00 +1.84474E+00 -3.43869E+00
 -4.98348E-01 -7.30046E+00 -3.95901E+00 -8.75359E+00 -6.96130E+00 -7.37089E+00 -8.02876E+00 -3.84783E+00
 -6.44339E+00 +2.83320E-01 -2.58504E+00 +3.29937E+00 +2.20383E+00 +4.01205E+00 +6.17200E+00 +2.25706E+00
 +7.89000E+00 -1.06456E+00 +6.83780E+00 -4.40421E+00 +3.59670E+00 -6.25128E+00 -4.29143E-01 -5.78064E+00
 -3.62751E+00 -3.18107E+00 -4.85151E+00 +4.67280E-01 -3.85786E+00 +3.69400E+00 -1.33271E+00 +5.28112E+00
 +1.48177E+00 +4.75837E+00 +3.36992E+00 +2.54255E+00 +3.66207E+00 -3.16787E-01 +2.46463E+00 -2.64359E+00
 +5.21257E-01 -3.64714E+00 -1.19958E+00 -3.20809E+00 -1.97524E+00 -1.82906E+00 -1.63154E+00 -3.05680E-01
 -5.48483E-01 +6.97436E-01 +6.06175E-01 +9.49526E-01 +1.25792E+00 +6.95465E-01 +1.21663E+00 +4.37915E-01
 +7.31463E-01 +5.95236E-01 +2.93868E-01 +1.22962E+00 +3.07927E-01 +1.99618E+00 +8.16861E-01 +2.34151E+00
 +1.44365E+00 +1.84331E+00 +1.58832E+00 +5.02460E-01 +7.84164E-01 -1.18229E+00 -9.77711E-01 -2.41705E+00
 -3.14090E+00 -2.50641E+00 -4.77579E+00 -1.24332E+00 -5.00112E+00 +9.12182E-01 -3.43957E+00 +2.97910E+00
 -4.78022E-01 +3.88294E+00 +2.81693E+00 +2.97556E+00 +5.11838E+00 +3.98654E-01 +5.41930E+00 -2.89883E+00
 +3.51045E+00 -5.52436E+00 +1.25504E-01 -6.24136E+00 -3.33322E+00 -4.53985E+00 -5.38376E+00 -9.13328E-01
 -5.11391E+00 +3.29882E+00 -2.59978E+00 +6.45041E+00 +1.10142E+00 +7.28052E+00 +4.39141E+00 +5.45518E+00
 +5.81594E+00 +1.71690E+00 +4.69489E+00 -2.42774E+00 +1.41972E+00 -5.34692E+00 -2.71221E+00 -5.96911E+00
 -6.05122E+00 -4.21609E+00 -7.29107E+00 -9.99980E-01 -6.00231E+00 +2.20393E+00 -2.77686E+00 +4.00987E+00
 +1.06527E+00 +3.70711E+00 +4.06202E+00 +1.52583E+00 +5.22013E+00 -1.51808E+00 +4.38422E+00 -4.10887E+00
 +2.21907E+00 -5.21434E+00 -1.59288E-01 -4.50265E+00 -1.71289E+00 -2.41913E+00 -1.92130E+00 +8.56363E-02
 -9.40497E-01 +2.02497E+00 +5.65390E-01 +2.81137E+00 +1.80868E+00 +2.45938E+00 +2.27410E+00 +1.48292E+00
 +1.93131E+00 +5.65973E-01 +1.17446E+00 +1.90761E-01 +5.43077E-01 +4.15290E-01 +3.87919E-01 +9.03911E-01
 +6.66965E-01 +1.17723E+00 +9.81007E-01 +9.32761E-01 +8.26857E-01 +2.53179E-01 -7.30609E-02 -4.18013E-01
 -1.55092E+00 -5.26821E-01 -3.01612E+00 +2.47052E-01 -3.72706E+00 +1.74237E+00 -3.18427E+00 +3.31399E+00
 -1.44298E+00 +4.10274E+00 +8.29171E-01 +3.46119E+00 +2.60469E+00 +1.32727E+00 +2.95991E+00 -1.65281E+00
 +1.53656E+00 -4.33987E+00 -1.22658E+00 -5.58133E+00 -4.22287E+00 -4.74523E+00 -6.13271E+00 -2.05804E+00
 -6.01091E+00 +1.42719E+00 -3.74014E+00 +4.24119E+00 -1.33101E-01 +5.12028E+00 +3.38018E+00 +3.56686E+00
 +5.35505E+00 +9.37758E-02 +4.96341E+00 -3.96718E+00 +2.37176E+00 -7.01786E+00 -1.30777E+00 -7.86943E+00
 -4.47810E+00 -6.24447E+00 -5.73117E+00 -2.88444E+00 -4.44108E+00 +7.83695E-01 -1.01936E+00 +3.27183E+00
 +3.27358E+00 +3.66895E+00 +6.86950E+00 +2.01379E+00 +8.54239E+00 -7.54680E-01 +7.88311E+00 -3.23514E+00
 +5.40215E+00 -4.18606E+00 +2.23652E+00 -3.05349E+00 -3.86749E-01 -1.78777E-01 -1.67768E+00 +3.38784E+00
 -1.56743E+00 +6.36326E+00 -6.40485E-01 +7.77069E+00 +2.25609E-01 +7.30178E+00 +3.21888E-01 +5.35857E+00
 -5.54800E-01 +2.78826E+00 -2.04114E+00 +4.63379E-01 -3.43291E+00 -1.08209E+00 -4.06679E+00 -1.79662E+00
 -3.65878E+00 -1.99374E+00 -2.43166E+00 -2.06703E+00 -9.77435E-01 -2.20998E+00 +6.26803E-02 -2.29932E+00
 +3.27711E-01 -2.00319E+00 -9.68248E-02 -1.04725E+00 -7.59593E-01 +5.19075E-01 -1.12317E+00 +2.22115E+00
 -8.88852E-01 +3.30400E+00 -1.86710E-01 +3.07360E+00 +4.80412E-01 +1.27248E+00 +5.20718E-01 -1.70667E+00
 -3.77675E-01 -4.89987E+00 -1.99096E+00 -7.13624E+00 -3.56960E+00 -7.53794E+00 -4.13908E+00 -5.92773E+00
 -2.96794E+00 -2.94503E+00 +1.71707E-02 +2.01557E-01 +4.08218E+00 +2.24970E+00 +7.90228E+00 +2.44120E+00
 +1.00764E+01 +8.68377E-01 +9.72444E+00 -1.55593E+00 +6.90097E+00 -3.50056E+00 +2.62646E+00 -3.81554E+00
