 Created: 19-Jan-2021
 $NMID
 ID='D:\BASISSIMULATI'
 FMTDAT='(8E13.5)'
 VOLUME=   1.00000E+00
 TRAMP=   1.00000E+00
 $END
 +3.83777E+01 +4.18115E-02 +3.45628E+01 +5.85421E+00 +2.46620E+01 +1.12452E+01 +1.13635E+01 +1.58106E+01
 -1.93200E+00 +1.89073E+01 -1.21797E+01 +1.97920E+01 -1.75617E+01 +1.79379E+01 -1.78703E+01 +1.33754E+01
 -1.43110E+01 +6.86769E+00 -8.86032E+00 -2.04066E-01 -3.46596E+00 -6.24244E+00 +5.91155E-01 -9.97587E+00
 +2.95648E+00 -1.09145E+01 +4.04642E+00 -9.51293E+00 +4.61739E+00 -6.95194E+00 +5.29637E+00 -4.61700E+00
 +6.29241E+00 -3.49117E+00 +7.39400E+00 -3.72702E+00 +8.20543E+00 -4.59167E+00 +8.46033E+00 -4.81950E+00
 +8.22456E+00 -3.22585E+00 +7.87182E+00 +6.85961E-01 +7.84409E+00 +6.39690E+00 +8.33002E+00 +1.24814E+01
 +9.04642E+00 +1.71226E+01 +9.26409E+00 +1.88250E+01 +8.09977E+00 +1.70242E+01 +4.95834E+00 +1.23327E+01
 -7.89676E-02 +6.31373E+00 -6.11783E+00 +8.72999E-01 -1.16611E+01 -2.47749E+00 -1.51072E+01 -3.17724E+00
 -1.53430E+01 -1.76897E+00 -1.21835E+01 +4.09020E-01 -6.46766E+00 +1.84811E+00 +2.37859E-01 +1.53908E+00
 +6.20836E+00 -5.97767E-01 +1.01671E+01 -3.69640E+00 +1.16784E+01 -6.33485E+00 +1.11730E+01 -7.15129E+00
 +9.61646E+00 -5.41728E+00 +7.98617E+00 -1.32963E+00 +6.80483E+00 +4.08604E+00 +5.94372E+00 +9.39588E+00
 +4.77979E+00 +1.33039E+01 +2.62151E+00 +1.50862E+01 -8.10126E-01 +1.47432E+01 -5.08848E+00 +1.28396E+01
 -9.13489E+00 +1.01458E+01 -1.16169E+01 +7.27213E+00 -1.15249E+01 +4.47638E+00 -8.66937E+00 +1.71831E+00
 -3.86271E+00 -1.09539E+00 +1.31614E+00 -3.83505E+00 +5.09684E+00 -6.01667E+00 +6.20121E+00 -6.91595E+00
 +4.35042E+00 -5.89750E+00 +3.80063E-01 -2.80649E+00 -4.08943E+00 +1.78198E+00 -7.29230E+00 +6.61322E+00
 -8.00353E+00 +1.01300E+01 -5.99172E+00 +1.10489E+01 -2.06231E+00 +8.90233E+00 +2.31019E+00 +4.30447E+00
 +5.59104E+00 -1.19694E+00 +6.77262E+00 -5.65125E+00 +5.70103E+00 -7.42145E+00 +3.02736E+00 -5.80327E+00
 -1.62750E-01 -1.29586E+00 -2.85236E+00 +4.58758E+00 -4.49634E+00 +9.89255E+00 -5.15435E+00 +1.29466E+01
 -5.32042E+00 +1.29431E+01 -5.56043E+00 +1.01603E+01 -6.15413E+00 +5.74895E+00 -6.92572E+00 +1.20326E+00
 -7.34608E+00 -2.24469E+00 -6.84970E+00 -4.04851E+00 -5.19891E+00 -4.42667E+00 -2.70020E+00 -4.09626E+00
 -1.46663E-01 -3.81492E+00 +1.50586E+00 -3.96248E+00 +1.58646E+00 -4.36234E+00 +6.78860E-02 -4.41896E+00
 -2.34728E+00 -3.49238E+00 -4.47761E+00 -1.31496E+00 -5.16004E+00 +1.76537E+00 -3.78213E+00 +4.84859E+00
 -6.09430E-01 +6.83879E+00 +3.25140E+00 +6.93614E+00 +6.25809E+00 +5.03584E+00 +7.04782E+00 +1.83925E+00
 +5.00617E+00 -1.39109E+00 +5.46794E-01 -3.34054E+00 -5.02119E+00 -3.19985E+00 -9.98698E+00 -1.02754E+00
 -1.28880E+01 +2.24611E+00 -1.30463E+01 +5.18244E+00 -1.07728E+01 +6.41467E+00 -7.16686E+00 +5.20045E+00
 -3.61117E+00 +1.71558E+00 -1.18988E+00 -3.02873E+00 -2.81953E-01 -7.59923E+00 -4.94825E-01 -1.06992E+01
 -9.47409E-01 -1.16321E+01 -7.55523E-01 -1.04820E+01 +5.12039E-01 -7.95666E+00 +2.61664E+00 -4.99211E+00
 +4.76525E+00 -2.31698E+00 +5.99496E+00 -1.84380E-01 +5.63964E+00 +1.61415E+00 +3.65664E+00 +3.47873E+00
 +6.60079E-01 +5.62860E+00 -2.35333E+00 +7.83113E+00 -4.45544E+00 +9.38742E+00 -5.20098E+00 +9.40352E+00
 -4.80876E+00 +7.23212E+00 -4.02249E+00 +2.87623E+00 -3.71520E+00 -2.85048E+00 -4.42341E+00 -8.51108E+00
 -6.03378E+00 -1.25294E+01 -7.77847E+00 -1.37804E+01 -8.55414E+00 -1.20389E+01 -7.42942E+00 -8.08678E+00
 -4.11406E+00 -3.42300E+00 +8.26641E-01 +3.14178E-01 +6.11958E+00 +1.97583E+00 +1.02420E+01 +1.32404E+00
 +1.20007E+01 -9.24719E-01 +1.09864E+01 -3.44446E+00 +7.71245E+00 -4.87893E+00 +3.38193E+00 -4.40648E+00
 -6.09924E-01 -2.05536E+00 -3.22110E+00 +1.35139E+00 -4.12264E+00 +4.57853E+00 -3.72907E+00 +6.50763E+00
 -2.90519E+00 +6.57648E+00 -2.49857E+00 +4.94562E+00 -2.91985E+00 +2.33946E+00 -3.96284E+00 -3.40663E-01
 -4.93928E+00 -2.43605E+00 -5.05430E+00 -3.78260E+00 -3.83611E+00 -4.68455E+00 -1.40984E+00 -5.63844E+00
 +1.51928E+00 -6.95874E+00 +3.97003E+00 -8.50462E+00 +5.13555E+00 -9.65862E+00 +4.76691E+00 -9.58451E+00
 +3.30429E+00 -7.65227E+00 +1.68513E+00 -3.82846E+00 +9.08712E-01 +1.16547E+00 +1.55314E+00 +6.02621E+00
 +3.46848E+00 +9.32283E+00 +5.79565E+00 +1.00502E+01 +7.31567E+00 +8.04488E+00 +6.98417E+00 +4.07759E+00
 +4.41837E+00 -4.28224E-01 +1.19382E-01 -3.94246E+00 -4.67503E+00 -5.41402E+00 -8.45187E+00 -4.65332E+00
 -1.00062E+01 -2.35597E+00 -8.90108E+00 +2.34048E-01 -5.61377E+00 +1.86975E+00 -1.31331E+00 +1.81852E+00
 +2.62539E+00 +1.33807E-01 +5.15747E+00 -2.42264E+00 +5.92629E+00 -4.75617E+00 +5.30315E+00 -5.93239E+00
 +4.11368E+00 -5.56454E+00 +3.19449E+00 -3.92876E+00 +2.99313E+00 -1.77202E+00 +3.39376E+00 +8.06952E-02
 +3.83861E+00 +1.12418E+00 +3.67221E+00 +1.38493E+00 +2.53115E+00 +1.35037E+00 +5.82279E-01 +1.65721E+00
 -1.51308E+00 +2.69808E+00 -2.89771E+00 +4.34706E+00 -2.94026E+00 +5.94946E+00 -1.57616E+00 +6.59568E+00
 +6.04063E-01 +5.56074E+00 +2.57645E+00 +2.70540E+00 +3.32812E+00 -1.35726E+00 +2.32889E+00 -5.42581E+00
 -1.86167E-01 -8.15281E+00 -3.26184E+00 -8.58441E+00 -5.59051E+00 -6.56481E+00 -6.05302E+00 -2.82557E+00
 -4.20219E+00 +1.28739E+00 -4.78521E-01 +4.33975E+00 +3.93886E+00 +5.36859E+00 +7.58635E+00 +4.24203E+00
 +9.28427E+00 +1.67169E+00 +8.58117E+00 -1.11928E+00 +5.89186E+00 -2.92259E+00 +2.28181E+00 -3.03680E+00
 -9.97106E-01 -1.51814E+00 -3.01136E+00 +9.04515E-01 -3.47435E+00 +3.19523E+00 -2.76884E+00 +4.48085E+00
 -1.67529E+00 +4.41110E+00 -9.49190E-01 +3.25402E+00 -9.52387E-01 +1.69992E+00 -1.50926E+00 +4.82271E-01
 -2.04615E+00 +6.15769E-03 -1.93553E+00 +1.64686E-01 -8.68548E-01 +4.29589E-01 +9.32899E-01 +1.67420E-01
 +2.77605E+00 -9.78021E-01 +3.80905E+00 -2.83121E+00 +3.44069E+00 -4.69439E+00 +1.66707E+00 -5.63238E+00
 -8.59587E-01 -4.91079E+00 -3.06875E+00 -2.38606E+00 -3.92327E+00 +1.34156E+00 -2.88873E+00 +5.09997E+00
 -2.08168E-01 +7.58488E+00 +3.15003E+00 +7.88636E+00 +5.86127E+00 +5.87597E+00 +6.78053E+00 +2.28261E+00
 +5.41825E+00 -1.58275E+00 +2.15217E+00 -4.34222E+00 -1.91623E+00 -5.09079E+00 -5.39952E+00 -3.73529E+00
 -7.16985E+00 -9.94489E-01 -6.78215E+00 +1.93100E+00 -4.60244E+00 +3.86980E+00 -1.59981E+00 +4.14953E+00
 +1.09344E+00 +2.82848E+00 +2.65277E+00 +6.03490E-01 +2.85851E+00 -1.54700E+00 +2.10058E+00 -2.81153E+00
 +1.10930E+00 -2.88036E+00 +5.54445E-01 -2.02236E+00 +7.08899E-01 -8.84779E-01 +1.33581E+00 -1.26530E-01
 +1.84632E+00 -7.02156E-02 +1.64368E+00 -5.43941E-01 +4.79103E-01 -9.88959E-01 -1.36171E+00 -7.78469E-01
 -3.14225E+00 +4.11497E-01 -4.00041E+00 +2.36699E+00 -3.36808E+00 +4.36356E+00 -1.28650E+00 +5.45950E+00
 +1.54053E+00 +4.92981E+00 +3.99711E+00 +2.64230E+00 +5.01240E+00 -8.05441E-01 +4.02862E+00 -4.26774E+00
 +1.27181E+00 -6.48825E+00 -2.30113E+00 -6.61270E+00 -5.36657E+00 -4.55619E+00 -6.75988E+00 -1.06208E+00
 -5.94189E+00 +2.57994E+00 -3.20912E+00 +5.04214E+00 +4.38519E-01 +5.48115E+00 +3.71168E+00 +3.85629E+00
 +5.54676E+00 +9.14614E-01 +5.50327E+00 -2.14275E+00 +3.88170E+00 -4.16328E+00 +1.52652E+00 -4.49730E+00
 -5.82119E-01 -3.21509E+00 -1.75690E+00 -1.00824E+00 -1.86062E+00 +1.16250E+00 -1.28749E+00 +2.50257E+00
 -6.94878E-01 +2.70336E+00 -6.26777E-01 +2.01070E+00 -1.21674E+00 +1.02778E+00 -2.11526E+00 +3.63091E-01
 -2.67571E+00 +3.02771E-01 -2.30688E+00 +6.69524E-01 -8.17325E-01 +9.36326E-01 +1.42219E+00 +5.36840E-01
 +3.58889E+00 -7.83749E-01 +4.75257E+00 -2.75752E+00 +4.30269E+00 -4.63955E+00 +2.26068E+00 -5.50699E+00
 -6.74475E-01 -4.68493E+00 -3.38272E+00 -2.10492E+00 -4.77976E+00 +1.57716E+00 -4.27916E+00 +5.17541E+00
 -2.05620E+00 +7.41365E+00 +1.00694E+00 +7.43171E+00 +3.67717E+00 +5.14372E+00 +4.87832E+00 +1.29259E+00
 +4.13438E+00 -2.82713E+00 +1.75939E+00 -5.86464E+00 -1.28475E+00 -6.92110E+00 -3.79718E+00 -5.86207E+00
 -4.83455E+00 -3.31250E+00 -4.08180E+00 -3.50637E-01 -1.94393E+00 +1.95608E+00 +6.69232E-01 +2.96847E+00
 +2.75819E+00 +2.67257E+00 +3.65840E+00 +1.58823E+00 +3.28737E+00 +4.53127E-01 +2.11409E+00 -1.55990E-01
 +8.80410E-01 -8.33112E-02 +2.15897E-01 +3.81420E-01 +3.31899E-01 +7.12879E-01 +9.37909E-01 +4.79387E-01
 +1.41479E+00 -3.81207E-01 +1.15654E+00 -1.48493E+00 -8.78075E-02 -2.17233E+00 -2.04097E+00 -1.85120E+00
 -3.98206E+00 -3.46322E-01 -5.05622E+00 +1.92189E+00 -4.66874E+00 +4.03559E+00 -2.77988E+00 +4.93467E+00
 +4.10090E-02 +3.88592E+00 +2.83466E+00 +8.60857E-01 +4.65154E+00 -3.35513E+00 +4.95433E+00 -7.39018E+00
 +3.84157E+00 -9.77440E+00 +1.98966E+00 -9.49864E+00 +3.37245E-01 -6.41713E+00 -3.46806E-01 -1.32861E+00
 +1.83537E-01 +4.29882E+00 +1.53825E+00 +8.84806E+00 +2.87143E+00 +1.11104E+01 +3.27553E+00 +1.06635E+01
 +2.21296E+00 +7.93461E+00 -2.10402E-01 +3.95024E+00 -3.25526E+00 -1.01518E-01 -5.84173E+00 -3.30065E+00
 -6.99760E+00 -5.24486E+00 -6.26499E+00 -6.04085E+00 -3.88715E+00 -6.08117E+00 -6.95250E-01 -5.74381E+00
 +2.25121E+00 -5.17397E+00 +4.10806E+00 -4.25264E+00 +4.57675E+00 -2.75374E+00 +3.97782E+00 -5.91238E-01
 +3.04198E+00 +1.99071E+00 +2.52181E+00 +4.40428E+00 +2.80753E+00 +5.91184E+00 +3.72678E+00 +5.94935E+00
 +4.62234E+00 +4.42672E+00 +4.67337E+00 +1.85009E+00 +3.31237E+00 -8.15947E-01 +5.44257E-01 -2.51017E+00
 -2.98389E+00 -2.51649E+00 -6.20265E+00 -7.93721E-01 -8.03960E+00 +1.96049E+00 -7.85768E+00 +4.55623E+00
 -5.72145E+00 +5.77842E+00 -2.37531E+00 +4.88543E+00 +1.05705E+00 +1.93038E+00 +3.52132E+00 -2.23291E+00
 +4.43701E+00 -6.26543E+00 +3.88799E+00 -8.85096E+00 +2.52675E+00 -9.18715E+00 +1.24611E+00 -7.25971E+00
 +7.71267E-01 -3.79535E+00 +1.35339E+00 +7.30762E-02 +2.69270E+00 +3.27481E+00 +4.11138E+00 +5.19788E+00
 +4.88329E+00 +5.84980E+00 +4.56207E+00 +5.72910E+00 +3.15824E+00 +5.48609E+00 +1.09426E+00 +5.54395E+00
 -1.02530E+00 +5.86316E+00 -2.70470E+00 +5.96093E+00 -3.76078E+00 +5.17513E+00 -4.34029E+00 +3.04589E+00
 -4.74886E+00 -3.68965E-01 -5.18865E+00 -4.40125E+00 -5.55228E+00 -7.95901E+00 -5.39810E+00 -9.92287E+00
 -4.14371E+00 -9.58595E+00 -1.40208E+00 -6.94907E+00 +2.69793E+00 -2.74344E+00 +7.37674E+00 +1.83007E+00
 +1.13546E+01 +5.53563E+00 +1.32636E+01 +7.53082E+00 +1.21730E+01 +7.61707E+00 +8.01578E+00 +6.22335E+00
