 Created: 19-Jan-2021
 $NMID
 ID='D:\BASISSIMULATI'
 FMTDAT='(8E13.5)'
 VOLUME=   1.00000E+00
 TRAMP=   1.00000E+00
 $END
 +1.51725E+01 +1.69756E-02 +1.25025E+01 +7.56258E+00 +5.93373E+00 +1.19012E+01 -1.71043E+00 +1.13355E+01
 -7.17138E+00 +6.28555E+00 -8.16197E+00 -9.02970E-01 -4.34797E+00 -6.97984E+00 +2.51699E+00 -9.19747E+00
 +9.35771E+00 -6.49514E+00 +1.31105E+01 +4.94843E-02 +1.20457E+01 +7.69312E+00 +6.50925E+00 +1.32160E+01
 -1.23390E+00 +1.43115E+01 -7.98334E+00 +1.05758E+01 -1.09855E+01 +3.67310E+00 -9.11674E+00 -3.39196E+00
 -3.35855E+00 -7.57596E+00 +3.63788E+00 -7.10881E+00 +8.70439E+00 -2.25023E+00 +9.52601E+00 +4.83278E+00
 +5.63624E+00 +1.10105E+01 -1.38954E+00 +1.35452E+01 -8.62219E+00 +1.12709E+01 -1.30471E+01 +5.08848E+00
 -1.28629E+01 -2.43147E+00 -8.25056E+00 -8.16423E+00 -1.28401E+00 -9.77905E+00 +4.97465E+00 -6.73782E+00
 +7.80070E+00 -5.15352E-01 +5.97953E+00 +6.04920E+00 +3.21466E-01 +9.98535E+00 -6.69913E+00 +9.47393E+00
 -1.20202E+01 +4.62604E+00 -1.33154E+01 -2.57444E+00 -9.99311E+00 -9.13528E+00 -3.44185E+00 -1.23498E+01
 +3.57888E+00 -1.09602E+01 +8.13487E+00 -5.68955E+00 +8.38124E+00 +1.08304E+00 +4.34920E+00 +6.35873E+00
 -2.08074E+00 +7.81566E+00 -8.00233E+00 +4.80546E+00 -1.07439E+01 -1.37783E+00 -9.01929E+00 -8.06779E+00
 -3.47450E+00 -1.23833E+01 +3.60200E+00 -1.24715E+01 +9.27457E+00 -8.29904E+00 +1.12279E+01 -1.65496E+00
 +8.75895E+00 +4.63197E+00 +3.06691E+00 +7.91818E+00 -3.27751E+00 +6.88172E+00 -7.45035E+00 +2.08120E+00
 -7.59342E+00 -4.29945E+00 -3.60836E+00 -9.40468E+00 +2.81323E+00 -1.09434E+01 +8.93116E+00 -8.17277E+00
 +1.21442E+01 -2.20810E+00 +1.11090E+01 +4.47015E+00 +6.30931E+00 +9.09354E+00 -1.66524E-01 +9.79859E+00
 -5.53681E+00 +6.42093E+00 -7.52939E+00 +5.51453E-01 -5.35538E+00 -5.16393E+00 -3.62266E-02 -8.17315E+00
 +6.05163E+00 -7.11705E+00 +1.02120E+01 -2.40579E+00 +1.05932E+01 +3.97160E+00 +6.97971E+00 +9.31600E+00
 +8.71995E-01 +1.13856E+01 -5.17261E+00 +9.35686E+00 -8.64870E+00 +4.16645E+00 -8.17968E+00 -1.90714E+00
 -4.09927E+00 -6.23626E+00 +1.70846E+00 -6.97813E+00 +6.63512E+00 -3.86076E+00 +8.47836E+00 +1.71454E+00
 +6.38716E+00 +7.29204E+00 +1.21668E+00 +1.04289E+01 -4.85469E+00 +9.74713E+00 -9.27443E+00 +5.51750E+00
 -1.02173E+01 -4.71551E-01 -7.36324E+00 -5.69712E+00 -2.02047E+00 -7.99363E+00 +3.45387E+00 -6.48027E+00
 +6.67847E+00 -1.92643E+00 +6.27289E+00 +3.59683E+00 +2.44156E+00 +7.62196E+00 -3.13032E+00 +8.35172E+00
 -8.01722E+00 +5.42665E+00 -1.01048E+01 +6.59045E-02 -8.49681E+00 -5.47274E+00 -3.88862E+00 -8.87426E+00
 +1.74819E+00 -8.76226E+00 +6.02684E+00 -5.28047E+00 +7.17591E+00 -1.40427E-02 +4.79390E+00 +4.70851E+00
 +6.06939E-03 +6.82552E+00 -5.03735E+00 +5.42631E+00 -8.09844E+00 +1.13028E+00 -7.81606E+00 -4.19678E+00
 -4.28218E+00 -8.25932E+00 +1.01343E+00 -9.32448E+00 +5.83933E+00 -6.96109E+00 +8.18998E+00 -2.21025E+00
 +7.14492E+00 +2.87940E+00 +3.25105E+00 +6.14422E+00 -1.73081E+00 +6.23694E+00 -5.59841E+00 +3.19557E+00
 -6.66097E+00 -1.59061E+00 -4.46028E+00 -5.99580E+00 +4.73848E-02 -8.08171E+00 +4.92002E+00 -6.92930E+00
 +8.07733E+00 -3.02175E+00 +8.19689E+00 +1.98054E+00 +5.27298E+00 +5.96835E+00 +6.01982E-01 +7.29567E+00
 -3.79195E+00 +5.48057E+00 -6.03654E+00 +1.39632E+00 -5.21392E+00 -3.12289E+00 -1.74188E+00 -6.08403E+00
 +2.82454E+00 -6.19466E+00 +6.47770E+00 -3.40918E+00 +7.62719E+00 +1.06862E+00 +5.77812E+00 +5.32032E+00
 +1.72880E+00 +7.54739E+00 -2.79035E+00 +6.84241E+00 -5.87350E+00 +3.56601E+00 -6.26051E+00 -8.26629E-01
 -3.86841E+00 -4.42737E+00 +1.91034E-01 -5.70184E+00 +4.10775E+00 -4.14305E+00 +6.16232E+00 -4.73333E-01
 +5.46394E+00 +3.68524E+00 +2.32070E+00 +6.52223E+00 -1.91118E+00 +6.82007E+00 -5.42649E+00 +4.46826E+00
 -6.75356E+00 +4.93557E-01 -5.38103E+00 -3.39912E+00 -1.96177E+00 -5.56987E+00 +1.98696E+00 -5.14691E+00
 +4.74983E+00 -2.38787E+00 +5.15378E+00 +1.45037E+00 +3.06265E+00 +4.66912E+00 -5.82192E-01 +5.86564E+00
 -4.18519E+00 +4.53105E+00 -6.19367E+00 +1.25358E+00 -5.76429E+00 -2.55319E+00 -3.11293E+00 -5.27206E+00
 +5.96982E-01 -5.78029E+00 +3.77117E+00 -3.92269E+00 +5.07703E+00 -5.60146E-01 +4.01079E+00 +2.81923E+00
 +1.09793E+00 +4.75130E+00 -2.35257E+00 +4.42436E+00 -4.82593E+00 +2.01521E+00 -5.25652E+00 -1.40613E+00
 -3.47699E+00 -4.35363E+00 -2.72576E-01 -5.57196E+00 +2.97510E+00 -4.57102E+00 +4.89329E+00 -1.82107E+00
 +4.70728E+00 +1.46888E+00 +2.56043E+00 +3.88554E+00 -5.66904E-01 +4.42238E+00 -3.29651E+00 +2.90301E+00
 -4.45289E+00 +3.87569E-02 -3.56377E+00 -2.89652E+00 -1.04741E+00 -4.62616E+00 +1.98690E+00 -4.41935E+00
 +4.23090E+00 -2.39282E+00 +4.74381E+00 +5.58434E-01 +3.34789E+00 +3.16332E+00 +6.86973E-01 +4.32919E+00
 -2.06945E+00 +3.60664E+00 -3.74105E+00 +1.36692E+00 -3.64375E+00 -1.37770E+00 -1.87110E+00 -3.42468E+00
 +7.65482E-01 -3.90258E+00 +3.10363E+00 -2.63708E+00 +4.13844E+00 -2.08012E-01 +3.45025E+00 +2.31921E+00
 +1.36967E+00 +3.86403E+00 -1.18427E+00 +3.79532E+00 -3.11462E+00 +2.19042E+00 -3.62257E+00 -2.17497E-01
 -2.54218E+00 -2.37255E+00 -3.93718E-01 -3.35889E+00 +1.85961E+00 -2.79019E+00 +3.23860E+00 -9.60182E-01
 +3.16943E+00 +1.30367E+00 +1.71828E+00 +3.01184E+00 -4.56356E-01 +3.44316E+00 -2.40494E+00 +2.44671E+00
 -3.30414E+00 +4.89076E-01 -2.80688E+00 -1.56564E+00 -1.17632E+00 -2.84012E+00 +8.47187E-01 -2.82148E+00
 +2.38042E+00 -1.56977E+00 +2.78209E+00 +3.27245E-01 +1.92049E+00 +2.02520E+00 +2.12474E-01 +2.79559E+00
 -1.57549E+00 +2.33542E+00 -2.67000E+00 +8.82501E-01 -2.62423E+00 -9.06645E-01 -1.49843E+00 -2.25517E+00
 +1.85037E-01 -2.60525E+00 +1.68461E+00 -1.85017E+00 +2.36782E+00 -3.62781E-01 +1.97983E+00 +1.18446E+00
 +7.38110E-01 +2.12191E+00 -7.81053E-01 +2.07181E+00 -1.90667E+00 +1.09928E+00 -2.16728E+00 -3.34796E-01
 -1.48628E+00 -1.59040E+00 -1.97689E-01 -2.13345E+00 +1.11710E+00 -1.76240E+00 +1.89265E+00 -6.80408E-01
 +1.82412E+00 +6.11720E-01 +9.87131E-01 +1.54722E+00 -2.13617E-01 +1.74290E+00 -1.23686E+00 +1.15676E+00
 -1.64751E+00 +8.89230E-02 -1.30103E+00 -9.67039E-01 -3.91180E-01 -1.55000E+00 +6.52900E-01 -1.43137E+00
 +1.36778E+00 -7.02567E-01 +1.46116E+00 +2.82925E-01 +9.30818E-01 +1.08003E+00 +4.87839E-02 +1.35365E+00
 -7.75082E-01 +1.02030E+00 -1.18304E+00 +2.69980E-01 -1.02533E+00 -5.35030E-01 -4.13970E-01 -1.03252E+00
 +3.43894E-01 -1.02248E+00 +8.96603E-01 -5.46639E-01 +1.00963E+00 +1.46027E-01 +6.64323E-01 +7.25792E-01
 +5.22683E-02 +9.37827E-01 -5.26426E-01 +7.14134E-01 -8.08719E-01 +1.92625E-01 -6.88373E-01 -3.60409E-01
 -2.55486E-01 -6.83190E-01 +2.58498E-01 -6.41574E-01 +5.99592E-01 -2.84905E-01 +6.14436E-01 +1.88614E-01
 +3.18842E-01 +5.36314E-01 -1.18856E-01 +5.92012E-01 -4.68201E-01 +3.44352E-01 -5.54054E-01 -6.41035E-02
 -3.42653E-01 -4.14090E-01 +4.53452E-02 -5.23025E-01 +3.99766E-01 -3.37536E-01 +5.30175E-01 +4.07267E-02
 +3.64308E-01 +4.08292E-01 -1.38153E-02 +5.65070E-01 -4.05516E-01 +4.18616E-01 -5.98506E-01 +3.47319E-02
 -4.77127E-01 -3.92033E-01 -8.61653E-02 -6.34742E-01 +3.85270E-01 -5.50316E-01 +6.94187E-01 -1.57598E-01
 +6.65582E-01 +3.63484E-01 +2.85785E-01 +7.54405E-01 -2.80715E-01 +8.04423E-01 -7.62887E-01 +4.59904E-01
 -9.12029E-01 -1.38569E-01 -6.27067E-01 -7.13312E-01 -1.44485E-02 -9.77745E-01 +6.50239E-01 -7.76707E-01
 +1.04559E+00 -1.71134E-01 +9.57488E-01 +5.77092E-01 +3.89681E-01 +1.11834E+00 -4.23737E-01 +1.17750E+00
 -1.11537E+00 +6.90347E-01 -1.35090E+00 -1.52527E-01 -9.89501E-01 -9.80112E-01 -1.62119E-01 -1.40499E+00
 +7.73785E-01 -1.20443E+00 +1.38832E+00 -4.34354E-01 +1.37560E+00 +5.80688E-01 +7.03062E-01 +1.38332E+00
 -3.58307E-01 +1.58807E+00 -1.34279E+00 +1.06350E+00 -1.79433E+00 +6.29501E-03 -1.47669E+00 -1.13219E+00
 -4.92980E-01 -1.84000E+00 +7.44751E-01 -1.77588E+00 +1.68875E+00 -9.33353E-01 +1.89878E+00 +3.40506E-01
 +1.24736E+00 +1.48660E+00 -8.11339E-03 +1.97810E+00 -1.32497E+00 +1.56076E+00 -2.10845E+00 +3.79881E-01
 -1.97824E+00 -1.06825E+00 -9.49048E-01 -2.14556E+00 +5.59773E-01 -2.35383E+00 +1.89671E+00 -1.56447E+00
 +2.46167E+00 -9.07597E-02 +1.97733E+00 +1.43578E+00 +6.25528E-01 +2.33659E+00 -1.01723E+00 +2.18825E+00
 -2.22347E+00 +1.02117E+00 -2.43457E+00 -6.77796E-01 -1.51623E+00 -2.16684E+00 +1.67001E-01 -2.77139E+00
 +1.89738E+00 -2.18710E+00 +2.91183E+00 -6.27634E-01 +2.74001E+00 +1.25356E+00 +1.42273E+00 +2.63976E+00
 -4.90305E-01 +2.90875E+00 -2.16901E+00 +1.91503E+00 -2.86286E+00 +6.86457E-02 -2.23613E+00 -1.83021E+00
 -5.28851E-01 -2.93456E+00 +1.53299E+00 -2.72453E+00 +3.04505E+00 -1.24683E+00 +3.31976E+00 +8.90124E-01
 +2.19627E+00 +2.76974E+00 +1.25684E-01 +3.56395E+00 -2.01204E+00 +2.90123E+00 -3.28541E+00 +1.04233E+00
 -3.12108E+00 -1.21874E+00 -1.56574E+00 -2.89168E+00 +7.19250E-01 -3.22174E+00 +2.73445E+00 -2.02826E+00
 +3.57460E+00 +2.01918E-01 +2.82963E+00 +2.51296E+00 +7.76852E-01 +3.88978E+00 -1.72518E+00 +3.70329E+00
 -3.60098E+00 +1.99583E+00 -4.02612E+00 -5.22566E-01 -2.79487E+00 -2.77162E+00 -4.23891E-01 -3.76752E+00
 +2.05962E+00 -3.05712E+00 +3.55845E+00 -9.27993E-01 +3.38578E+00 +1.70255E+00 +1.57517E+00 +3.67735E+00
 -1.11954E+00 +4.10234E+00 -3.54045E+00 +2.74412E+00 -4.62530E+00 +1.45347E-01 -3.87489E+00 -2.59802E+00
 -1.58251E+00 -4.30636E+00 +1.27986E+00 -4.23147E+00 +3.47484E+00 -2.39215E+00 +4.03680E+00 +4.20350E-01
 +2.69954E+00 +2.97509E+00 +2.52803E-02 +4.13281E+00 -2.82703E+00 +3.34632E+00 -4.59852E+00 +9.10454E-01
 -4.47956E+00 -2.15232E+00 -2.47155E+00 -4.52667E+00 +6.00073E-01 -5.17444E+00 +3.43303E+00 -3.79294E+00
 +4.80954E+00 -9.58947E-01 +4.12972E+00 +2.10954E+00 +1.68311E+00 +4.07557E+00 -1.46422E+00 +4.06563E+00
 -3.92378E+00 +2.05837E+00 -4.58648E+00 -1.09307E+00 -3.11139E+00 -4.02055E+00 -8.62968E-02 -5.43060E+00
 +3.21505E+00 -4.67020E+00 +5.37861E+00 -2.02110E+00 +5.46483E+00 +1.40973E+00 +3.42494E+00 +4.16135E+00
 +1.34219E-01 +5.05107E+00 -2.97738E+00 +3.69392E+00 -4.54170E+00 +6.81034E-01 -3.85000E+00 -2.66545E+00
 -1.17086E+00 -4.85953E+00 +2.35405E+00 -4.89740E+00 +5.19630E+00 -2.70153E+00 +6.10177E+00 +8.33363E-01
 +4.64060E+00 +4.21763E+00 +1.40469E+00 +6.00794E+00 -2.23759E+00 +5.43625E+00 -4.72809E+00 +2.75211E+00
