 Created: 19-Jan-2021
 $NMID
 ID='D:\BASISSIMULATI'
 FMTDAT='(8E13.5)'
 VOLUME=   1.00000E+00
 TRAMP=   1.00000E+00
 $END
 +2.11971E+01 +2.14364E-02 +2.06003E+01 +4.38790E+00 +1.90756E+01 +8.48709E+00 +1.67147E+01 +1.21192E+01
 +1.36524E+01 +1.51130E+01 +1.00581E+01 +1.73346E+01 +6.12560E+00 +1.86947E+01 +2.06155E+00 +1.91520E+01
 -1.92641E+00 +1.87147E+01 -5.64135E+00 +1.74387E+01 -8.90777E+00 +1.54225E+01 -1.15808E+01 +1.28008E+01
 -1.35533E+01 +9.73504E+00 -1.47602E+01 +6.40402E+00 -1.51808E+01 +2.99253E+00 -1.48380E+01 -3.19092E-01
 -1.37947E+01 -3.36495E+00 -1.21487E+01 -6.00231E+00 -1.00254E+01 -8.11847E+00 -7.56890E+00 -9.63566E+00
 -4.93347E+00 -1.05135E+01 -2.27372E+00 -1.07490E+01 +2.63978E-01 -1.03752E+01 +2.54930E+00 -9.45607E+00
 +4.47434E+00 -8.08198E+00 +5.95824E+00 -6.36225E+00 +6.94995E+00 -4.41797E+00 +7.42907E+00 -2.37432E+00
 +7.40479E+00 -3.53298E-01 +6.91324E+00 +1.53288E+00 +6.01343E+00 +3.18727E+00 +4.78227E+00 +4.53231E+00
 +3.30892E+00 +5.51257E+00 +1.68896E+00 +6.09591E+00 +1.87653E-02 +6.27324E+00 -1.60967E+00 +6.05699E+00
 -3.11310E+00 +5.47855E+00 -4.42046E+00 +4.58491E+00 -5.47526E+00 +3.43486E+00 -6.23690E+00 +2.09498E+00
 -6.68098E+00 +6.35684E-01 -6.79876E+00 -8.72340E-01 -6.59586E+00 -2.36128E+00 -6.09050E+00 -3.76870E+00
 -5.31139E+00 -5.03946E+00 -4.29551E+00 -6.12688E+00 -3.08594E+00 -6.99350E+00 -1.72986E+00 -7.61120E+00
 -2.76802E-01 -7.96108E+00 +1.22283E+00 -8.03306E+00 +2.71894E+00 -7.82535E+00 +4.16266E+00 -7.34398E+00
 +5.50721E+00 -6.60231E+00 +6.70854E+00 -5.62062E+00 +7.72608E+00 -4.42583E+00 +8.52351E+00 -3.05116E+00
 +9.06966E+00 -1.53584E+00 +9.33952E+00 +7.53804E-02 +9.31539E+00 +1.73287E+00 +8.98799E+00 +3.38310E+00
 +8.35759E+00 +4.96994E+00 +7.43496E+00 +6.43633E+00 +6.24196E+00 +7.72627E+00 +4.81181E+00 +8.78715E+00
 +3.18871E+00 +9.57227E+00 +1.42699E+00 +1.00433E+01 -4.10562E-01 +1.01728E+01 -2.25483E+00 +9.94635E+00
 -4.03325E+00 +9.36399E+00 -5.67301E+00 +8.44151E+00 -7.10469E+00 +7.21047E+00 -8.26586E+00 +5.71759E+00
 -9.10469E+00 +4.02319E+00 -9.58308E+00 +2.19871E+00 -9.67925E+00 +3.23515E-01 -9.38953E+00 -1.51902E+00
 -8.72920E+00 -3.24577E+00 -7.73221E+00 -4.77839E+00 -6.44988E+00 -6.04764E+00 -4.94845E+00 -6.99743E+00
 -3.30577E+00 -7.58816E+00 -1.60707E+00 -7.79921E+00 +5.96397E-02 -7.63037E+00 +1.60860E+00 -7.10208E+00
 +2.96119E+00 -6.25441E+00 +4.05050E+00 -5.14490E+00 +4.82531E+00 -3.84530E+00 +5.25305E+00 -2.43738E+00
 +5.32179E+00 -1.00817E+00 +5.04095E+00 +3.55259E-01 +4.44063E+00 +1.57093E+00 +3.56984E+00 +2.56689E+00
 +2.49342E+00 +3.28552E+00 +1.28808E+00 +3.68696E+00 +3.76813E-02 +3.75141E+00 -1.17191E+00 +3.48031E+00
 -2.25806E+00 +2.89609E+00 -3.14641E+00 +2.04069E+00 -3.77538E+00 +9.72921E-01 -4.09984E+00 -2.35230E-01
 -4.09378E+00 -1.50308E+00 -3.75179E+00 -2.74617E+00 -3.08925E+00 -3.88147E+00 -2.14131E+00 -4.83231E+00
 -9.60588E-01 -5.53297E+00 +3.86027E-01 -5.93256E+00 +1.82149E+00 -5.99789E+00 +3.26321E+00 -5.71530E+00
 +4.62794E+00 -5.09125E+00 +5.83657E+00 -4.15181E+00 +6.81870E+00 -2.94086E+00 +7.51649E+00 -1.51744E+00
 +7.88775E+00 +4.78587E-02 +7.90812E+00 +1.67696E+00 +7.57202E+00 +3.28883E+00 +6.89269E+00 +4.80390E+00
 +5.90101E+00 +6.14845E+00 +4.64347E+00 +7.25838E+00 +3.17927E+00 +8.08242E+00 +1.57686E+00 +8.58446E+00
 -8.99382E-02 +8.74503E+00 -1.74590E+00 +8.56173E+00 -3.31835E+00 +8.04879E+00 -4.74072E+00 +7.23573E+00
 -5.95573E+00 +6.16525E+00 -6.91780E+00 +4.89056E+00 -7.59482E+00 +3.47225E+00 -7.96909E+00 +1.97501E+00
 -8.03748E+00 +4.64218E-01 -7.81079E+00 -9.97193E-01 -7.31251E+00 -2.35165E+00 -6.57701E+00 -3.54936E+00
 -5.64723E+00 -4.55018E+00 -4.57221E+00 -5.32493E+00 -3.40442E+00 -5.85602E+00 -2.19716E+00 -6.13757E+00
 -1.00211E+00 -6.17482E+00 +1.32945E-01 -5.98326E+00 +1.16589E+00 -5.58717E+00 +2.06180E+00 -5.01800E+00
 +2.79394E+00 -4.31250E+00 +3.34435E+00 -3.51077E+00 +3.70403E+00 -2.65436E+00 +3.87272E+00 -1.78442E+00
 +3.85833E+00 -9.40003E-01 +3.67612E+00 -1.56610E-01 +3.34764E+00 +5.35033E-01 +2.89946E+00 +1.10995E+00
 +2.36192E+00 +1.54958E+00 +1.76768E+00 +1.84222E+00 +1.15039E+00 +1.98318E+00 +5.43270E-01 +1.97466E+00
 -2.20988E-02 +1.82548E+00 -5.17021E-01 +1.55050E+00 -9.16722E-01 +1.16995E+00 -1.20127E+00 +7.08519E-01
 -1.35633E+00 +1.94349E-01 -1.37371E+00 -3.42118E-01 -1.25170E+00 -8.69370E-01 -9.95249E-01 -1.35611E+00
 -6.15770E-01 -1.77258E+00 -1.30833E-01 -2.09182E+00 +4.36471E-01 -2.29092E+00 +1.05838E+00 -2.35213E+00
 +1.70356E+00 -2.26375E+00 +2.33836E+00 -2.02091E+00 +2.92825E+00 -1.62600E+00 +3.43936E+00 -1.08884E+00
 +3.84007E+00 -4.26541E-01 +4.10254E+00 +3.37015E-01 +4.20416E+00 +1.17198E+00 +4.12880E+00 +2.04371E+00
 +3.86787E+00 +2.91413E+00 +3.42100E+00 +3.74343E+00 +2.79639E+00 +4.49181E+00 +2.01077E+00 +5.12136E+00
 +1.08896E+00 +5.59791E+00 +6.29609E-02 +5.89272E+00 -1.02921E+00 +5.98405E+00 -2.14512E+00 +5.85841E+00
 -3.23977E+00 +5.51139E+00 -4.26753E+00 +4.94819E+00 -5.18427E+00 +4.18363E+00 -5.94940E+00 +3.24172E+00
 -6.52782E+00 +2.15477E+00 -6.89163E+00 +9.62131E-01 -7.02154E+00 -2.91497E-01 -6.90789E+00 -1.55795E+00
 -6.55123E+00 -2.78776E+00 -5.96247E+00 -3.93232E+00 -5.16245E+00 -4.94611E+00 -4.18115E+00 -5.78874E+00
 -3.05640E+00 -6.42684E+00 -1.83226E+00 -6.83551E+00 -5.57041E-01 -6.99956E+00 +7.18796E-01 -6.91413E+00
 +1.94489E+00 -6.58500E+00 +3.07324E+00 -6.02825E+00 +4.06032E+00 -5.26958E+00 +4.86902E+00 -4.34316E+00
 +5.47029E+00 -3.29001E+00 +5.84437E+00 -2.15618E+00 +5.98171E+00 -9.90646E-01 +5.88324E+00 +1.56918E-01
 +5.56034E+00 +1.23839E+00 +5.03425E+00 +2.20938E+00 +4.33499E+00 +3.03123E+00 +3.49998E+00 +3.67278E+00
 +2.57220E+00 +4.11172E+00 +1.59822E+00 +4.33561E+00 +6.25931E-01 +4.34241E+00 -2.97696E-01 +4.14051E+00
 -1.12885E+00 +3.74828E+00 -1.82900E+00 +3.19316E+00 -2.36672E+00 +2.51032E+00 -2.71926E+00 +1.74090E+00
 -2.87363E+00 +9.29975E-01 -2.82728E+00 +1.24327E-01 -2.58826E+00 -6.29922E-01 -2.17486E+00 -1.28965E+00
 -1.61468E+00 -1.81695E+00 -9.43326E-01 -2.18115E+00 -2.02614E-01 -2.36045E+00 +5.61579E-01 -2.34314E+00
 +1.30167E+00 -2.12840E+00 +1.97085E+00 -1.72638E+00 +2.52564E+00 -1.15794E+00 +2.92822E+00 -4.53606E-01
 +3.14856E+00 +3.47844E-01 +3.16622E+00 +1.20134E+00 +2.97158E+00 +2.05781E+00 +2.56663E+00 +2.86678E+00
 +1.96505E+00 +3.57904E+00 +1.19175E+00 +4.14935E+00 +2.81761E-01 +4.53895E+00 -7.21463E-01 +4.71782E+00
 -1.76818E+00 +4.66642E+00 -2.80492E+00 +4.37704E+00 -3.77726E+00 +3.85437E+00 -4.63276E+00 +3.11557E+00
 -5.32373E+00 +2.18952E+00 -5.80993E+00 +1.11553E+00 -6.06075E+00 -5.86040E-02 -6.05704E+00 -1.27896E+00
 -5.79224E+00 -2.48829E+00 -5.27289E+00 -3.62896E+00 -4.51844E+00 -4.64601E+00 -3.56029E+00 -5.49000E+00
 -2.44029E+00 -6.11966E+00 -1.20862E+00 -6.50408E+00 +7.88530E-02 -6.62432E+00 +1.36339E+00 -6.47443E+00
 +2.58647E+00 -6.06174E+00 +3.69277E+00 -5.40642E+00 +4.63303E+00 -4.54043E+00 +5.36651E+00 -3.50573E+00
 +5.86304E+00 -2.35210E+00 +6.10443E+00 -1.13445E+00 +6.08527E+00 +9.00040E-02 +5.81300E+00 +1.26476E+00
 +5.30732E+00 +2.33684E+00 +4.59899E+00 +3.25950E+00 +3.72804E+00 +3.99444E+00 +2.74152E+00 +4.51359E+00
 +1.69098E+00 +4.80035E+00 +6.29702E-01 +4.85012E+00 -3.90000E-01 +4.67027E+00 -1.31944E+00 +4.27949E+00
 -2.11591E+00 +3.70649E+00 -2.74472E+00 +2.98836E+00 -3.18069E+00 +2.16846E+00 -3.40920E+00 +1.29405E+00
 -3.42666E+00 +4.13863E-01 -3.24037E+00 -4.24393E-01 -2.86794E+00 -1.17637E+00 -2.33617E+00 -1.80321E+00
 -1.67950E+00 -2.27331E+00 -9.38207E-01 -2.56378E+00 -1.56314E-01 -2.66134E+00 +6.20599E-01 -2.56286E+00
 +1.34761E+00 -2.27534E+00 +1.98259E+00 -1.81547E+00 +2.48819E+00 -1.20880E+00 +2.83360E+00 -4.88416E-01
 +2.99593E+00 +3.06555E-01 +2.96139E+00 +1.13280E+00 +2.72587E+00 +1.94478E+00 +2.29531E+00 +2.69687E+00
 +1.68552E+00 +3.34538E+00 +9.21612E-01 +3.85069E+00 +3.70611E-02 +4.17909E+00 -9.27660E-01 +4.30449E+00
 -1.92673E+00 +4.20984E+00 -2.91095E+00 +3.88818E+00 -3.82985E+00 +3.34331E+00 -4.63406E+00 +2.59001E+00
 -5.27760E+00 +1.65379E+00 -5.72017E+00 +5.70100E-01 -5.92934E+00 -6.16850E-01 -5.88239E+00 -1.85584E+00
 -5.56789E+00 -3.09072E+00 -4.98675E+00 -4.26291E+00 -4.15277E+00 -5.31410E+00 -3.09263E+00 -6.18907E+00
 -1.84515E+00 -6.83862E+00 -4.59994E-01 -7.22221E+00 +1.00427E+00 -7.31045E+00 +2.48270E+00 -7.08705E+00
 +3.90695E+00 -6.55029E+00 +5.20857E+00 -5.71373E+00 +6.32247E+00 -4.60622E+00 +7.19044E+00 -3.27108E+00
 +7.76443E+00 -1.76443E+00 +8.00938E+00 -1.52852E-01 +7.90566E+00 +1.48975E+00 +7.45056E+00 +3.08569E+00
 +6.65905E+00 +4.55753E+00 +5.56359E+00 +5.83212E+00 +4.21294E+00 +6.84465E+00 +2.67001E+00 +7.54237E+00
 +1.00887E+00 +7.88775E+00 -6.88961E-01 +7.86087E+00 -2.33874E+00 +7.46091E+00 -3.85706E+00 +6.70664E+00
 -5.16644E+00 +5.63576E+00 -6.19969E+00 +4.30314E+00 -6.90373E+00 +2.77813E+00 -7.24279E+00 +1.14089E+00
 -7.20058E+00 -5.21920E-01 -6.78140E+00 -2.12189E+00 -6.01009E+00 -3.57378E+00 -4.93081E+00 -4.80034E+00
 -3.60464E+00 -5.73666E+00 -2.10625E+00 -6.33391E+00 -5.19673E-01 -6.56214E+00 +1.06641E+00 -6.41196E+00
 +2.56369E+00 -5.89511E+00 +3.88927E+00 -5.04370E+00 +4.97029E+00 -3.90835E+00 +5.74808E+00 -2.55524E+00
 +6.18136E+00 -1.06218E+00 +6.24845E+00 +4.85804E-01 +5.94830E+00 +2.00144E+00 +5.30034E+00 +3.40013E+00
 +4.34310E+00 +4.60472E+00 +3.13178E+00 +5.54973E+00 +1.73485E+00 +6.18484E+00 +2.29997E-01 +6.47745E+00
 -1.30040E+00 +6.41416E+00 -2.77396E+00 +6.00107E+00 -4.11284E+00 +5.26298E+00 -5.24794E+00 +4.24157E+00
 -6.12236E+00 +2.99261E+00 -6.69420E+00 +1.58253E+00 -6.93827E+00 +8.44750E-02 -6.84687E+00 -1.42585E+00
 -6.42953E+00 -2.87427E+00 -5.71180E+00 -4.19201E+00 -4.73322E+00 -5.31899E+00 -3.54462E+00 -6.20654E+00
 -2.20503E+00 -6.81929E+00 -7.78187E-01 -7.13622E+00 +6.70775E-01 -7.15090E+00 +2.07864E+00 -6.87092E+00
 +3.38698E+00 -6.31663E+00 +4.54456E+00 -5.51931E+00 +5.50917E+00 -4.51902E+00 +6.24882E+00 -3.36206E+00
 +6.74236E+00 -2.09859E+00 +6.97942E+00 -7.80105E-01 +6.95995E+00 +5.42675E-01 +6.69330E+00 +1.82174E+00
 +6.19706E+00 +3.01331E+00 +5.49565E+00 +4.07894E+00 +4.61895E+00 +4.98633E+00 +3.60089E+00 +5.70971E+00
