 Created: 19-Jan-2021
 $NMID
 ID='D:\BASISSIMULATI'
 FMTDAT='(8E13.5)'
 VOLUME=   1.00000E+00
 TRAMP=   1.00000E+00
 $END
 +2.58366E+01 +2.90080E-02 +2.27892E+01 +6.32953E+00 +1.46967E+01 +1.14303E+01 +3.87876E+00 +1.43655E+01
 -6.62016E+00 +1.45128E+01 -1.39454E+01 +1.17449E+01 -1.62643E+01 +6.52907E+00 -1.32591E+01 -7.83956E-02
 -6.13976E+00 -6.58878E+00 +2.80413E+00 -1.13907E+01 +1.09484E+01 -1.31592E+01 +1.61271E+01 -1.12557E+01
 +1.72238E+01 -5.98568E+00 +1.43945E+01 +1.39437E+00 +8.88548E+00 +8.96297E+00 +2.54189E+00 +1.46555E+01
 -2.80723E+00 +1.68778E+01 -5.88235E+00 +1.50175E+01 -6.24903E+00 +9.67647E+00 -4.31562E+00 +2.52512E+00
 -1.07702E+00 -4.19400E+00 +2.27543E+00 -8.36881E+00 +4.73341E+00 -8.70039E+00 +5.72375E+00 -5.13657E+00
 +5.18067E+00 +1.09725E+00 +3.45576E+00 +7.89165E+00 +1.13376E+00 +1.29483E+01 -1.16310E+00 +1.45475E+01
 -2.91993E+00 +1.21303E+01 -3.80023E+00 +6.49460E+00 -3.65880E+00 -4.63479E-01 -2.53068E+00 -6.37970E+00
 -6.24001E-01 -9.21220E+00 +1.67988E+00 -7.92627E+00 +3.84189E+00 -2.84397E+00 +5.23020E+00 +4.45668E+00
 +5.25430E+00 +1.16560E+01 +3.55310E+00 +1.64451E+01 +1.81495E-01 +1.72656E+01 -4.28452E+00 +1.37952E+01
 -8.79647E+00 +7.02872E+00 -1.20635E+01 -1.05892E+00 -1.29246E+01 -8.14331E+00 -1.07562E+01 -1.22625E+01
 -5.77370E+00 -1.23825E+01 +9.01278E-01 -8.64960E+00 +7.47064E+00 -2.27456E+00 +1.19489E+01 +4.88717E+00
 +1.27764E+01 +1.09041E+01 +9.36066E+00 +1.43024E+01 +2.35445E+00 +1.44110E+01 -6.44709E+00 +1.14439E+01
 -1.45874E+01 +6.33410E+00 -1.96744E+01 +4.06407E-01 -2.01266E+01 -4.99065E+00 -1.56966E+01 -8.78867E+00
 -7.59075E+00 -1.03766E+01 +1.86796E+00 -9.64329E+00 +9.93549E+00 -6.91860E+00 +1.42848E+01 -2.86009E+00
 +1.37174E+01 +1.67593E+00 +8.52131E+00 +5.76401E+00 +3.59921E-01 +8.54345E+00 -8.26512E+00 +9.36320E+00
 -1.48012E+01 +7.92921E+00 -1.74246E+01 +4.42150E+00 -1.55664E+01 -4.69329E-01 -1.00268E+01 -5.63230E+00
 -2.65810E+00 -9.76777E+00 +4.26032E+00 -1.17245E+01 +8.74318E+00 -1.08546E+01 +9.68180E+00 -7.26935E+00
 +7.11474E+00 -1.89213E+00 +2.12433E+00 +3.74360E+00 -3.57846E+00 +7.91770E+00 -8.22389E+00 +9.25262E+00
 -1.05164E+01 +7.18062E+00 -9.96935E+00 +2.18446E+00 -6.96082E+00 -4.29016E+00 -2.52701E+00 -1.02468E+01
 +2.00979E+00 -1.37592E+01 +5.44375E+00 -1.36038E+01 +6.99523E+00 -9.69298E+00 +6.45421E+00 -3.15151E+00
 +4.14880E+00 +4.00399E+00 +7.85085E-01 +9.49174E+00 -2.76881E+00 +1.14985E+01 -5.68602E+00 +9.27945E+00
 -7.33011E+00 +3.42290E+00 -7.34119E+00 -4.31467E+00 -5.67209E+00 -1.15537E+01 -2.59147E+00 -1.60421E+01
 +1.34100E+00 -1.63668E+01 +5.33772E+00 -1.23965E+01 +8.50136E+00 -5.31360E+00 +1.00033E+01 +2.76721E+00
 +9.29983E+00 +9.46641E+00 +6.33182E+00 +1.28716E+01 +1.63486E+00 +1.21022E+01 -3.70533E+00 +7.53482E+00
 -8.27757E+00 +6.35375E-01 -1.07149E+01 -6.53023E+00 -1.01126E+01 -1.19364E+01 -6.36233E+00 -1.41828E+01
 -2.76422E-01 -1.28503E+01 +6.56700E+00 -8.53929E+00 +1.22409E+01 -2.60950E+00 +1.50371E+01 +3.27163E+00
 +1.40119E+01 +7.61651E+00 +9.32638E+00 +9.49514E+00 +2.25609E+00 +8.70995E+00 -5.15519E+00 +5.74907E+00
 -1.07030E+01 +1.56835E+00 -1.27045E+01 -2.70769E+00 -1.05370E+01 -6.07130E+00 -4.85100E+00 -7.83530E+00
 +2.61722E+00 -7.72785E+00 +9.58168E+00 -5.88786E+00 +1.39215E+01 -2.79124E+00 +1.43447E+01 +8.60303E-01
 +1.07866E+01 +4.26796E+00 +4.41555E+00 +6.67376E+00 -2.75219E+00 +7.50327E+00 -8.49959E+00 +6.49974E+00
 -1.11056E+01 +3.82133E+00 -9.86813E+00 +6.26041E-02 -5.29114E+00 -3.83319E+00 +1.11165E+00 -6.77874E+00
 +7.32062E+00 -7.83142E+00 +1.14494E+01 -6.49220E+00 +1.23131E+01 -2.91788E+00 +9.75206E+00 +2.04072E+00
 +4.62661E+00 +7.01726E+00 -1.49548E+00 +1.04987E+01 -6.84049E+00 +1.12867E+01 -9.95382E+00 +8.90971E+00
 -1.00902E+01 +3.84059E+00 -7.36716E+00 -2.57042E+00 -2.66177E+00 -8.45342E+00 +2.69052E+00 -1.19722E+01
 +7.28661E+00 -1.19060E+01 +1.00175E+01 -8.06989E+00 +1.03098E+01 -1.42841E+00 +8.20557E+00 +6.15214E+00
 +4.28825E+00 +1.24471E+01 -4.97757E-01 +1.55492E+01 -5.07594E+00 +1.44636E+01 -8.46114E+00 +9.43056E+00
 -9.94220E+00 +1.86817E+00 -9.20567E+00 -6.04976E+00 -6.39264E+00 -1.20500E+01 -2.08361E+00 -1.44430E+01
 +2.79368E+00 -1.26197E+01 +7.13298E+00 -7.21068E+00 +9.87950E+00 +1.34831E-01 +1.02835E+01 +7.26966E+00
 +8.11852E+00 +1.21994E+01 +3.79591E+00 +1.36583E+01 -1.67731E+00 +1.14386E+01 -6.91453E+00 +6.38718E+00
 -1.05020E+01 +9.12256E-02 -1.13995E+01 -5.63084E+00 -9.27014E+00 -9.26676E+00 -4.62802E+00 -1.00136E+01
 +1.26153E+00 -7.94024E+00 +6.72072E+00 -3.88422E+00 +1.01476E+01 +8.57833E-01 +1.05085E+01 +4.93507E+00
 +7.67655E+00 +7.31524E+00 +2.49940E+00 +7.52540E+00 -3.43899E+00 +5.71254E+00 -8.29803E+00 +2.53409E+00
 -1.05551E+01 -1.06676E+00 -9.49182E+00 -4.12546E+00 -5.43336E+00 -5.88972E+00 +3.43277E-01 -5.97455E+00
 +6.00630E+00 -4.41939E+00 +9.74784E+00 -1.65242E+00 +1.03591E+01 +1.61853E+00 +7.61679E+00 +4.56348E+00
 +2.35682E+00 +6.41018E+00 -3.78801E+00 +6.61940E+00 -8.90047E+00 +5.02538E+00 -1.13771E+01 +1.90900E+00
 -1.04224E+01 -2.02511E+00 -6.28624E+00 -5.78136E+00 -1.76334E-01 -8.30332E+00 +6.11935E+00 -8.75635E+00
 +1.07750E+01 -6.79030E+00 +1.24646E+01 -2.70020E+00 +1.07332E+01 +2.58100E+00 +6.09983E+00 +7.68117E+00
 -1.24798E-01 +1.11444E+01 -6.23534E+00 +1.18526E+01 -1.06173E+01 +9.38818E+00 -1.21774E+01 +4.21939E+00
 -1.06044E+01 -2.36839E+00 -6.40344E+00 -8.59518E+00 -7.16105E-01 -1.26820E+01 +5.00674E+00 -1.33769E+01
 +9.38084E+00 -1.03508E+01 +1.14155E+01 -4.33188E+00 +1.07196E+01 +3.07222E+00 +7.55252E+00 +9.82254E+00
 +2.72681E+00 +1.40371E+01 -2.60129E+00 +1.45426E+01 -7.20063E+00 +1.12201E+01 -1.00358E+01 +5.03937E+00
 -1.04887E+01 -2.23079E+00 -8.48984E+00 -8.54521E+00 -4.53548E+00 -1.21792E+01 +4.17283E-01 -1.22183E+01
 +5.16197E+00 -8.79725E+00 +8.52249E+00 -3.02311E+00 +9.64230E+00 +3.38194E+00 +8.21318E+00 +8.60257E+00
 +4.57908E+00 +1.12542E+01 -3.25070E-01 +1.07548E+01 -5.19871E+00 +7.44408E+00 -8.71712E+00 +2.43038E+00
 -9.90105E+00 -2.77263E+00 -8.40889E+00 -6.69992E+00 -4.65919E+00 -8.34312E+00 +2.64723E-01 -7.40003E+00
 +4.91267E+00 -4.30829E+00 +7.88869E+00 -7.19506E-02 +8.27222E+00 +4.05327E+00 +5.90945E+00 +6.91781E+00
 +1.47921E+00 +7.77964E+00 -3.69528E+00 +6.47509E+00 -8.03849E+00 +3.42717E+00 -1.02020E+01 -4.96311E-01
 -9.48352E+00 -4.22673E+00 -6.05416E+00 -6.77398E+00 -9.18870E-01 -7.47286E+00 +4.38057E+00 -6.14171E+00
 +8.23087E+00 -3.12159E+00 +9.43811E+00 +8.09144E-01 +7.59282E+00 +4.62422E+00 +3.19737E+00 +7.30080E+00
 -2.48253E+00 +8.07688E+00 -7.79516E+00 +6.65477E+00 -1.11925E+01 +3.29892E+00 -1.16842E+01 -1.20362E+00
 -9.12035E+00 -5.72059E+00 -4.22482E+00 -9.05509E+00 +1.62623E+00 -1.02634E+01 +6.80720E+00 -8.92703E+00
 +9.90607E+00 -5.29918E+00 +1.01129E+01 -2.74828E-01 +7.42721E+00 +4.82193E+00 +2.63383E+00 +8.58550E+00
 -2.93512E+00 +9.92054E+00 -7.77670E+00 +8.36648E+00 -1.06234E+01 +4.25595E+00 -1.07688E+01 -1.34876E+00
 -8.23220E+00 -6.93322E+00 -3.72702E+00 -1.09501E+01 +1.54724E+00 -1.22616E+01 +6.22786E+00 -1.04749E+01
 +9.14018E+00 -6.06879E+00 +9.58886E+00 -2.68911E-01 +7.52073E+00 +5.29642E+00 +3.52400E+00 +9.06072E+00
 -1.33066E+00 +9.96895E+00 -5.76574E+00 +7.78004E+00 -8.62087E+00 +3.13330E+00 -9.14646E+00 -2.63964E+00
 -7.19538E+00 -7.90093E+00 -3.26420E+00 -1.11762E+01 +1.62878E+00 -1.15708E+01 +6.20202E+00 -9.01390E+00
 +9.24328E+00 -4.26312E+00 +9.93257E+00 +1.32463E+00 +8.06966E+00 +6.18617E+00 +4.14205E+00 +8.99250E+00
 -7.91383E-01 +9.01211E+00 -5.37658E+00 +6.29813E+00 -8.33014E+00 +1.65385E+00 -8.79641E+00 -3.60621E+00
 -6.59530E+00 -8.02705E+00 -2.28708E+00 -1.04105E+01 +2.96982E+00 -1.01312E+01 +7.73340E+00 -7.29047E+00
 +1.06796E+01 -2.67223E+00 +1.09771E+01 +2.47986E+00 +8.52836E+00 +6.80069E+00 +4.00374E+00 +9.16575E+00
 -1.34194E+00 +8.98284E+00 -6.02072E+00 +6.33975E+00 -8.73048E+00 +1.97273E+00 -8.72145E+00 -2.93335E+00
 -6.00540E+00 -7.05978E+00 -1.34842E+00 -9.30171E+00 +3.94941E+00 -9.05871E+00 +8.42254E+00 -6.39255E+00
 +1.08505E+01 -2.01047E+00 +1.05942E+01 +2.92277E+00 +7.76379E+00 +7.09608E+00 +3.17581E+00 +9.40455E+00
 -1.88566E+00 +9.24914E+00 -6.03177E+00 +6.70152E+00 -8.15299E+00 +2.48697E+00 -7.71789E+00 -2.21256E+00
 -4.90693E+00 -6.08349E+00 -5.48732E-01 -8.04494E+00 +4.11902E+00 -7.55083E+00 +7.79502E+00 -4.74398E+00
 +9.47069E+00 -4.16983E-01 +8.70092E+00 +4.21084E+00 +5.71825E+00 +7.83829E+00 +1.36199E+00 +9.45134E+00
 -3.15632E+00 +8.61095E+00 -6.58676E+00 +5.57706E+00 -7.98418E+00 +1.23318E+00 -6.96820E+00 -3.16668E+00
 -3.82991E+00 -6.35590E+00 +5.44351E-01 -7.41538E+00 +4.91332E+00 -6.03333E+00 +8.02163E+00 -2.59175E+00
 +8.94953E+00 +1.94335E+00 +7.37536E+00 +6.29521E+00 +3.67665E+00 +9.23453E+00 -1.16196E+00 +9.92205E+00
 -5.81261E+00 +8.14057E+00 -8.97046E+00 +4.35421E+00 -9.72165E+00 -4.19230E-01 -7.80931E+00 -4.88551E+00
 -3.72009E+00 -7.82455E+00 +1.43766E+00 -8.41945E+00 +6.23376E+00 -6.47700E+00 +9.31254E+00 -2.48217E+00
 +9.77447E+00 +2.52635E+00 +7.43446E+00 +7.22672E+00 +2.88169E+00 +1.03598E+01 -2.67784E+00 +1.10608E+01
 -7.75272E+00 +9.09174E+00 -1.09782E+01 +4.91190E+00 -1.14923E+01 -4.31575E-01 -9.17077E+00 -5.56913E+00
 -4.65521E+00 -9.16325E+00 +8.30018E-01 -1.02614E+01 +5.81818E+00 -8.55480E+00 +9.00019E+00 -4.47151E+00
 +9.57256E+00 +9.24146E-01 +7.43939E+00 +6.20558E+00 +3.21805E+00 +9.96142E+00 -1.94595E+00 +1.11767E+01
 -6.69759E+00 +9.51342E+00 -9.83404E+00 +5.41026E+00 -1.06116E+01 -3.09012E-02 -8.91994E+00 -5.34436E+00
 -5.28528E+00 -9.10533E+00 -7.09396E-01 -1.03269E+01 +3.60533E+00 -8.73578E+00 +6.57012E+00 -4.84604E+00
 +7.48231E+00 +1.92081E-01 +6.19019E+00 +4.92591E+00 +3.11374E+00 +8.01971E+00 -8.78734E-01 +8.63702E+00
 -4.70355E+00 +6.67360E+00 -7.34448E+00 +2.77343E+00 -8.11511E+00 -1.87500E+00 -6.83557E+00 -5.89899E+00
 -3.87911E+00 -8.14907E+00 -7.48417E-02 -8.03164E+00 +3.51136E+00 -5.66939E+00 +5.86446E+00 -1.84564E+00
 +6.30235E+00 +2.24512E+00 +4.67626E+00 +5.36122E+00 +1.43022E+00 +6.58086E+00 -2.50429E+00 +5.56408E+00
 -5.95810E+00 +2.63643E+00 -7.85545E+00 -1.32331E+00 -7.53517E+00 -5.15108E+00 -4.96721E+00 -7.73748E+00
