 Created: 19-Jan-2021
 $NMID
 ID='D:\BASISSIMULATI'
 FMTDAT='(8E13.5)'
 VOLUME=   1.00000E+00
 TRAMP=   1.00000E+00
 $END
 +3.74289E+01 +4.05524E-02 +3.36477E+01 +1.44494E+01 +2.36637E+01 +2.52785E+01 +9.99318E+00 +3.00443E+01
 -3.98937E+00 +2.78029E+01 -1.49107E+01 +1.93575E+01 -2.02421E+01 +7.01979E+00 -1.89116E+01 -6.00448E+00
 -1.15330E+01 -1.64417E+01 -2.02854E-01 -2.17725E+01 +1.20713E+01 -2.08400E+01 +2.21577E+01 -1.40949E+01
 +2.75926E+01 -3.42572E+00 +2.71771E+01 +8.37145E+00 +2.12313E+01 +1.83350E+01 +1.14513E+01 +2.40953E+01
 +4.20473E-01 +2.44528E+01 -9.08899E+00 +1.96331E+01 -1.48346E+01 +1.11661E+01 -1.56571E+01 +1.43235E+00
 -1.17311E+01 -6.99198E+00 -4.45790E+00 -1.20149E+01 +3.95727E+00 -1.25543E+01 +1.11224E+01 -8.77835E+00
 +1.51010E+01 -2.00651E+00 +1.49097E+01 +5.68985E+00 +1.07448E+01 +1.20720E+01 +3.88640E+00 +1.53430E+01
 -3.68363E+00 +1.46186E+01 -9.84049E+00 +1.01392E+01 -1.28975E+01 +3.17411E+00 -1.20545E+01 -4.34908E+00
 -7.59645E+00 -1.03832E+01 -7.95694E-01 -1.33212E+01 +6.44995E+00 -1.24261E+01 +1.21416E+01 -8.01974E+00
 +1.47230E+01 -1.38397E+00 +1.34982E+01 +5.59532E+00 +8.81401E+00 +1.09416E+01 +1.96179E+00 +1.31206E+01
 -5.17194E+00 +1.14507E+01 -1.06105E+01 +6.28376E+00 -1.28125E+01 -1.08931E+00 -1.10797E+01 -8.77987E+00
 -5.74043E+00 -1.47986E+01 +1.93713E+00 -1.75759E+01 +1.00760E+01 -1.63694E+01 +1.66782E+01 -1.14544E+01
 +2.01398E+01 -4.04823E+00 +1.96606E+01 +4.00762E+00 +1.54428E+01 +1.07232E+01 +8.62990E+00 +1.44694E+01
 +1.00502E+00 +1.43886E+01 -5.47029E+00 +1.06030E+01 -9.15660E+00 +4.16922E+00 -9.14715E+00 -3.20442E+00
 -5.48461E+00 -9.60190E+00 +8.67815E-01 -1.33885E+01 +8.28903E+00 -1.36184E+01 +1.49246E+01 -1.02580E+01
 +1.91608E+01 -4.17270E+00 +2.00264E+01 +3.11579E+00 +1.74198E+01 +9.83239E+00 +1.21083E+01 +1.44057E+01
 +5.50599E+00 +1.58599E+01 -7.08184E-01 +1.40423E+01 -5.02770E+00 +9.63293E+00 -6.49766E+00 +3.93948E+00
 -4.93907E+00 -1.46272E+00 -9.64727E-01 -5.14786E+00 +4.21095E+00 -6.20351E+00 +9.11221E+00 -4.44803E+00
 +1.23986E+01 -4.49221E-01 +1.32118E+01 +4.65442E+00 +1.13837E+01 +9.47636E+00 +7.45420E+00 +1.27590E+01
 +2.50034E+00 +1.37031E+01 -2.17105E+00 +1.21641E+01 -5.38239E+00 +8.66606E+00 -6.39741E+00 +4.23650E+00
 -5.10432E+00 +1.10430E-01 -2.02436E+00 -2.61211E+00 +1.85154E+00 -3.26157E+00 +5.34912E+00 -1.76859E+00
 +7.43932E+00 +1.33471E+00 +7.51834E+00 +5.07819E+00 +5.56413E+00 +8.33321E+00 +2.12941E+00 +1.01293E+01
 -1.82352E+00 +9.92022E+00 -5.19750E+00 +7.72831E+00 -7.06739E+00 +4.12850E+00 -6.93417E+00 +8.06184E-02
 -4.85725E+00 -3.34227E+00 -1.43055E+00 -5.25267E+00 +2.38882E+00 -5.19212E+00 +5.55012E+00 -3.25300E+00
 +7.20118E+00 -4.65470E-02 +6.92261E+00 +3.47216E+00 +4.83995E+00 +6.27256E+00 +1.58417E+00 +7.53544E+00
 -1.88730E+00 +6.87893E+00 -4.55848E+00 +4.46202E+00 -5.63720E+00 +9.37857E-01 -4.77411E+00 -2.72927E+00
 -2.15826E+00 -5.53196E+00 +1.53630E+00 -6.69863E+00 +5.33769E+00 -5.90644E+00 +8.24495E+00 -3.36979E+00
 +9.50434E+00 +2.19446E-01 +8.81714E+00 +3.88325E+00 +6.42179E+00 +6.62758E+00 +3.02815E+00 +7.71685E+00
 -3.78298E-01 +6.87747E+00 -2.80835E+00 +4.37440E+00 -3.54276E+00 +9.39676E-01 -2.33245E+00 -2.42793E+00
 +5.29728E-01 -4.73735E+00 +4.28586E+00 -5.27901E+00 +7.91791E+00 -3.82279E+00 +1.04254E+01 -6.85847E-01
 +1.11000E+01 +3.34902E+00 +9.72281E+00 +7.24297E+00 +6.62874E+00 +9.98232E+00 +2.62109E+00 +1.08552E+01
 -1.24264E+00 +9.64837E+00 -3.93570E+00 +6.70998E+00 -4.74124E+00 +2.86049E+00 -3.44985E+00 -8.25424E-01
 -4.21236E-01 -3.30779E+00 +3.50763E+00 -3.86334E+00 +7.24419E+00 -2.28442E+00 +9.73295E+00 +1.05980E+00
 +1.02406E+01 +5.31714E+00 +8.55666E+00 +9.37726E+00 +5.05477E+00 +1.21678E+01 +5.97461E-01 +1.29424E+01
 -3.69138E+00 +1.14835E+01 -6.72566E+00 +8.16351E+00 -7.74790E+00 +3.84897E+00 -6.53336E+00 -3.29550E-01
 -3.45203E+00 -3.27907E+00 +6.29007E-01 -4.23721E+00 +4.57723E+00 -2.97738E+00 +7.29867E+00 +1.29409E-01
 +8.03254E+00 +4.21369E+00 +6.55684E+00 +8.14138E+00 +3.24911E+00 +1.08199E+01 -1.01486E+00 +1.14937E+01
 -5.09758E+00 +9.95013E+00 -7.90818E+00 +6.57761E+00 -8.69919E+00 +2.26154E+00 -7.27081E+00 -1.85588E+00
 -4.02683E+00 -4.68677E+00 +1.34207E-01 -5.49531E+00 +4.06374E+00 -4.10059E+00 +6.67794E+00 -9.28670E-01
 +7.25686E+00 +3.10188E+00 +5.64572E+00 +6.83070E+00 +2.30232E+00 +9.17527E+00 -1.82412E+00 +9.43228E+00
 -5.55123E+00 +7.47768E+00 -7.78949E+00 +3.80913E+00 -7.84712E+00 -5.82837E-01 -5.62968E+00 -4.48198E+00
 -1.67786E+00 -6.78036E+00 +2.96957E+00 -6.78844E+00 +7.05287E+00 -4.43554E+00 +9.43494E+00 -3.03756E-01
 +9.41833E+00 +4.51713E+00 +6.94835E+00 +8.71729E+00 +2.64448E+00 +1.11213E+01 -2.35196E+00 +1.10139E+01
 -6.67596E+00 +8.34740E+00 -9.10481E+00 +3.77285E+00 -8.89400E+00 -1.51830E+00 -5.99148E+00 -6.10206E+00
 -1.07001E+00 -8.69958E+00 +4.63459E+00 -8.52430E+00 +9.63967E+00 -5.50461E+00 +1.26045E+01 -3.20186E-01
 +1.26890E+01 +5.76100E+00 +9.78628E+00 +1.12050E+01 +4.56495E+00 +1.46100E+01 -1.69208E+00 +1.50765E+01
 -7.41334E+00 +1.24500E+01 -1.11443E+01 +7.37168E+00 -1.19269E+01 +1.12080E+00 -9.55274E+00 -4.71077E+00
 -4.62296E+00 -8.62869E+00 +1.60320E+00 -9.62307E+00 +7.53130E+00 -7.43092E+00 +1.16429E+01 -2.60487E+00
 +1.28869E+01 +3.63012E+00 +1.09494E+01 +9.69470E+00 +6.33028E+00 +1.40642E+01 +2.08581E-01 +1.56615E+01
 -5.86881E+00 +1.41305E+01 -1.03912E+01 +9.92010E+00 -1.22750E+01 +4.15605E+00 -1.11381E+01 -1.66171E+00
 -7.38691E+00 -6.05658E+00 -2.09525E+00 -7.96088E+00 +3.29191E+00 -6.98792E+00 +7.34766E+00 -3.51929E+00
 +9.04150E+00 +1.41349E+00 +8.00558E+00 +6.41901E+00 +4.61873E+00 +1.01278E+01 -1.12205E-01 +1.15622E+01
 -4.83940E+00 +1.03943E+01 -8.24992E+00 +7.02344E+00 -9.42727E+00 +2.45355E+00 -8.09991E+00 -1.99465E+00
 -4.70940E+00 -5.05616E+00 -2.80123E-01 -5.87661E+00 +3.87284E+00 -4.25131E+00 +6.51694E+00 -6.82644E-01
 +6.85306E+00 +3.76072E+00 +4.74677E+00 +7.74428E+00 +7.74701E-01 +1.00457E+01 -3.92849E+00 +9.90577E+00
 -7.98227E+00 +7.25445E+00 -1.01471E+01 +2.74785E+00 -9.67996E+00 -2.39759E+00 -6.55929E+00 -6.73116E+00
 -1.51523E+00 -8.96725E+00 +4.14776E+00 -8.34992E+00 +8.89152E+00 -4.88158E+00 +1.13588E+01 +6.49590E-01
 +1.07509E+01 +6.85576E+00 +7.06467E+00 +1.21038E+01 +1.12245E+00 +1.49463E+01 -5.61922E+00 +1.45152E+01
 -1.14351E+01 +1.07716E+01 -1.47777E+01 +4.54299E+00 -1.46891E+01 -2.66781E+00 -1.10666E+01 -9.05566E+00
 -4.71218E+00 -1.29732E+01 +2.85377E+00 -1.33597E+01 +9.76721E+00 -1.00255E+01 +1.42908E+01 -3.71660E+00
 +1.52580E+01 +4.06061E+00 +1.23764E+01 +1.14117E+01 +6.31049E+00 +1.65291E+01 -1.47959E+00 +1.81489E+01
 -9.10163E+00 +1.58707E+01 -1.47063E+01 +1.02592E+01 -1.69510E+01 +2.70116E+00 -1.53337E+01 -4.94648E+00
 -1.03128E+01 -1.08251E+01 -3.18203E+00 -1.35406E+01 +4.26502E+00 -1.25066E+01 +1.01930E+01 -8.07944E+00
 +1.31873E+01 -1.45122E+00 +1.26025E+01 +5.66804E+00 +8.70736E+00 +1.14945E+01 +2.59432E+00 +1.46251E+01
 -4.12101E+00 +1.43840E+01 -9.72792E+00 +1.09751E+01 -1.28629E+01 +5.40284E+00 -1.28508E+01 -8.12292E-01
 -9.85796E+00 -6.04546E+00 -4.82104E+00 -8.99555E+00 +8.25344E-01 -9.01670E+00 +5.54497E+00 -6.26776E+00
 +8.11339E+00 -1.64374E+00 +7.93739E+00 +3.48785E+00 +5.19698E+00 +7.67151E+00 +7.75023E-01 +9.76329E+00
 -4.00273E+00 +9.23749E+00 -7.74390E+00 +6.31867E+00 -9.37801E+00 +1.90572E+00 -8.45122E+00 -2.68895E+00
 -5.24761E+00 -6.11182E+00 -7.05031E-01 -7.34955E+00 +3.85019E+00 -6.01420E+00 +7.07636E+00 -2.45449E+00
 +7.99467E+00 +2.33748E+00 +6.26855E+00 +6.99876E+00 +2.30717E+00 +1.01731E+01 -2.83648E+00 +1.08905E+01
 -7.74648E+00 +8.84508E+00 -1.10289E+01 +4.49426E+00 -1.16965E+01 -1.04999E+00 -9.44981E+00 -6.31011E+00
 -4.77538E+00 -9.83661E+00 +1.16593E+00 -1.06015E+01 +6.83467E+00 -8.28536E+00 +1.07153E+01 -3.38068E+00
 +1.17200E+01 +2.92028E+00 +9.48568E+00 +9.02460E+00 +4.48505E+00 +1.33490E+01 -2.08039E+00 +1.47341E+01
 -8.58004E+00 +1.27540E+01 -1.33696E+01 +7.83835E+00 -1.52155E+01 +1.17397E+00 -1.36168E+01 -5.59112E+00
 -8.94157E+00 -1.07653E+01 -2.34003E+00 -1.30455E+01 +4.54407E+00 -1.18518E+01 +9.98948E+00 -7.47841E+00
 +1.26346E+01 -1.02062E+00 +1.18232E+01 +5.90261E+00 +7.76942E+00 +1.15600E+01 +1.50055E+00 +1.45466E+01
 -5.40750E+00 +1.41382E+01 -1.12332E+01 +1.04692E+01 -1.45468E+01 +4.49107E+00 -1.45693E+01 -2.27797E+00
 -1.13618E+01 -8.14486E+00 -5.79820E+00 -1.16744E+01 +6.69907E-01 -1.20502E+01 +6.39337E+00 -9.27237E+00
 +9.95030E+00 -4.14215E+00 +1.05059E+01 +1.95869E+00 +8.01485E+00 +7.43485E+00 +3.21615E+00 +1.08931E+01
 -2.57521E+00 +1.14980E+01 -7.82226E+00 +9.17573E+00 -1.11712E+01 +4.61630E+00 -1.18006E+01 -9.24810E-01
 -9.62470E+00 -5.96872E+00 -5.29842E+00 -9.20753E+00 -2.76261E-02 -9.84586E+00 +4.76323E+00 -7.80010E+00
 +7.81517E+00 -3.70489E+00 +8.36761E+00 +1.27199E+00 +6.35208E+00 +5.75393E+00 +2.39709E+00 +8.53036E+00
 -2.35460E+00 +8.88093E+00 -6.56474E+00 +6.76256E+00 -9.06680E+00 +2.81067E+00 -9.18197E+00 -1.84359E+00
 -6.89902E+00 -5.88892E+00 -2.87048E+00 -8.19521E+00 +1.77222E+00 -8.12248E+00 +5.73317E+00 -5.69356E+00
 +7.90954E+00 -1.58456E+00 +7.69476E+00 +3.06363E+00 +5.14473E+00 +6.96039E+00 +9.62280E-01 +9.02105E+00
 -3.69565E+00 +8.66584E+00 -7.53530E+00 +5.98069E+00 -9.48141E+00 +1.69613E+00 -8.97361E+00 -3.01026E+00
 -6.12323E+00 -6.83426E+00 -1.68736E+00 -8.70131E+00 +3.13316E+00 -8.06197E+00 +7.01758E+00 -5.04615E+00
 +8.88365E+00 -4.33720E-01 +8.18349E+00 +4.55133E+00 +5.05688E+00 +8.56815E+00 +2.99778E-01 +1.05200E+01
 -4.84412E+00 +9.85159E+00 -9.01346E+00 +6.70318E+00 -1.10929E+01 +1.87836E+00 -1.05130E+01 -3.36543E+00
 -7.40543E+00 -7.64885E+00 -2.57293E+00 -9.83660E+00 +2.72051E+00 -9.33998E+00 +7.08174E+00 -6.27519E+00
 +9.35607E+00 -1.43542E+00 +8.93237E+00 +3.91633E+00 +5.90490E+00 +8.37861E+00 +1.04929E+00 +1.07795E+01
 -4.38097E+00 +1.04838E+01 -8.98324E+00 +7.55860E+00 -1.15728E+01 +2.75423E+00 -1.14912E+01 -2.69453E+00
 -8.77565E+00 -7.39274E+00 -4.14467E+00 -1.01499E+01 +1.19415E+00 -1.02887E+01 +5.86307E+00 -7.81663E+00
 +8.67480E+00 -3.41746E+00 +8.93984E+00 +1.73473E+00 +6.64018E+00 +6.28771E+00 +2.42510E+00 +9.06643E+00
