 Created: 19-Jan-2021
 $NMID
 ID='D:\BASISSIMULATI'
 FMTDAT='(8E13.5)'
 VOLUME=   1.00000E+00
 TRAMP=   1.00000E+00
 $END
 +2.83735E+01 +3.48196E-02 +2.52761E+01 -7.56743E+00 +1.70049E+01 -1.24641E+01 +5.81174E+00 -1.28097E+01
 -5.31612E+00 -8.15369E+00 -1.35063E+01 +4.14910E-01 -1.68075E+01 +1.05780E+01 -1.47206E+01 +1.94619E+01
 -8.30388E+00 +2.44760E+01 +1.72684E-01 +2.40724E+01 +7.91773E+00 +1.82032E+01 +1.24497E+01 +8.34605E+00
 +1.23243E+01 -2.91121E+00 +7.54837E+00 -1.26028E+01 -4.39191E-01 -1.82228E+01 -9.20773E+00 -1.84264E+01
 -1.60654E+01 -1.33929E+01 -1.88629E+01 -4.75054E+00 -1.66351E+01 +4.91190E+00 -9.89248E+00 +1.28007E+01
 -4.80695E-01 +1.67191E+01 +8.95088E+00 +1.56839E+01 +1.57138E+01 +1.01805E+01 +1.78559E+01 +1.98810E+00
 +1.47224E+01 -6.36857E+00 +7.14121E+00 -1.23765E+01 -2.81725E+00 -1.42772E+01 -1.24350E+01 -1.15786E+01
 -1.91204E+01 -5.18902E+00 -2.11373E+01 +2.86213E+00 -1.80801E+01 +1.00312E+01 -1.09615E+01 +1.40151E+01
 -1.89300E+00 +1.34323E+01 +6.54448E+00 +8.23208E+00 +1.20526E+01 -2.85600E-01 +1.32720E+01 -9.84178E+00
 +1.01539E+01 -1.78323E+01 +3.94430E+00 -2.20718E+01 -3.21068E+00 -2.14127E+01 -8.91544E+00 -1.60616E+01
 -1.12409E+01 -7.50578E+00 -9.29475E+00 +1.92525E+00 -3.48199E+00 +9.73157E+00 +4.61734E+00 +1.39527E+01
 +1.27134E+01 +1.37102E+01 +1.84765E+01 +9.42919E+00 +2.02144E+01 +2.68159E+00 +1.73614E+01 -4.29934E+00
 +1.06384E+01 -9.28561E+00 +1.84155E+00 -1.07071E+01 -6.67643E+00 -8.10070E+00 -1.26781E+01 -2.22916E+00
 -1.46723E+01 +5.16060E+00 -1.23226E+01 +1.18636E+01 -6.51928E+00 +1.58705E+01 +9.00509E-01 +1.59577E+01
 +7.69897E+00 +1.20415E+01 +1.18879E+01 +5.19809E+00 +1.22941E+01 -2.65417E+00 +8.87907E+00 -9.31327E+00
 +2.72326E+00 -1.29287E+01 -4.31222E+00 -1.25288E+01 -1.01450E+01 -8.28913E+00 -1.30847E+01 -1.46895E+00
 -1.23220E+01 +5.96294E+00 -8.15283E+00 +1.18992E+01 -1.87743E+00 +1.46957E+01 +4.59235E+00 +1.36295E+01
 +9.29868E+00 +9.08513E+00 +1.08101E+01 +2.41927E+00 +8.63419E+00 -4.45113E+00 +3.35408E+00 -9.61294E+00
 -3.54844E+00 -1.17081E+01 -1.01263E+01 -1.03129E+01 -1.45294E+01 -6.03890E+00 -1.55313E+01 -3.31068E-01
 -1.28693E+01 +4.97226E+00 -7.30380E+00 +8.18657E+00 -3.83067E-01 +8.27434E+00 +6.01201E+00 +5.14239E+00
 +1.02098E+01 -3.40134E-01 +1.12183E+01 -6.60382E+00 +8.98980E+00 -1.18410E+01 +4.40869E+00 -1.45314E+01
 -9.90032E-01 -1.38776E+01 -5.48355E+00 -1.00272E+01 -7.66876E+00 -4.01976E+00 -6.86649E+00 +2.52085E+00
 -3.30724E+00 +7.85697E+00 +1.95130E+00 +1.06314E+01 +7.34634E+00 +1.02438E+01 +1.12741E+01 +7.00224E+00
 +1.25590E+01 +2.01219E+00 +1.07920E+01 -3.16161E+00 +6.44185E+00 -6.95706E+00 +7.11153E-01 -8.26550E+00
 -4.81739E+00 -6.74127E+00 -8.63902E+00 -2.88353E+00 -9.75539E+00 +2.12845E+00 -7.95065E+00 +6.79426E+00
 -3.83822E+00 +9.73743E+00 +1.33078E+00 +1.01062E+01 +6.03808E+00 +7.81460E+00 +8.93763E+00 +3.55621E+00
 +9.23608E+00 -1.40823E+00 +6.90603E+00 -5.62520E+00 +2.67420E+00 -7.87278E+00 -2.20733E+00 -7.51163E+00
 -6.33623E+00 -4.66239E+00 -8.56978E+00 -1.61019E-01 -8.35039E+00 +4.69112E+00 -5.85402E+00 +8.50684E+00
 -1.92236E+00 +1.02107E+01 +2.19753E+00 +9.34007E+00 +5.22667E+00 +6.16400E+00 +6.23023E+00 +1.59077E+00
 +4.88707E+00 -3.10634E+00 +1.57626E+00 -6.66162E+00 -2.74133E+00 -8.17847E+00 -6.80852E+00 -7.37604E+00
 -9.43908E+00 -4.65215E+00 -9.85897E+00 -9.48257E-01 -7.92364E+00 +2.53993E+00 -4.15064E+00 +4.71934E+00
 +4.38410E-01 +4.91861E+00 +4.61755E+00 +3.07771E+00 +7.30870E+00 -2.44784E-01 +7.88412E+00 -4.04530E+00
 +6.33276E+00 -7.17604E+00 +3.24568E+00 -8.68326E+00 -3.71578E-01 -8.08421E+00 -3.40157E+00 -5.50312E+00
 -4.94248E+00 -1.62944E+00 -4.56522E+00 +2.48687E+00 -2.42703E+00 +5.74088E+00 +7.88463E-01 +7.28904E+00
 +4.08364E+00 +6.78479E+00 +6.44702E+00 +4.46686E+00 +7.15196E+00 +1.07763E+00 +5.96691E+00 -2.36159E+00
 +3.21760E+00 -4.85053E+00 -3.14426E-01 -5.69709E+00 -3.62479E+00 -4.70869E+00 -5.78059E+00 -2.23458E+00
 -6.18979E+00 +9.50010E-01 -4.76762E+00 +3.88107E+00 -1.95372E+00 +5.69267E+00 +1.42274E+00 +5.86926E+00
 +4.38795E+00 +4.39031E+00 +6.10572E+00 +1.72738E+00 +6.11460E+00 -1.30294E+00 +4.45208E+00 -3.78467E+00
 +1.63210E+00 -4.97329E+00 -1.51481E+00 -4.51238E+00 -4.08962E+00 -2.53360E+00 -5.38728E+00 +3.87067E-01
 -5.09715E+00 +3.40203E+00 -3.38403E+00 +5.64120E+00 -8.28705E-01 +6.46403E+00 +1.75212E+00 +5.64101E+00
 +3.55167E+00 +3.41314E+00 +4.01162E+00 +4.14189E-01 +2.98374E+00 -2.51936E+00 +7.68653E-01 -4.59342E+00
 -1.97777E+00 -5.28422E+00 -4.44084E+00 -4.48308E+00 -5.88740E+00 -2.51742E+00 -5.87926E+00 -4.41483E-02
 -4.39771E+00 +2.15110E+00 -1.84431E+00 +3.38850E+00 +1.08054E+00 +3.29317E+00 +3.58393E+00 +1.90125E+00
 +5.01021E+00 -3.56808E-01 +5.02683E+00 -2.78872E+00 +3.71302E+00 -4.64822E+00 +1.52689E+00 -5.35617E+00
 -8.37135E-01 -4.67002E+00 -2.65725E+00 -2.75263E+00 -3.39708E+00 -1.21827E-01 -2.86016E+00 +2.50307E+00
 -1.24167E+00 +4.41144E+00 +9.36179E-01 +5.10612E+00 +2.98435E+00 +4.44306E+00 +4.25430E+00 +2.66617E+00
 +4.33095E+00 +3.28701E-01 +3.15463E+00 -1.87391E+00 +1.03720E+00 -3.30961E+00 -1.43128E+00 -3.59288E+00
 -3.55658E+00 -2.69216E+00 -4.74312E+00 -9.31314E-01 -4.66600E+00 +1.11375E+00 -3.36219E+00 +2.79122E+00
 -1.21540E+00 +3.56949E+00 +1.15965E+00 +3.19511E+00 +3.09831E+00 +1.76650E+00 +4.07865E+00 -2.97336E-01
 +3.86929E+00 -2.38278E+00 +2.58979E+00 -3.86416E+00 +6.67364E-01 -4.28869E+00 -1.29586E+00 -3.50943E+00
 -2.70458E+00 -1.72762E+00 -3.14698E+00 +5.66972E-01 -2.51422E+00 +2.73939E+00 -1.02836E+00 +4.19369E+00
 +8.28437E-01 +4.54379E+00 +2.46135E+00 +3.72133E+00 +3.34264E+00 +1.98981E+00 +3.17023E+00 -1.37799E-01
 +1.95836E+00 -2.05251E+00 +3.42488E-02 -3.22806E+00 -2.05775E+00 -3.37217E+00 -3.71558E+00 -2.50633E+00
 -4.45533E+00 -9.51857E-01 -4.05174E+00 +7.72371E-01 -2.60268E+00 +2.10919E+00 -4.99330E-01 +2.63156E+00
 +1.68833E+00 +2.17023E+00 +3.37649E+00 +8.63250E-01 +4.13436E+00 -8.86638E-01 +3.80416E+00 -2.53334E+00
 +2.54016E+00 -3.55115E+00 +7.56252E-01 -3.59211E+00 -1.00109E+00 -2.59072E+00 -2.21627E+00 -7.85398E-01
 -2.55593E+00 +1.34930E+00 -1.96382E+00 +3.23919E+00 -6.72090E-01 +4.37560E+00 +8.73386E-01 +4.46055E+00
 +2.15051E+00 +3.49010E+00 +2.72003E+00 +1.75194E+00 +2.35872E+00 -2.61003E-01 +1.12764E+00 -1.99501E+00
 -6.44555E-01 -2.99531E+00 -2.45774E+00 -3.03439E+00 -3.78718E+00 -2.17196E+00 -4.23773E+00 -7.30061E-01
 -3.65999E+00 +8.08227E-01 -2.19457E+00 +1.94569E+00 -2.31935E-01 +2.31965E+00 +1.70008E+00 +1.80870E+00
 +3.08774E+00 +5.66461E-01 +3.57766E+00 -1.02684E+00 +3.07531E+00 -2.47981E+00 +1.76775E+00 -3.33775E+00
 +6.48008E-02 -3.31900E+00 -1.52328E+00 -2.39964E+00 -2.53523E+00 -8.21706E-01 -2.69153E+00 +9.76843E-01
 -1.97199E+00 +2.48976E+00 -6.16258E-01 +3.28987E+00 +9.51705E-01 +3.15303E+00 +2.25224E+00 +2.12269E+00
 +2.89311E+00 +4.96440E-01 +2.68508E+00 -1.26079E+00 +1.69614E+00 -2.65135E+00 +2.29141E-01 -3.28764E+00
 -1.26982E+00 -3.00175E+00 -2.34479E+00 -1.89041E+00 -2.66549E+00 -2.83018E-01 -2.12518E+00 +1.35695E+00
 -8.72220E-01 +2.56791E+00 +7.33249E-01 +3.02338E+00 +2.22470E+00 +2.62387E+00 +3.16527E+00 +1.52118E+00
 +3.27476E+00 +6.92179E-02 +2.51052E+00 -1.28363E+00 +1.07909E+00 -2.12802E+00 -6.24226E-01 -2.21387E+00
 -2.12990E+00 -1.52223E+00 -3.02907E+00 -2.68180E-01 -3.08961E+00 +1.16512E+00 -2.32013E+00 +2.34136E+00
 -9.63837E-01 +2.90070E+00 +5.74809E-01 +2.66602E+00 +1.84884E+00 +1.69470E+00 +2.49776E+00 +2.61495E-01
 +2.34948E+00 -1.22240E+00 +1.46592E+00 -2.32966E+00 +1.20168E-01 -2.74144E+00 -1.28727E+00 -2.33989E+00
 -2.34777E+00 -1.24196E+00 -2.76408E+00 +2.34843E-01 -2.43531E+00 +1.66428E+00 -1.48287E+00 +2.63380E+00
 -2.10841E-01 +2.86195E+00 +9.86951E-01 +2.27707E+00 +1.74524E+00 +1.03513E+00 +1.83604E+00 -5.27634E-01
 +1.23598E+00 -1.99264E+00 +1.32963E-01 -2.97861E+00 -1.12939E+00 -3.24812E+00 -2.15290E+00 -2.77067E+00
 -2.60169E+00 -1.72491E+00 -2.30082E+00 -4.40563E-01 -1.28813E+00 +7.01927E-01 +1.95273E-01 +1.38408E+00
 +1.77276E+00 +1.44134E+00 +3.03813E+00 +9.07759E-01 +3.66901E+00 +1.18141E-03 +3.51525E+00 -9.45889E-01
 +2.63746E+00 -1.58870E+00 +1.28547E+00 -1.67541E+00 -1.76037E-01 -1.12419E+00 -1.37237E+00 -4.95835E-02
 -2.02367E+00 +1.26888E+00 -2.01952E+00 +2.46671E+00 -1.44280E+00 +3.19936E+00 -5.36856E-01 +3.24159E+00
 +3.72838E-01 +2.55261E+00 +9.78963E-01 +1.28861E+00 +1.08457E+00 -2.40482E-01 +6.60431E-01 -1.65711E+00
 -1.48783E-01 -2.61997E+00 -1.07055E+00 -2.91598E+00 -1.78852E+00 -2.51445E+00 -2.03939E+00 -1.56889E+00
 -1.69392E+00 -3.67254E-01 -7.98488E-01 +7.54093E-01 +4.34863E-01 +1.50695E+00 +1.68670E+00 +1.73054E+00
 +2.61977E+00 +1.43102E+00 +2.97379E+00 +7.70942E-01 +2.63841E+00 +1.30332E-02 +1.68361E+00 -5.64052E-01
 +3.39447E-01 -7.52558E-01 -1.06838E+00 -4.79318E-01 -2.20815E+00 +1.72184E-01 -2.83113E+00 +9.87391E-01
 -2.83490E+00 +1.68581E+00 -2.28368E+00 +2.00615E+00 -1.38126E+00 +1.78624E+00 -4.05594E-01 +1.01434E+00
 +3.74784E-01 -1.63056E-01 +7.77949E-01 -1.47904E+00 +7.57037E-01 -2.61855E+00 +4.06677E-01 -3.30418E+00
 -7.33051E-02 -3.37110E+00 -4.45103E-01 -2.80983E+00 -5.10373E-01 -1.76555E+00 -1.74602E-01 -4.94831E-01
 +5.20688E-01 +7.06801E-01 +1.40721E+00 +1.58536E+00 +2.23768E+00 +1.99391E+00 +2.75774E+00 +1.92490E+00
 +2.78085E+00 +1.50144E+00 +2.24432E+00 +9.31347E-01 +1.23021E+00 +4.38840E-01 -5.46753E-02 +1.94631E-01
 -1.33357E+00 +2.65177E-01 -2.33347E+00 +5.95659E-01 -2.85655E+00 +1.03093E+00 -2.82920E+00 +1.36740E+00
 -2.31552E+00 +1.41960E+00 -1.49241E+00 +1.08136E+00 -5.94625E-01 +3.63083E-01 +1.53476E-01 -6.05944E-01
 +5.99429E-01 -1.61070E+00 +6.99916E-01 -2.40935E+00 +5.23890E-01 -2.80056E+00 +2.21993E-01 -2.67975E+00
 -2.73855E-02 -2.06802E+00 -7.84014E-02 -1.10605E+00 +1.34037E-01 -1.49566E-02 +5.72576E-01 +9.63875E-01
 +1.10841E+00 +1.63259E+00 +1.56124E+00 +1.88605E+00 +1.75573E+00 +1.73293E+00 +1.57746E+00 +1.28389E+00
 +1.01125E+00 +7.11424E-01 +1.50611E-01 +1.94487E-01 -8.24522E-01 -1.35260E-01 -1.69528E+00 -2.29609E-01
 -2.26255E+00 -1.32177E-01 -2.39986E+00 +4.25588E-02 -2.08542E+00 +1.52226E-01 -1.40464E+00 +7.76550E-02
