 Created: 19-Jan-2021
 $NMID
 ID='D:\BASISSIMULATI'
 FMTDAT='(8E13.5)'
 VOLUME=   1.00000E+00
 TRAMP=   1.00000E+00
 $END
 +5.14708E+01 +5.06360E-02 +4.97231E+01 +1.25076E+01 +4.47368E+01 +2.40117E+01 +3.69066E+01 +3.37122E+01
 +2.68478E+01 +4.09041E+01 +1.53461E+01 +4.50835E+01 +3.29409E+00 +4.59872E+01 -8.38110E+00 +4.36123E+01
 -1.87924E+01 +3.82147E+01 -2.71636E+01 +3.02868E+01 -3.28913E+01 +2.05156E+01 -3.55918E+01 +9.72589E+00
 -3.51300E+01 -1.18810E+00 -3.16283E+01 -1.13356E+01 -2.54535E+01 -1.99019E+01 -1.71846E+01 -2.62136E+01
 -7.56318E+00 -2.97925E+01 +2.56943E+00 -3.03923E+01 +1.23421E+01 -2.80166E+01 +2.09262E+01 -2.29155E+01
 +2.76035E+01 -1.55622E+01 +3.18248E+01 -6.61159E+00 +3.32530E+01 +3.15642E+00 +3.17898E+01 +1.29031E+01
 +2.75807E+01 +2.18015E+01 +2.10007E+01 +2.91056E+01 +1.26203E+01 +3.42123E+01 +3.15613E+00 +3.67103E+01
 -6.59142E+00 +3.64134E+01 -1.58061E+01 +3.33741E+01 -2.37250E+01 +2.78773E+01 -2.97033E+01 +2.04141E+01
 -3.32675E+01 +1.16386E+01 -3.41552E+01 +2.31129E+00 -3.23359E+01 -6.76655E+00 -2.80122E+01 -1.48217E+01
 -2.16020E+01 -2.11748E+01 -1.37009E+01 -2.52985E+01 -5.03132E+00 -2.68619E+01 +3.62020E+00 -2.57590E+01
 +1.14707E+01 -2.21171E+01 +1.78081E+01 -1.62858E+01 +2.20526E+01 -8.80757E+00 +2.38067E+01 -3.70651E-01
 +2.28897E+01 +8.24925E+00 +1.93545E+01 +1.62555E+01 +1.34834E+01 +2.28988E+01 +5.76550E+00 +2.75416E+01
 -3.14385E+00 +2.97131E+01 -1.24780E+01 +2.91510E+01 -2.14235E+01 +2.58247E+01 -2.91883E+01 +1.99402E+01
 -3.50696E+01 +1.19243E+01 -3.85133E+01 +2.39039E+00 -3.91618E+01 -7.91114E+00 -3.68861E+01 -1.81549E+01
 -3.17979E+01 -2.75087E+01 -2.42427E+01 -3.52025E+01 -1.47728E+01 -4.05931E+01 -4.10341E+00 -4.32179E+01
 +6.94543E+00 -4.28344E+01 +1.75153E+01 -3.94419E+01 +2.67795E+01 -3.32825E+01 +3.40111E+01 -2.48232E+01
 +3.86425E+01 -1.47182E+01 +4.03126E+01 -3.75701E+00 +3.88965E+01 +7.19962E+00 +3.45167E+01 +1.72894E+01
 +2.75338E+01 +2.57185E+01 +1.85171E+01 +3.18260E+01 +8.19899E+00 +3.51374E+01 -2.58409E+00 +3.54035E+01
 -1.29599E+01 +3.26203E+01 -2.20907E+01 +2.70288E+01 -2.92412E+01 +1.90958E+01 -3.38377E+01 +9.47522E+00
 -3.55145E+01 -1.04533E+00 -3.41423E+01 -1.16085E+01 -2.98385E+01 -2.13571E+01 -2.29562E+01 -2.95033E+01
 -1.40548E+01 -3.53926E+01 -3.85373E+00 -3.85560E+01 +6.82731E+00 -3.87470E+01 +1.71350E+01 -3.59605E+01
 +2.62524E+01 -3.04317E+01 +3.34647E+01 -2.26153E+01 +3.82174E+01 -1.31470E+01 +4.01596E+01 -2.78982E+00
 +3.91718E+01 +7.62859E+00 +3.53733E+01 +1.72847E+01 +2.91102E+01 +2.54263E+01 +2.09256E+01 +3.14340E+01
 +1.15125E+01 +3.48705E+01 +1.65554E+00 +3.55154E+01 -7.83482E+00 +3.33812E+01 -1.61897E+01 +2.87102E+01
 -2.27455E+01 +2.19521E+01 -2.69979E+01 +1.37244E+01 -2.86427E+01 +4.75963E+00 -2.75996E+01 -4.15708E+00
 -2.40170E+01 -1.22546E+01 -1.82577E+01 -1.88404E+01 -1.08666E+01 -2.33586E+01 -2.52318E+00 -2.54357E+01
 +6.01637E+00 -2.49114E+01 +1.39843E+01 -2.18508E+01 +2.06663E+01 -1.65379E+01 +2.54624E+01 -9.45054E+00
 +2.79370E+01 -1.21876E+00 +2.78564E+01 +7.42894E+00 +2.52077E+01 +1.57280E+01 +2.01999E+01 +2.29431E+01
 +1.32461E+01 +2.84306E+01 +4.92800E+00 +3.16935E+01 -4.05301E+00 +3.24239E+01 -1.29357E+01 +3.05293E+01
 -2.09632E+01 +2.61409E+01 -2.74475E+01 +1.96032E+01 -3.18277E+01 +1.14449E+01 -3.37178E+01 +2.33537E+00
 -3.29402E+01 -6.97183E+00 -2.95410E+01 -1.57020E+01 -2.37870E+01 -2.31246E+01 -1.61445E+01 -2.86144E+01
 -7.24070E+00 -3.17049E+01 +2.18833E+00 -3.21277E+01 +1.13585E+01 -2.98357E+01 +1.95031E+01 -2.50083E+01
 +2.59369E+01 -1.80368E+01 +3.01132E+01 -9.49317E+00 +3.16704E+01 -8.28578E-02 +3.04619E+01 +9.41312E+00
 +2.65698E+01 +1.82027E+01 +2.02984E+01 +2.55483E+01 +1.21502E+01 +3.08280E+01 +2.78445E+00 +3.35872E+01
 -7.03627E+00 +3.35765E+01 -1.65088E+01 +3.07730E+01 -2.48551E+01 +2.53824E+01 -3.13868E+01 +1.78229E+01
 -3.55611E+01 +8.69106E+00 -3.70258E+01 -1.28700E+00 -3.56486E+01 -1.13147E+01 -3.15274E+01 -2.05901E+01
 -2.49830E+01 -2.83718E+01 -1.65321E+01 -3.40391E+01 -6.84568E+00 -3.71429E+01 +3.30642E+00 -3.74420E+01
 +1.31184E+01 -3.49224E+01 +2.18145E+01 -2.97981E+01 +2.87117E+01 -2.24929E+01 +3.32761E+01 -1.36052E+01
 +3.51651E+01 -3.85872E+00 +3.42554E+01 +5.95759E+00 +3.06518E+01 +1.50540E+01 +2.46776E+01 +2.27047E+01
 +1.68471E+01 +2.83072E+01 +7.82258E+00 +3.14308E+01 -1.64122E+00 +3.18516E+01 -1.07594E+01 +2.95691E+01
 -1.87819E+01 +2.48055E+01 -2.50551E+01 +1.79859E+01 -2.90751E+01 +9.70212E+00 -3.05289E+01 +6.62571E-01
 -2.93188E+01 -8.36678E+00 -2.55697E+01 -1.66264E+01 -1.96173E+01 -2.34264E+01 -1.19787E+01 -2.82032E+01
 -3.30917E+00 -3.05658E+01 +5.65383E+00 -3.03278E+01 +1.41522E+01 -2.75218E+01 +2.14707E+01 -2.23954E+01
 +2.69966E+01 -1.53899E+01 +3.02702E+01 -7.10245E+00 +3.10231E+01 +1.76441E+00 +2.91996E+01 +1.04621E+01
 +2.49609E+01 +1.82589E+01 +1.86708E+01 +2.45008E+01 +1.08646E+01 +2.86667E+01 +2.20376E+00 +3.04113E+01
 -6.57963E+00 +2.95938E+01 -1.47448E+01 +2.62893E+01 -2.16040E+01 +2.07819E+01 -2.65806E+01 +1.35408E+01
 -2.92570E+01 +5.18055E+00 -2.94091E+01 -3.59067E+00 -2.70259E+01 -1.20305E+01 -2.23090E+01 -1.94247E+01
 -1.56568E+01 -2.51469E+01 -7.62998E+00 -2.87111E+01 +1.09472E+00 -2.98123E+01 +9.78154E+00 -2.83521E+01
 +1.76971E+01 -2.44468E+01 +2.41720E+01 -1.84179E+01 +2.86561E+01 -1.07651E+01 +3.07655E+01 -2.12482E+00
 +3.03138E+01 +6.78306E+00 +2.73282E+01 +1.52150E+01 +2.20471E+01 +2.24658E+01 +1.49007E+01 +2.79274E+01
 +6.47502E+00 +3.11397E+01 -2.53678E+00 +3.18284E+01 -1.13917E+01 +2.99287E+01 -1.93590E+01 +2.55898E+01
 -2.57802E+01 +1.91634E+01 -3.01245E+01 +1.11742E+01 -3.20323E+01 +2.27623E+00 -3.13450E+01 -6.80083E+00
 -2.81184E+01 -1.53126E+01 -2.26178E+01 -2.25612E+01 -1.52959E+01 -2.79536E+01 -6.75518E+00 -3.10498E+01
 +2.30170E+00 -3.15999E+01 +1.11306E+01 -2.95641E+01 +1.90070E+01 -2.51159E+01 +2.52866E+01 -1.86275E+01
 +2.94577E+01 -1.06388E+01 +3.11838E+01 -1.81216E+00 +3.03311E+01 +7.12211E+00 +2.69793E+01 +1.54267E+01
 +2.14142E+01 +2.24182E+01 +1.41042E+01 +2.75235E+01 +5.66080E+00 +3.03272E+01 -3.21243E+00 +3.06058E+01
 -1.17780E+01 +2.83455E+01 -1.93262E+01 +2.37429E+01 -2.52332E+01 +1.71889E+01 -2.90135E+01 +9.23500E+00
 -3.03592E+01 +5.47755E-01 -2.91656E+01 -8.14696E+00 -2.55395E+01 -1.61243E+01 -1.97896E+01 -2.27208E+01
 -1.24008E+01 -2.73892E+01 -3.99347E+00 -2.97438E+01 +4.72831E+00 -2.95921E+01 +1.30355E+01 -2.69508E+01
 +2.02345E+01 -2.20437E+01 +2.57252E+01 -1.52832E+01 +2.90503E+01 -7.23523E+00 +2.99333E+01 +1.42753E+00
 +2.83011E+01 +9.98193E+00 +2.42902E+01 +1.77145E+01 +1.82347E+01 +2.39805E+01 +1.06385E+01 +2.82579E+01
 +2.13329E+00 +3.01900E+01 -6.57410E+00 +2.96153E+01 -1.47605E+01 +2.65805E+01 -2.17462E+01 +2.13366E+01
 -2.69517E+01 +1.43175E+01 -2.99454E+01 +6.10423E+00 -3.04791E+01 -2.62362E+00 -2.85088E+01 -1.11443E+01
 -2.41976E+01 -1.87538E+01 -1.79024E+01 -2.48240E+01 -1.01437E+01 -2.88549E+01 -1.56276E+00 -3.05154E+01
 +7.13231E+00 -2.96709E+01 +1.52247E+01 -2.63940E+01 +2.20484E+01 -2.09579E+01 +2.70434E+01 -1.38139E+01
 +2.98015E+01 -5.55348E+00 +3.01000E+01 +3.14096E+00 +2.79197E+01 +1.15525E+01 +2.34460E+01 +1.89893E+01
 +1.70531E+01 +2.48416E+01 +9.27266E+00 +2.86319E+01 +7.49378E-01 +3.00543E+01 -7.81267E+00 +2.89993E+01
 -1.57084E+01 +2.55621E+01 -2.22901E+01 +2.00346E+01 -2.70209E+01 +1.28800E+01 -2.95187E+01 +4.69446E+00
 -2.95876E+01 -3.84295E+00 -2.72333E+01 -1.20268E+01 -2.26621E+01 -1.91839E+01 -1.62628E+01 -2.47288E+01
 -8.57428E+00 -2.82123E+01 -2.39633E-01 -2.93583E+01 +8.04719E+00 -2.80859E+01 +1.55995E+01 -2.45155E+01
 +2.17948E+01 -1.89581E+01 +2.61266E+01 -1.18887E+01 +2.82461E+01 -3.90619E+00 +2.79906E+01 +4.31719E+00
 +2.53967E+01 +1.20920E+01 +2.06964E+01 +1.87693E+01 +1.42970E+01 +2.37949E+01 +6.74693E+00 +2.67550E+01
 -1.31108E+00 +2.74110E+01 -9.19364E+00 +2.57184E+01 -1.62343E+01 +2.18307E+01 -2.18392E+01 +1.60854E+01
 -2.55369E+01 +8.97609E+00 -2.70176E+01 +1.11006E+00 -2.61590E+01 -6.84232E+00 -2.30363E+01 -1.42042E+01
 -1.79156E+01 -2.03488E+01 -1.12317E+01 -2.47525E+01 -3.55137E+00 -2.70382E+01 +4.47414E+00 -2.70074E+01
 +1.21638E+01 -2.46564E+01 +1.88638E+01 -2.01775E+01 +2.40025E+01 -1.39421E+01 +2.71382E+01 -6.47052E+00
 +2.79967E+01 +1.61180E+00 +2.64940E+01 +9.62637E+00 +2.27439E+01 +1.68983E+01 +1.70487E+01 +2.28127E+01
 +9.87458E+00 +2.68659E+01 +1.81265E+00 +2.87083E+01 -6.46968E+00 +2.81728E+01 -1.42843E+01 +2.52899E+01
 -2.09793E+01 +2.02854E+01 -2.59935E+01 +1.35618E+01 -2.89029E+01 +5.66533E+00 -2.94561E+01 -2.75874E+00
 -2.75956E+01 -1.10196E+01 -2.34626E+01 -1.84377E+01 -1.73857E+01 -2.44012E+01 -9.85447E+00 -2.84161E+01
 -1.47860E+00 -3.01473E+01 +7.06162E+00 -2.94465E+01 +1.50715E+01 -2.63641E+01 +2.18988E+01 -2.11455E+01
 +2.69875E+01 -1.42108E+01 +2.99234E+01 -6.12044E+00 +3.04679E+01 +2.47104E+00 +2.85774E+01 +1.08685E+01
 +2.44068E+01 +1.83935E+01 +1.82963E+01 +2.44393E+01 +1.07435E+01 +2.85211E+01 +2.36222E+00 +3.03148E+01
 -6.16830E+00 +2.96837E+01 -1.41588E+01 +2.66888E+01 -2.09668E+01 +2.15830E+01 -2.60487E+01 +1.47904E+01
 -2.90041E+01 +6.87017E+00 -2.96082E+01 -1.52949E+00 -2.78292E+01 -9.72495E+00 -2.38298E+01 -1.70534E+01
 -1.79534E+01 -2.29274E+01 -1.06943E+01 -2.68821E+01 -2.65676E+00 -2.86138E+01 +5.49597E+00 -2.80031E+01
 +1.30963E+01 -2.51240E+01 +1.95274E+01 -2.02368E+01 +2.42742E+01 -1.37648E+01 +2.69652E+01 -6.25912E+00
 +2.74019E+01 +1.64882E+00 +2.55750E+01 +9.29948E+00 +2.16632E+01 +1.60606E+01 +1.60174E+01 +2.13794E+01
 +9.13034E+00 +2.48285E+01 +1.59450E+00 +2.61406E+01 -5.94803E+00 +2.52298E+01 -1.28597E+01 +2.21980E+01
 -1.85609E+01 +1.73251E+01 -2.25784E+01 +1.10446E+01 -2.45847E+01 +3.90631E+00 -2.44248E+01 -3.47036E+00
 -2.21288E+01 -1.04492E+01 -1.79084E+01 -1.64306E+01 -1.21387E+01 -2.09027E+01 -5.32577E+00 -2.34838E+01
 +1.93639E+00 -2.39549E+01 +9.01625E+00 -2.22776E+01 +1.52984E+01 -1.85973E+01 +2.02354E+01 -1.32308E+01
 +2.33948E+01 -6.63939E+00 +2.44950E+01 +6.10249E-01 +2.34297E+01 +7.89386E+00 +2.02771E+01 +1.45824E+01
 +1.52934E+01 +2.00951E+01 +8.89184E+00 +2.39488E+01 +1.60790E+00 +2.57990E+01 -5.94530E+00 +2.54692E+01
