 Created: 19-Jan-2021
 $NMID
 ID='D:\BASISSIMULATI'
 FMTDAT='(8E13.5)'
 VOLUME=   1.00000E+00
 TRAMP=   1.00000E+00
 $END
 +2.83447E+01 +2.91416E-02 +2.67451E+01 +1.50300E+00 +2.22625E+01 +3.32908E+00 +1.56443E+01 +5.71976E+00
 +7.95755E+00 +8.64010E+00 +3.72422E-01 +1.17808E+01 -6.06395E+00 +1.46155E+01 -1.06133E+01 +1.65292E+01
 -1.29514E+01 +1.69831E+01 -1.31752E+01 +1.56721E+01 -1.17185E+01 +1.26312E+01 -9.20566E+00 +8.25943E+00
 -6.28564E+00 +3.25345E+00 -3.48982E+00 -1.53528E+00 -1.14786E+00 -5.28423E+00 +6.24019E-01 -7.37906E+00
 +1.86901E+00 -7.54403E+00 +2.69562E+00 -5.89205E+00 +3.17905E+00 -2.88430E+00 +3.29333E+00 +7.87819E-01
 +2.89774E+00 +4.36571E+00 +1.78309E+00 +7.18904E+00 -2.36509E-01 +8.82238E+00 -3.21639E+00 +9.11397E+00
 -6.99525E+00 +8.17776E+00 -1.11623E+01 +6.31088E+00 -1.50959E+01 +3.87629E+00 -1.80707E+01 +1.18813E+00
 -1.94117E+01 -1.56535E+00 -1.86553E+01 -4.33969E+00 -1.56775E+01 -7.19038E+00 -1.07505E+01 -1.01847E+01
 -4.51123E+00 -1.33008E+01 +2.15658E+00 -1.63510E+01 +8.29903E+00 -1.89599E+01 +1.30869E+01 -2.06111E+01
 +1.59810E+01 -2.07585E+01 +1.68282E+01 -1.89742E+01 +1.58658E+01 -1.50941E+01 +1.36362E+01 -9.31905E+00
 +1.08344E+01 -2.23808E+00 +8.13037E+00 +5.24172E+00 +6.01217E+00 +1.20485E+01 +4.68910E+00 +1.71512E+01
 +4.07742E+00 +1.97708E+01 +3.86835E+00 +1.95475E+01 +3.65559E+00 +1.66224E+01 +3.08377E+00 +1.16143E+01
 +1.97467E+00 +5.49476E+00 +3.94651E-01 -6.09053E-01 -1.35587E+00 -5.63852E+00 -2.82793E+00 -8.80343E+00
 -3.56023E+00 -9.71379E+00 -3.22716E+00 -8.41779E+00 -1.75603E+00 -5.34406E+00 +6.20932E-01 -1.16942E+00
 +3.39673E+00 +3.34969E+00 +5.89640E+00 +7.53792E+00 +7.43399E+00 +1.09156E+01 +7.47934E+00 +1.32442E+01
 +5.79158E+00 +1.45011E+01 +2.48452E+00 +1.48007E+01 -1.99261E+00 +1.42952E+01 -6.95365E+00 +1.30888E+01
 -1.16271E+01 +1.11953E+01 -1.53217E+01 +8.55085E+00 -1.75642E+01 +5.07780E+00 -1.81759E+01 +7.75230E-01
 -1.72729E+01 -4.19615E+00 -1.51953E+01 -9.46776E+00 -1.23895E+01 -1.44783E+01 -9.27978E+00 -1.85551E+01
 -6.16720E+00 -2.10467E+01 -3.18219E+00 -2.14752E+01 -3.02276E-01 -1.96674E+01 +2.57494E+00 -1.58282E+01
 +5.53002E+00 -1.05317E+01 +8.52668E+00 -4.62533E+00 +1.13575E+01 +9.32383E-01 +1.36523E+01 +5.26589E+00
 +1.49530E+01 +7.76106E+00 +1.48373E+01 +8.18599E+00 +1.30581E+01 +6.72474E+00 +9.65763E+00 +3.91698E+00
 +5.02131E+00 +5.19571E-01 -1.53135E-01 -2.67430E+00 -4.96950E+00 -5.01293E+00 -8.50884E+00 -6.11746E+00
 -1.00273E+01 -5.93626E+00 -9.12844E+00 -4.71321E+00 -5.86716E+00 -2.88324E+00 -7.57890E-01 -9.27370E-01
 +5.31754E+00 +7.70789E-01 +1.12823E+01 +2.02729E+00 +1.60783E+01 +2.89167E+00 +1.88716E+01 +3.60535E+00
 +1.92045E+01 +4.49891E+00 +1.70609E+01 +5.86023E+00 +1.28364E+01 +7.81305E+00 +7.22456E+00 +1.02429E+01
 +1.05309E+00 +1.27938E+01 -4.88790E+00 +1.49386E+01 -9.98408E+00 +1.61057E+01 -1.38725E+01 +1.58290E+01
 -1.64444E+01 +1.38790E+01 -1.77850E+01 +1.03405E+01 -1.80775E+01 +5.61397E+00 -1.75060E+01 +3.38725E-01
 -1.61880E+01 -4.74183E+00 -1.41571E+01 -8.93975E+00 -1.13992E+01 -1.17654E+01 -7.92419E+00 -1.30181E+01
 -3.84779E+00 -1.28035E+01 +5.51165E-01 -1.14764E+01 +4.82269E+00 -9.52761E+00 +8.39911E+00 -7.44828E+00
 +1.07026E+01 -5.60961E+00 +1.12819E+01 -4.19011E+00 +9.94224E+00 -3.16834E+00 +6.83035E+00 -2.37885E+00
 +2.44722E+00 -1.61123E+00 -2.42292E+00 -7.18971E-01 -6.85583E+00 +2.97463E-01 -9.97229E+00 +1.26146E+00
 -1.11223E+01 +1.85704E+00 -1.00242E+01 +1.72355E+00 -6.82433E+00 +5.82232E-01 -2.06338E+00 -1.64248E+00
 +3.44417E+00 -4.74485E+00 +8.78683E+00 -8.23061E+00 +1.31468E+01 -1.13901E+01 +1.59592E+01 -1.34394E+01
 +1.70031E+01 -1.36970E+01 +1.64061E+01 -1.17546E+01 +1.45675E+01 -7.59629E+00 +1.20240E+01 -1.63571E+00
 +9.29687E+00 +5.34253E+00 +6.76322E+00 +1.23258E+01 +4.58261E+00 +1.82690E+01 +2.69679E+00 +2.22982E+01
 +8.97027E-01 +2.38752E+01 -1.06446E+00 +2.28877E+01 -3.35463E+00 +1.96461E+01 -5.96862E+00 +1.47929E+01
 -8.69583E+00 +9.15044E+00 -1.11545E+01 +3.54717E+00 -1.28859E+01 -1.33690E+00 -1.34824E+01 -5.06976E+00
 -1.27121E+01 -7.49563E+00 -1.06046E+01 -8.69405E+00 -7.47157E+00 -8.89079E+00 -3.85402E+00 -8.35283E+00
 -4.07703E-01 -7.30075E+00 +2.24376E+00 -5.86404E+00 +3.65069E+00 -4.08902E+00 +3.63699E+00 -1.99153E+00
 +2.33220E+00 +3.68523E-01 +1.28544E-01 +2.82100E+00 -2.42433E+00 +5.05635E+00 -4.75784E+00 +6.65049E+00
 -6.41874E+00 +7.14432E+00 -7.16389E+00 +6.16032E+00 -6.99174E+00 +3.52512E+00 -6.10535E+00 -6.37921E-01
 -4.82054E+00 -5.87723E+00 -3.44874E+00 -1.14589E+01 -2.19032E+00 -1.64869E+01 -1.07107E+00 -2.00735E+01
 +5.86809E-02 -2.15223E+01 +1.46120E+00 -2.04800E+01 +3.40292E+00 -1.70195E+01 +6.03291E+00 -1.16328E+01
 +9.28558E+00 -5.13334E+00 +1.28398E+01 +1.50898E+00 +1.61517E+01 +7.36281E+00 +1.85581E+01 +1.17139E+01
 +1.94277E+01 +1.41866E+01 +1.83230E+01 +1.47838E+01 +1.51296E+01 +1.38381E+01 +1.01194E+01 +1.18949E+01
 +3.92585E+00 +9.55808E+00 -2.56547E+00 +7.34210E+00 -8.38693E+00 +5.56583E+00 -1.26819E+01 +4.31375E+00
 -1.48745E+01 +3.46806E+00 -1.47778E+01 +2.79673E+00 -1.26159E+01 +2.06723E+00 -8.95830E+00 +1.14972E+00
 -4.58448E+00 +7.81019E-02 -3.14520E-01 -9.49449E-01 +3.15336E+00 -1.63034E+00 +5.36092E+00 -1.65945E+00
 +6.14021E+00 -8.42042E-01 +5.59160E+00 +8.17149E-01 +4.00415E+00 +3.07727E+00 +1.74693E+00 +5.49104E+00
 -8.34725E-01 +7.49616E+00 -3.48879E+00 +8.54578E+00 -6.07545E+00 +8.24418E+00 -8.53586E+00 +6.45111E+00
 -1.08276E+01 +3.32633E+00 -1.28539E+01 -6.98629E-01 -1.44170E+01 -5.01488E+00 -1.52154E+01 -8.97266E+00
 -1.48955E+01 -1.20244E+01 -1.31446E+01 -1.38376E+01 -9.80258E+00 -1.43491E+01 -4.95803E+00 -1.37486E+01
 +1.00366E+00 -1.23982E+01 +7.42106E+00 -1.07136E+01 +1.34503E+01 -9.04027E+00 +1.82156E+01 -7.56063E+00
 +2.09844E+01 -6.25865E+00 +2.13253E+01 -4.95031E+00 +1.92102E+01 -3.37063E+00 +1.50338E+01 -1.29050E+00
 +9.54203E+00 +1.37220E+00 +3.68521E+00 +4.48193E+00 -1.57184E+00 +7.67906E+00 -5.43859E+00 +1.04439E+01
 -7.44385E+00 +1.22175E+01 -7.50518E+00 +1.25479E+01 -5.91011E+00 +1.12245E+01 -3.21827E+00 +8.36125E+00
 -1.12650E-01 +4.40530E+00 +2.76096E+00 +6.35912E-02 +4.92618E+00 -3.83696E+00 +6.14999E+00 -6.52367E+00
 +6.44525E+00 -7.44516E+00 +6.00861E+00 -6.39097E+00 +5.11787E+00 -3.53549E+00 +4.02219E+00 +6.03339E-01
 +2.85875E+00 +5.27905E+00 +1.61993E+00 +9.67595E+00 +1.78619E-01 +1.30737E+01 -1.63834E+00 +1.49786E+01
 -3.95352E+00 +1.51929E+01 -6.75111E+00 +1.38124E+01 -9.82778E+00 +1.11582E+01 -1.28010E+01 +7.67037E+00
 -1.51766E+01 +3.79235E+00 -1.64602E+01 -1.18515E-01 -1.62825E+01 -3.83441E+00 -1.45058E+01 -7.24733E+00
 -1.12786E+01 -1.03167E+01 -7.02334E+00 -1.29980E+01 -2.35595E+00 -1.51810E+01 +2.04292E+00 -1.66632E+01
 +5.57364E+00 -1.71729E+01 +7.84315E+00 -1.64377E+01 +8.73860E+00 -1.42819E+01 +8.43101E+00 -1.07228E+01
 +7.30953E+00 -6.03307E+00 +5.86533E+00 -7.45375E-01 +4.55714E+00 +4.41247E+00 +3.69514E+00 +8.64239E+00
 +3.37402E+00 +1.12360E+01 +3.47203E+00 +1.17317E+01 +3.71425E+00 +1.00305E+01 +3.78014E+00 +6.43819E+00
 +3.42325E+00 +1.62184E+00 +2.56718E+00 -3.51488E+00 +1.34881E+00 -8.00903E+00 +9.45573E-02 -1.10294E+01
 -7.65659E-01 -1.20376E+01 -8.24058E-01 -1.08828E+01 +1.74307E-01 -7.81126E+00 +2.23283E+00 -3.39075E+00
 +5.06602E+00 +1.62740E+00 +8.13709E+00 +6.47386E+00 +1.07643E+01 +1.05134E+01 +1.22713E+01 +1.33488E+01
 +1.21449E+01 +1.48568E+01 +1.01604E+01 +1.51536E+01 +6.44380E+00 +1.45079E+01 +1.45446E+00 +1.32307E+01
 -4.10696E+00 +1.15757E+01 -9.44255E+00 +9.67935E+00 -1.38177E+01 +7.55317E+00 -1.66999E+01 +5.12905E+00
 -1.78437E+01 +2.33709E+00 -1.73067E+01 -8.11125E-01 -1.53963E+01 -4.16381E+00 -1.25682E+01 -7.41717E+00
 -9.30726E+00 -1.01586E+01 -6.02180E+00 -1.19560E+01 -2.98019E+00 -1.24700E+01 -3.00497E-01 -1.15571E+01
 +2.01006E+00 -9.33330E+00 +3.98511E+00 -6.17676E+00 +5.62585E+00 -2.66435E+00 +6.85223E+00 +5.45013E-01
 +7.49766E+00 +2.85256E+00 +7.35187E+00 +3.85203E+00 +6.24063E+00 +3.41836E+00 +4.11763E+00 +1.72998E+00
 +1.13806E+00 -7.81163E-01 -2.31386E+00 -3.53863E+00 -5.65947E+00 -5.96135E+00 -8.22166E+00 -7.59789E+00
 -9.36383E+00 -8.22103E+00 -8.63953E+00 -7.85937E+00 -5.91521E+00 -6.75992E+00 -1.43263E+00 -5.29462E+00
 +4.20879E+00 -3.83853E+00 +1.01504E+01 -2.65465E+00 +1.54339E+01 -1.81837E+00 +1.91876E+01 -1.20257E+00
 +2.07963E+01 -5.27537E-01 +2.00171E+01 +5.38902E-01 +1.70157E+01 +2.25976E+00 +1.23158E+01 +4.72115E+00
 +6.67703E+00 +7.77046E+00 +9.32903E-01 +1.10202E+01 -4.17364E+00 +1.39198E+01 -8.11767E+00 +1.58778E+01
 -1.06572E+01 +1.64056E+01 -1.18266E+01 +1.52434E+01 -1.18676E+01 +1.24369E+01 -1.11243E+01 +8.34369E+00
 -9.93275E+00 +3.56576E+00 -8.53796E+00 -1.17368E+00 -7.05804E+00 -5.18049E+00 -5.50075E+00 -7.92933E+00
 -3.82170E+00 -9.15980E+00 -2.00037E+00 -8.90771E+00 -1.05698E-01 -7.46769E+00 +1.67361E+00 -5.30076E+00
 +3.04754E+00 -2.91418E+00 +3.68995E+00 -7.46322E-01 +3.33308E+00 +9.14009E-01 +1.86410E+00 +1.95600E+00
 -6.06748E-01 +2.42103E+00 -3.72984E+00 +2.43637E+00 -6.96215E+00 +2.13362E+00 -9.66859E+00 +1.58016E+00
 -1.12562E+01 +7.47289E-01 -1.13083E+01 -4.73971E-01 -9.68447E+00 -2.21378E+00 -6.56004E+00 -4.54001E+00
 -2.39313E+00 -7.37846E+00 +2.17323E+00 -1.04655E+01 +6.45055E+00 -1.33538E+01 +9.85130E+00 -1.54785E+01
 +1.20063E+01 -1.62707E+01 +1.28245E+01 -1.52951E+01 +1.24830E+01 -1.23743E+01 +1.13511E+01 -7.66805E+00
 +9.87313E+00 -1.68055E+00 +8.44092E+00 +4.80928E+00 +7.29193E+00 +1.08845E+01 +6.45964E+00 +1.56639E+01
 +5.78799E+00 +1.84742E+01 +5.00386E+00 +1.89806E+01 +3.82529E+00 +1.72469E+01 +2.07312E+00 +1.37108E+01
 -2.46942E-01 +9.08311E+00 -2.91662E+00 +4.19458E+00 -5.54136E+00 -1.71400E-01 -7.64210E+00 -3.42279E+00
 -8.77868E+00 -5.24796E+00 -8.67146E+00 -5.63431E+00 -7.28798E+00 -4.81914E+00 -4.87018E+00 -3.19224E+00
 -1.89336E+00 -1.18044E+00 +1.03378E+00 +8.53800E-01 +3.30339E+00 +2.67428E+00 +4.44328E+00 +4.18160E+00
 +4.21875E+00 +5.37642E+00 +2.67682E+00 +6.29364E+00 +1.23590E-01 +6.93359E+00 -2.95700E+00 +7.21619E+00
 -6.02010E+00 +6.97612E+00 -8.58092E+00 +6.00299E+00 -1.03091E+01 +4.11608E+00 -1.10738E+01 +1.25052E+00
