 Created: 19-Jan-2021
 $NMID
 ID='D:\BASISSIMULATI'
 FMTDAT='(8E13.5)'
 VOLUME=   1.00000E+00
 TRAMP=   1.00000E+00
 $END
 +1.53002E+01 +1.48653E-02 +1.49023E+01 +3.21377E+00 +1.37650E+01 +6.21051E+00 +1.19694E+01 +8.82403E+00
 +9.64149E+00 +1.09027E+01 +6.94266E+00 +1.23355E+01 +4.05656E+00 +1.30600E+01 +1.17481E+00 +1.30661E+01
 -1.51794E+00 +1.23961E+01 -3.85814E+00 +1.11400E+01 -5.71559E+00 +9.42764E+00 -7.00284E+00 +7.41710E+00
 -7.68100E+00 +5.28154E+00 -7.76149E+00 +3.19483E+00 -7.30366E+00 +1.31731E+00 -6.40852E+00 -2.17023E-01
 -5.20914E+00 -1.31100E+00 -3.85847E+00 -1.91150E+00 -2.51577E+00 -2.01287E+00 -1.33267E+00 -1.65636E+00
 -4.39998E-01 -9.25563E-01 +6.33913E-02 +6.16879E-02 +1.19011E-01 +1.16423E+00 -2.86396E-01 +2.23041E+00
 -1.11989E+00 +3.11169E+00 -2.30532E+00 +3.67598E+00 -3.72999E+00 +3.81949E+00 -5.25445E+00 +3.47614E+00
 -6.72455E+00 +2.62380E+00 -7.98475E+00 +1.28673E+00 -8.89163E+00 -4.65792E-01 -9.32634E+00 -2.52471E+00
 -9.20515E+00 -4.74977E+00 -8.48703E+00 -6.98073E+00 -7.17774E+00 -9.05027E+00 -5.33017E+00 -1.07975E+01
 -3.04073E+00 -1.20812E+01 -4.42193E-01 -1.27911E+01 +2.30633E+00 -1.28570E+01 +5.03166E+00 -1.22549E+01
 +7.55991E+00 -1.10087E+01 +9.72982E+00 -9.18882E+00 +1.14052E+01 -6.90653E+00 +1.24852E+01 -4.30563E+00
 +1.29117E+01 -1.55120E+00 +1.26735E+01 +1.18317E+00 +1.18065E+01 +3.72863E+00 +1.03902E+01 +5.93384E+00
 +8.54113E+00 +7.67622E+00 +6.40265E+00 +8.87075E+00 +4.13377E+00 +9.47565E+00 +1.89615E+00 +9.49455E+00
 -1.58574E-01 +8.97490E+00 -1.90050E+00 +8.00303E+00 -3.23116E+00 +6.69602E+00 -4.09055E+00 +5.19132E+00
 -4.46077E+00 +3.63482E+00 -4.36625E+00 +2.16860E+00 -3.87039E+00 +9.19058E-01 -3.06907E+00 -1.33132E-02
 -2.08153E+00 -5.61849E-01 -1.03951E+00 -6.98663E-01 -7.53686E-02 -4.36234E-01 +6.89497E-01 +1.74427E-01
 +1.15531E+00 +1.04888E+00 +1.25251E+00 +2.07712E+00 +9.47773E-01 +3.13358E+00 +2.46803E-01 +4.08831E+00
 -8.06129E-01 +4.81857E+00 -2.13198E+00 +5.21963E+00 -3.62363E+00 +5.21408E+00 -5.15499E+00 +4.75879E+00
 -6.59158E+00 +3.84897E+00 -7.80198E+00 +2.51901E+00 -8.66884E+00 +8.40049E-01 -9.09883E+00 -1.08546E+00
 -9.03063E+00 -3.13187E+00 -8.44017E+00 -5.16024E+00 -7.34298E+00 -7.02940E+00 -5.79321E+00 -8.60719E+00
 -3.87960E+00 -9.78084E+00 -1.71863E+00 -1.04659E+01 +5.54478E-01 -1.06129E+01 +2.79622E+00 -1.02107E+01
 +4.86586E+00 -9.28768E+00 +6.63616E+00 -7.90890E+00 +8.00292E+00 -6.17086E+00 +8.89263E+00 -4.19371E+00
 +9.26754E+00 -2.11169E+00 +9.12786E+00 -6.26165E-02 +8.51091E+00 +1.82276E+00 +7.48735E+00 +3.43065E+00
 +6.15479E+00 +4.67260E+00 +4.62944E+00 +5.49164E+00 +3.03638E+00 +5.86580E+00 +1.49936E+00 +5.80879E+00
 +1.30900E-01 +5.36767E+00 -9.76386E-01 +4.61796E+00 -1.75676E+00 +3.65648E+00 -2.17591E+00 +2.59266E+00
 -2.23275E+00 +1.53892E+00 -1.95856E+00 +6.01127E-01 -1.41331E+00 -1.30310E-01 -6.79727E-01 -5.87792E-01
 +1.44418E-01 -7.31857E-01 +9.55208E-01 -5.54029E-01 +1.65180E+00 -7.70079E-02 +2.14526E+00 +6.47794E-01
 +2.36626E+00 +1.54510E+00 +2.27104E+00 +2.52259E+00 +1.84507E+00 +3.47908E+00 +1.10430E+00 +4.31337E+00
 +9.37547E-02 +4.93300E+00 -1.11628E+00 +5.26225E+00 -2.43616E+00 +5.24862E+00 -3.76436E+00 +4.86738E+00
 -4.99590E+00 +4.12374E+00 -6.03100E+00 +3.05260E+00 -6.78328E+00 +1.71575E+00 -7.18677E+00 +1.97040E-01
 -7.20123E+00 -1.40438E+00 -6.81538E+00 -2.98189E+00 -6.04772E+00 -4.42980E+00 -4.94496E+00 -5.65164E+00
 -3.57825E+00 -6.56759E+00 -2.03743E+00 -7.12047E+00 -4.23919E-01 -7.27995E+00 +1.15720E+00 -7.04443E+00
 +2.60534E+00 -6.44075E+00 +3.83199E+00 -5.52155E+00 +4.76722E+00 -4.36069E+00 +5.36466E+00 -3.04706E+00
 +5.60439E+00 -1.67735E+00 +5.49374E+00 -3.48318E-01 +5.06586E+00 +8.50723E-01 +4.37632E+00 +1.84465E+00
 +3.49793E+00 +2.57798E+00 +2.51435E+00 +3.01857E+00 +1.51300E+00 +3.15936E+00 +5.77849E-01 +3.01800E+00
 -2.17331E-01 +2.63453E+00 -8.14653E-01 +2.06725E+00 -1.17637E+00 +1.38719E+00 -1.28734E+00 +6.71724E-01
 -1.15555E+00 -2.19426E-03 -8.10725E-01 -5.64579E-01 -3.01096E-01 -9.58213E-01 +3.11212E-01 -1.14324E+00
 +9.55923E-01 -1.10019E+00 +1.56087E+00 -8.31208E-01 +2.05831E+00 -3.59488E-01 +2.39068E+00 +2.73113E-01
 +2.51547E+00 +1.00994E+00 +2.40869E+00 +1.78461E+00 +2.06671E+00 +2.52674E+00 +1.50644E+00 +3.16803E+00
 +7.63707E-01 +3.64797E+00 -1.09839E-01 +3.91884E+00 -1.05112E+00 +3.94963E+00 -1.99091E+00 +3.72843E+00
 -2.85947E+00 +3.26331E+00 -3.59223E+00 +2.58147E+00 -4.13490E+00 +1.72693E+00 -4.44768E+00 +7.56845E-01
 -4.50820E+00 -2.63191E-01 -4.31308E+00 -1.26437E+00 -3.87785E+00 -2.18009E+00 -3.23539E+00 -2.95111E+00
 -2.43308E+00 -3.52994E+00 -1.52878E+00 -3.88427E+00 -5.86123E-01 -3.99904E+00 +3.30551E-01 -3.87715E+00
 +1.16114E+00 -3.53867E+00 +1.85431E+00 -3.01877E+00 +2.37110E+00 -2.36446E+00 +2.68756E+00 -1.63052E+00
 +2.79598E+00 -8.74958E-01 +2.70485E+00 -1.54316E-01 +2.43756E+00 +4.80685E-01 +2.02985E+00 +9.88923E-01
 +1.52643E+00 +1.34172E+00 +9.77051E-01 +1.52460E+00 +4.32169E-01 +1.53777E+00 -6.11276E-02 +1.39550E+00
 -4.62857E-01 +1.12427E+00 -7.43114E-01 +7.60020E-01 -8.84116E-01 +3.44803E-01 -8.81159E-01 -7.70477E-02
 -7.42466E-01 -4.62720E-01 -4.87967E-01 -7.74475E-01 -1.47153E-01 -9.82645E-01 +2.43784E-01 -1.06785E+00
 +6.45261E-01 -1.02226E+00 +1.01778E+00 -8.49905E-01 +1.32528E+00 -5.65891E-01 +1.53804E+00 -1.94823E-01
 +1.63506E+00 +2.31568E-01 +1.60549E+00 +6.77285E-01 +1.44929E+00 +1.10518E+00 +1.17692E+00 +1.48007E+00
 +8.08191E-01 +1.77156E+00 +3.70386E-01 +1.95639E+00 -1.04167E-01 +2.02011E+00 -5.80839E-01 +1.95801E+00
 -1.02553E+00 +1.77513E+00 -1.40737E+00 +1.48563E+00 -1.70100E+00 +1.11130E+00 -1.88839E+00 +6.79613E-01
 -1.95995E+00 +2.21380E-01 -1.91494E+00 -2.31784E-01 -1.76112E+00 -6.49914E-01 -1.51382E+00 -1.00692E+00
 -1.19436E+00 -1.28240E+00 -8.28133E-01 -1.46289E+00 -4.42485E-01 -1.54255E+00 -6.44846E-02 -1.52313E+00
 +2.81093E-01 -1.41343E+00 +5.73514E-01 -1.22817E+00 +7.97396E-01 -9.86490E-01 +9.43521E-01 -7.10198E-01
 +1.00910E+00 -4.21902E-01 +9.97505E-01 -1.43228E-01 +9.17558E-01 +1.06768E-01 +7.82399E-01 +3.12859E-01
 +6.08125E-01 +4.64518E-01 +4.12292E-01 +5.56330E-01 +2.12418E-01 +5.87971E-01 +2.46188E-02 +5.63775E-01
 -1.37524E-01 +4.91965E-01 -2.63790E-01 +3.83634E-01 -3.47798E-01 +2.51597E-01 -3.87122E-01 +1.09203E-01
 -3.83074E-01 -3.07688E-02 -3.40206E-01 -1.57059E-01 -2.65599E-01 -2.60644E-01 -1.68018E-01 -3.35192E-01
 -5.70345E-02 -3.77243E-01 +5.78101E-02 -3.86126E-01 +1.67735E-01 -3.63657E-01 +2.65283E-01 -3.13673E-01
 +3.44691E-01 -2.41463E-01 +4.02061E-01 -1.53169E-01 +4.35346E-01 -5.52094E-02 +4.44181E-01 +4.62070E-02
 +4.29602E-01 +1.45460E-01 +3.93705E-01 +2.37756E-01 +3.39297E-01 +3.19236E-01 +2.69580E-01 +3.86965E-01
 +1.87900E-01 +4.38830E-01 +9.75892E-02 +4.73394E-01 +1.89566E-03 +4.89738E-01 -9.60103E-02 +4.87322E-01
 -1.92968E-01 +4.65915E-01 -2.85738E-01 +4.25585E-01 -3.70926E-01 +3.66772E-01 -4.44952E-01 +2.90418E-01
 -5.04095E-01 +1.98143E-01 -5.44627E-01 +9.24189E-02 -5.63046E-01 -2.32904E-02 -5.56378E-01 -1.44460E-01
 -5.22542E-01 -2.65546E-01 -4.60723E-01 -3.80156E-01 -3.71710E-01 -4.81360E-01 -2.58149E-01 -5.62130E-01
 -1.24665E-01 -6.15876E-01 +2.21889E-02 -6.37053E-01 +1.74166E-01 -6.21755E-01 +3.21766E-01 -5.68267E-01
 +4.54845E-01 -4.77474E-01 +5.63371E-01 -3.53108E-01 +6.38254E-01 -2.01745E-01 +6.72193E-01 -3.25697E-02
 +6.60454E-01 +1.43135E-01 +6.01494E-01 +3.12726E-01 +4.97368E-01 +4.63131E-01 +3.53855E-01 +5.81904E-01
 +1.80266E-01 +6.58307E-01 -1.10682E-02 +6.84340E-01 -2.05613E-01 +6.55609E-01 -3.87701E-01 +5.71941E-01
 -5.41772E-01 +4.37684E-01 -6.53692E-01 +2.61627E-01 -7.12038E-01 +5.65431E-02 -7.09224E-01 -1.61652E-01
 -6.42370E-01 -3.75059E-01 -5.13818E-01 -5.65190E-01 -3.31231E-01 -7.14498E-01 -1.07236E-01 -8.07913E-01
 +1.41372E-01 -8.34246E-01 +3.94823E-01 -7.87334E-01 +6.31884E-01 -6.66823E-01 +8.31562E-01 -4.78485E-01
 +9.74881E-01 -2.34043E-01 +1.04656E+00 +4.95237E-02 +1.03646E+00 +3.51151E-01 +9.40659E-01 +6.47249E-01
 +7.62063E-01 +9.13550E-01 +5.10446E-01 +1.12708E+00 +2.01936E-01 +1.26811E+00 -1.42060E-01 +1.32191E+00
 -4.96406E-01 +1.28013E+00 -8.34156E-01 +1.14175E+00 -1.12869E+00 +9.13408E-01 -1.35591E+00 +6.09089E-01
 -1.49624E+00 +2.49264E-01 -1.53642E+00 -1.40602E-01 -1.47068E+00 -5.31970E-01 -1.30150E+00 -8.95464E-01
 -1.03956E+00 -1.20323E+00 -7.03075E-01 -1.43125E+00 -3.16512E-01 -1.56137E+00 +9.13023E-02 -1.58290E+00
 +4.89436E-01 -1.49365E+00 +8.47341E-01 -1.30027E+00 +1.13737E+00 -1.01783E+00 +1.33711E+00 -6.68767E-01
 +1.43129E+00 -2.81119E-01 +1.41318E+00 +1.13699E-01 +1.28527E+00 +4.83455E-01 +1.05922E+00 +7.97778E-01
 +7.54984E-01 +1.03073E+00 +3.99285E-01 +1.16303E+00 +2.34584E-02 +1.18384E+00 -3.39125E-01 +1.09173E+00
 -6.55852E-01 +8.95023E-01 -8.97653E-01 +6.11213E-01 -1.04154E+00 +2.65654E-01 -1.07266E+00 -1.10458E-01
 -9.85758E-01 -4.82629E-01 -7.85763E-01 -8.15939E-01 -4.87629E-01 -1.07801E+00 -1.15261E-01 -1.24181E+00
 +3.00307E-01 -1.28805E+00 +7.23376E-01 -1.20704E+00 +1.11648E+00 -9.99680E-01 +1.44348E+00 -6.77655E-01
 +1.67266E+00 -2.62719E-01 +1.77940E+00 +2.14883E-01 +1.74847E+00 +7.18727E-01 +1.57542E+00 +1.20907E+00
 +1.26725E+00 +1.64604E+00 +8.42025E-01 +1.99289E+00 +3.27690E-01 +2.21907E+00 -2.40055E-01 +2.30277E+00
 -8.20469E-01 +2.23292E+00 -1.37097E+00 +2.01015E+00 -1.85053E+00 +1.64702E+00 -2.22295E+00 +1.16709E+00
 -2.45984E+00 +6.03246E-01 -2.54293E+00 -4.90742E-03 -2.46564E+00 -6.14087E-01 -2.23365E+00 -1.18078E+00
 -1.86453E+00 -1.66470E+00 -1.38637E+00 -2.03204E+00 -8.35574E-01 -2.25817E+00 -2.53897E-01 -2.32961E+00
 +3.14879E-01 -2.24514E+00 +8.28513E-01 -2.01588E+00 +1.24973E+00 -1.66433E+00 +1.54926E+00 -1.22250E+00
 +1.70820E+00 -7.29256E-01 +1.71955E+00 -2.27098E-01 +1.58878E+00 +2.41423E-01 +1.33326E+00 +6.37242E-01
 +9.80863E-01 +9.28064E-01 +5.67514E-01 +1.09109E+00 +1.34172E-01 +1.11494E+00 -2.76674E-01 +1.00065E+00
 -6.24645E-01 +7.61612E-01 -8.74949E-01 +4.22458E-01 -1.00141E+00 +1.70273E-02 -9.88788E-01 -4.14493E-01
 -8.34200E-01 -8.28965E-01 -5.47504E-01 -1.18397E+00 -1.50612E-01 -1.44149E+00 +3.24208E-01 -1.57115E+00
