 Created: 19-Jan-2021
 $NMID
 ID='D:\BASISSIMULATI'
 FMTDAT='(8E13.5)'
 VOLUME=   1.00000E+00
 TRAMP=   1.00000E+00
 $END
 +2.43173E+01 +2.48625E-02 +2.34572E+01 +6.33725E+00 +2.09885E+01 +1.22048E+01 +1.70832E+01 +1.72254E+01
 +1.20114E+01 +2.10559E+01 +6.12326E+00 +2.34352E+01 -1.75939E-01 +2.42023E+01 -6.45318E+00 +2.33071E+01
 -1.22777E+01 +2.08136E+01 -1.72503E+01 +1.68954E+01 -2.10312E+01 +1.18238E+01 -2.33626E+01 +5.94865E+00
 -2.40870E+01 -3.25589E-01 -2.31569E+01 -6.56763E+00 -2.06390E+01 -1.23491E+01 -1.67084E+01 -1.72739E+01
 -1.16372E+01 -2.10054E+01 -5.77531E+00 -2.32893E+01 +4.73814E-01 -2.39712E+01 +6.68061E+00 -2.30068E+01
 +1.24191E+01 -2.04648E+01 +1.72963E+01 -1.65221E+01 +2.09786E+01 -1.14517E+01 +2.32153E+01 -5.60324E+00
 +2.38551E+01 +6.20620E-01 +2.28566E+01 +6.79211E+00 +2.02909E+01 +1.24877E+01 +1.63366E+01 +1.73173E+01
 +1.12672E+01 +2.09508E+01 +5.43245E+00 +2.31406E+01 -7.66011E-01 +2.37386E+01 -6.90216E+00 +2.27065E+01
 -1.25550E+01 +2.01175E+01 -1.73372E+01 +1.61518E+01 -2.09219E+01 +1.10838E+01 -2.30651E+01 +5.26292E+00
 -2.36218E+01 -9.09992E-01 -2.25564E+01 -7.01076E+00 -1.99445E+01 -1.26208E+01 -1.59678E+01 -1.73557E+01
 -1.09013E+01 -2.08921E+01 -5.09467E+00 -2.29889E+01 +1.05257E+00 -2.35046E+01 +7.11791E+00 -2.24063E+01
 +1.26852E+01 -1.97718E+01 +1.73731E+01 -1.57845E+01 +2.08612E+01 -1.07200E+01 +2.29121E+01 -4.92768E+00
 +2.33871E+01 +1.19374E+00 +2.22563E+01 +7.22362E+00 +1.95996E+01 +1.27482E+01 +1.56019E+01 +1.73892E+01
 +1.05397E+01 +2.08294E+01 +4.76196E+00 +2.28346E+01 -1.33352E+00 +2.32693E+01 -7.32790E+00 +2.21063E+01
 -1.28099E+01 +1.94278E+01 -1.74041E+01 +1.54202E+01 -2.07966E+01 +1.03604E+01 -2.27564E+01 +4.59751E+00
 -2.31512E+01 -1.47190E+00 -2.19564E+01 -7.43076E+00 -1.92565E+01 -1.28702E+01 -1.52392E+01 -1.74179E+01
 -1.01822E+01 -2.07628E+01 -4.43431E+00 -2.26775E+01 +1.60889E+00 -2.30327E+01 +7.53219E+00 -2.18065E+01
 +1.29292E+01 -1.90856E+01 +1.74304E+01 -1.50589E+01 +2.07281E+01 -1.00050E+01 +2.25980E+01 -4.27238E+00
 +2.29140E+01 +1.74451E+00 +2.16568E+01 +7.63222E+00 +1.89151E+01 +1.29869E+01 +1.48795E+01 +1.74417E+01
 +9.82892E+00 +2.06925E+01 +4.11171E+00 +2.25179E+01 -1.87874E+00 +2.27950E+01 -7.73084E+00 +2.15071E+01
 -1.30431E+01 +1.87450E+01 -1.74519E+01 +1.47008E+01 -2.06559E+01 +9.65387E+00 -2.24372E+01 +3.95229E+00
 -2.26757E+01 -2.01160E+00 -2.13575E+01 -7.82807E+00 -1.85754E+01 -1.30981E+01 -1.45229E+01 -1.74609E+01
 -9.47986E+00 -2.06184E+01 -3.79413E+00 -2.23559E+01 +2.14309E+00 -2.25561E+01 +7.92391E+00 -2.12080E+01
 +1.31518E+01 -1.84063E+01 +1.74688E+01 -1.43457E+01 +2.05800E+01 -9.30692E+00 +2.22739E+01 -3.63722E+00
 +2.24363E+01 +2.27322E+00 +2.10586E+01 +8.01836E+00 +1.82377E+01 +1.32041E+01 +1.41694E+01 +1.74755E+01
 +9.13502E+00 +2.05408E+01 +3.48156E+00 +2.21914E+01 -2.40199E+00 +2.23163E+01 -8.11144E+00 +2.09093E+01
 -1.32552E+01 +1.80695E+01 -1.74811E+01 +1.39939E+01 -2.05006E+01 +8.96418E+00 -2.21083E+01 +3.32715E+00
 -2.21960E+01 -2.52940E+00 -2.07602E+01 -8.20316E+00 -1.79017E+01 -1.33050E+01 -1.38191E+01 -1.74856E+01
 -8.79440E+00 -2.04595E+01 -3.17398E+00 -2.20246E+01 +2.65547E+00 -2.20755E+01 +8.29351E+00 -2.06112E+01
 +1.33535E+01 -1.77345E+01 +1.74890E+01 -1.36452E+01 +2.04176E+01 -8.62568E+00 +2.19403E+01 -3.02206E+00
 +2.19548E+01 +2.78019E+00 +2.04623E+01 +8.38251E+00 +1.75678E+01 +1.34007E+01 +1.34720E+01 +1.74913E+01
 +8.45801E+00 +2.03749E+01 +2.87138E+00 +2.18556E+01 -2.90357E+00 +2.18338E+01 -8.47016E+00 +2.03136E+01
 -1.34467E+01 +1.74015E+01 -1.74925E+01 +1.32997E+01 -2.03313E+01 +8.29140E+00 -2.17702E+01 +2.72193E+00
 -2.17127E+01 -3.02562E+00 -2.01650E+01 -8.55648E+00 -1.72358E+01 -1.34914E+01 -1.31281E+01 -1.74926E+01
 -8.12585E+00 -2.02869E+01 -2.57372E+00 -2.16844E+01 +3.14633E+00 -2.15914E+01 +8.64146E+00 -2.00166E+01
 +1.35349E+01 -1.70705E+01 +1.74916E+01 -1.29574E+01 +2.02416E+01 -7.96135E+00 +2.15980E+01 -2.42675E+00
 +2.14699E+01 +3.26573E+00 +1.98684E+01 +8.72512E+00 +1.69058E+01 +1.35771E+01 +1.27874E+01 +1.74896E+01
 +7.79792E+00 +2.01956E+01 +2.28101E+00 +2.15112E+01 -3.38380E+00 +2.13483E+01 -8.80747E+00 +1.97204E+01
 -1.36181E+01 +1.67416E+01 -1.74865E+01 +1.26183E+01 -2.01487E+01 +7.63554E+00 -2.14238E+01 +2.13649E+00
 -2.12264E+01 -3.50056E+00 -1.95725E+01 -8.88850E+00 -1.65778E+01 -1.36579E+01 -1.24500E+01 -1.74825E+01
 -7.47422E+00 -2.01011E+01 -1.99320E+00 -2.13359E+01 +3.61601E+00 -2.11045E+01 +8.96824E+00 -1.94249E+01
 +1.36965E+01 -1.64147E+01 +1.74773E+01 -1.22826E+01 +2.00526E+01 -7.31395E+00 +2.12476E+01 -1.85113E+00
 +2.09824E+01 +3.73016E+00 +1.92774E+01 +9.04668E+00 +1.62520E+01 +1.37339E+01 +1.21159E+01 +1.74712E+01
 +7.15475E+00 +2.00035E+01 +1.71029E+00 +2.11588E+01 -3.84301E+00 +2.08601E+01 -9.12383E+00 +1.91302E+01
 -1.37701E+01 +1.60899E+01 -1.74641E+01 +1.19501E+01 -1.99535E+01 +6.99660E+00 -2.10696E+01 +1.57066E+00
 -2.07377E+01 -3.95457E+00 -1.89831E+01 -9.19970E+00 -1.59283E+01 -1.38052E+01 -1.17851E+01 -1.74559E+01
 -6.83951E+00 -1.99028E+01 -1.43224E+00 -2.09799E+01 +4.06484E+00 -2.06153E+01 +9.27430E+00 -1.88363E+01
 +1.38390E+01 -1.57673E+01 +1.74468E+01 -1.16209E+01 +1.98514E+01 -6.68347E+00 +2.08897E+01 -1.29504E+00
 +2.04927E+01 +4.17383E+00 +1.86897E+01 +9.34764E+00 +1.56068E+01 +1.38717E+01 +1.14576E+01 +1.74367E+01
 +6.52849E+00 +1.97992E+01 +1.15904E+00 +2.07992E+01 -4.28154E+00 +2.03700E+01 -9.41971E+00 +1.85434E+01
 -1.39033E+01 +1.54469E+01 -1.74256E+01 +1.12951E+01 -1.97464E+01 +6.37457E+00 -2.07082E+01 +1.02425E+00
 -2.02472E+01 -4.38798E+00 -1.83973E+01 -9.49054E+00 -1.52875E+01 -1.39337E+01 -1.11334E+01 -1.74136E+01
 -6.22170E+00 -1.96928E+01 -8.90657E-01 -2.06168E+01 +4.49315E+00 -2.01243E+01 +9.56012E+00 -1.82514E+01
 +1.39630E+01 -1.51287E+01 +1.74006E+01 -1.09726E+01 +1.96385E+01 -6.06989E+00 +2.05250E+01 -7.58266E-01
 +2.00014E+01 +4.59707E+00 +1.81058E+01 +9.62847E+00 +1.49705E+01 +1.39911E+01 +1.08126E+01 +1.73867E+01
 +5.91913E+00 +1.95835E+01 +6.27071E-01 +2.04328E+01 -4.69972E+00 +1.98784E+01 -9.69559E+00 +1.79605E+01
 -1.40182E+01 +1.48128E+01 -1.73718E+01 +1.06535E+01 -1.95279E+01 +5.76943E+00 -2.03403E+01 +4.97068E-01
 -1.97553E+01 -4.80113E+00 -1.78154E+01 -9.76149E+00 -1.46558E+01 -1.40441E+01 -1.04952E+01 -1.73560E+01
 -5.62078E+00 -1.94716E+01 -3.68254E-01 -2.02473E+01 +4.90130E+00 -1.96322E+01 +9.82618E+00 -1.76706E+01
 +1.40689E+01 -1.44992E+01 +1.73394E+01 -1.03377E+01 +1.94146E+01 -5.47318E+00 +2.01540E+01 -2.40627E-01
 +1.95091E+01 +5.00023E+00 +1.75261E+01 +9.88966E+00 +1.43433E+01 +1.40926E+01 +1.01811E+01 +1.73218E+01
 +5.32663E+00 +1.93570E+01 +1.14181E-01 +2.00604E+01 -5.09792E+00 +1.93859E+01 -9.95195E+00 +1.73819E+01
 -1.41153E+01 +1.41880E+01 -1.73033E+01 +1.00253E+01 -1.92987E+01 +5.18113E+00 -1.99664E+01 -1.10847E-02
 -1.92627E+01 -5.19439E+00 -1.72379E+01 -1.00130E+01 -1.40333E+01 -1.41369E+01 -9.87043E+00 -1.72840E+01
 -5.03668E+00 -1.92398E+01 +1.35175E-01 -1.98721E+01 +5.28963E+00 -1.91394E+01 +1.00729E+01 -1.70943E+01
 +1.41574E+01 -1.38791E+01 +1.72637E+01 -9.71637E+00 +1.91803E+01 -4.89328E+00 +1.97774E+01 +2.58093E-01
 +1.90162E+01 +5.38366E+00 +1.69510E+01 +1.01317E+01 +1.37256E+01 +1.41769E+01 +9.56316E+00 +1.72427E+01
 +4.75092E+00 +1.91202E+01 -3.79842E-01 +1.96825E+01 -5.47648E+00 +1.88930E+01 -1.01892E+01 +1.68080E+01
 -1.41953E+01 +1.35726E+01 -1.72207E+01 +9.41081E+00 -1.90595E+01 +4.60961E+00 -1.95872E+01 -5.00426E-01
 -1.87697E+01 -5.56810E+00 -1.66653E+01 -1.02457E+01 -1.34203E+01 -1.42126E+01 -9.25931E+00 -1.71979E+01
 -4.46935E+00 -1.89982E+01 +6.19849E-01 -1.94916E+01 +5.65852E+00 -1.86465E+01 +1.03009E+01 -1.65229E+01
 +1.42290E+01 -1.32686E+01 +1.71743E+01 -9.10867E+00 +1.89363E+01 -4.33013E+00 +1.93957E+01 +7.38113E-01
 +1.85233E+01 +5.74774E+00 +1.63808E+01 +1.03550E+01 +1.31175E+01 +1.42443E+01 +8.95889E+00 +1.71499E+01
 +4.19195E+00 +1.88738E+01 -8.55223E-01 +1.92996E+01 -5.83578E+00 +1.84001E+01 -1.04080E+01 +1.62391E+01
 -1.42586E+01 +1.29670E+01 -1.71246E+01 +8.80997E+00 -1.88108E+01 +4.05481E+00 -1.92032E+01 -9.71183E-01
 -1.82770E+01 -5.92263E+00 -1.60978E+01 -1.04598E+01 -1.28171E+01 -1.42720E+01 -8.66190E+00 -1.70986E+01
 -3.91871E+00 -1.87472E+01 +1.08600E+00 -1.91065E+01 +6.00831E+00 -1.81538E+01 +1.05105E+01 -1.59567E+01
 +1.42843E+01 -1.26679E+01 +1.70717E+01 -8.51470E+00 +1.86830E+01 -3.78365E+00 +1.90095E+01 +1.19966E+00
 +1.80308E+01 +6.09282E+00 +1.58160E+01 +1.05601E+01 +1.25192E+01 +1.42956E+01 +8.36836E+00 +1.70440E+01
 +3.64963E+00 +1.86184E+01 -1.31219E+00 +1.89123E+01 -6.17616E+00 +1.79078E+01 -1.06086E+01 +1.56757E+01
 -1.43060E+01 +1.23713E+01 -1.70156E+01 +8.22288E+00 -1.85532E+01 +3.51664E+00 -1.88149E+01 -1.42359E+00
 -1.77849E+01 -6.25835E+00 -1.55358E+01 -1.06560E+01 -1.22239E+01 -1.43153E+01 -8.07827E+00 -1.69864E+01
 -3.38468E+00 -1.84874E+01 +1.53385E+00 -1.87172E+01 +6.33939E+00 -1.76620E+01 +1.07023E+01 -1.53962E+01
 +1.43238E+01 -1.20772E+01 +1.69565E+01 -7.93452E+00 +1.84212E+01 -3.25375E+00 +1.86193E+01 +1.64299E+00
 +1.75392E+01 +6.41927E+00 +1.52569E+01 +1.07475E+01 +1.19311E+01 +1.43312E+01 +7.79163E+00 +1.69257E+01
 +3.12386E+00 +1.83545E+01 -1.75100E+00 +1.85212E+01 -6.49802E+00 +1.74165E+01 -1.07916E+01 +1.51181E+01
 -1.43378E+01 +1.17857E+01 -1.68943E+01 +7.64962E+00 -1.82873E+01 +2.99499E+00 -1.84229E+01 -1.85789E+00
 -1.72939E+01 -6.57563E+00 -1.49796E+01 -1.08347E+01 -1.16409E+01 -1.43434E+01 -7.50846E+00 -1.68621E+01
 -2.86715E+00 -1.82195E+01 +1.96366E+00 -1.83244E+01 +6.65212E+00 -1.71713E+01 +1.08766E+01 -1.48416E+01
 +1.43480E+01 -1.14968E+01 +1.68292E+01 -7.36818E+00 +1.81514E+01 -2.74033E+00 +1.82257E+01 +2.06833E+00
 +1.70489E+01 +6.72748E+00 +1.47039E+01 +1.09176E+01 +1.13533E+01 +1.43518E+01 +7.22876E+00 +1.67955E+01
 +2.61454E+00 +1.80827E+01 -2.17188E+00 +1.81268E+01 -6.80172E+00 +1.69266E+01 -1.09575E+01 +1.45666E+01
 -1.43546E+01 +1.12105E+01 -1.67612E+01 +7.09020E+00 -1.80136E+01 +2.48977E+00 -1.80277E+01 -2.27433E+00
 -1.68044E+01 -6.87486E+00 -1.44297E+01 -1.09963E+01 -1.10683E+01 -1.43566E+01 -6.95252E+00 -1.67262E+01
