 Created: 19-Jan-2021
 $NMID
 ID='D:\BASISSIMULATI'
 FMTDAT='(8E13.5)'
 VOLUME=   1.00000E+00
 TRAMP=   1.00000E+00
 $END
 +1.39472E+01 +1.42014E-02 +1.33974E+01 +3.63890E+00 +1.19232E+01 +6.97653E+00 +9.63678E+00 +9.79624E+00
 +6.70670E+00 +1.19061E+01 +3.34509E+00 +1.31662E+01 -2.07805E-01 +1.34984E+01 -3.70110E+00 +1.28909E+01
 -6.89126E+00 +1.13983E+01 -9.55932E+00 +9.13706E+00 -1.15262E+01 +6.27617E+00 -1.26648E+01 +3.02458E+00
 -1.29085E+01 -3.84384E-01 -1.22547E+01 -3.70993E+00 -1.07643E+01 -6.72110E+00 -8.55605E+00 -9.21303E+00
 -5.79733E+00 -1.10211E+01 -2.69123E+00 -1.20320E+01 +5.38496E-01 -1.21906E+01 +3.66378E+00 -1.15033E+01
 +6.46857E+00 -1.00358E+01 +8.76397E+00 -7.90745E+00 +1.04011E+01 -5.28174E+00 +1.12810E+01 -2.35351E+00
 +1.13602E+01 +6.65557E-01 +1.06530E+01 +3.56243E+00 +9.22876E+00 +6.13796E+00 +7.20563E+00 +8.22072E+00
 +4.74107E+00 +9.67859E+00 +2.01940E+00 +1.04271E+01 -7.61961E-01 +1.04343E+01 -3.40702E+00 +9.72137E+00
 -5.73515E+00 +8.35996E+00 -7.59359E+00 +6.46529E+00 -8.86748E+00 +4.18677E+00 -9.48703E+00 +1.69622E+00
 -9.43099E+00 -8.25152E-01 -8.72672E+00 -3.20001E+00 -7.44653E+00 -5.26753E+00 -5.70103E+00 -6.89433E+00
 -3.62982E+00 -7.98316E+00 -1.39044E+00 -8.47855E+00 +8.53667E-01 -8.36934E+00 +2.94510E+00 -7.68778E+00
 +4.74368E+00 -6.50555E+00 +6.13585E+00 -4.92703E+00 +7.04185E+00 -3.08044E+00 +7.42010E+00 -1.10756E+00
 +7.26855E+00 +8.47137E-01 +6.62318E+00 +2.64708E+00 +5.55367E+00 +4.17320E+00 +4.15675E+00 +5.33182E+00
 +2.54791E+00 +6.06033E+00 +8.52031E-01 +6.33023E+00 -8.06243E-01 +6.14763E+00 -2.31166E+00 +5.55100E+00
 -3.56640E+00 +4.60671E+00 -4.49635E+00 +3.40260E+00 -5.05539E+00 +2.04038E+00 -5.22724E+00 +6.27188E-01
 -5.02497E+00 -7.32653E-01 -4.48837E+00 -1.94534E+00 -3.67932E+00 -2.93402E+00 -2.67576E+00 -3.64359E+00
 -1.56475E+00 -4.04353E+00 -4.35244E-01 -4.12867E+00 +6.28913E-01 -3.91791E+00 +1.55513E+00 -3.45116E+00
 +2.28696E+00 -2.78477E+00 +2.78743E+00 -1.98593E+00 +3.04053E+00 -1.12660E+00 +3.05102E+00 -2.77320E-01
 +2.84240E+00 +4.98320E-01 +2.45363E+00 +1.14839E+00 +1.93464E+00 +1.63598E+00 +1.34128E+00 +1.94113E+00
 +7.30134E-01 +2.06113E+00 +1.53503E-01 +2.00935E+00 -3.44783E-01 +1.81273E+00 -7.32593E-01 +1.50826E+00
 -9.91445E-01 +1.13874E+00 -1.11709E+00 +7.48318E-01 -1.11873E+00 +3.78220E-01 -1.01706E+00 +6.29364E-02
 -8.41297E-01 -1.72660E-01 -6.25562E-01 -3.15134E-01 -4.04986E-01 -3.63091E-01 -2.11889E-01 -3.26545E-01
 -7.24177E-02 -2.25179E-01 -3.93442E-03 -8.56775E-02 -1.34011E-02 +6.15624E-02 -9.68799E-02 +1.86028E-01
 -2.40182E-01 +2.60619E-01 -4.20580E-01 +2.64782E-01 -6.09409E-01 +1.86921E-01 -7.75285E-01 +2.58884E-02
 -8.87629E-01 -2.08622E-01 -9.20158E-01 -4.96797E-01 -8.53983E-01 -8.10482E-01 -6.80033E-01 -1.11586E+00
 -4.00547E-01 -1.37678E+00 -2.94753E-02 -1.55840E+00 +4.08253E-01 -1.63085E+00 +8.78572E-01 -1.57255E+00
 +1.34106E+00 -1.37284E+00 +1.75247E+00 -1.03365E+00 +2.07061E+00 -5.70175E-01 +2.25834E+00 -1.01808E-02
 +2.28731E+00 +6.07714E-01 +2.14094E+00 +1.23690E+00 +1.81664E+00 +1.82643E+00 +1.32675E+00 +2.32523E+00
 +6.98340E-01 +2.68650E+00 -2.83768E-02 +2.87188E+00 -8.02730E-01 +2.85514E+00 -1.56731E+00 +2.62493E+00
 -2.26237E+00 +2.18642E+00 -2.83063E+00 +1.56159E+00 -3.22196E+00 +7.88236E-01 -3.39774E+00 -8.24576E-02
 -3.33441E+00 -9.89441E-01 -3.02587E+00 -1.86625E+00 -2.48461E+00 -2.64605E+00 -1.74142E+00 -3.26681E+00
 -8.43558E-01 -3.67633E+00 +1.48334E-01 -3.83657E+00 +1.16450E+00 -3.72698E+00 +2.13113E+00 -3.34666E+00
 +2.97591E+00 -2.71490E+00 +3.63350E+00 -1.87030E+00 +4.05069E+00 -8.68342E-01 +4.19070E+00 +2.22411E-01
 +4.03630E+00 +1.32514E+00 +3.59155E+00 +2.36034E+00 +2.88195E+00 +3.25172E+00 +1.95291E+00 +3.93191E+00
 +8.66816E-01 +4.34766E+00 -3.01334E-01 +4.46401E+00 -1.46923E+00 +4.26719E+00 -2.55323E+00 +3.76595E+00
 -3.47443E+00 +2.99126E+00 -4.16461E+00 +1.99437E+00 -4.57126E+00 +8.43251E-01 -4.66170E+00 -3.82079E-01
 -4.42563E+00 -1.59532E+00 -3.87612E+00 -2.71007E+00 -3.04892E+00 -3.64614E+00 -2.00003E+00 -4.33536E+00
 -8.01837E-01 -4.72671E+00 +4.62017E-01 -4.79005E+00 +1.70259E+00 -4.51850E+00 +2.83202E+00 -3.92902E+00
 +3.76987E+00 -3.06138E+00 +4.44895E+00 -1.97536E+00 +4.82017E+00 -7.46563E-01 +4.85617E+00 +5.38965E-01
 +4.55330E+00 +1.79088E+00 +3.93199E+00 +2.92097E+00 +3.03525E+00 +3.84951E+00 +1.92572E+00 +4.51092E+00
 +6.81124E-01 +4.85849E+00 -6.11211E-01 +4.86770E+00 -1.86060E+00 +4.53794E+00 -2.97947E+00 +3.89255E+00
 -3.88954E+00 +2.97714E+00 -4.52741E+00 +1.85627E+00 -4.84899E+00 +6.08842E-01 -4.83259E+00 -6.77512E-01
 -4.48039E+00 -1.91271E+00 -3.81816E+00 -3.01056E+00 -2.89339E+00 -3.89489E+00 -1.77180E+00 -4.50485E+00
 -5.32614E-01 -4.79913E+00 +7.37081E-01 -4.75881E+00 +1.94855E+00 -4.38851E+00 +3.01765E+00 -3.71599E+00
 +3.87073E+00 -2.78998E+00 +4.44978E+00 -1.67667E+00 +4.71633E+00 -4.54881E-01 +4.65406E+00 +7.89537E-01
 +4.26978E+00 +1.96980E+00 +3.59272E+00 +3.00429E+00 +2.67236E+00 +3.82223E+00 +1.57471E+00 +4.36855E+00
 +3.77618E-01 +4.60763E+00 -8.34857E-01 +4.52560E+00 -1.97834E+00 +4.13108E+00 -2.97408E+00 +3.45443E+00
 -3.75436E+00 +2.54533E+00 -4.26715E+00 +1.46919E+00 -4.47957E+00 +3.02351E-01 -4.37998E+00 -8.73296E-01
 -3.97857E+00 -1.97613E+00 -3.30639E+00 -2.93046E+00 -2.41300E+00 -3.67175E+00 -1.36276E+00 -4.15100E+00
 -2.30187E-01 -4.33794E+00 +9.05310E-01 -4.22295E+00 +1.96506E+00 -3.81750E+00 +2.87657E+00 -3.15307E+00
 +3.57851E+00 -2.27873E+00 +4.02480E+00 -1.25751E+00 +4.18765E+00 -1.61868E-01 +4.05930E+00 +9.31472E-01
 +3.65221E+00 +1.94691E+00 +2.99803E+00 +2.81517E+00 +2.14512E+00 +3.47808E+00 +1.15498E+00 +3.89241E+00
 +9.78315E-02 +4.03270E+00 -9.52390E-01 +3.89280E+00 -1.92318E+00 +3.48601E+00 -2.74850E+00 +2.84394E+00
 -3.37322E+00 +2.01407E+00 -3.75684E+00 +1.05622E+00 -3.87607E+00 +3.82775E-02 -3.72623E+00 -9.68632E-01
 -3.32128E+00 -1.89510E+00 -2.69266E+00 -2.67823E+00 -1.88682E+00 -3.26589E+00 -9.61843E-01 -3.62016E+00
 +1.67565E-02 -3.71978E+00 +9.80664E-01 -3.56139E+00 +1.86352E+00 -3.15951E+00 +2.60550E+00 -2.54527E+00
 +3.15734E+00 -1.76405E+00 +3.48360E+00 -8.72134E-01 +3.56494E+00 +6.73287E-02 +3.39922E+00 +9.88805E-01
 +3.00138E+00 +1.82893E+00 +2.40221E+00 +2.53086E+00 +1.64596E+00 +3.04811E+00 +7.87119E-01 +3.34763E+00
 -1.13532E-01 +3.41189E+00 -9.93197E-01 +3.23988E+00 -1.79144E+00 +2.84692E+00 -2.45434E+00 +2.26340E+00
 -2.93812E+00 +1.53242E+00 -3.21203E+00 +7.06660E-01 -3.26028E+00 -1.55442E-01 -3.08294E+00 -9.93798E-01
 -2.69565E+00 -1.75086E+00 -2.12838E+00 -2.37558E+00 -1.42305E+00 -2.82682E+00 -6.30527E-01 -3.07609E+00
 +1.93083E-01 -3.10930E+00 +9.90388E-01 -2.92754E+00 +1.70671E+00 -2.54676E+00 +2.29384E+00 -1.99645E+00
 +2.71327E+00 -1.31734E+00 +2.93873E+00 -5.58474E-01 +2.95779E+00 +2.26402E-01 +2.77256E+00 +9.82600E-01
 +2.39924E+00 +1.65832E+00 +1.86679E+00 +2.20819E+00 +1.21476E+00 +2.59633E+00 +4.90287E-01 +2.79869E+00
 -2.55266E-01 +2.80449E+00 -9.69957E-01 +2.61680E+00 -1.60489E+00 +2.25203E+00 -2.11759E+00 +1.73863E+00
 -2.47480E+00 +1.11483E+00 -2.65469E+00 +4.25827E-01 -2.64812E+00 -2.79465E-01 -2.45909E+00 -9.51922E-01
 -2.10421E+00 -1.54563E+00 -1.61128E+00 -2.02103E+00 -1.01717E+00 -2.34754E+00 -3.65053E-01 -2.50557E+00
 +2.98731E-01 -2.48759E+00 +9.27962E-01 -2.29852E+00 +1.47978E+00 -1.95505E+00 +1.91763E+00 -1.48428E+00
 +2.21363E+00 -9.21598E-01 +2.35043E+00 -3.08026E-01 +2.32212E+00 +3.12770E-01 +2.13444E+00 +8.97600E-01
 +1.80411E+00 +1.40676E+00 +1.35740E+00 +1.80675E+00 +8.28091E-01 +2.07246E+00 +2.54910E-01 +2.18876E+00
 -3.21297E-01 +2.15132E+00 -8.60488E-01 +1.96664E+00 -1.32622E+00 +1.65133E+00 -1.68811E+00 +1.23073E+00
 -1.92385E+00 +7.36840E-01 -2.02052E+00 +2.05944E-01 -1.97529E+00 -3.24078E-01 -1.79534E+00 -8.16458E-01
 -1.49706E+00 -1.23810E+00 -1.10466E+00 -1.56182E+00 -6.48221E-01 -1.76808E+00 -1.61422E-01 -1.84616E+00
 +3.20972E-01 -1.79465E+00 +7.65582E-01 -1.62127E+00 +1.14274E+00 -1.34204E+00 +1.42847E+00 -9.79875E-01
 +1.60601E+00 -5.62779E-01 +1.66675E+00 -1.21651E-01 +1.61060E+00 +3.11978E-01 +1.44566E+00 +7.08213E-01
 +1.18743E+00 +1.04086E+00 +8.57360E-01 +1.28915E+00 +4.81192E-01 +1.43903E+00 +8.69192E-02 +1.48391E+00
 -2.97274E-01 +1.42486E+00 -6.45030E-01 +1.27023E+00 -9.33632E-01 +1.03477E+00 -1.14547E+00 +7.38330E-01
 -1.26911E+00 +4.04231E-01 -1.29984E+00 +5.74454E-02 -1.23971E+00 -2.77252E-01 -1.09712E+00 -5.77057E-01
 -8.85928E-01 -8.22682E-01 -6.24197E-01 -9.99581E-01 -3.32709E-01 -1.09878E+00 -3.33439E-02 -1.11726E+00
 +2.52553E-01 -1.05787E+00 +5.05681E-01 -9.28872E-01 +7.10079E-01 -7.43036E-01 +8.54103E-01 -5.16502E-01
 +9.31048E-01 -2.67431E-01 +9.39365E-01 -1.45832E-02 +8.82494E-01 +2.24078E-01 +7.68335E-01 +4.32645E-01
 +6.08419E-01 +5.98310E-01 +4.16852E-01 +7.12114E-01 +2.09137E-01 +7.69370E-01 +9.52780E-04 +7.69750E-01
 -1.93004E-01 +7.17033E-01 -3.60035E-01 +6.18567E-01 -4.90241E-01 +4.84499E-01 -5.77064E-01 +3.26839E-01
 -6.17541E-01 +1.58450E-01 -6.12275E-01 -7.96351E-03 -5.65135E-01 -1.60779E-01 -4.82727E-01 -2.90240E-01
 -3.73706E-01 -3.89042E-01 -2.47968E-01 -4.52683E-01 -1.15825E-01 -4.79582E-01 +1.28043E-02 -4.70959E-01
 +1.29098E-01 -4.30519E-01 +2.25898E-01 -3.63956E-01 +2.98104E-01 -2.78363E-01 +3.42868E-01 -1.81574E-01
 +3.59607E-01 -8.15065E-02 +3.49830E-01 +1.44367E-02 +3.16827E-01 +9.98742E-02 +2.65242E-01 +1.69823E-01
 +2.00590E-01 +2.20929E-01 +1.28750E-01 +2.51546E-01 +5.54910E-02 +2.61672E-01 -1.39498E-02 +2.52770E-01
 -7.51888E-02 +2.27481E-01 -1.24918E-01 +1.89296E-01 -1.61012E-01 +1.42192E-01 -1.82529E-01 +9.02824E-02
 -1.89617E-01 +3.75035E-02 -1.83351E-01 -1.26341E-02 -1.65524E-01 -5.72253E-02 -1.38416E-01 -9.40706E-02
 -1.04570E-01 -1.21704E-01 -6.65906E-02 -1.39361E-01 -2.69860E-02 -1.46895E-01 +1.19482E-02 -1.44678E-01
 +4.81945E-02 -1.33481E-01 +8.00397E-02 -1.14372E-01 +1.06071E-01 -8.86310E-02 +1.25156E-01 -5.76891E-02
 +1.36419E-01 -2.30999E-02 +1.39233E-01 +1.34719E-02 +1.33223E-01 +5.02484E-02 +1.18303E-01 +8.53390E-02
 +9.47283E-02 +1.16755E-01 +6.31617E-02 +1.42451E-01 +2.47449E-02 +1.60406E-01 -1.88481E-02 +1.68737E-01
