 Created: 19-Jan-2021
 $NMID
 ID='D:\BASISSIMULATI'
 FMTDAT='(8E13.5)'
 VOLUME=   1.00000E+00
 TRAMP=   1.00000E+00
 $END
 +1.88080E+01 +2.05427E-02 +1.63044E+01 +8.30624E+00 +9.67730E+00 +1.35293E+01 +1.65691E+00 +1.38780E+01
 -4.51139E+00 +9.60943E+00 -6.45562E+00 +2.91665E+00 -3.68170E+00 -3.03325E+00 +2.23537E+00 -5.47307E+00
 +8.35179E+00 -3.22862E+00 +1.16411E+01 +2.78123E+00 +1.03102E+01 +9.94929E+00 +4.57860E+00 +1.51115E+01
 -3.41141E+00 +1.59151E+01 -1.05124E+01 +1.18352E+01 -1.39188E+01 +4.40211E+00 -1.23635E+01 -3.45214E+00
 -6.65061E+00 -8.64616E+00 +7.01045E-01 -9.25881E+00 +6.54592E+00 -5.33433E+00 +8.46074E+00 +1.15996E+00
 +5.77359E+00 +7.20024E+00 -1.66832E-01 +1.00199E+01 -6.59307E+00 +8.30373E+00 -1.05280E+01 +2.74895E+00
 -1.00781E+01 -4.24319E+00 -5.25441E+00 -9.60954E+00 +2.02986E+00 -1.09485E+01 +8.77955E+00 -7.55503E+00
 +1.22001E+01 -7.23266E-01 +1.08889E+01 +6.80844E+00 +5.42536E+00 +1.20288E+01 -1.89117E+00 +1.29344E+01
 -8.03682E+00 +9.37057E+00 -1.05613E+01 +3.07362E+00 -8.62912E+00 -3.09696E+00 -3.35917E+00 -6.40270E+00
 +2.67885E+00 -5.40833E+00 +6.58903E+00 -5.94927E-01 +6.40784E+00 +5.85631E+00 +1.95497E+00 +1.10116E+01
 -5.08704E+00 +1.24525E+01 -1.18944E+01 +9.31671E+00 -1.57105E+01 +2.66805E+00 -1.50198E+01 -4.96183E+00
 -1.01845E+01 -1.06563E+01 -3.27292E+00 -1.23539E+01 +2.83878E+00 -9.71282E+00 +5.70347E+00 -4.23236E+00
 +4.34427E+00 +1.41614E+00 -3.44662E-01 +4.55481E+00 -6.00514E+00 +3.65776E+00 -9.84913E+00 -9.95061E-01
 -9.87131E+00 -7.44621E+00 -5.71789E+00 -1.29108E+01 +1.15942E+00 -1.49782E+01 +8.12556E+00 -1.26480E+01
 +1.24888E+01 -6.75535E+00 +1.26451E+01 +3.90837E-01 +8.74973E+00 +5.99806E+00 +2.63225E+00 +7.97858E+00
 -3.00372E+00 +5.82598E+00 -5.74627E+00 +8.06699E-01 -4.50431E+00 -4.60987E+00 +4.05417E-02 -7.83177E+00
 +5.74807E+00 -7.26742E+00 +9.95871E+00 -3.00876E+00 +1.06495E+01 +3.21535E+00 +7.30865E+00 +8.78982E+00
 +1.15603E+00 +1.13407E+01 -5.38140E+00 +9.75313E+00 -9.70774E+00 +4.64320E+00 -1.01617E+01 -1.91290E+00
 -6.71227E+00 -7.27193E+00 -9.51706E-01 -9.35045E+00 +4.60446E+00 -7.50103E+00 +7.60466E+00 -2.76499E+00
 +6.86603E+00 +2.60083E+00 +2.86686E+00 +6.11337E+00 -2.47954E+00 +6.13970E+00 -6.66599E+00 +2.59786E+00
 -7.68132E+00 -3.01520E+00 -4.87907E+00 -8.27499E+00 +7.45732E-01 -1.08749E+01 +6.98560E+00 -9.61449E+00
 +1.13657E+01 -4.90682E+00 +1.21956E+01 +1.40699E+00 +9.27692E+00 +6.85167E+00 +3.96683E+00 +9.37372E+00
 -1.42274E+00 +8.20534E+00 -4.62656E+00 +4.16858E+00 -4.39522E+00 -7.04462E-01 -1.01704E+00 -4.06570E+00
 +3.82606E+00 -4.27060E+00 +7.80037E+00 -1.08502E+00 +8.93570E+00 +4.22094E+00 +6.47617E+00 +9.42630E+00
 +1.20339E+00 +1.23165E+01 -4.90164E+00 +1.16306E+01 -9.50658E+00 +7.59321E+00 -1.09181E+01 +1.80721E+00
 -8.78955E+00 -3.43979E+00 -4.24630E+00 -6.15277E+00 +6.18011E-01 -5.46942E+00 +3.65194E+00 -2.00530E+00
 +3.56896E+00 +2.43781E+00 +4.87366E-01 +5.66786E+00 -4.13949E+00 +6.05626E+00 -8.16568E+00 +3.23861E+00
 -9.68625E+00 -1.73471E+00 -7.85873E+00 -6.85686E+00 -3.26192E+00 -1.00289E+01 +2.35659E+00 -9.95599E+00
 +6.82972E+00 -6.69157E+00 +8.49109E+00 -1.60129E+00 +6.87111E+00 +3.23177E+00 +2.87422E+00 +5.89929E+00
 -1.63170E+00 +5.47276E+00 -4.63093E+00 +2.37843E+00 -4.82618E+00 -1.81241E+00 -2.18482E+00 -5.08028E+00
 +2.06492E+00 -5.83708E+00 +5.97865E+00 -3.60944E+00 +7.74192E+00 +7.64121E-01 +6.45164E+00 +5.50079E+00
 +2.49940E+00 +8.64172E+00 -2.60247E+00 +8.88761E+00 -6.87090E+00 +6.14392E+00 -8.69462E+00 +1.54638E+00
 -7.50712E+00 -3.03708E+00 -4.00523E+00 -5.80821E+00 +1.73289E-01 -5.79788E+00 +3.16779E+00 -3.25951E+00
 +3.69587E+00 +4.66024E-01 +1.59422E+00 +3.54837E+00 -2.12821E+00 +4.46637E+00 -5.74042E+00 +2.66285E+00
 -7.54343E+00 -1.22222E+00 -6.60157E+00 -5.63429E+00 -3.13881E+00 -8.77458E+00 +1.56442E+00 -9.36666E+00
 +5.72296E+00 -7.19082E+00 +7.80539E+00 -3.16188E+00 +7.17300E+00 +1.07592E+00 +4.32902E+00 +3.85680E+00
 +6.78090E-01 +4.19766E+00 -2.09325E+00 +2.19865E+00 -2.74474E+00 -1.02565E+00 -1.00673E+00 -3.84723E+00
 +2.31988E+00 -4.83683E+00 +5.72369E+00 -3.37972E+00 +7.64190E+00 +6.63533E-02 +7.13222E+00 +4.17536E+00
 +4.27089E+00 +7.32512E+00 +1.11468E-01 +8.28762E+00 -3.77103E+00 +6.74163E+00 -5.94977E+00 +3.39246E+00
 -5.74099E+00 -3.45377E-01 -3.47257E+00 -2.95979E+00 -3.18066E-01 -3.48162E+00 +2.22503E+00 -1.88085E+00
 +2.98389E+00 +9.45255E-01 +1.60715E+00 +3.57940E+00 -1.29877E+00 +4.70581E+00 -4.44542E+00 +3.67711E+00
 -6.42474E+00 +7.86161E-01 -6.31373E+00 -2.86783E+00 -4.06290E+00 -5.85443E+00 -5.07409E-01 -7.02012E+00
 +2.99695E+00 -5.96855E+00 +5.15105E+00 -3.21134E+00 +5.25383E+00 +6.77870E-02 +3.47891E+00 +2.52773E+00
 +7.74652E-01 +3.23907E+00 -1.56164E+00 +2.06492E+00 -2.44741E+00 -3.03947E-01 -1.47405E+00 -2.66708E+00
 +9.31448E-01 -3.84252E+00 +3.70454E+00 -3.17611E+00 +5.60912E+00 -8.15843E-01 +5.76776E+00 +2.36041E+00
 +4.02978E+00 +5.12565E+00 +1.02444E+00 +6.42508E+00 -2.11629E+00 +5.81384E+00 -4.24059E+00 +3.62804E+00
 -4.65634E+00 +8.22811E-01 -3.40454E+00 -1.44592E+00 -1.21644E+00 -2.31288E+00 +8.19727E-01 -1.55835E+00
 +1.73371E+00 +3.20099E-01 +1.08522E+00 +2.34213E+00 -8.59894E-01 +3.47814E+00 -3.25806E+00 +3.09311E+00
 -5.05872E+00 +1.21248E+00 -5.45451E+00 -1.49794E+00 -4.21849E+00 -4.02236E+00 -1.78894E+00 -5.42605E+00
 +9.27399E-01 -5.24176E+00 +2.94322E+00 -3.64979E+00 +3.60100E+00 -1.38176E+00 +2.83260E+00 +6.03395E-01
 +1.16341E+00 +1.52819E+00 -5.32967E-01 +1.11552E+00 -1.41844E+00 -3.13709E-01 -1.04672E+00 -1.99855E+00
 +4.57141E-01 -3.07699E+00 +2.46411E+00 -2.95766E+00 +4.11945E+00 -1.56662E+00 +4.70847E+00 +6.30562E-01
 +3.95330E+00 +2.83403E+00 +2.11852E+00 +4.24877E+00 -1.12677E-01 +4.41142E+00 -1.93219E+00 +3.36848E+00
 -2.74217E+00 +1.63665E+00 -2.39025E+00 -3.04549E-02 -1.21042E+00 -9.64708E-01 +1.40177E-01 -8.57142E-01
 +9.72687E-01 +1.29417E-01 +8.59478E-01 +1.44957E+00 -1.93613E-01 +2.42137E+00 -1.76303E+00 +2.52041E+00
 -3.19744E+00 +1.59756E+00 -3.89597E+00 -6.74030E-02 -3.55577E+00 -1.89216E+00 -2.28744E+00 -3.23858E+00
 -5.55889E-01 -3.67294E+00 +1.02136E+00 -3.13155E+00 +1.92930E+00 -1.92789E+00 +1.95656E+00 -6.05389E-01
 +1.26239E+00 +2.96257E-01 +2.88664E-01 +4.61234E-01 -4.39511E-01 -8.55344E-02 -5.37084E-01 -1.00757E+00
 +8.64351E-02 -1.81277E+00 +1.20110E+00 -2.06576E+00 +2.36329E+00 -1.56710E+00 +3.10490E+00 -4.27900E-01
 +3.12369E+00 +9.85097E-01 +2.39783E+00 +2.20477E+00 +1.18250E+00 +2.85132E+00 -1.03440E-01 +2.77531E+00
 -1.04898E+00 +2.10126E+00 -1.40899E+00 +1.16078E+00 -1.18671E+00 +3.48339E-01 -6.13016E-01 -3.79532E-02
 -3.74130E-02 +9.31010E-02 +2.20400E-01 +6.04306E-01 -2.55375E-03 +1.20002E+00 -6.55293E-01 +1.55400E+00
 -1.50290E+00 +1.44147E+00 -2.22625E+00 +8.24072E-01 -2.54852E+00 -1.41778E-01 -2.33839E+00 -1.17105E+00
 -1.65272E+00 -1.96075E+00 -7.06835E-01 -2.30066E+00 +2.11339E-01 -2.14314E+00 +8.48074E-01 -1.60949E+00
 +1.07117E+00 -9.34813E-01 +9.07880E-01 -3.75880E-01 +5.23269E-01 -1.17079E-01 +1.50579E-01 -2.08094E-01
 +1.02853E-03 -5.53207E-01 +1.85707E-01 -9.53155E-01 +6.76176E-01 -1.18250E+00 +1.31593E+00 -1.07438E+00
 +1.87732E+00 -5.83111E-01 +2.14354E+00 +1.96419E-01 +1.98724E+00 +1.05907E+00 +1.41861E+00 +1.75909E+00
 +5.85881E-01 +2.09560E+00 -2.73090E-01 +1.98426E+00 -9.12643E-01 +1.48961E+00 -1.16661E+00 +8.04836E-01
 -1.00983E+00 +1.83924E-01 -5.69892E-01 -1.51358E-01 -8.19962E-02 -9.64089E-02 +1.99555E-01 +2.91975E-01
 +1.01975E-01 +8.11722E-01 -3.91582E-01 +1.18980E+00 -1.12500E+00 +1.18959E+00 -1.82060E+00 +7.11012E-01
 -2.18341E+00 -1.57484E-01 -2.02012E+00 -1.15960E+00 -1.32545E+00 -1.96179E+00 -2.97960E-01 -2.28187E+00
 +7.26171E-01 -2.00549E+00 +1.40015E+00 -1.24173E+00 +1.50580E+00 -2.90236E-01 +1.04804E+00 +4.72082E-01
 +2.62086E-01 +7.42961E-01 -4.75067E-01 +4.23865E-01 -7.97655E-01 -3.29466E-01 -5.07784E-01 -1.16120E+00
 +3.30484E-01 -1.65762E+00 +1.40337E+00 -1.52208E+00 +2.26695E+00 -7.09977E-01 +2.52924E+00 +5.36116E-01
 +2.02040E+00 +1.77201E+00 +8.77722E-01 +2.52815E+00 -4.95717E-01 +2.50608E+00 -1.58762E+00 +1.71210E+00
 -1.98710E+00 +4.67695E-01 -1.56175E+00 -7.13940E-01 -5.23616E-01 -1.33851E+00 +6.49458E-01 -1.14211E+00
 +1.40973E+00 -2.12612E-01 +1.37368E+00 +1.03527E+00 +4.94895E-01 +2.02690E+00 -9.01283E-01 +2.27065E+00
 -2.24241E+00 +1.57515E+00 -2.94557E+00 +1.46005E-01 -2.66837E+00 -1.48496E+00 -1.46653E+00 -2.67392E+00
 +2.13766E-01 -2.93612E+00 +1.71194E+00 -2.15877E+00 +2.42765E+00 -6.61760E-01 +2.07919E+00 +9.25678E-01
 +8.33341E-01 +1.92566E+00 -7.53869E-01 +1.90179E+00 -1.96627E+00 +8.54284E-01 -2.23316E+00 -7.67397E-01
 -1.38165E+00 -2.24596E+00 +2.75349E-01 -2.89949E+00 +2.05867E+00 -2.37898E+00 +3.20508E+00 -8.31200E-01
 +3.19471E+00 +1.14791E+00 +1.98351E+00 +2.75567E+00 +3.71466E-02 +3.32185E+00 -1.85438E+00 +2.60067E+00
 -2.90737E+00 +8.87898E-01 -2.68148E+00 -1.09268E+00 -1.27746E+00 -2.49060E+00 +6.93734E-01 -2.69273E+00
 +2.36336E+00 -1.59377E+00 +2.97512E+00 +3.46024E-01 +2.21615E+00 +2.28677E+00 +3.64039E-01 +3.36394E+00
 -1.81815E+00 +3.06300E+00 -3.39999E+00 +1.45189E+00 -3.68222E+00 -8.33081E-01 -2.50508E+00 -2.84770E+00
 -3.30575E-01 -3.73994E+00 +1.94214E+00 -3.11960E+00 +3.35473E+00 -1.23678E+00 +3.30166E+00 +1.11247E+00
 +1.79860E+00 +2.91865E+00 -5.12090E-01 +3.39067E+00 -2.62697E+00 +2.30228E+00 -3.60883E+00 +1.01138E-01
 -2.99418E+00 -2.27161E+00 -1.00385E+00 -3.77923E+00 +1.53850E+00 -3.73684E+00 +3.55062E+00 -2.11548E+00
 +4.15490E+00 +4.31645E-01 +3.06224E+00 +2.83781E+00 +7.08789E-01 +4.07571E+00 -1.91859E+00 +3.60205E+00
 -3.69829E+00 +1.60127E+00 -3.85609E+00 -1.08109E+00 -2.30566E+00 -3.29219E+00 +3.02365E-01 -4.06487E+00
 +2.84928E+00 -3.03904E+00 +4.22442E+00 -6.27587E-01 +3.80593E+00 +2.14932E+00 +1.73811E+00 +4.09561E+00
 -1.11826E+00 +4.35414E+00 -3.54647E+00 +2.78327E+00 -4.49458E+00 +3.01255E-02 -3.53332E+00 -2.73649E+00
 -1.05193E+00 -4.32324E+00 +1.89702E+00 -4.02807E+00 +4.04234E+00 -1.95161E+00 +4.44046E+00 +1.03375E+00
 +2.88840E+00 +3.64923E+00 +2.26662E-02 +4.75619E+00 -2.94345E+00 +3.85034E+00 -4.73586E+00 +1.28876E+00
