 Created: 19-Jan-2021
 $NMID
 ID='D:\BASISSIMULATI'
 FMTDAT='(8E13.5)'
 VOLUME=   1.00000E+00
 TRAMP=   1.00000E+00
 $END
 +2.82014E+01 +3.44088E-02 +2.50991E+01 -7.85708E+00 +1.68801E+01 -1.28551E+01 +5.91715E+00 -1.30427E+01
 -4.70407E+00 -8.04189E+00 -1.21263E+01 +8.74106E-01 -1.45719E+01 +1.11859E+01 -1.18417E+01 +1.99160E+01
 -5.31269E+00 +2.45457E+01 +2.54795E+00 +2.37721E+01 +8.98907E+00 +1.78749E+01 +1.18383E+01 +8.58867E+00
 +1.01517E+01 -1.46106E+00 +4.45662E+00 -9.56963E+00 -3.47124E+00 -1.37520E+01 -1.12053E+01 -1.32840E+01
 -1.64381E+01 -8.83391E+00 -1.76764E+01 -2.16648E+00 -1.46513E+01 +4.46378E+00 -8.33465E+00 +9.02374E+00
 -5.80771E-01 +1.02926E+01 +6.47096E+00 +8.16011E+00 +1.10338E+01 +3.56414E+00 +1.21549E+01 -1.88450E+00
 +9.90886E+00 -6.44711E+00 +5.27061E+00 -8.79051E+00 -2.60629E-01 -8.34695E+00 -5.14757E+00 -5.40863E+00
 -8.25207E+00 -9.56986E-01 -9.09809E+00 +3.69120E+00 -7.90454E+00 +7.29166E+00 -5.41076E+00 +9.00522E+00
 -2.57876E+00 +8.56676E+00 -2.81981E-01 +6.26624E+00 +9.22907E-01 +2.77956E+00 +8.88167E-01 -1.07220E+00
 -1.68940E-01 -4.54946E+00 -1.80200E+00 -7.14310E+00 -3.49889E+00 -8.62214E+00 -4.81505E+00 -8.99643E+00
 -5.44527E+00 -8.43552E+00 -5.23488E+00 -7.18833E+00 -4.15548E+00 -5.53151E+00 -2.27734E+00 -3.75003E+00
 +2.40410E-01 -2.13184E+00 +3.14117E+00 -9.51309E-01 +6.06340E+00 -4.25408E-01 +8.56122E+00 -6.46769E-01
 +1.01715E+01 -1.51922E+00 +1.05239E+01 -2.73187E+00 +9.46513E+00 -3.80117E+00 +7.15079E+00 -4.18748E+00
 +4.05985E+00 -3.46118E+00 +9.07468E-01 -1.46715E+00 -1.53352E+00 +1.57326E+00 -2.65549E+00 +5.07064E+00
 -2.21325E+00 +8.20015E+00 -4.25604E-01 +1.01293E+01 +2.06289E+00 +1.02748E+01 +4.35975E+00 +8.50456E+00
 +5.59406E+00 +5.21412E+00 +5.19507E+00 +1.24196E+00 +3.08903E+00 -2.35877E+00 -2.53890E-01 -4.62621E+00
 -3.94439E+00 -4.97894E+00 -6.93645E+00 -3.39574E+00 -8.34725E+00 -4.26032E-01 -7.73392E+00 +2.97531E+00
 -5.23849E+00 +5.73885E+00 -1.55387E+00 +7.00647E+00 +2.27938E+00 +6.39032E+00 +5.18203E+00 +4.08443E+00
 +6.35464E+00 +7.95999E-01 +5.50701E+00 -2.47938E+00 +2.93055E+00 -4.76571E+00 -6.04750E-01 -5.40108E+00
 -4.09169E+00 -4.22865E+00 -6.58747E+00 -1.62982E+00 -7.48250E+00 +1.60434E+00 -6.65750E+00 +4.51758E+00
 -4.48850E+00 +6.27013E+00 -1.70741E+00 +6.37222E+00 +8.31401E-01 +4.80402E+00 +2.40363E+00 +1.99477E+00
 +2.61218E+00 -1.32255E+00 +1.47678E+00 -4.32971E+00 -6.00022E-01 -6.34737E+00 -2.96974E+00 -7.00212E+00
 -4.93010E+00 -6.29668E+00 -5.91483E+00 -4.57463E+00 -5.63111E+00 -2.40084E+00 -4.11502E+00 -3.98187E-01
 -1.70053E+00 +9.13158E-01 +1.08016E+00 +1.23496E+00 +3.63343E+00 +5.45884E-01 +5.44325E+00 -9.12489E-01
 +6.18226E+00 -2.70769E+00 +5.77509E+00 -4.32562E+00 +4.40548E+00 -5.29220E+00 +2.46901E+00 -5.28334E+00
 +4.81838E-01 -4.20234E+00 -1.03718E+00 -2.20950E+00 -1.68882E+00 +3.04491E-01 -1.29447E+00 +2.79978E+00
 +4.89398E-02 +4.71072E+00 +1.97839E+00 +5.58653E+00 +3.94419E+00 +5.21601E+00 +5.34702E+00 +3.70117E+00
 +5.70234E+00 +1.45290E+00 +4.78843E+00 -9.00158E-01 +2.73298E+00 -2.67352E+00 +5.01374E-03 -3.32002E+00
 -2.69603E+00 -2.59924E+00 -4.63084E+00 -6.69130E-01 -5.23933E+00 +1.93623E+00 -4.32236E+00 +4.44606E+00
 -2.12565E+00 +6.07577E+00 +7.08716E-01 +6.26936E+00 +3.31799E+00 +4.88575E+00 +4.87454E+00 +2.26547E+00
 +4.84521E+00 -8.51511E-01 +3.17123E+00 -3.53935E+00 +3.06380E-01 -4.97010E+00 -2.90648E+00 -4.67959E+00
 -5.48822E+00 -2.72858E+00 -6.62970E+00 +2.97684E-01 -5.95442E+00 +3.45821E+00 -3.65089E+00 +5.74494E+00
 -4.27066E-01 +6.40195E+00 +2.70367E+00 +5.17245E+00 +4.74037E+00 +2.39137E+00 +5.01545E+00 -1.11052E+00
 +3.41453E+00 -4.26412E+00 +4.21547E-01 -6.10074E+00 -3.02847E+00 -6.06329E+00 -5.84417E+00 -4.18861E+00
 -7.12606E+00 -1.09982E+00 -6.45570E+00 +2.19049E+00 -4.03134E+00 +4.60397E+00 -6.05255E-01 +5.34261E+00
 +2.75767E+00 +4.14501E+00 +5.02187E+00 +1.36956E+00 +5.51257E+00 -2.12226E+00 +4.12940E+00 -5.24388E+00
 +1.37353E+00 -7.03226E+00 -1.81914E+00 -6.95357E+00 -4.38295E+00 -5.06765E+00 -5.46538E+00 -1.99959E+00
 -4.69682E+00 +1.26950E+00 -2.30111E+00 +3.72224E+00 +9.85960E-01 +4.63016E+00 +4.16007E+00 +3.77919E+00
 +6.27207E+00 +1.52514E+00 +6.72589E+00 -1.33463E+00 +5.45589E+00 -3.82759E+00 +2.93012E+00 -5.12082E+00
 -1.60901E-02 -4.78207E+00 -2.45735E+00 -2.90503E+00 -3.67363E+00 -6.34346E-02 -3.36884E+00 +2.88523E+00
 -1.74578E+00 +5.07800E+00 +5.80515E-01 +5.91491E+00 +2.79628E+00 +5.23276E+00 +4.15569E+00 +3.33367E+00
 +4.21339E+00 +8.66363E-01 +2.95077E+00 -1.39443E+00 +7.61660E-01 -2.79522E+00 -1.69034E+00 -2.99807E+00
 -3.69060E+00 -2.06392E+00 -4.69482E+00 -4.05664E-01 -4.48362E+00 +1.36564E+00 -3.20646E+00 +2.64577E+00
 -1.30928E+00 +3.02555E+00 +6.23037E-01 +2.40455E+00 +2.05353E+00 +1.00039E+00 +2.64908E+00 -7.40856E-01
 +2.35979E+00 -2.29724E+00 +1.40444E+00 -3.23362E+00 +1.75474E-01 -3.32356E+00 -8.98982E-01 -2.59695E+00
 -1.48905E+00 -1.30630E+00 -1.45225E+00 +1.69132E-01 -8.55532E-01 +1.44534E+00 +6.84563E-02 +2.24172E+00
 +1.00949E+00 +2.44466E+00 +1.67973E+00 +2.11369E+00 +1.89383E+00 +1.43686E+00 +1.60813E+00 +6.56466E-01
 +9.13729E-01 -7.67313E-03 -6.85334E-03 -4.14386E-01 -9.40265E-01 -5.23906E-01 -1.69942E+00 -3.87386E-01
 -2.16171E+00 -1.13500E-01 -2.28223E+00 +1.72693E-01 -2.08512E+00 +3.64779E-01 -1.64209E+00 +3.95752E-01
 -1.04826E+00 +2.43459E-01 -4.02801E-01 -7.48790E-02 +2.03340E-01 -5.12600E-01 +6.94424E-01 -1.00296E+00
 +1.01530E+00 -1.46637E+00 +1.13784E+00 -1.81729E+00 +1.06791E+00 -1.97400E+00 +8.49549E-01 -1.87302E+00
 +5.61448E-01 -1.48687E+00 +3.02571E-01 -8.39935E-01 +1.67688E-01 -1.54655E-02 +2.18313E-01 +8.52247E-01
 +4.58179E-01 +1.60244E+00 +8.22836E-01 +2.08513E+00 +1.18969E+00 +2.20150E+00 +1.40865E+00 +1.93508E+00
 +1.34622E+00 +1.36255E+00 +9.30610E-01 +6.38422E-01 +1.83254E-01 -4.44455E-02 -7.74760E-01 -5.08325E-01
 -1.74586E+00 -6.42893E-01 -2.50439E+00 -4.40168E-01 -2.85753E+00 -4.33273E-04 -2.70149E+00 +4.94319E-01
 -2.05580E+00 +8.33130E-01 -1.06454E+00 +8.40429E-01 +3.77369E-02 +4.33289E-01 +9.87136E-01 -3.45909E-01
 +1.56219E+00 -1.33234E+00 +1.64614E+00 -2.27812E+00 +1.26145E+00 -2.91852E+00 +5.65771E-01 -3.04732E+00
 -1.91057E-01 -2.57977E+00 -7.38047E-01 -1.58471E+00 -8.62960E-01 -2.74855E-01 -4.78386E-01 +1.04407E+00
 +3.45674E-01 +2.05313E+00 +1.39384E+00 +2.50773E+00 +2.36088E+00 +2.30851E+00 +2.93704E+00 +1.53449E+00
 +2.90007E+00 +4.26863E-01 +2.18756E+00 -6.74392E-01 +9.26976E-01 -1.42555E+00 -5.87959E-01 -1.57986E+00
 -1.97140E+00 -1.06477E+00 -2.85134E+00 -1.16395E-02 -2.97835E+00 +1.27395E+00 -2.30490E+00 +2.39570E+00
 -1.00987E+00 +2.98243E+00 +5.42625E-01 +2.80302E+00 +1.90169E+00 +1.84571E+00 +2.65931E+00 +3.35284E-01
 +2.57379E+00 -1.32092E+00 +1.64904E+00 -2.64596E+00 +1.43313E-01 -3.23410E+00 -1.49916E+00 -2.87775E+00
 -2.77657E+00 -1.64071E+00 -3.28121E+00 +1.47812E-01 -2.82885E+00 +1.98060E+00 -1.52436E+00 +3.31832E+00
 +2.59377E-01 +3.75140E+00 +1.98662E+00 +3.12858E+00 +3.11843E+00 +1.61085E+00 +3.27924E+00 -3.68633E-01
 +2.37853E+00 -2.22952E+00 +6.47954E-01 -3.41794E+00 -1.42010E+00 -3.57628E+00 -3.21648E+00 -2.65614E+00
 -4.19877E+00 -9.37919E-01 -4.05822E+00 +1.05085E+00 -2.81777E+00 +2.69477E+00 -8.29504E-01 +3.47899E+00
 +1.32896E+00 +3.14826E+00 +3.02800E+00 +1.78701E+00 +3.77618E+00 -2.05145E-01 +3.36823E+00 -2.23507E+00
 +1.94517E+00 -3.69724E+00 -5.14995E-02 -4.15802E+00 -2.01662E+00 -3.48599E+00 -3.36583E+00 -1.88879E+00
 -3.71036E+00 +1.53769E-01 -2.96859E+00 +2.03784E+00 -1.38191E+00 +3.21793E+00 +5.67425E-01 +3.36693E+00
 +2.30801E+00 +2.46603E+00 +3.35204E+00 +7.99547E-01 +3.43579E+00 -1.13960E+00 +2.58696E+00 -2.80149E+00
 +1.10234E+00 -3.73947E+00 -5.52484E-01 -3.73104E+00 -1.88657E+00 -2.82612E+00 -2.52512E+00 -1.31383E+00
 -2.30756E+00 +3.76157E-01 -1.31744E+00 +1.80334E+00 +1.58293E-01 +2.63697E+00 +1.72202E+00 +2.73414E+00
 +2.97851E+00 +2.15837E+00 +3.63491E+00 +1.14079E+00 +3.56243E+00 +2.39981E-03 +2.80937E+00 -9.36224E-01
 +1.57001E+00 -1.43247E+00 +1.24983E-01 -1.36957E+00 -1.22748E+00 -7.69317E-01 -2.23279E+00 +2.25808E-01
 -2.72363E+00 +1.39069E+00 -2.64290E+00 +2.46488E+00 -2.04761E+00 +3.20084E+00 -1.09651E+00 +3.40820E+00
 -2.30913E-02 +2.99105E+00 +9.05244E-01 +1.97414E+00 +1.43981E+00 +5.12150E-01 +1.40915E+00 -1.12539E+00
 +7.71528E-01 -2.59814E+00 -3.54334E-01 -3.56591E+00 -1.69575E+00 -3.77458E+00 -2.87778E+00 -3.13553E+00
 -3.51529E+00 -1.77273E+00 -3.32509E+00 -1.58294E-02 -2.22640E+00 +1.66916E+00 -3.95067E-01 +2.80074E+00
 +1.75404E+00 +3.02394E+00 +3.66182E+00 +2.23070E+00 +4.77735E+00 +6.16861E-01 +4.72610E+00 -1.35070E+00
 +3.44122E+00 -3.05666E+00 +1.21159E+00 -3.91909E+00 -1.37774E+00 -3.57730E+00 -3.60315E+00 -2.02496E+00
 -4.81570E+00 +3.59752E-01 -4.64560E+00 +2.90507E+00 -3.13101E+00 +4.83726E+00 -7.24860E-01 +5.51774E+00
 +1.82995E+00 +4.65186E+00 +3.72374E+00 +2.40008E+00 +4.33443E+00 -6.49612E-01 +3.43232E+00 -3.64582E+00
 +1.26686E+00 -5.72780E+00 -1.49715E+00 -6.29116E+00 -3.97850E+00 -5.18053E+00 -5.35384E+00 -2.74516E+00
 -5.12073E+00 +2.63715E-01 -3.26478E+00 +2.92410E+00 -2.74873E-01 +4.43130E+00 +3.00076E+00 +4.35103E+00
 +5.61389E+00 +2.75623E+00 +6.80913E+00 +2.02833E-01 +6.25706E+00 -2.44835E+00 +4.15317E+00 -4.30661E+00
 +1.15164E+00 -4.73479E+00 -1.84409E+00 -3.55047E+00 -3.96559E+00 -1.08096E+00 -4.64718E+00 +1.94375E+00
 -3.79219E+00 +4.62378E+00 -1.78690E+00 +6.17134E+00 +6.38302E-01 +6.15138E+00 +2.65222E+00 +4.60535E+00
 +3.58950E+00 +2.02239E+00 +3.15496E+00 -8.27854E-01 +1.50255E+00 -3.14248E+00 -8.30945E-01 -4.33111E+00
 -3.11022E+00 -4.18237E+00 -4.63927E+00 -2.90261E+00 -4.97453E+00 -1.02171E+00 -4.04700E+00 +7.95978E-01
 -2.16025E+00 +1.96924E+00 +1.26790E-01 +2.17492E+00 +2.18697E+00 +1.42755E+00 +3.51726E+00 +4.56837E-02
 +3.87513E+00 -1.47466E+00 +3.32102E+00 -2.63091E+00 +2.16277E+00 -3.07026E+00 +8.30313E-01 -2.68272E+00
 -2.71200E-01 -1.60820E+00 -8.80084E-01 -1.65234E-01 -9.33901E-01 +1.26572E+00 -5.53247E-01 +2.36067E+00
 +3.00794E-02 +2.93349E+00 +5.67402E-01 +2.96013E+00 +8.74127E-01 +2.54800E+00 +8.72056E-01 +1.87193E+00
