 Created: 19-Jan-2021
 $NMID
 ID='D:\BASISSIMULATI'
 FMTDAT='(8E13.5)'
 VOLUME=   1.00000E+00
 TRAMP=   1.00000E+00
 $END
 +2.72934E+01 +2.96398E-02 +2.50823E+01 -4.27925E+00 +1.89658E+01 -7.17522E+00 +1.01837E+01 -7.61718E+00
 +4.82548E-01 -5.19501E+00 -8.26750E+00 -2.43053E-01 -1.44753E+01 +6.22771E+00 -1.71601E+01 +1.27630E+01
 -1.61378E+01 +1.78084E+01 -1.20231E+01 +2.00800E+01 -6.05235E+00 +1.88757E+01 +2.26883E-01 +1.42516E+01
 +5.32391E+00 +7.02356E+00 +8.14303E+00 -1.40676E+00 +8.21434E+00 -9.36037E+00 +5.76694E+00 -1.52511E+01
 +1.63343E+00 -1.79325E+01 -2.98539E+00 -1.69411E+01 -6.83404E+00 -1.25847E+01 -8.91609E+00 -5.85719E+00
 -8.73235E+00 +1.79576E+00 -6.38860E+00 +8.80154E+00 -2.55107E+00 +1.38006E+01 +1.73470E+00 +1.59238E+01
 +5.31323E+00 +1.49469E+01 +7.20884E+00 +1.12947E+01 +6.86461E+00 +5.89983E+00 +4.27454E+00 -4.01261E-02
 -2.01022E-02 -5.34746E+00 -5.06503E+00 -9.12077E+00 -9.72172E+00 -1.09059E+01 -1.29329E+01 -1.07471E+01
 -1.39607E+01 -9.11637E+00 -1.25422E+01 -6.74597E+00 -8.93023E+00 -4.41495E+00 -3.81427E+00 -2.74464E+00
 +1.85188E+00 -2.05454E+00 +7.07096E+00 -2.31032E+00 +1.10161E+01 -3.17030E+00 +1.31881E+01 -4.11104E+00
 +1.34843E+01 -4.59343E+00 +1.21689E+01 -4.22225E+00 +9.76337E+00 -2.85689E+00 +6.89008E+00 -6.46094E-01
 +4.11407E+00 +2.01871E+00 +1.82329E+00 +4.61457E+00 +1.74038E-01 +6.62943E+00 -8.91512E-01 +7.69561E+00
 -1.56904E+00 +7.67821E+00 -2.08617E+00 +6.69664E+00 -2.60213E+00 +5.07639E+00 -3.14438E+00 +3.24790E+00
 -3.60052E+00 +1.62330E+00 -3.76622E+00 +4.87100E-01 -3.43203E+00 -6.86874E-02 -2.48002E+00 -1.47770E-01
 -9.57592E-01 +7.33133E-03 +8.97814E-01 +1.13341E-01 +2.69495E+00 -4.56734E-02 +3.97960E+00 -5.34185E-01
 +4.35674E+00 -1.23216E+00 +3.60977E+00 -1.86512E+00 +1.78162E+00 -2.09057E+00 -8.08872E-01 -1.61662E+00
 -3.62518E+00 -3.17782E-01 -6.03503E+00 +1.68838E+00 -7.46723E+00 +4.03054E+00 -7.56291E+00 +6.14850E+00
 -6.28016E+00 +7.42219E+00 -3.92125E+00 +7.33410E+00 -1.07097E+00 +5.62304E+00 +1.54258E+00 +2.38646E+00
 +3.23193E+00 -1.90082E+00 +3.53296E+00 -6.46336E+00 +2.33853E+00 -1.03847E+01 -5.42821E-02 -1.28151E+01
 -2.99977E+00 -1.31777E+01 -5.65274E+00 -1.13218E+01 -7.17719E+00 -7.58136E+00 -6.96395E+00 -2.72018E+00
 -4.80235E+00 +2.22886E+00 -9.60093E-01 +6.19554E+00 +3.85263E+00 +8.32130E+00 +8.63121E+00 +8.16603E+00
 +1.23045E+01 +5.82096E+00 +1.39896E+01 +1.89779E+00 +1.32122E+01 -2.60684E+00 +1.00366E+01 -6.54187E+00
 +5.07220E+00 -8.87411E+00 -6.50336E-01 -8.93778E+00 -5.90612E+00 -6.60090E+00 -9.55523E+00 -2.30721E+00
 -1.08082E+01 +3.01853E+00 -9.41437E+00 +8.18119E+00 -5.72764E+00 +1.19933E+01 -6.30928E-01 +1.35550E+01
 +4.66344E+00 +1.24693E+01 +8.89255E+00 +8.94095E+00 +1.10357E+01 +3.73478E+00 +1.05525E+01 -1.99773E+00
 +7.50997E+00 -6.98336E+00 +2.56858E+00 -1.01211E+01 -3.16982E+00 -1.07363E+01 -8.41675E+00 -8.73523E+00
 -1.19946E+01 -4.62367E+00 -1.31078E+01 +6.13609E-01 -1.15234E+01 +5.74424E+00 -7.62155E+00 +9.57505E+00
 -2.30299E+00 +1.12270E+01 +3.22194E+00 +1.03339E+01 +7.71324E+00 +7.11946E+00 +1.01841E+01 +2.33627E+00
 +1.01210E+01 -2.91704E+00 +7.59185E+00 -7.45596E+00 +3.21822E+00 -1.02853E+01 -1.97791E+00 -1.08253E+01
 -6.81540E+00 -9.03622E+00 -1.02250E+01 -5.41559E+00 -1.14871E+01 -8.70156E-01 -1.03817E+01 +3.50357E+00
 -7.22000E+00 +6.67748E+00 -2.75268E+00 +7.92759E+00 +2.01819E+00 +6.99317E+00 +6.07718E+00 +4.12461E+00
 +8.62612E+00 +1.23223E-02 +9.25392E+00 -4.38313E+00 +8.00896E+00 -8.05707E+00 +5.36115E+00 -1.01888E+01
 +2.06789E+00 -1.03191E+01 -1.02029E+00 -8.43913E+00 -3.16560E+00 -4.97264E+00 -3.91142E+00 -6.62715E-01
 -3.17509E+00 +3.60805E+00 -1.24695E+00 +7.01820E+00 +1.29944E+00 +8.98209E+00 +3.76004E+00 +9.26001E+00
 +5.47643E+00 +7.98258E+00 +5.99214E+00 +5.58978E+00 +5.15295E+00 +2.70481E+00 +3.13042E+00 -2.29025E-02
 +3.67209E-01 -2.06618E+00 -2.53833E+00 -3.12581E+00 -4.97732E+00 -3.17193E+00 -6.46917E+00 -2.41678E+00
 -6.76161E+00 -1.23163E+00 -5.87102E+00 -3.34344E-02 -4.05813E+00 +8.27669E-01 -1.74967E+00 +1.15183E+00
 +5.70614E-01 +9.25026E-01 +2.47323E+00 +3.01801E-01 +3.66938E+00 -4.55806E-01 +4.05446E+00 -1.06332E+00
 +3.70271E+00 -1.29822E+00 +2.81990E+00 -1.06100E+00 +1.67128E+00 -3.97789E-01 +5.06442E-01 +5.18835E-01
 -4.98374E-01 +1.44321E+00 -1.26703E+00 +2.12725E+00 -1.81566E+00 +2.38801E+00 -2.21687E+00 +2.15374E+00
 -2.55038E+00 +1.47691E+00 -2.85728E+00 +5.12476E-01 -3.11341E+00 -5.30493E-01 -3.23023E+00 -1.44874E+00
 -3.08304E+00 -2.09849E+00 -2.55752E+00 -2.42776E+00 -1.59970E+00 -2.47887E+00 -2.52909E-01 -2.36182E+00
 +1.33112E+00 -2.20767E+00 +2.91284E+00 -2.11710E+00 +4.21361E+00 -2.12040E+00 +4.98076E+00 -2.16191E+00
 +5.05200E+00 -2.11462E+00 +4.40126E+00 -1.82159E+00 +3.15270E+00 -1.15259E+00 +1.55756E+00 -5.93991E-02
 -6.18919E-02 +1.38743E+00 -1.38756E+00 +2.99314E+00 -2.18140E+00 +4.46909E+00 -2.34214E+00 +5.49377E+00
 -1.92799E+00 +5.79031E+00 -1.13883E+00 +5.20115E+00 -2.61821E-01 +3.74004E+00 +4.05930E-01 +1.60621E+00
 +6.37995E-01 -8.45216E-01 +3.41451E-01 -3.17187E+00 -4.14796E-01 -4.93707E+00 -1.41432E+00 -5.80563E+00
 -2.34739E+00 -5.61969E+00 -2.89207E+00 -4.43610E+00 -2.80178E+00 -2.51562E+00 -1.97715E+00 -2.65717E-01
 -5.03062E-01 +1.85002E+00 +1.35949E+00 +3.41491E+00 +3.22632E+00 +4.15048E+00 +4.67591E+00 +3.97461E+00
 +5.34815E+00 +3.01333E+00 +5.03227E+00 +1.56379E+00 +3.72261E+00 +1.79422E-02 +1.62807E+00 -1.23428E+00
 -8.67587E-01 -1.89897E+00 -3.28620E+00 -1.84684E+00 -5.15794E+00 -1.14040E+00 -6.12288E+00 -1.36389E-02
 -6.00805E+00 +1.18988E+00 -4.86254E+00 +2.10522E+00 -2.94310E+00 +2.43867E+00 -6.54196E-01 +2.04238E+00
 +1.54304E+00 +9.52988E-01 +3.23173E+00 -6.14514E-01 +4.12693E+00 -2.31613E+00 +4.13055E+00 -3.75913E+00
 +3.34226E+00 -4.59407E+00 +2.02548E+00 -4.59674E+00 +5.37934E-01 -3.72102E+00 -7.55838E-01 -2.11072E+00
 -1.56903E+00 -6.81963E-02 -1.75487E+00 +2.01223E+00 -1.33307E+00 +3.73038E+00 -4.75850E-01 +4.76576E+00
 +5.41502E-01 +4.94354E+00 +1.41247E+00 +4.26670E+00 +1.87580E+00 +2.90833E+00 +1.77846E+00 +1.16752E+00
 +1.11093E+00 -6.00054E-01 +7.44512E-03 -2.06015E+00 -1.28760E+00 -2.96900E+00 -2.47804E+00 -3.21849E+00
 -3.28496E+00 -2.84880E+00 -3.51009E+00 -2.02756E+00 -3.07941E+00 -1.00230E+00 -2.05783E+00 -3.82724E-02
 -6.32871E-01 +6.43262E-01 +9.27999E-01 +9.12567E-01 +2.33559E+00 +7.54834E-01 +3.33955E+00 +2.65660E-01
 +3.77795E+00 -3.78744E-01 +3.60573E+00 -9.68373E-01 +2.89710E+00 -1.31175E+00 +1.82298E+00 -1.28164E+00
 +6.09682E-01 -8.44124E-01 -5.11108E-01 -6.54142E-02 -1.34988E+00 +9.04175E-01 -1.79448E+00 +1.86457E+00
 -1.82629E+00 +2.61036E+00 -1.51542E+00 +2.97531E+00 -9.97171E-01 +2.86750E+00 -4.36323E-01 +2.28806E+00
 +1.24885E-02 +1.33028E+00 +2.39502E-01 +1.59876E-01 +2.02494E-01 -1.01859E+00 -6.68532E-02 -2.00213E+00
 -4.73513E-01 -2.62817E+00 -8.83664E-01 -2.80416E+00 -1.15753E+00 -2.52260E+00 -1.18328E+00 -1.85907E+00
 -9.04765E-01 -9.54268E-01 -3.37195E-01 +1.59179E-02 +4.32547E-01 +8.75945E-01 +1.26120E+00 +1.48472E+00
 +1.97712E+00 +1.76151E+00 +2.41550E+00 +1.69865E+00 +2.45375E+00 +1.35881E+00 +2.03984E+00 +8.57532E-01
 +1.20749E+00 +3.34939E-01 +7.46239E-02 -7.75071E-02 -1.17531E+00 -2.87876E-01 -2.32618E+00 -2.65545E-01
 -3.17001E+00 -4.87668E-02 -3.54792E+00 +2.64097E-01 -3.38281E+00 +5.38313E-01 -2.69655E+00 +6.36665E-01
 -1.60770E+00 +4.56121E-01 -3.09396E-01 -4.12087E-02 +9.68634E-01 -8.10554E-01 +2.00631E+00 -1.72560E+00
 +2.63807E+00 -2.59945E+00 +2.78654E+00 -3.22221E+00 +2.47733E+00 -3.40769E+00 +1.83110E+00 -3.03928E+00
 +1.03424E+00 -2.10404E+00 +2.94270E-01 -7.06499E-01 -2.09988E-01 +9.42857E-01 -3.71925E-01 +2.56356E+00
 -1.83696E-01 +3.85925E+00 +2.61130E-01 +4.57891E+00 +7.90345E-01 +4.57187E+00 +1.19673E+00 +3.82407E+00
 +1.29269E+00 +2.46629E+00 +9.62721E-01 +7.51383E-01 +2.00717E-01 -9.95727E-01 -8.78332E-01 -2.44515E+00
 -2.05649E+00 -3.33162E+00 -3.05838E+00 -3.51095E+00 -3.61453E+00 -2.99036E+00 -3.52820E+00 -1.92516E+00
 -2.72976E+00 -5.81999E-01 -1.30461E+00 +7.23214E-01 +5.13512E-01 +1.69865E+00 +2.38435E+00 +2.14408E+00
 +3.93009E+00 +1.99642E+00 +4.81685E+00 +1.34250E+00 +4.83029E+00 +3.95291E-01 +3.92773E+00 -5.60683E-01
 +2.25403E+00 -1.24210E+00 +1.16213E-01 -1.44006E+00 -2.07829E+00 -1.07569E+00 -3.90687E+00 -2.24212E-01
 -5.02138E+00 +8.99421E-01 -5.22211E+00 +1.99052E+00 -4.49914E+00 +2.72899E+00 -3.03162E+00 +2.86031E+00
 -1.14518E+00 +2.26347E+00 +7.62644E-01 +9.88815E-01 +2.31171E+00 -7.44190E-01 +3.22243E+00 -2.59009E+00
 +3.37379E+00 -4.15216E+00 +2.82310E+00 -5.07175E+00 +1.78363E+00 -5.11165E+00 +5.66226E-01 -4.21354E+00
 -5.00248E-01 -2.51606E+00 -1.15017E+00 -3.28451E-01 -1.24437E+00 +1.93424E+00 -8.00219E-01 +3.83983E+00
 +1.80788E-02 +5.03119E+00 +9.45888E-01 +5.30113E+00 +1.68916E+00 +4.63298E+00 +2.00196E+00 +3.19851E+00
 +1.75118E+00 +1.31448E+00 +9.52199E-01 -6.31049E-01 -2.32914E-01 -2.26480E+00 -1.53421E+00 -3.30672E+00
 -2.63964E+00 -3.62308E+00 -3.27142E+00 -3.24322E+00 -3.25419E+00 -2.33817E+00 -2.55820E+00 -1.16841E+00
 -1.30746E+00 -1.51790E-02 +2.48745E-01 +8.86938E-01 +1.79344E+00 +1.39981E+00 +3.01421E+00 +1.50291E+00
 +3.67247E+00 +1.28252E+00 +3.65347E+00 +8.94348E-01 +2.98580E+00 +5.11085E-01 +1.82722E+00 +2.70224E-01
 +4.22016E-01 +2.36243E-01 -9.58306E-01 +3.86840E-01 -2.07558E+00 +6.25866E-01 -2.77196E+00 +8.18075E-01
 -2.99307E+00 +8.34892E-01 -2.78355E+00 +5.97563E-01 -2.25925E+00 +1.05113E-01 -1.56561E+00 -5.60961E-01
 -8.35305E-01 -1.25660E+00 -1.57341E-01 -1.81396E+00 +4.34602E-01 -2.08804E+00 +9.52717E-01 -1.99769E+00
 +1.42949E+00 -1.54931E+00 +1.88585E+00 -8.36255E-01 +2.30492E+00 -1.39539E-02 +2.62138E+00 +7.42353E-01
 +2.73164E+00 +1.28526E+00 +2.52348E+00 +1.53448E+00 +1.91693E+00 +1.49633E+00 +9.04035E-01 +1.25741E+00
 -4.25682E-01 +9.53925E-01 -1.88466E+00 +7.25392E-01 -3.21526E+00 +6.66347E-01 -4.14234E+00 +7.90805E-01
 -4.43860E+00 +1.02125E+00 -3.98650E+00 +1.20726E+00 -2.81935E+00 +1.17026E+00 -1.12884E+00 +7.63181E-01
 +7.66285E-01 -7.19373E-02 +2.48553E+00 -1.26571E+00 +3.67199E+00 -2.61622E+00 +4.07726E+00 -3.82218E+00
