 Created: 19-Jan-2021
 $NMID
 ID='D:\BASISSIMULATI'
 FMTDAT='(8E13.5)'
 VOLUME=   1.00000E+00
 TRAMP=   1.00000E+00
 $END
 +3.14609E+01 +4.48370E-01 +2.44924E+01 +1.87307E+01 +7.77569E+00 +2.82124E+01 -1.05433E+01 +2.48240E+01
 -2.17396E+01 +1.08744E+01 -2.08679E+01 -6.20988E+00 -9.15996E+00 -1.77091E+01 +6.73672E+00 -1.80320E+01
 +1.82561E+01 -7.47925E+00 +1.93318E+01 +8.04101E+00 +9.46670E+00 +2.01631E+01 -6.10535E+00 +2.24322E+01
 -1.92175E+01 +1.36316E+01 -2.30590E+01 -1.63689E+00 -1.57264E+01 -1.53993E+01 -1.20509E+00 -2.04988E+01
 +1.27211E+01 -1.43505E+01 +1.85409E+01 -3.17107E-01 +1.29579E+01 +1.40104E+01 -1.33599E+00 +2.07394E+01
 -1.69822E+01 +1.57876E+01 -2.56981E+01 +1.05877E+00 -2.25274E+01 -1.64434E+01 -8.41804E+00 -2.81205E+01
 +1.01938E+01 -2.81173E+01 +2.45848E+01 -1.62831E+01 +2.81026E+01 +1.74959E+00 +1.94659E+01 +1.73989E+01
 +3.34174E+00 +2.34317E+01 -1.20732E+01 +1.75400E+01 -1.92146E+01 +3.39210E+00 -1.49281E+01 -1.13441E+01
 -1.95364E+00 -1.89657E+01 +1.26083E+01 -1.56448E+01 +2.10227E+01 -3.29320E+00 +1.89042E+01 +1.15404E+01
 +7.41631E+00 +2.11360E+01 -7.42196E+00 +2.06196E+01 -1.79296E+01 +1.04582E+01 -1.87857E+01 -3.83992E+00
 -9.79526E+00 -1.46399E+01 +4.02591E+00 -1.61877E+01 +1.50762E+01 -7.62891E+00 +1.71397E+01 +6.51767E+00
 +8.64849E+00 +1.86755E+01 -6.44712E+00 +2.21176E+01 -2.06494E+01 +1.44563E+01 -2.67154E+01 -1.07709E+00
 -2.13445E+01 -1.72186E+01 -6.86932E+00 -2.63110E+01 +9.90529E+00 -2.41408E+01 +2.11148E+01 -1.20246E+01
 +2.17565E+01 +3.90133E+00 +1.21323E+01 +1.58054E+01 -2.40628E+00 +1.80943E+01 -1.42482E+01 +1.01567E+01
 -1.74008E+01 -3.45302E+00 -1.04733E+01 -1.54455E+01 +2.73386E+00 -1.95639E+01 +1.52924E+01 -1.37492E+01
 +2.07664E+01 -1.09813E+00 +1.65103E+01 +1.18386E+01 +4.96180E+00 +1.85048E+01 -7.70929E+00 +1.57357E+01
 -1.48628E+01 +5.35531E+00 -1.28589E+01 -6.82900E+00 -2.94314E+00 -1.40918E+01 +9.41548E+00 -1.23147E+01
 +1.73765E+01 -2.14950E+00 +1.62887E+01 +1.12912E+01 +6.12398E+00 +2.10473E+01 -8.46284E+00 +2.18790E+01
 -2.04721E+01 +1.29592E+01 -2.40927E+01 -1.68251E+00 -1.76252E+01 -1.51801E+01 -4.31545E+00 -2.12745E+01
 +9.30966E+00 -1.74248E+01 +1.67360E+01 -6.01640E+00 +1.47032E+01 +6.92112E+00 +4.75682E+00 +1.48044E+01
 -7.64588E+00 +1.38055E+01 -1.59820E+01 +4.70403E+00 -1.59838E+01 -7.62979E+00 -7.74238E+00 -1.68114E+01
 +4.45287E+00 -1.82288E+01 +1.44098E+01 -1.13519E+01 +1.72527E+01 +9.63717E-02 +1.18995E+01 +1.01540E+01
 +1.53967E+00 +1.37477E+01 -8.10007E+00 +9.30966E+00 -1.17769E+01 -4.56708E-01 -7.46791E+00 -1.00320E+01
 +2.58734E+00 -1.39823E+01 +1.30568E+01 -9.79833E+00 +1.82795E+01 +7.88382E-01 +1.51907E+01 +1.26768E+01
 +4.90839E+00 +1.99942E+01 -7.82031E+00 +1.90804E+01 -1.70144E+01 +1.03342E+01 -1.84628E+01 -2.00605E+00
 -1.18076E+01 -1.20152E+01 -6.63443E-01 -1.50564E+01 +9.25824E+00 -1.00626E+01 +1.30445E+01 +1.35871E-02
 +9.01484E+00 +9.77836E+00 -5.23532E-01 +1.41658E+01 -1.05468E+01 +1.09762E+01 -1.59243E+01 +1.90428E+00
 -1.40154E+01 -8.42804E+00 -5.93637E+00 -1.48987E+01 +4.11570E+00 -1.45037E+01 +1.10935E+01 -7.82872E+00
 +1.17104E+01 +1.35212E+00 +6.08725E+00 +8.10411E+00 -2.38813E+00 +8.91511E+00 -8.88538E+00 +3.49682E+00
 -9.67190E+00 -5.10781E+00 -4.05338E+00 -1.21401E+01 +5.27461E+00 -1.36104E+01 +1.36240E+01 -8.36522E+00
 +1.67241E+01 +1.31644E+00 +1.29001E+01 +1.08857E+01 +3.91334E+00 +1.58322E+01 -5.94788E+00 +1.39495E+01
 -1.20419E+01 +6.41081E+00 -1.16923E+01 -2.87267E+00 -5.47916E+00 -9.25643E+00 +3.12978E+00 -9.69485E+00
 +9.58747E+00 -4.21888E+00 +1.05734E+01 +4.16629E+00 +5.62283E+00 +1.10747E+01 -2.72433E+00 +1.29836E+01
 -1.02929E+01 +8.97887E+00 -1.34263E+01 +1.13285E+00 -1.08137E+01 -6.63916E+00 -4.07353E+00 -1.06220E+01
 +3.17037E+00 -9.18064E+00 +7.20753E+00 -3.52440E+00 +6.15054E+00 +3.00557E+00 +8.59477E-01 +6.72410E+00
 -5.56850E+00 +5.52469E+00 -9.45124E+00 -5.06557E-02 -8.44520E+00 -7.12505E+00 -2.75039E+00 -1.19964E+01
 +5.00640E+00 -1.20489E+01 +1.11273E+01 -7.08447E+00 +1.27253E+01 +5.95958E-01 +9.16774E+00 +7.37741E+00
 +2.35666E+00 +1.01602E+01 -4.27095E+00 +7.89482E+00 -7.49246E+00 +2.05398E+00 -5.89947E+00 -4.17053E+00
 -5.46976E-01 -7.51193E+00 +5.64964E+00 -6.26398E+00 +9.43224E+00 -1.08646E+00 +8.84251E+00 +5.40053E+00
 +4.15984E+00 +9.99251E+00 -2.31566E+00 +1.05242E+01 -7.48823E+00 +6.91477E+00 -9.04865E+00 +1.12611E+00
 -6.60210E+00 -3.90758E+00 -1.78612E+00 -5.80359E+00 +2.64746E+00 -3.91950E+00 +4.28646E+00 +3.85923E-01
 +2.29109E+00 +4.52306E+00 -2.21604E+00 +6.04895E+00 -6.77673E+00 +3.93185E+00 -8.89315E+00 -9.39142E-01
 -7.31426E+00 -6.23872E+00 -2.65834E+00 -9.41207E+00 +2.92769E+00 -8.97201E+00 +6.87475E+00 -5.22675E+00
 +7.48439E+00 -8.52828E-02 +4.75039E+00 +3.93652E+00 +3.09004E-01 +4.98595E+00 -3.43136E+00 +2.77318E+00
 -4.51866E+00 -1.33957E+00 -2.41624E+00 -5.07757E+00 +1.77895E+00 -6.42329E+00 +5.94215E+00 -4.61526E+00
 +8.01698E+00 -4.82257E-01 +7.03482E+00 +4.02925E+00 +3.54972E+00 +6.86618E+00 -7.05227E-01 +6.89007E+00
 -3.73562E+00 +4.39593E+00 -4.29249E+00 +8.89555E-01 -2.45797E+00 -1.73321E+00 +4.67080E-01 -2.16602E+00
 +2.68714E+00 -3.29435E-01 +2.85624E+00 +2.64183E+00 +7.55544E-01 +5.02874E+00 -2.62825E+00 +5.43149E+00
 -5.64008E+00 +3.47881E+00 -6.81434E+00 -8.28290E-03 -5.60815E+00 -3.46056E+00 -2.64539E+00 -5.36583E+00
 +6.32773E-01 -5.01689E+00 +2.71238E+00 -2.82912E+00 +2.75783E+00 -8.60531E-02 +9.94117E-01 +1.73661E+00
 -1.45497E+00 +1.71323E+00 -3.16818E+00 -9.58168E-02 -3.14881E+00 -2.71771E+00 -1.30277E+00 -4.79012E+00
 +1.55284E+00 -5.25241E+00 +4.13191E+00 -3.85414E+00 +5.33025E+00 -1.23816E+00 +4.75204E+00 +1.42039E+00
 +2.85804E+00 +3.01635E+00 +6.83541E-01 +3.04642E+00 -7.09414E-01 +1.81139E+00 -7.58287E-01 +2.07764E-01
 +3.55186E-01 -7.63053E-01 +1.84654E+00 -5.07221E-01 +2.76284E+00 +8.83860E-01 +2.47611E+00 +2.71497E+00
 +9.86674E-01 +4.06593E+00 -1.10326E+00 +4.26208E+00 -2.91343E+00 +3.19748E+00 -3.72887E+00 +1.35942E+00
 -3.33681E+00 -4.40003E-01 -2.09764E+00 -1.47534E+00 -7.31594E-01 -1.45118E+00 +5.60344E-02 -6.13752E-01
 -8.23799E-02 +4.08789E-01 -9.91247E-01 +9.41336E-01 -2.12074E+00 +5.97205E-01 -2.81978E+00 -5.48824E-01
 -2.65838E+00 -2.02199E+00 -1.62183E+00 -3.19694E+00 -9.32826E-02 -3.60125E+00 +1.35058E+00 -3.12410E+00
 +2.21856E+00 -2.03843E+00 +2.32019E+00 -8.41856E-01 +1.82134E+00 -7.45948E-03 +1.12862E+00 +2.30225E-01
 +6.72970E-01 -4.31616E-02 +7.03630E-01 -4.97911E-01 +1.18758E+00 -7.42970E-01 +1.85085E+00 -5.19569E-01
 +2.32819E+00 +1.85099E-01 +2.34128E+00 +1.14845E+00 +1.82106E+00 +2.02986E+00 +9.24506E-01 +2.53079E+00
 -5.08294E-02 +2.52140E+00 -8.05886E-01 +2.08115E+00 -1.16632E+00 +1.44451E+00 -1.14255E+00 +8.85386E-01
 -9.04755E-01 +5.96030E-01 -6.92092E-01 +6.12309E-01 -7.00503E-01 +8.12201E-01 -9.97553E-01 +9.81578E-01
 -1.49716E+00 +9.14864E-01 -2.00039E+00 +5.07184E-01 -2.28213E+00 -1.98736E-01 -2.18696E+00 -1.02790E+00
 -1.69557E+00 -1.74277E+00 -9.35382E-01 -2.13885E+00 -1.31024E-01 -2.12736E+00 +4.85960E-01 -1.77138E+00
 +7.71837E-01 -1.25903E+00 +7.30012E-01 -8.23033E-01 +5.07964E-01 -6.38945E-01 +3.30040E-01 -7.45665E-01
 +3.92791E-01 -1.02524E+00 +7.68525E-01 -1.25466E+00 +1.36258E+00 -1.21014E+00 +1.94806E+00 -7.77876E-01
 +2.26671E+00 -1.86961E-02 +2.15137E+00 +8.47869E-01 +1.61172E+00 +1.53773E+00 +8.38648E-01 +1.83320E+00
 +1.20121E-01 +1.68803E+00 -2.94499E-01 +1.25266E+00 -3.16276E-01 +8.02620E-01 -6.22289E-02 +6.01359E-01
 +2.02433E-01 +7.64274E-01 +2.00673E-01 +1.19385E+00 -2.08101E-01 +1.62278E+00 -9.44247E-01 +1.74792E+00
 -1.73525E+00 +1.38959E+00 -2.24522E+00 +5.94442E-01 -2.24369E+00 -3.74287E-01 -1.72751E+00 -1.15908E+00
 -9.30410E-01 -1.48388E+00 -2.11036E-01 -1.29387E+00 +1.26573E-01 -7.85254E-01 -1.13983E-02 -3.06017E-01
 -4.58777E-01 -1.75588E-01 -8.74505E-01 -5.15630E-01 -9.21519E-01 -1.18098E+00 -4.47755E-01 -1.82966E+00
 +4.26031E-01 -2.09853E+00 +1.36019E+00 -1.79445E+00 +1.96665E+00 -1.00046E+00 +2.00835E+00 -3.88955E-02
 +1.52273E+00 +6.91728E-01 +8.02564E-01 +9.22096E-01 +2.41735E-01 +6.51366E-01 +1.26146E-01 +1.45199E-01
 +4.80375E-01 -2.08589E-01 +1.05316E+00 -1.11604E-01 +1.45175E+00 +4.78845E-01 +1.35526E+00 +1.31907E+00
 +6.93639E-01 +2.00290E+00 -3.05107E-01 +2.17626E+00 -1.22724E+00 +1.72843E+00 -1.68765E+00 +8.56576E-01
 -1.53258E+00 -3.34870E-02 -9.21521E-01 -5.39519E-01 -2.42150E-01 -4.75475E-01 +9.79677E-02 +3.00776E-02
 -1.07793E-01 +6.04436E-01 -7.51185E-01 +8.34217E-01 -1.46526E+00 +4.93208E-01 -1.82254E+00 -3.28915E-01
 -1.56929E+00 -1.26859E+00 -7.68752E-01 -1.88088E+00 +2.26540E-01 -1.87976E+00 +9.61077E-01 -1.29556E+00
 +1.12205E+00 -4.61825E-01 +7.10688E-01 +1.64320E-01 +4.35853E-02 +2.52820E-01 -4.20217E-01 -2.14352E-01
 -3.34821E-01 -9.27437E-01 +3.33570E-01 -1.41513E+00 +1.27590E+00 -1.30559E+00 +1.99944E+00 -5.40361E-01
 +2.09435E+00 +5.78514E-01 +1.46367E+00 +1.53925E+00 +3.88538E-01 +1.89190E+00 -6.12235E-01 +1.49467E+00
 -1.05729E+00 +5.98776E-01 -7.65103E-01 -2.79913E-01 +4.09988E-02 -6.37948E-01 +8.47732E-01 -2.62103E-01
 +1.12986E+00 +6.45113E-01 +6.43083E-01 +1.56605E+00 -4.29389E-01 +1.94625E+00 -1.56217E+00 +1.50255E+00
 -2.16568E+00 +3.91873E-01 -1.90994E+00 -8.57400E-01 -9.16963E-01 -1.62216E+00 +2.89357E-01 -1.52416E+00
 +1.05728E+00 -6.47555E-01 +9.62720E-01 +4.90576E-01 +5.34098E-02 +1.21004E+00 -1.15750E+00 +1.03889E+00
 -1.95515E+00 -1.39888E-02 -1.80998E+00 -1.43930E+00 -6.80631E-01 -2.48229E+00 +9.36892E-01 -2.54446E+00
 +2.25181E+00 -1.51849E+00 +2.59298E+00 +1.29344E-01 +1.77654E+00 +1.58498E+00 +2.24870E-01 +2.11061E+00
 -1.23799E+00 +1.44470E+00 -1.81646E+00 -4.01224E-02 -1.17459E+00 -1.51641E+00 +3.65218E-01 -2.13453E+00
 +1.97290E+00 -1.48378E+00 +2.74247E+00 +1.66613E-01 +2.18192E+00 +1.98593E+00 +4.98170E-01 +3.00944E+00
 -1.48525E+00 +2.65574E+00 -2.74758E+00 +1.05756E+00 -2.61395E+00 -9.80368E-01 -1.13354E+00 -2.38809E+00
 +9.17823E-01 -2.39700E+00 +2.42706E+00 -9.66761E-01 +2.53088E+00 +1.16313E+00 +1.09232E+00 +2.83973E+00
 -1.19414E+00 +3.10073E+00 -3.13999E+00 +1.70084E+00 -3.67916E+00 -7.24876E-01 -2.44401E+00 -2.96273E+00
