 Created: 19-Jan-2021
 $NMID
 ID='D:\BASISSIMULATI'
 FMTDAT='(8E13.5)'
 VOLUME=   1.00000E+00
 TRAMP=   1.00000E+00
 $END
 +3.89801E+01 +3.10299E+00 +3.36346E+01 +1.89360E+01 +2.17271E+01 +3.03375E+01 +6.21319E+00 +3.47976E+01
 -9.15210E+00 +3.15550E+01 -2.07634E+01 +2.17405E+01 -2.60509E+01 +8.04433E+00 -2.40825E+01 -5.99754E+00
 -1.57361E+01 -1.69050E+01 -3.41608E+00 -2.21097E+01 +9.60079E+00 -2.05508E+01 +2.00088E+01 -1.28716E+01
 +2.52866E+01 -1.18390E+00 +2.42775E+01 +1.15209E+01 +1.74017E+01 +2.21480E+01 +6.46838E+00 +2.82595E+01
 -5.84553E+00 +2.86284E+01 -1.66973E+01 +2.34602E+01 -2.37760E+01 +1.42480E+01 -2.58204E+01 +3.32112E+00
 -2.28423E+01 -6.77800E+00 -1.60192E+01 -1.39202E+01 -7.31214E+00 -1.68632E+01 +1.07556E+00 -1.54668E+01
 +7.24799E+00 -1.06185E+01 +1.00373E+01 -3.91582E+00 +9.20289E+00 +2.79194E+00 +5.38218E+00 +7.87284E+00
 -1.67068E-01 +1.02739E+01 -5.94425E+00 +9.69650E+00 -1.05931E+01 +6.56448E+00 -1.31994E+01 +1.82010E+00
 -1.34361E+01 -3.37646E+00 -1.15407E+01 -7.95279E+00 -8.15791E+00 -1.11555E+01 -4.11057E+00 -1.26588E+01
 -1.73129E-01 -1.25442E+01 +3.09168E+00 -1.11811E+01 +5.40060E+00 -9.06304E+00 +6.72382E+00 -6.65569E+00
 +7.19556E+00 -4.30118E+00 +7.00656E+00 -2.19474E+00 +6.32156E+00 -4.23093E-01 +5.24840E+00 +9.66880E-01
 +3.86106E+00 +1.90807E+00 +2.25631E+00 +2.29218E+00 +6.10171E-01 +1.99962E+00 -7.99708E-01 +9.69069E-01
 -1.62603E+00 -7.23131E-01 -1.53700E+00 -2.81080E+00 -3.30905E-01 -4.84358E+00 +1.95854E+00 -6.26272E+00
 +5.00718E+00 -6.53475E+00 +8.22490E+00 -5.30848E+00 +1.08656E+01 -2.54830E+00 +1.22020E+01 +1.40190E+00
 +1.17211E+01 +5.85288E+00 +9.28658E+00 +9.90465E+00 +5.21649E+00 +1.26540E+01 +2.47998E-01 +1.34239E+01
 -4.61217E+00 +1.19538E+01 -8.31924E+00 +8.49568E+00 -1.00476E+01 +3.78476E+00 -9.40708E+00 -1.11571E+00
 -6.56006E+00 -5.06099E+00 -2.20387E+00 -7.10300E+00 +2.58155E+00 -6.72985E+00 +6.58656E+00 -4.00424E+00
 +8.76402E+00 +4.37049E-01 +8.48788E+00 +5.52572E+00 +5.71291E+00 +1.00133E+01 +9.94424E-01 +1.27701E+01
 -4.63822E+00 +1.30586E+01 -9.92411E+00 +1.07133E+01 -1.36698E+01 +6.18262E+00 -1.50323E+01 +4.23599E-01
 -1.37164E+01 -5.32508E+00 -1.00406E+01 -9.83561E+00 -4.85640E+00 -1.21778E+01 +6.58001E-01 -1.19317E+01
 +5.27681E+00 -9.27609E+00 +8.01204E+00 -4.93470E+00 +8.33671E+00 +3.99220E-03 +6.29495E+00 +4.34795E+00
 +2.47599E+00 +7.07974E+00 -2.13755E+00 +7.58611E+00 -6.40788E+00 +5.78685E+00 -9.30821E+00 +2.13633E+00
 -1.01541E+01 -2.49796E+00 -8.74796E+00 -7.04729E+00 -5.40668E+00 -1.04914E+01 -8.71084E-01 -1.20874E+01
 +3.87710E+00 -1.15256E+01 +7.84472E+00 -8.98186E+00 +1.02489E+01 -5.05687E+00 +1.06810E+01 -6.23928E-01
 +9.17943E+00 +3.37724E+00 +6.19819E+00 +6.15086E+00 +2.48571E+00 +7.21265E+00 -1.09562E+00 +6.47917E+00
 -3.76488E+00 +4.26376E+00 -4.98895E+00 +1.18530E+00 -4.58482E+00 -1.98493E+00 -2.73902E+00 -4.50059E+00
 +5.48462E-02 -5.80152E+00 +3.12155E+00 -5.62441E+00 +5.76134E+00 -4.04215E+00 +7.40224E+00 -1.42791E+00
 +7.71501E+00 +1.64315E+00 +6.66833E+00 +4.52902E+00 +4.51671E+00 +6.66110E+00 +1.72830E+00 +7.65933E+00
 -1.12732E+00 +7.39914E+00 -3.50477E+00 +6.01988E+00 -4.99416E+00 +3.87717E+00 -5.39573E+00 +1.45374E+00
 -4.74506E+00 -7.49385E-01 -3.28766E+00 -2.31686E+00 -1.41234E+00 -2.99714E+00 +4.39351E-01 -2.74063E+00
 +1.86692E+00 -1.69360E+00 +2.58866E+00 -1.52897E-01 +2.48882E+00 +1.50581E+00 +1.62763E+00 +2.90943E+00
 +2.15636E-01 +3.76139E+00 -1.43944E+00 +3.89415E+00 -3.00007E+00 +3.29215E+00 -4.16635E+00 +2.08342E+00
 -4.73049E+00 +5.04637E-01 -4.60934E+00 -1.15149E+00 -3.85097E+00 -2.59474E+00 -2.61666E+00 -3.59077E+00
 -1.14359E+00 -4.00007E+00 +3.03138E-01 -3.79681E+00 +1.47999E+00 -3.06617E+00 +2.20726E+00 -1.98220E+00
 +2.39739E+00 -7.71525E-01 +2.06566E+00 +3.29975E-01 +1.32233E+00 +1.11986E+00 +3.48660E-01 +1.46408E+00
 -6.38604E-01 +1.31872E+00 -1.42796E+00 +7.35160E-01 -1.85199E+00 -1.51769E-01 -1.81775E+00 -1.15040E+00
 -1.32327E+00 -2.04897E+00 -4.57379E-01 -2.65596E+00 +6.17533E-01 -2.83676E+00 +1.69674E+00 -2.53974E+00
 +2.57285E+00 -1.80670E+00 +3.07645E+00 -7.65303E-01 +3.10985E+00 +3.95549E-01 +2.66706E+00 +1.46284E+00
 +1.83552E+00 +2.24196E+00 +7.78930E-01 +2.59610E+00 -2.95858E-01 +2.47419E+00 -1.18120E+00 +1.92147E+00
 -1.71165E+00 +1.07000E+00 -1.79828E+00 +1.10719E-01 -1.44704E+00 -7.47002E-01 -7.56804E-01 -1.32002E+00
 +1.02565E-01 -1.49039E+00 +9.27498E-01 -1.23030E+00 +1.52528E+00 -6.07218E-01 +1.75608E+00 +2.31748E-01
 +1.56310E+00 +1.09293E+00 +9.84233E-01 +1.77925E+00 +1.42708E-01 +2.13371E+00 -7.81185E-01 +2.07363E+00
 -1.59065E+00 +1.60792E+00 -2.11610E+00 +8.33714E-01 -2.25215E+00 -8.65784E-02 -1.97956E+00 -9.62442E-01
 -1.36754E+00 -1.61797E+00 -5.56165E-01 -1.93036E+00 +2.76719E-01 -1.85565E+00 +9.56222E-01 -1.43591E+00
 +1.34934E+00 -7.86984E-01 +1.39328E+00 -6.98066E-02 +1.10699E+00 +5.47620E-01 +5.83638E-01 +9.28621E-01
 -3.35070E-02 +9.97830E-01 -5.85991E-01 +7.56080E-01 -9.37302E-01 +2.77243E-01 -1.00364E+00 -3.11689E-01
 -7.71371E-01 -8.62112E-01 -2.97535E-01 -1.23918E+00 +3.06088E-01 -1.35262E+00 +9.01086E-01 -1.17605E+00
 +1.35563E+00 -7.50521E-01 +1.57479E+00 -1.72208E-01 +1.52099E+00 +4.32341E-01 +1.22005E+00 +9.37019E-01
 +7.52052E-01 +1.24551E+00 +2.29791E-01 +1.31224E+00 -2.29493E-01 +1.15033E+00 -5.32111E-01 +8.25183E-01
 -6.28883E-01 +4.35871E-01 -5.24379E-01 +8.93947E-02 -2.72733E-01 -1.25667E-01 +3.83151E-02 -1.59718E-01
 +3.10697E-01 -1.22051E-02 +4.60625E-01 +2.70749E-01 +4.38469E-01 +6.09922E-01 +2.39330E-01 +9.13924E-01
 -9.77811E-02 +1.10200E+00 -5.01339E-01 +1.12307E+00 -8.85932E-01 +9.66658E-01 -1.17323E+00 +6.63401E-01
 -1.31008E+00 +2.75799E-01 -1.27960E+00 -1.18143E-01 -1.10303E+00 -4.43939E-01 -8.32492E-01 -6.47665E-01
 -5.37026E-01 -7.07111E-01 -2.85600E-01 -6.34863E-01 -1.31259E-01 -4.73183E-01 -9.99659E-02 -2.82489E-01
 -1.86278E-01 -1.26517E-01 -3.56264E-01 -5.77574E-02 -5.56437E-01 -1.06283E-01 -7.26287E-01 -2.74087E-01
 -8.11515E-01 -5.35619E-01 -7.75237E-01 -8.43907E-01 -6.05148E-01 -1.14060E+00 -3.15598E-01 -1.36773E+00
 +5.54071E-02 -1.47896E+00 +4.53472E-01 -1.44837E+00 +8.17888E-01 -1.27539E+00 +1.09280E+00 -9.85259E-01
 +1.23764E+00 -6.24875E-01 +1.23514E+00 -2.54738E-01 +1.09554E+00 +6.19632E-02 +8.55887E-01 +2.71407E-01
 +5.74270E-01 +3.40307E-01 +3.19428E-01 +2.64030E-01 +1.57175E-01 +6.96909E-02 +1.36064E-01 -1.87054E-01
 +2.75207E-01 -4.31681E-01 +5.57229E-01 -5.85685E-01 +9.28623E-01 -5.84009E-01 +1.30839E+00 -3.91324E-01
 +1.60398E+00 -1.32021E-02 +1.73159E+00 +5.01098E-01 +1.63652E+00 +1.06586E+00 +1.30850E+00 +1.57547E+00
 +7.87934E-01 +1.92727E+00 +1.60527E-01 +2.04563E+00 -4.59406E-01 +1.90147E+00 -9.53714E-01 +1.52212E+00
 -1.22781E+00 +9.88121E-01 -1.23409E+00 +4.17119E-01 -9.85307E-01 -6.22031E-02 -5.54042E-01 -3.40155E-01
 -5.76382E-02 -3.52853E-01 +3.68299E-01 -9.90206E-02 +6.01773E-01 +3.57752E-01 +5.63971E-01 +9.02360E-01
 +2.39199E-01 +1.39431E+00 -3.19909E-01 +1.70049E+00 -1.00345E+00 +1.72679E+00 -1.66910E+00 +1.44074E+00
 -2.17477E+00 +8.79721E-01 -2.41134E+00 +1.42805E-01 -2.32746E+00 -6.31902E-01 -1.94073E+00 -1.29869E+00
 -1.33282E+00 -1.73699E+00 -6.29969E-01 -1.87759E+00 +2.60107E-02 -1.71656E+00 +5.09365E-01 -1.31391E+00
 +7.37143E-01 -7.78126E-01 +6.85327E-01 -2.40603E-01 +3.91269E-01 +1.73593E-01 -5.72374E-02 +3.72038E-01
 -5.42969E-01 +3.12756E-01 -9.45123E-01 +1.03526E-02 -1.16418E+00 -4.69880E-01 -1.14079E+00 -1.02764E+00
 -8.65387E-01 -1.54908E+00 -3.77633E-01 -1.92925E+00 +2.43282E-01 -2.09142E+00 +8.94808E-01 -1.99985E+00
 +1.47029E+00 -1.66465E+00 +1.87781E+00 -1.13847E+00 +2.05576E+00 -5.06365E-01 +1.98287E+00 +1.29468E-01
 +1.68158E+00 +6.67360E-01 +1.21415E+00 +1.02379E+00 +6.72196E-01 +1.14829E+00 +1.60819E-01 +1.03313E+00
 -2.20358E-01 +7.15995E-01 -3.96238E-01 +2.74491E-01 -3.31900E-01 -1.87329E-01 -4.14350E-02 -5.58539E-01
 +4.12523E-01 -7.43765E-01 +9.29480E-01 -6.83970E-01 +1.39064E+00 -3.70913E-01 +1.68378E+00 +1.48593E-01
 +1.72820E+00 +7.80444E-01 +1.49384E+00 +1.40218E+00 +1.00978E+00 +1.88930E+00 +3.59221E-01 +2.14316E+00
 -3.38221E-01 +2.11357E+00 -9.53302E-01 +1.81055E+00 -1.37647E+00 +1.30184E+00 -1.54250E+00 +6.96628E-01
 -1.44422E+00 +1.19466E-01 -1.13187E+00 -3.18964E-01 -6.98423E-01 -5.46707E-01 -2.55121E-01 -5.44686E-01
 +9.60523E-02 -3.46855E-01 +2.85498E-01 -2.70193E-02 +2.88752E-01 +3.23268E-01 +1.26155E-01 +6.18972E-01
 -1.49274E-01 +8.00949E-01 -4.71002E-01 +8.45311E-01 -7.78527E-01 +7.61097E-01 -1.03101E+00 +5.78532E-01
 -1.21115E+00 +3.33164E-01 -1.31915E+00 +5.23321E-02 -1.36048E+00 -2.50766E-01 -1.33342E+00 -5.73299E-01
 -1.22265E+00 -9.11247E-01 -1.00281E+00 -1.24549E+00 -6.52076E-01 -1.53258E+00 -1.71225E-01 -1.70627E+00
 +3.99448E-01 -1.69218E+00 +9.73640E-01 -1.43319E+00 +1.42893E+00 -9.17902E-01 +1.63384E+00 -2.02228E-01
 +1.48676E+00 +5.86148E-01 +9.55838E-01 +1.26608E+00 +1.06669E-01 +1.64329E+00 -8.94113E-01 +1.56429E+00
 -1.80534E+00 +9.69362E-01 -2.36534E+00 -7.19896E-02 -2.36198E+00 -1.35715E+00 -1.70013E+00 -2.58442E+00
 -4.46467E-01 -3.42084E+00 +1.16497E+00 -3.58893E+00 +2.77339E+00 -2.94988E+00 +3.97242E+00 -1.55908E+00
 +4.41372E+00 +3.25185E-01 +3.90668E+00 +2.28756E+00 +2.48594E+00 +3.84925E+00 +4.24819E-01 +4.58821E+00
 -1.81423E+00 +4.25568E+00 -3.68425E+00 +2.85666E+00 -4.68978E+00 +6.69532E-01 -4.51991E+00 -1.80528E+00
 -3.14245E+00 -3.95929E+00 -8.31137E-01 -5.22625E+00 +1.88570E+00 -5.23114E+00 +4.34622E+00 -3.89815E+00
 +5.91786E+00 -1.48668E+00 +6.16102E+00 +1.45797E+00 +4.95066E+00 +4.23050E+00 +2.52197E+00 +6.13849E+00
 -5.74962E-01 +6.67903E+00 -3.60322E+00 +5.67337E+00 -5.81934E+00 +3.32278E+00 -6.66081E+00 +1.69130E-01
 -5.89244E+00 -3.03269E+00 -3.67289E+00 -5.49944E+00 -5.22660E-01 -6.61517E+00 +2.80017E+00 -6.08788E+00
 +5.48575E+00 -4.02641E+00 +6.87333E+00 -9.17324E-01 +6.61604E+00 +2.49343E+00 +4.76762E+00 +5.38411E+00
 +1.76910E+00 +7.05996E+00 -1.66099E+00 +7.12361E+00 -4.70483E+00 +5.57061E+00 -6.64629E+00 +2.78655E+00
 -7.04435E+00 -5.52136E-01 -5.83580E+00 -3.64758E+00 -3.34299E+00 -5.77636E+00 -1.87045E-01 -6.46263E+00
