 Created: 19-Jan-2021
 $NMID
 ID='D:\BASISSIMULATI'
 FMTDAT='(8E13.5)'
 VOLUME=   1.00000E+00
 TRAMP=   1.00000E+00
 $END
 +2.96621E+01 +1.49260E+00 +2.47912E+01 +1.63118E+01 +1.30889E+01 +2.66079E+01 -2.20585E+00 +2.95475E+01
 -1.68681E+01 +2.43312E+01 -2.68539E+01 +1.24109E+01 -2.94159E+01 -2.91445E+00 -2.38590E+01 -1.74118E+01
 -1.17288E+01 -2.70829E+01 +3.61798E+00 -2.92676E+01 +1.79426E+01 -2.33748E+01 +2.72949E+01 -1.10429E+01
 +2.91027E+01 +4.31607E+00 +2.28791E+01 +1.84603E+01 +1.03537E+01 +2.74896E+01 -5.00833E+00 +2.89213E+01
 -1.89646E+01 +2.23722E+01 -2.76672E+01 +9.66163E+00 -2.87237E+01 -5.69437E+00 -2.18545E+01 -1.94554E+01
 -8.96709E+00 -2.78276E+01 +6.37381E+00 -2.85100E+01 +1.99323E+01 -2.13262E+01 +2.79708E+01 -8.27051E+00
 +2.82804E+01 +7.04629E+00 +2.07878E+01 +2.03952E+01 +7.57231E+00 +2.80967E+01 -7.71143E+00 +2.80352E+01
 -2.08438E+01 +2.02397E+01 -2.82055E+01 +6.87292E+00 -2.77745E+01 -8.36889E+00 -1.96821E+01 -2.12781E+01
 -6.17275E+00 -2.82970E+01 +9.01831E+00 -2.74987E+01 +2.16976E+01 -1.91156E+01 +2.83714E+01 -5.47221E+00
 +2.72078E+01 +9.65933E+00 +1.85403E+01 +2.21024E+01 +4.77174E+00 +2.84286E+01 -1.02916E+01 +2.69023E+01
 -2.24922E+01 +1.79569E+01 -2.84687E+01 +4.07173E+00 -2.65822E+01 -1.09149E+01 -1.73655E+01 -2.28669E+01
 -3.37261E+00 -2.84919E+01 +1.15287E+01 -2.62480E+01 +2.32262E+01 -1.67666E+01 +2.84980E+01 -2.67477E+00
 +2.58998E+01 +1.21329E+01 +1.61607E+01 +2.35702E+01 +1.97864E+00 +2.84873E+01 -1.27270E+01 +2.55379E+01
 -2.38985E+01 +1.55480E+01 -2.84597E+01 +1.28461E+00 -2.51626E+01 -1.33108E+01 -1.49290E+01 -2.42112E+01
 -5.93076E-01 -2.84154E+01 +1.38840E+01 -2.47741E+01 +2.45081E+01 -1.43041E+01 +2.83546E+01 +9.55536E-02
 +2.43729E+01 +1.44462E+01 +1.36737E+01 +2.47891E+01 -7.80889E-01 +2.82772E+01 -1.49973E+01 +2.39591E+01
 -2.50541E+01 +1.30381E+01 -2.81835E+01 -1.46254E+00 -2.35330E+01 -1.55369E+01 -1.23978E+01 -2.53031E+01
 +2.14012E+00 -2.80736E+01 +1.60648E+01 -2.30951E+01 +2.55359E+01 -1.17532E+01 +2.79475E+01 +2.81325E+00
 +2.26455E+01 +1.65807E+01 +1.11046E+01 +2.57525E+01 -3.48155E+00 +2.78055E+01 -1.70844E+01 +2.21847E+01
 -2.59528E+01 +1.04526E+01 -2.76478E+01 -4.14465E+00 -2.17129E+01 -1.75756E+01 -9.79740E+00 -2.61369E+01
 +4.80218E+00 -2.74744E+01 +1.80541E+01 -2.12305E+01 +2.63046E+01 -9.13950E+00 +2.72856E+01 +5.45378E+00
 +2.07377E+01 +1.85196E+01 +8.47930E+00 +2.64560E+01 -6.09909E+00 +2.70815E+01 -1.89720E+01 +2.02351E+01
 -2.65910E+01 +7.81717E+00 -2.68624E+01 -6.73775E+00 -1.97228E+01 -1.94111E+01 -7.15354E+00 -2.67096E+01
 +7.36943E+00 -2.66283E+01 +1.98366E+01 -1.92013E+01 +2.68119E+01 -6.48879E+00 +2.63797E+01 +7.99378E+00
 +1.86708E+01 +2.02484E+01 +5.82333E+00 +2.68978E+01 -8.61046E+00 +2.61166E+01 -2.06462E+01 +1.81318E+01
 -2.69675E+01 +5.15755E+00 -2.58393E+01 -9.21915E+00 -1.75846E+01 -2.10300E+01 -4.49186E+00 -2.70208E+01
 +9.81952E+00 -2.55480E+01 +2.13995E+01 -1.70296E+01 +2.70579E+01 -3.82663E+00 +2.52430E+01 +1.04113E+01
 +1.64671E+01 +2.17547E+01 +3.16227E+00 +2.70788E+01 -1.09941E+01 +2.49244E+01 -2.20952E+01 +1.58975E+01
 -2.70836E+01 +2.49916E+00 -2.45926E+01 -1.15676E+01 -1.53212E+01 -2.24212E+01 -1.83768E+00 -2.70724E+01
 +1.21316E+01 -2.42478E+01 +2.27323E+01 -1.47385E+01 +2.70452E+01 -1.17824E+00 +2.38903E+01 +1.26858E+01
 +1.41499E+01 +2.30285E+01 +5.21189E-01 +2.70021E+01 -1.32299E+01 +2.35204E+01 -2.33097E+01 +1.35556E+01
 -2.69432E+01 -1.33076E-01 -2.31383E+01 -1.37636E+01 -1.29561E+01 -2.35757E+01 +7.84186E-01 -2.68687E+01
 +1.42866E+01 -2.27442E+01 +2.38266E+01 -1.23518E+01 +2.67786E+01 +1.43177E+00 +2.23386E+01 +1.47987E+01
 +1.17430E+01 +2.40622E+01 -2.07547E+00 +2.66731E+01 -1.52997E+01 +2.19217E+01 -2.42825E+01 +1.11301E+01
 -2.65524E+01 -2.71491E+00 -2.14937E+01 -1.57893E+01 -1.05136E+01 -2.44873E+01 +3.34973E+00 -2.64164E+01
 +1.62672E+01 -2.10551E+01 +2.46767E+01 -9.89365E+00 +2.62655E+01 +3.97959E+00 +2.06060E+01 +1.67332E+01
 +9.27080E+00 +2.48506E+01 -4.60414E+00 +2.60998E+01 -1.71872E+01 +2.01469E+01 -2.50090E+01 +8.64540E+00
 -2.59194E+01 -5.22303E+00 -1.96780E+01 -1.76288E+01 -8.01783E+00 -2.51519E+01 +5.83591E+00 -2.57245E+01
 +1.80580E+01 -1.91997E+01 +2.52792E+01 -7.38846E+00 +2.55153E+01 +6.44246E+00 +1.87122E+01 +1.84744E+01
 +6.75768E+00 +2.53909E+01 -7.04235E+00 +2.52920E+01 -1.88780E+01 +1.82160E+01 -2.54871E+01 +6.12586E+00
 -2.50548E+01 -7.63525E+00 -1.77114E+01 -1.92684E+01 -5.49339E+00 -2.55678E+01 +8.22085E+00 -2.48039E+01
 +1.96457E+01 -1.71986E+01 +2.56330E+01 -4.86065E+00 +2.45395E+01 +8.79883E+00 +1.66781E+01 +2.00095E+01
 +4.22800E+00 +2.56827E+01 -9.36889E+00 +2.42618E+01 -2.03599E+01 +1.61501E+01 -2.57169E+01 +3.59583E+00
 -2.39711E+01 -9.93072E+00 -1.56151E+01 -2.06965E+01 -2.96450E+00 -2.57358E+01 +1.04840E+01 -2.36675E+01
 +2.10193E+01 -1.50733E+01 +2.57394E+01 -2.33439E+00 +2.33514E+01 +1.10286E+01 +1.45252E+01 +2.13281E+01
 +1.70586E+00 +2.57277E+01 -1.15640E+01 +2.30229E+01 -2.16228E+01 +1.39711E+01 -2.57009E+01 +1.07927E+00
 -2.26824E+01 -1.20901E+01 -1.34113E+01 -2.19034E+01 -4.54988E-01 -2.56589E+01 +1.26065E+01 -2.23300E+01
 +2.21697E+01 -1.28462E+01 +2.56020E+01 +1.66626E-01 +2.19661E+01 +1.31131E+01 +1.22762E+01 +2.24217E+01
 -7.85219E-01 +2.55302E+01 -1.36095E+01 +2.15909E+01 -2.26592E+01 +1.17015E+01 -2.54437E+01 -1.40044E+00
 -2.12047E+01 -1.40955E+01 -1.11227E+01 -2.28821E+01 +2.01194E+00 -2.53425E+01 +1.45709E+01 -2.08078E+01
 +2.30905E+01 -1.05400E+01 +2.52268E+01 +2.61937E+00 +2.04004E+01 +1.50355E+01 +9.95377E+00 +2.32842E+01
 -3.22240E+00 +2.50967E+01 -1.54889E+01 +1.99829E+01 -2.34633E+01 +9.36444E+00 -2.49524E+01 -3.82069E+00
 -1.95555E+01 -1.59311E+01 -8.77233E+00 -2.36276E+01 +4.41390E+00 -2.47939E+01 +1.63618E+01 -1.91185E+01
 +2.37772E+01 -8.17782E+00 +2.46216E+01 +5.00172E+00 +1.86723E+01 +1.67808E+01 +7.58127E+00 +2.39120E+01
 -5.58381E+00 +2.44355E+01 -1.71878E+01 +1.82172E+01 -2.40320E+01 +6.98304E+00 -2.42358E+01 -6.15986E+00
 -1.77534E+01 -1.75828E+01 -6.38348E+00 -2.41373E+01 +6.72956E+00 -2.40227E+01 +1.79655E+01 -1.72812E+01
 +2.42278E+01 -5.78297E+00 +2.37964E+01 +7.29260E+00 +1.68011E+01 +1.83358E+01 +5.18186E+00 +2.43035E+01
 -7.84868E+00 +2.35571E+01 -1.86936E+01 +1.63133E+01 -2.43644E+01 +4.58051E+00 -2.33050E+01 -8.39749E+00
 -1.58181E+01 -1.90385E+01 -3.97928E+00 -2.44107E+01 +8.93877E+00 -2.30403E+01 +1.93706E+01 -1.53159E+01
 +2.44423E+01 -3.37852E+00 +2.27632E+01 +9.47220E+00 +1.48071E+01 +1.96897E+01 +2.77858E+00 +2.44593E+01
 -9.99753E+00 +2.24739E+01 -1.99956E+01 +1.42918E+01 -2.44618E+01 +2.17982E+00 -2.21727E+01 -1.05145E+01
 -1.37705E+01 -2.02882E+01 -1.58259E+00 -2.44497E+01 +1.10228E+01 -2.18598E+01 +2.05675E+01 -1.32435E+01
 +2.44233E+01 -9.87231E-01 +2.15354E+01 +1.15221E+01 +1.27111E+01 +2.08333E+01 +3.94084E-01 +2.43825E+01
 -1.20124E+01 +2.11998E+01 -2.10855E+01 +1.21738E+01 -2.43275E+01 -1.96507E-01 -2.08533E+01 -1.24932E+01
 -1.16317E+01 -2.13240E+01 +7.84205E-01 -2.42584E+01 +1.29643E+01 -2.04960E+01 +2.15488E+01 -1.10853E+01
 +2.41752E+01 +1.36868E+00 +2.01283E+01 +1.34256E+01 +1.05350E+01 +2.17599E+01 -1.94959E+00 +2.40782E+01
 -1.38767E+01 +1.97504E+01 -2.19570E+01 +9.98096E+00 -2.39673E+01 -2.52662E+00 -1.93626E+01 -1.43176E+01
 -9.42365E+00 -2.21402E+01 +3.09944E+00 -2.38428E+01 +1.47478E+01 -1.89652E+01 +2.23095E+01 -8.86338E+00
 +2.37048E+01 +3.66774E+00 +1.85584E+01 +1.51674E+01 +8.30050E+00 +2.24647E+01 -4.23119E+00 +2.35533E+01
 -1.55760E+01 +1.81426E+01 -2.26060E+01 +7.73535E+00 -2.33887E+01 -4.78949E+00 -1.77180E+01 -1.59734E+01
 -7.16829E+00 -2.27332E+01 +5.34233E+00 -2.32110E+01 +1.63595E+01 -1.72848E+01 +2.28464E+01 -6.59965E+00
 +2.30204E+01 +5.88942E+00 +1.68435E+01 +1.67342E+01 +6.02978E+00 +2.29455E+01 -6.43044E+00 +2.28171E+01
 -1.70971E+01 +1.63944E+01 -2.30305E+01 +5.45902E+00 -2.26012E+01 -6.96512E+00 -1.59376E+01 -1.74483E+01
 -4.88772E+00 -2.31016E+01 +7.49316E+00 -2.23730E+01 +1.77875E+01 -1.54735E+01 +2.31586E+01 -4.31621E+00
 +2.21326E+01 +8.01429E+00 +1.50025E+01 +1.81145E+01 +3.74483E+00 +2.32017E+01 -8.52823E+00 +2.18802E+01
 -1.84294E+01 +1.45248E+01 -2.32308E+01 +3.17392E+00 -2.16161E+01 -9.03471E+00 -1.40407E+01 -1.87318E+01
 -2.60382E+00 -2.32461E+01 +9.53345E+00 -2.13405E+01 +1.90217E+01 -1.35507E+01 +2.32475E+01 -2.03486E+00
 +2.10535E+01 +1.00242E+01 +1.30549E+01 +1.92990E+01 +1.46737E+00 +2.32352E+01 -1.05067E+01 +2.07554E+01
 -1.95636E+01 +1.25537E+01 -2.32092E+01 +9.01679E-01 -2.04464E+01 -1.09808E+01 -1.20474E+01 -1.98153E+01
 -3.38115E-01 -2.31696E+01 +1.14461E+01 -2.01268E+01 +2.00542E+01 -1.15364E+01 +2.31164E+01 +2.23000E-01
 +1.97968E+01 +1.19025E+01 +1.10210E+01 +2.02801E+01 -7.81345E-01 +2.30499E+01 -1.23496E+01 +1.94566E+01
 -2.04929E+01 +1.05015E+01 -2.29700E+01 -1.33660E+00 -1.91065E+01 -1.27874E+01 -9.97820E+00 -2.06926E+01
 +1.88846E+00 -2.28769E+01 +1.32155E+01 -1.87468E+01 +2.08791E+01 -9.45146E+00 +2.27707E+01 +2.43660E+00
 +1.83776E+01 +1.36338E+01 +8.92161E+00 +2.10523E+01 -2.98073E+00 +2.26515E+01 -1.40421E+01 +1.79993E+01
 -2.12123E+01 +8.38898E+00 -2.25195E+01 -3.52053E+00 -1.76122E+01 -1.44401E+01 -7.85388E+00 -2.13590E+01
 +4.05572E+00 -2.23748E+01 +1.48278E+01 -1.72164E+01 +2.14924E+01 -7.31665E+00 +2.22175E+01 +4.58599E+00
 +1.68123E+01 +1.52048E+01 +6.77762E+00 +2.16124E+01 -5.11105E+00 +2.20478E+01 -1.55711E+01 +1.64002E+01
 -2.17191E+01 +6.23712E+00 -2.18659E+01 -5.63062E+00 -1.59803E+01 -1.59264E+01 -5.69546E+00 -2.18124E+01
 +6.14442E+00 -2.16719E+01 +1.62707E+01 -1.55529E+01 +2.18924E+01 -5.15298E+00 +2.14659E+01 +6.65216E+00
 +1.51183E+01 +1.66036E+01 +4.61001E+00 +2.19591E+01 -7.15358E+00 +2.12483E+01 -1.69253E+01 +1.46769E+01
 -2.20124E+01 +4.06685E+00 -2.10191E+01 -7.64842E+00 -1.42288E+01 -1.72353E+01 -3.52385E+00 -2.20525E+01
 +8.13640E+00 -2.07785E+01 +1.75338E+01 -1.37744E+01 +2.20794E+01 -2.98131E+00 +2.05268E+01 +8.61727E+00
 +1.33140E+01 +1.78204E+01 +2.43957E+00 +2.20930E+01 -9.09079E+00 +2.02641E+01 -1.80952E+01 +1.28479E+01
 -2.20935E+01 +1.89892E+00 -1.99907E+01 -9.55670E+00 -1.23763E+01 -1.83579E+01 -1.35969E+00 -2.20810E+01
