 Created: 19-Jan-2021
 $NMID
 ID='D:\BASISSIMULATI'
 FMTDAT='(8E13.5)'
 VOLUME=   1.00000E+00
 TRAMP=   1.00000E+00
 $END
 +2.75887E+01 +1.29663E+00 +2.28781E+01 +1.55217E+01 +1.10758E+01 +2.46162E+01 -3.58526E+00 +2.54937E+01
 -1.58962E+01 +1.80726E+01 -2.15814E+01 +5.27131E+00 -1.88466E+01 -8.09133E+00 -9.00298E+00 -1.70801E+01
 +4.05104E+00 -1.84500E+01 +1.52895E+01 -1.18145E+01 +2.04153E+01 +2.44480E-01 +1.74306E+01 +1.31557E+01
 +7.34803E+00 +2.20554E+01 -6.20710E+00 +2.35748E+01 -1.83478E+01 +1.70609E+01 -2.47239E+01 +4.79206E+00
 -2.31055E+01 -8.88142E+00 -1.41747E+01 -1.91448E+01 -1.24401E+00 -2.24781E+01 +1.09821E+01 -1.79225E+01
 +1.81399E+01 -7.39561E+00 +1.77934E+01 +5.04656E+00 +1.02977E+01 +1.47212E+01 -1.36885E+00 +1.80401E+01
 -1.27296E+01 +1.38094E+01 -1.94690E+01 +3.63857E+00 -1.90130E+01 -8.68260E+00 -1.14535E+01 -1.85961E+01
 +5.13466E-01 -2.24526E+01 +1.26007E+01 -1.88363E+01 +2.05125E+01 -9.05695E+00 +2.15108E+01 +3.35954E+00
 +1.53921E+01 +1.39828E+01 +4.52802E+00 +1.91031E+01 -7.03604E+00 +1.70717E+01 -1.50793E+01 +8.87003E+00
 -1.67479E+01 -2.28770E+00 -1.15762E+01 -1.21629E+01 -1.62164E+00 -1.70574E+01 +9.32447E+00 -1.51589E+01
 +1.71484E+01 -7.17878E+00 +1.89241E+01 +3.94139E+00 +1.39678E+01 +1.41343E+01 +4.05981E+00 +1.97068E+01
 -7.23728E+00 +1.86827E+01 -1.59006E+01 +1.14993E+01 -1.89177E+01 +8.13877E-01 -1.53669E+01 -9.49660E+00
 -6.71917E+00 -1.57648E+01 +3.73704E+00 -1.58639E+01 +1.21241E+01 -9.95563E+00 +1.53987E+01 -3.91908E-01
 +1.24482E+01 +9.18056E+00 +4.46467E+00 +1.51738E+01 -5.52799E+00 +1.53684E+01 -1.38077E+01 +9.70353E+00
 -1.73244E+01 +2.65342E-01 -1.48029E+01 -9.50652E+00 -7.18013E+00 -1.60936E+01 +2.77051E+00 -1.71806E+01
 +1.14781E+01 -1.24777E+01 +1.58851E+01 -3.79086E+00 +1.45489E+01 +5.67181E+00 +8.13526E+00 +1.24915E+01
 -8.64078E-01 +1.42852E+01 -9.07342E+00 +1.05523E+01 -1.34794E+01 +2.81947E+00 -1.25216E+01 -5.95462E+00
 -6.63398E+00 -1.24856E+01 +1.95114E+00 -1.43670E+01 +1.00500E+01 -1.09314E+01 +1.47045E+01 -3.46183E+00
 +1.42553E+01 +5.31104E+00 +8.92015E+00 +1.22287E+01 +6.79241E-01 +1.48599E+01 -7.47824E+00 +1.23682E+01
 -1.26588E+01 +5.78229E+00 -1.31112E+01 -2.41676E+00 -8.83652E+00 -9.22716E+00 -1.54775E+00 -1.22269E+01
 +5.99087E+00 -1.04399E+01 +1.09921E+01 -4.65709E+00 +1.16597E+01 +2.89089E+00 +7.81883E+00 +9.37763E+00
 +9.43856E-01 +1.24219E+01 -6.41428E+00 +1.09434E+01 -1.15784E+01 +5.52620E+00 -1.27190E+01 -1.83051E+00
 -9.49803E+00 -8.46893E+00 -3.15629E+00 -1.20503E+01 +3.97379E+00 -1.13930E+01 +9.33841E+00 -6.87043E+00
 +1.10911E+01 -2.36168E-01 +8.74152E+00 +6.04685E+00 +3.29583E+00 +9.71612E+00 -3.14808E+00 +9.52289E+00
 -8.19042E+00 +5.65649E+00 -1.00071E+01 -3.63707E-01 -7.99490E+00 -6.27513E+00 -2.95662E+00 -9.91180E+00
 +3.22779E+00 -9.98563E+00 +8.31065E+00 -6.52808E+00 +1.04985E+01 -8.41990E-01 +9.08599E+00 +5.00462E+00
 +4.67815E+00 +8.94601E+00 -1.06714E+00 +9.66223E+00 -6.06842E+00 +7.03063E+00 -8.58293E+00 +2.13153E+00
 -7.82245E+00 -3.18009E+00 -4.20492E+00 -6.96818E+00 +8.37003E-01 -7.91547E+00 +5.40675E+00 -5.77679E+00
 +7.84301E+00 -1.43056E+00 +7.30999E+00 +3.47632E+00 +4.06962E+00 +7.14781E+00 -6.50899E-01 +8.28969E+00
 -5.13388E+00 +6.55648E+00 -7.80463E+00 +2.64103E+00 -7.78981E+00 -2.01197E+00 -5.20279E+00 -5.75108E+00
 -1.06428E+00 -7.31591E+00 +3.09878E+00 -6.27093E+00 +5.81902E+00 -3.12626E+00 +6.20950E+00 +8.84915E-01
 +4.25453E+00 +4.27790E+00 +7.76468E-01 +5.85734E+00 -2.89543E+00 +5.13051E+00 -5.42206E+00 +2.45087E+00
 -5.93188E+00 -1.14685E+00 -4.30900E+00 -4.34652E+00 -1.19839E+00 -6.03128E+00 +2.25955E+00 -5.66942E+00
 +4.85680E+00 -3.47308E+00 +5.74708E+00 -2.85164E-01 +4.72437E+00 +2.75094E+00 +2.25980E+00 +4.60943E+00
 -7.02251E-01 +4.73509E+00 -3.10293E+00 +3.20988E+00 -4.14632E+00 +6.85398E-01 -3.56112E+00 -1.88056E+00
 -1.66161E+00 -3.57793E+00 +8.00256E-01 -3.85838E+00 +2.92569E+00 -2.70162E+00 +3.99062E+00 -5.86190E-01
 +3.68343E+00 +1.71094E+00 +2.18216E+00 +3.40305E+00 +5.68985E-02 +3.96353E+00 -1.95462E+00 +3.28473E+00
 -3.21012E+00 +1.68048E+00 -3.37068E+00 -2.55142E-01 -2.48717E+00 -1.87110E+00 -9.47309E-01 -2.68092E+00
 +6.84736E-01 -2.50731E+00 +1.87092E+00 -1.50914E+00 +2.27136E+00 -9.47023E-02 +1.83220E+00 +1.23672E+00
 +7.70602E-01 +2.06382E+00 -5.24789E-01 +2.16628E+00 -1.63416E+00 +1.56863E+00 -2.23712E+00 +5.02637E-01
 -2.19459E+00 -6.87260E-01 -1.56513E+00 -1.65716E+00 -5.62874E-01 -2.15895E+00 +5.19979E-01 -2.09401E+00
 +1.39788E+00 -1.51942E+00 +1.86097E+00 -6.15315E-01 +1.81614E+00 +3.70194E-01 +1.29810E+00 +1.18256E+00
 +4.54689E-01 +1.61689E+00 -4.87529E-01 +1.56169E+00 -1.27228E+00 +1.02576E+00 -1.67188E+00 +1.43224E-01
 -1.54669E+00 -8.48226E-01 -8.92807E-01 -1.65836E+00 +1.38377E-01 -2.01947E+00 +1.26257E+00 -1.76954E+00
 +2.13118E+00 -9.18820E-01 +2.43414E+00 +3.27536E-01 +2.00841E+00 +1.60852E+00 +9.14398E-01 +2.50714E+00
 -5.53913E-01 +2.68622E+00 -1.94061E+00 +2.01673E+00 -2.76825E+00 +6.49525E-01 -2.70523E+00 -1.00463E+00
 -1.70145E+00 -2.39266E+00 -3.71616E-02 -3.00332E+00 +1.74434E+00 -2.55719E+00 +3.00866E+00 -1.13180E+00
 +3.25397E+00 +8.32610E-01 +2.30760E+00 +2.66149E+00 +4.18861E-01 +3.67372E+00 -1.79705E+00 +3.43247E+00
 -3.55628E+00 +1.92671E+00 -4.18299E+00 -3.90957E-01 -3.36774E+00 -2.73652E+00 -1.30898E+00 -4.26056E+00
 +1.32456E+00 -4.35835E+00 +3.60983E+00 -2.91068E+00 +4.69507E+00 -3.59819E-01 +4.12046E+00 +2.41904E+00
 +2.01280E+00 +4.41636E+00 -9.26800E-01 +4.85551E+00 -3.65065E+00 +3.49493E+00 -5.13487E+00 +7.48003E-01
 -4.76180E+00 -2.43507E+00 -2.57153E+00 -4.89241E+00 +7.18806E-01 -5.67197E+00 +3.94766E+00 -4.39648E+00
 +5.91929E+00 -1.43221E+00 +5.84687E+00 +2.21160E+00 +3.66410E+00 +5.22802E+00 +8.24342E-02 +6.48475E+00
 -3.63913E+00 +5.45267E+00 -6.13872E+00 +2.42831E+00 -6.45361E+00 -1.54212E+00 -4.39449E+00 -5.02133E+00
 -6.46614E-01 -6.70023E+00 +3.45114E+00 -5.89001E+00 +6.37955E+00 -2.80234E+00 +6.99770E+00 +1.49546E+00
 +4.98164E+00 +5.44583E+00 +9.74741E-01 +7.56255E+00 -3.61694E+00 +6.98592E+00 -7.12049E+00 +3.82425E+00
 -8.20848E+00 -8.53289E-01 -6.40340E+00 -5.38175E+00 -2.28238E+00 -8.09922E+00 +2.70380E+00 -7.96387E+00
 +6.74264E+00 -4.95980E+00 +8.32214E+00 -1.33754E-01 +6.80147E+00 +4.76245E+00 +2.67451E+00 +7.90248E+00
 -2.58104E+00 +8.06232E+00 -7.02488E+00 +5.09264E+00 -8.96231E+00 +4.82702E-03 -7.58096E+00 -5.37213E+00
 -3.27705E+00 -9.04832E+00 +2.45867E+00 -9.60717E+00 +7.56478E+00 -6.74623E+00 +1.01587E+01 -1.41821E+00
 +9.23878E+00 +4.49054E+00 +5.07735E+00 +8.83638E+00 -8.50432E-01 +1.00067E+01 -6.38546E+00 +7.53039E+00
 -9.47012E+00 +2.27825E+00 -8.91431E+00 -3.82957E+00 -4.85693E+00 -8.51308E+00 +1.25563E+00 -9.97119E+00
 +7.17714E+00 -7.56149E+00 +1.06774E+01 -2.06506E+00 +1.03702E+01 +4.57132E+00 +6.24605E+00 +9.93121E+00
 -2.94340E-01 +1.20136E+01 -6.92916E+00 +9.98233E+00 -1.12559E+01 +4.49945E+00 -1.16787E+01 -2.49086E+00
 -8.01401E+00 -8.45743E+00 -1.58417E+00 -1.12084E+01 +5.24511E+00 -9.70917E+00 +9.92335E+00 -4.48684E+00
 +1.06580E+01 +2.53746E+00 +7.09360E+00 +8.73610E+00 +4.70230E-01 +1.17371E+01 -6.80671E+00 +1.03093E+01
 -1.20366E+01 +4.83984E+00 -1.32189E+01 -2.77861E+00 -9.80575E+00 -9.82142E+00 -2.93064E+00 -1.37247E+01
 +4.98271E+00 -1.30356E+01 +1.10950E+01 -7.96623E+00 +1.31941E+01 -3.40994E-01 +1.05217E+01 +7.05463E+00
 +4.07464E+00 +1.14907E+01 -3.73940E+00 +1.13047E+01 -9.97382E+00 +6.53276E+00 -1.22280E+01 -1.07822E+00
 -9.54640E+00 -8.69260E+00 -2.79539E+00 -1.34206E+01 +5.62853E+00 -1.33886E+01 +1.26619E+01 -8.44889E+00
 +1.56966E+01 -2.61206E-01 +1.35504E+01 +8.29336E+00 +6.92286E+00 +1.41584E+01 -1.83764E+00 +1.52275E+01
 -9.58013E+00 +1.11326E+01 -1.35047E+01 +3.40023E+00 -1.22008E+01 -5.09113E+00 -6.18481E+00 -1.11608E+01
 +2.26914E+00 -1.25004E+01 +9.95101E+00 -8.53989E+00 +1.38933E+01 -6.81178E-01 +1.24746E+01 +8.19543E+00
 +6.03892E+00 +1.47782E+01 -3.20440E+00 +1.65437E+01 -1.19721E+01 +1.27000E+01 -1.71047E+01 +4.50141E+00
 -1.67327E+01 -5.18958E+00 -1.09795E+01 -1.29389E+01 -1.93560E+00 -1.60004E+01 +7.09352E+00 -1.33343E+01
 +1.27968E+01 -6.00600E+00 +1.30811E+01 +3.18961E+00 +7.85659E+00 +1.07465E+01 -9.10198E-01 +1.37399E+01
 -9.90403E+00 +1.09165E+01 -1.56747E+01 +3.17800E+00 -1.59135E+01 -6.72690E+00 -1.03216E+01 -1.51975E+01
 -7.44057E-01 -1.91007E+01 +9.48598E+00 -1.69320E+01 +1.67597E+01 -9.38625E+00 +1.85177E+01 +8.77796E-01
 +1.42003E+01 +1.01997E+01 +5.46785E+00 +1.52576E+01 -4.39666E+00 +1.42949E+01 -1.16889E+01 +7.77891E+00
 -1.36500E+01 -1.75649E+00 -9.49587E+00 -1.06336E+01 -7.24504E-01 -1.53842E+01 +9.41727E+00 -1.40368E+01
 +1.71184E+01 -6.86328E+00 +1.94076E+01 +3.69841E+00 +1.52593E+01 +1.39210E+01 +5.99113E+00 +2.01489E+01
 -5.19966E+00 +2.01440E+01 -1.43970E+01 +1.39193E+01 -1.84002E+01 +3.74869E+00 -1.59048E+01 -6.65664E+00
 -7.99183E+00 -1.35078E+01 +2.26007E+00 -1.43350E+01 +1.09021E+01 -8.90711E+00 +1.45719E+01 +6.70071E-01
 +1.17439E+01 +1.07178E+01 +3.30929E+00 +1.73355E+01 -7.73214E+00 +1.78436E+01 -1.73618E+01 +1.17863E+01
 -2.20162E+01 +1.12131E+00 -1.99036E+01 -1.04802E+01 -1.16772E+01 -1.89699E+01 -2.10930E-01 -2.14063E+01
 +1.04440E+01 -1.70405E+01 +1.65420E+01 -7.59963E+00 +1.60218E+01 +3.34049E+00 +9.27058E+00 +1.16673E+01
 -1.01095E+00 +1.42484E+01 -1.07980E+01 +1.00947E+01 -1.62259E+01 +7.38051E-01 -1.50236E+01 -1.03196E+01
 -7.36728E+00 -1.88884E+01 +4.16419E+00 -2.16346E+01 +1.55208E+01 -1.73186E+01 +2.26613E+01 -7.26791E+00
 +2.30382E+01 +5.09262E+00 +1.65408E+01 +1.54862E+01 +5.54546E+00 +2.03487E+01 -5.94931E+00 +1.81385E+01
 -1.37892E+01 +9.90581E+00 -1.51930E+01 -1.09012E+00 -9.78083E+00 -1.05797E+01 +2.78594E-01 -1.48593E+01
 +1.10618E+01 -1.21653E+01 +1.83352E+01 -3.33776E+00 +1.91214E+01 +8.47348E+00 +1.28098E+01 +1.89571E+01
 +1.40032E+00 +2.42228E+01 -1.12149E+01 +2.22366E+01 -2.06693E+01 +1.35795E+01 -2.37207E+01 +1.24606E+00
 -1.94431E+01 -1.04453E+01 -9.56874E+00 -1.74328E+01 +2.14560E+00 -1.74022E+01 +1.13006E+01 -1.06376E+01
 +1.44758E+01 +8.21344E-02 +1.04953E+01 +1.05081E+01 +8.68202E-01 +1.64903E+01 -1.07594E+01 +1.55162E+01
