 Created: 19-Jan-2021
 $NMID
 ID='D:\BASISSIMULATI'
 FMTDAT='(8E13.5)'
 VOLUME=   1.00000E+00
 TRAMP=   1.00000E+00
 $END
 +3.60428E+01 +3.78893E+00 +3.51516E+01 +8.35043E+00 +3.35617E+01 +1.27029E+01 +3.13195E+01 +1.67340E+01
 +2.84893E+01 +2.03408E+01 +2.51522E+01 +2.34334E+01 +2.14029E+01 +2.59372E+01 +1.73470E+01 +2.77950E+01
 +1.30981E+01 +2.89687E+01 +8.77394E+00 +2.94403E+01 +4.49307E+00 +2.92122E+01 +3.71308E-01 +2.83067E+01
 -3.48174E+00 +2.67658E+01 -6.96583E+00 +2.46489E+01 -9.99304E+00 +2.20314E+01 -1.24902E+01 +1.90024E+01
 -1.44009E+01 +1.56611E+01 -1.56872E+01 +1.21144E+01 -1.63299E+01 +8.47332E+00 -1.63298E+01 +4.84952E+00
 -1.57065E+01 +1.35199E+00 -1.44981E+01 -1.91625E+00 -1.27594E+01 -4.86120E+00 -1.05601E+01 -7.40058E+00
 -7.98268E+00 -9.46619E+00 -5.11904E+00 -1.10058E+01 -2.06804E+00 -1.19844E+01 +1.06793E+00 -1.23850E+01
 +4.18615E+00 -1.22091E+01 +7.18675E+00 -1.14757E+01 +9.97583E+00 -1.02211E+01 +1.24683E+01 -8.49688E+00
 +1.45902E+01 -6.36828E+00 +1.62813E+01 -3.91178E+00 +1.74962E+01 -1.21243E+00 +1.82058E+01 +1.63897E+00
 +1.83980E+01 +4.54895E+00 +1.80773E+01 +7.42437E+00 +1.72648E+01 +1.01755E+01 +1.59971E+01 +1.27187E+01
 +1.43247E+01 +1.49794E+01 +1.23099E+01 +1.68937E+01 +1.00248E+01 +1.84111E+01 +7.54890E+00 +1.94951E+01
 +4.96575E+00 +2.01247E+01 +2.36059E+00 +2.02945E+01 -1.82730E-01 +2.00149E+01 -2.58450E+00 +1.93111E+01
 -4.77176E+00 +1.82221E+01 -6.68065E+00 +1.67993E+01 -8.25843E+00 +1.51044E+01 -9.46509E+00 +1.32073E+01
 -1.02745E+01 +1.11832E+01 -1.06751E+01 +9.11047E+00 -1.06703E+01 +7.06737E+00 -1.02776E+01 +5.12977E+00
 -9.52841E+00 +3.36836E+00 -8.46659E+00 +1.84627E+00 -7.14664E+00 +6.17029E-01 -5.63184E+00 -2.77291E-01
 -3.99195E+00 -8.07375E-01 -2.30068E+00 -9.57603E-01 -6.33142E-01 -7.26498E-01 +9.36831E-01 -1.26687E-01
 +2.33923E+00 +8.15614E-01 +3.51028E+00 +2.06157E+00 +4.39470E+00 +3.56113E+00 +4.94754E+00 +5.25477E+00
 +5.13573E+00 +7.07563E+00 +4.93929E+00 +8.95177E+00 +4.35193E+00 +1.08087E+01 +3.38133E+00 +1.25719E+01
 +2.04889E+00 +1.41694E+01 +3.89000E-01 +1.55343E+01 -1.55205E+00 +1.66071E+01 -3.71764E+00 +1.73374E+01
 -6.04268E+00 +1.76860E+01 -8.45578E+00 +1.76264E+01 -1.08816E+01 +1.71452E+01 -1.32433E+01 +1.62430E+01
 -1.54653E+01 +1.49343E+01 -1.74754E+01 +1.32473E+01 -1.92076E+01 +1.12228E+01 -2.06038E+01 +8.91284E+00
 -2.16163E+01 +6.37943E+00 -2.22089E+01 +3.69228E+00 -2.23585E+01 +9.26700E-01 -2.20556E+01 -1.83885E+00
 -2.13048E+01 -4.52520E+00 -2.01248E+01 -7.05506E+00 -1.85475E+01 -9.35543E+00 -1.66175E+01 -1.13599E+01
 -1.43904E+01 -1.30110E+01 -1.19313E+01 -1.42616E+01 -9.31265E+00 -1.50767E+01 -6.61183E+00 -1.54347E+01
 -3.90910E+00 -1.53276E+01 -1.28489E+00 -1.47617E+01 +1.18263E+00 -1.37572E+01 +3.42001E+00 -1.23478E+01
 +5.36071E+00 -1.05791E+01 +6.94721E+00 -8.50798E+00 +8.13272E+00 -6.20021E+00 +8.88264E+00 -3.72869E+00
 +9.17550E+00 -1.17116E+00 +9.00369E+00 +1.39219E+00 +8.37355E+00 +3.88118E+00 +7.30521E+00 +6.21804E+00
 +5.83183E+00 +8.32980E+00 +3.99864E+00 +1.01505E+01 +1.86141E+00 +1.16230E+01 -5.15241E-01 +1.27009E+01
 -3.05984E+00 +1.33496E+01 -5.69631E+00 +1.35476E+01 -8.34622E+00 +1.32866E+01 -1.09312E+01 +1.25721E+01
 -1.33754E+01 +1.14230E+01 -1.56075E+01 +9.87048E+00 -1.75631E+01 +7.95767E+00 -1.91861E+01 +5.73772E+00
 -2.04311E+01 +3.27229E+00 -2.12637E+01 +6.29577E-01 -2.16622E+01 -2.11779E+00 -2.16176E+01 -4.89499E+00
 -2.11338E+01 -7.62725E+00 -2.02276E+01 -1.02421E+01 -1.89276E+01 -1.26716E+01 -1.72733E+01 -1.48540E+01
 -1.53141E+01 -1.67360E+01 -1.31071E+01 -1.82737E+01 -1.07156E+01 -1.94341E+01 -8.20726E+00 -2.01958E+01
 -5.65143E+00 -2.05494E+01 -3.11757E+00 -2.04977E+01 -6.72872E-01 -2.00553E+01 +1.61964E+00 -1.92478E+01
 +3.70295E+00 -1.81111E+01 +5.52768E+00 -1.66899E+01 +7.05342E+00 -1.50361E+01 +8.24975E+00 -1.32075E+01
 +9.09703E+00 -1.12653E+01 +9.58668E+00 -9.27245E+00 +9.72126E+00 -7.29184E+00 +9.51412E+00 -5.38407E+00
 +8.98876E+00 -3.60579E+00 +8.17784E+00 -2.00797E+00 +7.12198E+00 -6.34495E-01 +5.86830E+00 +4.79078E-01
 +4.46880E+00 +1.30641E+00 +2.97858E+00 +1.83100E+00 +1.45409E+00 +2.04646E+00 -4.87247E-02 +1.95649E+00
 -1.47616E+00 +1.57452E+00 -2.77842E+00 +9.23036E-01 -3.91109E+00 +3.26466E-02 -4.83643E+00 -1.05906E+00
 -5.52442E+00 -2.30892E+00 -5.95355E+00 -3.66966E+00 -6.11127E+00 -5.09158E+00 -5.99424E+00 -6.52414E+00
 -5.60816E+00 -7.91767E+00 -4.96742E+00 -9.22490E+00 -4.09440E+00 -1.04025E+01 -3.01858E+00 -1.14123E+01
 -1.77540E+00 -1.22224E+01 -4.04969E-01 -1.28084E+01 +1.04933E+00 -1.31534E+01 +2.54235E+00 -1.32490E+01
 +4.02868E+00 -1.30948E+01 +5.46416E+00 -1.26989E+01 +6.80727E+00 -1.20769E+01 +8.02045E+00 -1.12513E+01
 +9.07124E+00 -1.02508E+01 +9.93324E+00 -9.10917E+00 +1.05868E+01 -7.86393E+00 +1.10197E+01 -6.55506E+00
 +1.12270E+01 -5.22365E+00 +1.12115E+01 -3.91052E+00 +1.09832E+01 -2.65486E+00 +1.05588E+01 -1.49296E+00
 +9.96129E+00 -4.57101E-01 +9.21860E+00 +4.25462E-01 +8.36294E+00 +1.13328E+00 +7.42951E+00 +1.65131E+00
 +6.45524E+00 +1.97129E+00 +5.47756E+00 +2.09183E+00 +4.53312E+00 +2.01839E+00 +3.65663E+00 +1.76290E+00
 +2.87968E+00 +1.34324E+00 +2.22978E+00 +7.82565E-01 +1.72954E+00 +1.08378E-01 +1.39597E+00 -6.48438E-01
 +1.24006E+00 -1.45473E+00 +1.26651E+00 -2.27620E+00 +1.47369E+00 -3.07860E+00 +1.85382E+00 -3.82885E+00
 +2.39335E+00 -4.49612E+00 +3.07349E+00 -5.05280E+00 +3.87096E+00 -5.47536E+00 +4.75883E+00 -5.74507E+00
 +5.70747E+00 -5.84849E+00 +6.68558E+00 -5.77786E+00 +7.66124E+00 -5.53121E+00 +8.60301E+00 -5.11234E+00
 +9.48089E+00 -4.53058E+00 +1.02673E+01 -3.80036E+00 +1.09380E+01 -2.94067E+00 +1.14726E+01 -1.97434E+00
 +1.18554E+01 -9.27191E-01 +1.20756E+01 +1.72812E-01 +1.21279E+01 +1.29655E+00 +1.20119E+01 +2.41470E+00
 +1.17325E+01 +3.49870E+00 +1.12998E+01 +4.52162E+00 +1.07280E+01 +5.45903E+00 +1.00353E+01 +6.28970E+00
 +9.24325E+00 +6.99621E+00 +8.37564E+00 +7.56541E+00 +7.45802E+00 +7.98873E+00 +6.51662E+00 +8.26234E+00
 +5.57757E+00 +8.38712E+00 +4.66604E+00 +8.36852E+00 +3.80545E+00 +8.21624E+00 +3.01681E+00 +7.94379E+00
 +2.31804E+00 +7.56793E+00 +1.72356E+00 +7.10803E+00 +1.24391E+00 +6.58538E+00 +8.85524E-01 +6.02239E+00
 +6.50669E-01 +5.44187E+00 +5.37518E-01 +4.86626E+00 +5.40345E-01 +4.31689E+00 +6.49856E-01 +3.81336E+00
 +8.53617E-01 +3.37291E+00 +1.13658E+00 +3.01001E+00 +1.48168E+00 +2.73594E+00 +1.87045E+00 +2.55854E+00
 +2.28372E+00 +2.48210E+00 +2.70226E+00 +2.50738E+00 +3.10738E+00 +2.63168E+00 +3.48161E+00 +2.84909E+00
 +3.80914E+00 +3.15084E+00 +4.07633E+00 +3.52568E+00 +4.27204E+00 +3.96038E+00 +4.38791E+00 +4.44026E+00
 +4.41850E+00 +4.94972E+00 +4.36131E+00 +5.47283E+00 +4.21680E+00 +5.99384E+00 +3.98813E+00 +6.49776E+00
 +3.68100E+00 +6.97074E+00 +3.30329E+00 +7.40054E+00 +2.86467E+00 +7.77683E+00 +2.37622E+00 +8.09141E+00
 +1.84992E+00 +8.33841E+00 +1.29824E+00 +8.51432E+00 +7.33665E-01 +8.61795E+00 +1.68265E-01 +8.65037E+00
 -3.86682E-01 +8.61469E+00 -9.21028E-01 +8.51581E+00 -1.42603E+00 +8.36014E+00 -1.89453E+00 +8.15525E+00
 -2.32113E+00 +7.90950E+00 -2.70220E+00 +7.63170E+00 -3.03588E+00 +7.33075E+00 -3.32196E+00 +7.01529E+00
 -3.56180E+00 +6.69338E+00 -3.75804E+00 +6.37231E+00 -3.91445E+00 +6.05831E+00 -4.03558E+00 +5.75650E+00
 -4.12653E+00 +5.47072E+00 -4.19265E+00 +5.20358E+00 -4.23927E+00 +4.95647E+00 -4.27147E+00 +4.72965E+00
 -4.29382E+00 +4.52240E+00 -4.31026E+00 +4.33320E+00 -4.32396E+00 +4.15993E+00 -4.33722E+00 +4.00010E+00
 -4.35152E+00 +3.85108E+00 -4.36748E+00 +3.71028E+00 -4.38499E+00 +3.57540E+00 -4.40333E+00 +3.44457E+00
 -4.42131E+00 +3.31647E+00 -4.43748E+00 +3.19044E+00 -4.45030E+00 +3.06651E+00 -4.45837E+00 +2.94540E+00
 -4.46060E+00 +2.82843E+00 -4.45638E+00 +2.71744E+00 -4.44574E+00 +2.61465E+00 -4.42944E+00 +2.52245E+00
 -4.40903E+00 +2.44324E+00 -4.38688E+00 +2.37917E+00 -4.36609E+00 +2.33199E+00 -4.35044E+00 +2.30275E+00
 -4.34425E+00 +2.29171E+00 -4.35214E+00 +2.29813E+00 -4.37887E+00 +2.32020E+00 -4.42906E+00 +2.35494E+00
 -4.50692E+00 +2.39824E+00 -4.61600E+00 +2.44488E+00 -4.75891E+00 +2.48868E+00 -4.93713E+00 +2.52264E+00
 -5.15073E+00 +2.53920E+00 -5.39830E+00 +2.53049E+00 -5.67679E+00 +2.48865E+00 -5.98151E+00 +2.40614E+00
 -6.30613E+00 +2.27613E+00 -6.64283E+00 +2.09280E+00 -6.98243E+00 +1.85168E+00 -7.31466E+00 +1.54995E+00
 -7.62848E+00 +1.18665E+00 -7.91238E+00 +7.62931E-01 -8.15486E+00 +2.82099E-01 -8.34477E+00 -2.50298E-01
 -8.47182E+00 -8.26535E-01 -8.52697E+00 -1.43684E+00 -8.50284E+00 -2.06960E+00 -8.39410E+00 -2.71169E+00
 -8.19775E+00 -3.34880E+00 -7.91340E+00 -3.96591E+00 -7.54341E+00 -4.54775E+00 -7.09296E+00 -5.07935E+00
 -6.57000E+00 -5.54652E+00 -5.98517E+00 -5.93643E+00 -5.35150E+00 -6.23811E+00 -4.68412E+00 -6.44288E+00
 -3.99982E+00 -6.54478E+00 -3.31655E+00 -6.54090E+00 -2.65288E+00 -6.43158E+00 -2.02735E+00 -6.22055E+00
 -1.45789E+00 -5.91496E+00 -9.61140E-01 -5.52523E+00 -5.51880E-01 -5.06483E+00 -2.42427E-01 -4.54996E+00
 -4.21436E-02 -3.99909E+00 +4.29892E-02 -3.43240E+00 +1.06882E-02 -2.87117E+00 -1.37427E-01 -2.33708E+00
 -3.95761E-01 -1.85151E+00 -7.54796E-01 -1.43479E+00 -1.20130E+00 -1.10548E+00 -1.71863E+00 -8.79688E-01
 -2.28723E+00 -7.70458E-01 -2.88517E+00 -7.87208E-01 -3.48881E+00 -9.35324E-01 -4.07357E+00 -1.21584E+00
 -4.61474E+00 -1.62529E+00 -5.08826E+00 -2.15567E+00 -5.47159E+00 -2.79458E+00 -5.74451E+00 -3.52554E+00
 -5.88986E+00 -4.32839E+00 -5.89420E+00 -5.17986E+00 -5.74834E+00 -6.05431E+00 -5.44783E+00 -6.92447E+00
 -4.99317E+00 -7.76232E+00 -4.38999E+00 -8.54002E+00 -3.64892E+00 -9.23082E+00 -2.78547E+00 -9.80997E+00
 -1.81955E+00 -1.02556E+01 -7.74976E-01 -1.05497E+01 +3.21225E-01 -1.06783E+01 +1.43964E+00 -1.06326E+01
 +2.54936E+00 -1.04091E+01 +3.61900E+00 -1.00100E+01 +4.61766E+00 -9.44293E+00 +5.51600E+00 -8.72128E+00
 +6.28721E+00 -7.86355E+00 +6.90795E+00 -6.89300E+00 +7.35920E+00 -5.83698E+00 +7.62696E+00 -4.72610E+00
 +7.70282E+00 -3.59336E+00 +7.58435E+00 -2.47305E+00 +7.27529E+00 -1.39970E+00 +6.78559E+00 -4.06968E-01
 +6.13118E+00 +4.73484E-01 +5.33357E+00 +1.21306E+00 +4.41928E+00 +1.78720E+00 +3.41906E+00 +2.17629E+00
