 Created: 19-Jan-2021
 $NMID
 ID='D:\BASISSIMULATI'
 FMTDAT='(8E13.5)'
 VOLUME=   1.00000E+00
 TRAMP=   1.00000E+00
 $END
 +2.23539E+01 +2.13015E+00 +2.05981E+01 +8.71226E+00 +1.67749E+01 +1.42894E+01 +1.13829E+01 +1.82121E+01
 +5.11597E+00 +2.00576E+01 -1.23397E+00 +1.96833E+01 -6.88553E+00 +1.72410E+01 -1.11736E+01 +1.31499E+01
 -1.36370E+01 +8.03386E+00 -1.40764E+01 +2.63123E+00 -1.25751E+01 -2.30909E+00 -9.48008E+00 -6.13094E+00
 -5.34706E+00 -8.35924E+00 -8.57835E-01 -8.76123E+00 +3.27814E+00 -7.37264E+00 +6.42382E+00 -4.48608E+00
 +8.10234E+00 -6.03798E-01 +8.06054E+00 +3.63773E+00 +6.29994E+00 +7.56023E+00 +3.07151E+00 +1.05399E+01
 -1.16417E+00 +1.20940E+01 -5.80501E+00 +1.19462E+01 -1.01938E+01 +1.00612E+01 -1.37102E+01 +6.64627E+00
 -1.58558E+01 +2.11802E+00 -1.63204E+01 -2.95795E+00 -1.50207E+01 -7.94703E+00 -1.21070E+01 -1.22330E+01
 -7.93834E+00 -1.53007E+01 -3.02881E+00 -1.68026E+01 +2.02496E+00 -1.66012E+01 +6.62579E+00 -1.47808E+01
 +1.02555E+01 -1.16299E+01 +1.25410E+01 -7.59554E+00 +1.32990E+01 -3.21793E+00 +1.25530E+01 +9.44991E-01
 +1.05215E+01 +4.39317E+00 +7.58085E+00 +6.74914E+00 +4.20716E+00 +7.80375E+00 +9.07380E-01 +7.53709E+00
 -1.85137E+00 +6.11283E+00 -3.70422E+00 +3.84762E+00 -4.43453E+00 +1.16072E+00 -3.99769E+00 -1.48850E+00
 -2.52040E+00 -3.66616E+00 -2.76309E-01 -5.02341E+00 +2.35751E+00 -5.34212E+00 +4.95679E+00 -4.56076E+00
 +7.11070E+00 -2.77790E+00 +8.47841E+00 -2.33619E-01 +8.83405E+00 +2.72784E+00 +8.09442E+00 +5.70824E+00
 +6.32626E+00 +8.31109E+00 +3.73298E+00 +1.01952E+01 +6.23369E-01 +1.11187E+01 -2.63266E+00 +1.09684E+01
 -5.65492E+00 +9.77043E+00 -8.10320E+00 +7.68209E+00 -9.72023E+00 +4.96656E+00 -1.03619E+01 +1.95449E+00
 -1.00112E+01 -1.00169E+00 -8.77493E+00 -3.57441E+00 -6.86372E+00 -5.50225E+00 -4.55993E+00 -6.62066E+00
 -2.17691E+00 -6.87844E+00 -1.64323E-02 -6.33846E+00 +1.67049E+00 -5.16324E+00 +2.71415E+00 -3.58798E+00
 +3.04443E+00 -1.88517E+00 +2.69495E+00 -3.25941E-01 +1.79314E+00 +8.56656E-01 +5.38259E-01 +1.49758E+00
 -8.29324E-01 +1.51929E+00 -2.06299E+00 +9.38676E-01 -2.94418E+00 -1.39012E-01 -3.31155E+00 -1.53784E+00
 -3.08139E+00 -3.03767E+00 -2.25689E+00 -4.40565E+00 -9.25490E-01 -5.42827E+00 +7.54872E-01 -5.93984E+00
 +2.57845E+00 -5.84371E+00 +4.32000E+00 -5.12377E+00 +5.76483E+00 -3.84500E+00 +6.73657E+00 -2.14342E+00
 +7.11926E+00 -2.07050E-01 +6.87088E+00 +1.74929E+00 +6.02704E+00 +3.51200E+00 +4.69452E+00 +4.89574E+00
 +3.03588E+00 +5.76607E+00 +1.24732E+00 +6.05493E+00 -4.67071E-01 +5.76720E+00 -1.92139E+00 +4.97762E+00
 -2.97088E+00 +3.81898E+00 -3.52889E+00 +2.46305E+00 -3.57593E+00 +1.09716E+00 -3.15972E+00 -1.00627E-01
 -2.38655E+00 -9.84427E-01 -1.40526E+00 -1.45865E+00 -3.86018E-01 -1.48904E+00 +5.03132E-01 -1.10543E+00
 +1.11896E+00 -3.95965E-01 +1.36194E+00 +5.06287E-01 +1.18904E+00 +1.44240E+00 +6.18746E-01 +2.24982E+00
 -2.72151E-01 +2.78472E+00 -1.35954E+00 +2.94164E+00 -2.48915E+00 +2.66778E+00 -3.49757E+00 +1.97016E+00
 -4.23443E+00 +9.14776E-01 -4.58262E+00 -3.82050E-01 -4.47411E+00 -1.76898E+00 -3.89924E+00 -3.07951E+00
 -2.90823E+00 -4.15385E+00 -1.60485E+00 -4.85972E+00 -1.33166E-01 -5.10963E+00 +1.34106E+00 -4.87217E+00
 +2.65161E+00 -4.17599E+00 +3.65312E+00 -3.10594E+00 +4.23945E+00 -1.79194E+00 +4.35699E+00 -3.92053E-01
 +4.01094E+00 +9.27963E-01 +3.26394E+00 +2.01591E+00 +2.22731E+00 +2.75249E+00 +1.04596E+00 +3.06616E+00
 -1.20846E-01 +2.94157E+00 -1.12039E+00 +2.42068E+00 -1.82635E+00 +1.59629E+00 -2.15487E+00 +5.98981E-01
 -2.07498E+00 -4.20616E-01 -1.61183E+00 -1.31211E+00 -8.42626E-01 -1.94530E+00 +1.14322E-01 -2.22723E+00
 +1.11578E+00 -2.11420E+00 +2.01291E+00 -1.61716E+00 +2.67111E+00 -7.99842E-01 +2.98780E+00 +2.29950E-01
 +2.90590E+00 +1.33478E+00 +2.42120E+00 +2.36576E+00 +1.58285E+00 +3.18203E+00 +4.86900E-01 +3.66906E+00
 -7.36082E-01 +3.75348E+00 -1.93780E+00 +3.41239E+00 -2.97106E+00 +2.67628E+00 -3.70839E+00 +1.62511E+00
 -4.05794E+00 +3.78175E-01 -3.97477E+00 -9.20846E-01 -3.46625E+00 -2.12173E+00 -2.59086E+00 -3.08619E+00
 -1.45068E+00 -3.70469E+00 -1.78720E-01 -3.90948E+00 +1.07751E+00 -3.68246E+00 +2.17388E+00 -3.05686E+00
 +2.98692E+00 -2.11265E+00 +3.42836E+00 -9.66465E-01 +3.45530E+00 +2.42794E-01 +3.07478E+00 +1.37085E+00
 +2.34232E+00 +2.28530E+00 +1.35473E+00 +2.88134E+00 +2.38116E-01 +3.09392E+00 -8.67484E-01 +2.90516E+00
 -1.82497E+00 +2.34605E+00 -2.51655E+00 +1.49245E+00 -2.85778E+00 +4.55715E-01 -2.80757E+00 -6.30704E-01
 -2.37313E+00 -1.62734E+00 -1.60917E+00 -2.40545E+00 -6.11563E-01 -2.86256E+00 +4.93883E-01 -2.93503E+00
 +1.56632E+00 -2.60611E+00 +2.46663E+00 -1.90863E+00 +3.07429E+00 -9.21749E-01 +3.30228E+00 +2.37672E-01
 +3.10831E+00 +1.42847E+00 +2.50100E+00 +2.50167E+00 +1.54011E+00 +3.31836E+00 +3.30726E-01 +3.76682E+00
 -9.88247E-01 +3.77682E+00 -2.25990E+00 +3.32946E+00 -3.32790E+00 +2.46103E+00 -4.05550E+00 +1.26034E+00
 -4.34297E+00 -1.40388E-01 -4.14090E+00 -1.58033E+00 -3.45802E+00 -2.88885E+00 -2.36195E+00 -3.90619E+00
 -9.72752E-01 -4.50356E+00 +5.50254E-01 -4.60009E+00 +2.02713E+00 -4.17443E+00 +3.27920E+00 -3.26924E+00
 +4.15154E+00 -1.98775E+00 +4.53331E+00 -4.82528E-01 +4.37308E+00 +1.06251E+00 +3.68715E+00 +2.45474E+00
 +2.55930E+00 +3.51732E+00 +1.13184E+00 +4.11259E+00 -4.11305E-01 +4.16102E+00 -1.86762E+00 +3.65324E+00
 -3.04216E+00 +2.65317E+00 -3.77356E+00 +1.29151E+00 -3.95651E+00 -2.49827E-01 -3.55734E+00 -1.76067E+00
 -2.62055E+00 -3.03011E+00 -1.26493E+00 -3.87490E+00 +3.30397E-01 -4.16506E+00 +1.94867E+00 -3.84304E+00
 +3.36385E+00 -2.93356E+00 +4.37126E+00 -1.54253E+00 +4.81601E+00 +1.55081E-01 +4.61557E+00 +1.93730E+00
 +3.77298E+00 +3.56415E+00 +2.37871E+00 +4.80998E+00 +6.00454E-01 +5.49464E+00 -1.33778E+00 +5.50920E+00
 -3.18503E+00 +4.83244E+00 -4.69698E+00 +3.53573E+00 -5.66948E+00 +1.77513E+00 -5.96721E+00 -2.28255E-01
 -5.54334E+00 -2.21738E+00 -4.44736E+00 -3.93386E+00 -2.81969E+00 -5.15329E+00 -8.73590E-01 -5.71655E+00
 +1.13335E+00 -5.55236E+00 +2.93427E+00 -4.68802E+00 +4.28981E+00 -3.24651E+00 +5.02156E+00 -1.43015E+00
 +5.03723E+00 +5.06961E-01 +4.34406E+00 +2.29412E+00 +3.04836E+00 +3.68180E+00 +1.34103E+00 +4.47679E+00
 -5.28913E-01 +4.56968E+00 -2.28926E+00 +3.95064E+00 -3.68302E+00 +2.71129E+00 -4.50496E+00 +1.03207E+00
 -4.63097E+00 -8.42950E-01 -4.03603E+00 -2.64058E+00 -2.79823E+00 -4.09722E+00 -1.08803E+00 -4.99642E+00
 +8.55615E-01 -5.19989E+00 +2.75903E+00 -4.66744E+00 +4.35261E+00 -3.46297E+00 +5.40909E+00 -1.74565E+00
 +5.77590E+00 +2.52488E-01 +5.39681E+00 +2.25942E+00 +4.31985E+00 +4.00163E+00 +2.69038E+00 +5.24283E+00
 +7.30249E-01 +5.81729E+00 -1.29390E+00 +5.65298E+00 -3.10860E+00 +4.78124E+00 -4.47229E+00 +3.33168E+00
 -5.20934E+00 +1.51300E+00 -5.23436E+00 -4.17364E-01 -4.56341E+00 -2.19034E+00 -3.31055E+00 -3.56372E+00
 -1.67039E+00 -4.35646E+00 +1.10843E-01 -4.47381E+00 +1.77137E+00 -3.91983E+00 +3.07179E+00 -2.79544E+00
 +3.82939E+00 -1.28253E+00 +3.94380E+00 +3.83495E-01 +3.41051E+00 +1.94860E+00 +2.32024E+00 +3.17735E+00
 +8.44511E-01 +3.88691E+00 -7.90372E-01 +3.97313E+00 -2.33698E+00 +3.42473E+00 -3.56313E+00 +2.32388E+00
 -4.28554E+00 +8.33143E-01 -4.39599E+00 -8.29116E-01 -3.87621E+00 -2.42116E+00 -2.79949E+00 -3.71324E+00
 -1.31898E+00 -4.52083E+00 +3.55516E-01 -4.73073E+00 +1.98855E+00 -4.31654E+00 +3.35343E+00 -3.34128E+00
 +4.26472E+00 -1.94698E+00 +4.60434E+00 -3.32981E-01 +4.33742E+00 +1.27365E+00 +3.51587E+00 +2.65132E+00
 +2.26931E+00 +3.61567E+00 +7.84888E-01 +4.04539E+00 -7.20835E-01 +3.89846E+00 -2.03373E+00 +3.21648E+00
 -2.97301E+00 +2.11696E+00 -3.41660E+00 +7.74607E-01 -3.31763E+00 -6.05245E-01 -2.70949E+00 -1.81709E+00
 -1.69931E+00 -2.68516E+00 -4.50763E-01 -3.08838E+00 +8.41016E-01 -2.97686E+00 +1.97848E+00 -2.37773E+00
 +2.79054E+00 -1.38969E+00 +3.15706E+00 -1.67256E-01 +3.02537E+00 +1.10276E+00 +2.41680E+00 +2.22899E+00
 +1.42234E+00 +3.04335E+00 +1.88324E-01 +3.42500E+00 -1.10557E+00 +3.31706E+00 -2.27264E+00 +2.73376E+00
 -3.14609E+00 +1.75734E+00 -3.60244E+00 +5.25215E-01 -3.57847E+00 -7.90387E-01 -3.07915E+00 -2.00739E+00
 -2.17578E+00 -2.95970E+00 -9.94885E-01 -3.52023E+00 +3.00539E-01 -3.61799E+00 +1.53441E+00 -3.24691E+00
 +2.54231E+00 -2.46541E+00 +3.19401E+00 -1.38699E+00 +3.41078E+00 -1.63327E-01 +3.17510E+00 +1.03747E+00
 +2.53171E+00 +2.05439E+00 +1.58001E+00 +2.75556E+00 +4.59124E-01 +3.05564E+00 -6.72144E-01 +2.92652E+00
 -1.65757E+00 +2.39983E+00 -2.36490E+00 +1.56119E+00 -2.70348E+00 +5.37343E-01 -2.63573E+00 -5.22182E-01
 -2.18130E+00 -1.46599E+00 -1.41317E+00 -2.16160E+00 -4.46803E-01 -2.51317E+00 +5.76366E-01 -2.47401E+00
 +1.50852E+00 -2.05220E+00 +2.21564E+00 -1.30874E+00 +2.59543E+00 -3.48739E-01 +2.59081E+00 +6.93221E-01
 +2.19721E+00 +1.67134E+00 +1.46283E+00 +2.44813E+00 +4.81947E-01 +2.91269E+00 -6.17696E-01 +2.99517E+00
 -1.69178E+00 +2.67592E+00 -2.59830E+00 +1.98792E+00 -3.21605E+00 +1.01247E+00 -3.46032E+00 -1.31368E-01
 -3.29381E+00 -1.30211E+00 -2.73151E+00 -2.35402E+00 -1.83874E+00 -3.15583E+00 -7.22952E-01 -3.60749E+00
 +4.80027E-01 -3.65307E+00 +1.62328E+00 -3.28797E+00 +2.56762E+00 -2.55957E+00 +3.19943E+00 -1.56131E+00
 +3.44540E+00 -4.20775E-01 +3.28209E+00 +7.16714E-01 +2.73919E+00 +1.70686E+00 +1.89596E+00 +2.42524E+00
 +8.71039E-01 +2.78383E+00 -1.92854E-01 +2.74287E+00 -1.14773E+00 +2.31667E+00 -1.86010E+00 +1.57227E+00
 -2.22919E+00 +6.21205E-01 -2.20114E+00 -3.94985E-01 -1.77726E+00 -1.32347E+00 -1.01500E+00 -2.02086E+00
 -2.14322E-02 -2.37319E+00 +1.06029E+00 -2.31240E+00 +2.06967E+00 -1.82712E+00 +2.85060E+00 -9.65940E-01
 +3.27316E+00 +1.67401E-01 +3.25248E+00 +1.42653E+00 +2.76205E+00 +2.64129E+00 +1.83941E+00 +3.64043E+00
 +5.83169E-01 +4.27524E+00 -8.58535E-01 +4.44091E+00 -2.30679E+00 +4.09234E+00 -3.57561E+00 +3.25239E+00
 -4.49735E+00 +2.01076E+00 -4.94638E+00 +5.13577E-01 -4.85764E+00 -1.05522E+00 -4.23717E+00 -2.49842E+00
 -3.16308E+00 -3.63263E+00 -1.77622E+00 -4.31424E+00 -2.61768E-01 -4.46040E+00 +1.17601E+00 -4.06201E+00
 +2.34247E+00 -3.18645E+00 +3.08058E+00 -1.96943E+00 +3.29439E+00 -5.96730E-01 +2.96413E+00 +7.21783E-01
