 Created: 19-Jan-2021
 $NMID
 ID='D:\BASISSIMULATI'
 FMTDAT='(8E13.5)'
 VOLUME=   1.00000E+00
 TRAMP=   1.00000E+00
 $END
 +4.93764E+01 +2.47574E+00 +4.09248E+01 +2.65708E+01 +2.08304E+01 +4.17278E+01 -3.57081E+00 +4.30917E+01
 -2.36322E+01 +3.10556E+01 -3.27692E+01 +1.09230E+01 -2.89018E+01 -9.37219E+00 -1.50001E+01 -2.25041E+01
 +2.42992E+00 -2.45947E+01 +1.62176E+01 -1.64988E+01 +2.15070E+01 -3.06390E+00 +1.75885E+01 +9.23880E+00
 +7.85229E+00 +1.52364E+01 -2.04028E+00 +1.32482E+01 -6.90518E+00 +5.62084E+00 -4.46121E+00 -2.57926E+00
 +3.64228E+00 -6.09205E+00 +1.26386E+01 -2.05160E+00 +1.69201E+01 +8.53564E+00 +1.27523E+01 +2.10979E+01
 +1.99992E-01 +2.94743E+01 -1.66163E+01 +2.87025E+01 -3.10916E+01 +1.73915E+01 -3.68904E+01 -1.38230E+00
 -3.07126E+01 -2.10912E+01 -1.38762E+01 -3.42986E+01 +7.98936E+00 -3.56807E+01 +2.70503E+01 -2.42627E+01
 +3.63246E+01 -3.92270E+00 +3.24333E+01 +1.80633E+01 +1.69149E+01 +3.38442E+01 -4.42770E+00 +3.80279E+01
 -2.38628E+01 +2.96912E+01 -3.47702E+01 +1.25671E+01 -3.41365E+01 -6.62267E+00 -2.35055E+01 -2.09562E+01
 -8.04999E+00 -2.60412E+01 +5.77851E+00 -2.15649E+01 +1.29848E+01 -1.10718E+01 +1.19857E+01 -1.39710E-01
 +4.98998E+00 +6.19731E+00 -3.29390E+00 +5.64085E+00 -7.99378E+00 -5.07786E-01 -6.38838E+00 -8.14797E+00
 +8.32192E-01 -1.24458E+01 +9.90976E+00 -1.02151E+01 +1.57989E+01 -1.53265E+00 +1.45811E+01 +1.01447E+01
 +5.42582E+00 +1.94326E+01 -8.79196E+00 +2.14140E+01 -2.25257E+01 +1.39277E+01 -2.98276E+01 -1.26315E+00
 -2.68971E+01 -1.89649E+01 -1.38129E+01 -3.25387E+01 +5.30767E+00 -3.65658E+01 +2.38211E+01 -2.90815E+01
 +3.51323E+01 -1.24400E+01 +3.52779E+01 +7.55723E+00 +2.44571E+01 +2.39155E+01 +6.89234E+00 +3.11559E+01
 -1.09010E+01 +2.73729E+01 -2.27055E+01 +1.48206E+01 -2.49784E+01 -1.17354E+00 -1.80545E+01 -1.44692E+01
 -5.73000E+00 -2.05825E+01 +6.53557E+00 -1.83383E+01 +1.39887E+01 -1.00567E+01 +1.45027E+01 -2.65978E-01
 +9.25577E+00 +6.44437E+00 +1.92967E+00 +7.46737E+00 -3.15996E+00 +3.23273E+00 -3.14026E+00 -3.15860E+00
 +2.06798E+00 -7.51801E+00 +9.71933E+00 -6.63564E+00 +1.55349E+01 +1.09394E-01 +1.57312E+01 +1.03250E+01
 +8.87467E+00 +1.95703E+01 -3.27386E+00 +2.32968E+01 -1.63242E+01 +1.89198E+01 -2.50144E+01 +7.10924E+00
 -2.54234E+01 -8.28295E+00 -1.66966E+01 -2.16599E+01 -1.53805E+00 -2.78973E+01 +1.47563E+01 -2.44219E+01
 +2.63389E+01 -1.22835E+01 +2.90890E+01 +4.22506E+00 +2.21949E+01 +1.92437E+01 +8.40461E+00 +2.76211E+01
 -7.13642E+00 +2.68608E+01 -1.89571E+01 +1.79573E+01 -2.33762E+01 +4.81728E+00 -1.98023E+01 -7.44782E+00
 -1.07215E+01 -1.46146E+01 -4.40136E-01 -1.49485E+01 +6.83697E+00 -9.67397E+00 +8.75046E+00 -2.17427E+00
 +5.62366E+00 +3.67390E+00 +7.62472E-02 +5.27187E+00 -4.36169E+00 +2.39928E+00 -4.98404E+00 -2.81727E+00
 -1.20564E+00 -7.01850E+00 +5.15383E+00 -7.28421E+00 +1.07163E+01 -2.59833E+00 +1.21366E+01 +5.55765E+00
 +7.72243E+00 +1.37584E+01 -1.64442E+00 +1.81035E+01 -1.27129E+01 +1.59629E+01 -2.11269E+01 +7.23716E+00
 -2.32241E+01 -5.43028E+00 -1.76070E+01 -1.76015E+01 -5.81590E+00 -2.47732E+01 +8.19081E+00 -2.41727E+01
 +1.95441E+01 -1.58775E+01 +2.43415E+01 -2.79917E+00 +2.11302E+01 +1.04571E+01 +1.13991E+01 +1.93790E+01
 -1.09360E+00 +2.12480E+01 -1.18568E+01 +1.60736E+01 -1.74155E+01 +6.41245E+00 -1.65586E+01 -3.80554E+00
 -1.06048E+01 -1.09197E+01 -2.63066E+00 -1.29524E+01 +3.95901E+00 -1.02247E+01 +6.88207E+00 -4.96286E+00
 +5.83352E+00 -1.25355E-01 +2.41077E+00 +2.00008E+00 -8.08324E-01 +8.02721E-01 -1.58587E+00 -2.47053E+00
 +8.66541E-01 -5.41120E+00 +5.48848E+00 -5.68292E+00 +9.85446E+00 -2.22073E+00 +1.13173E+01 +4.15352E+00
 +8.29434E+00 +1.09856E+01 +1.11531E+00 +1.52121E+01 -7.95674E+00 +1.45102E+01 -1.55624E+01 +8.38704E+00
 -1.85969E+01 -1.47435E+00 -1.55093E+01 -1.17753E+01 -6.99955E+00 -1.88503E+01 +4.18325E+00 -2.00933E+01
 +1.42633E+01 -1.49772E+01 +1.98658E+01 -5.25538E+00 +1.92707E+01 +5.72863E+00 +1.29975E+01 +1.43277E+01
 +3.50689E+00 +1.79472E+01 -5.82598E+00 +1.59312E+01 -1.20274E+01 +9.64869E+00 -1.35896E+01 +1.79233E+00
 -1.08741E+01 -4.78035E+00 -5.73842E+00 -8.16281E+00 -5.97458E-01 -8.01893E+00 +2.64614E+00 -5.48792E+00
 +3.33840E+00 -2.47193E+00 +2.18514E+00 -6.62046E-01 +7.33439E-01 -7.51534E-01 +4.96057E-01 -2.17959E+00
 +2.13867E+00 -3.49717E+00 +5.10617E+00 -3.16392E+00 +7.85624E+00 -3.94709E-01 +8.59007E+00 +4.34175E+00
 +6.14580E+00 +9.40989E+00 +6.46531E-01 +1.26538E+01 -6.39858E+00 +1.23275E+01 -1.26031E+01 +7.90449E+00
 -1.56204E+01 +4.11020E-01 -1.40898E+01 -7.87189E+00 -8.21823E+00 -1.42272E+01 +2.44954E-01 -1.65126E+01
 +8.63093E+00 -1.39575E+01 +1.43208E+01 -7.43337E+00 +1.56749E+01 +8.98621E-01 +1.25631E+01 +8.40468E+00
 +6.31084E+00 +1.29254E+01 -8.85150E-01 +1.34816E+01 -6.80997E+00 +1.04858E+01 -1.00014E+01 +5.41788E+00
 -1.01473E+01 +1.43016E-01 -7.99294E+00 -3.82388E+00 -4.85098E+00 -5.80531E+00 -1.96447E+00 -6.03130E+00
 -9.09714E-03 -5.31510E+00 +1.06467E+00 -4.52513E+00 +1.81770E+00 -4.11643E+00 +2.87498E+00 -3.93661E+00
 +4.48138E+00 -3.37971E+00 +6.28277E+00 -1.79442E+00 +7.44002E+00 +1.06389E+00 +7.02362E+00 +4.76495E+00
 +4.50420E+00 +8.25954E+00 +1.07691E-01 +1.02499E+01 -5.13793E+00 +9.72133E+00 -9.70298E+00 +6.40595E+00
 -1.20911E+01 +9.75841E-01 -1.13955E+01 -5.12519E+00 -7.65287E+00 -1.01517E+01 -1.85535E+00 -1.26466E+01
 +4.38033E+00 -1.19254E+01 +9.35313E+00 -8.27647E+00 +1.18194E+01 -2.81840E+00 +1.13410E+01 +2.91092E+00
 +8.33257E+00 +7.46335E+00 +3.82478E+00 +9.89686E+00 -9.34710E-01 +9.96508E+00 -4.87698E+00 +8.04944E+00
 -7.36402E+00 +4.90559E+00 -8.23734E+00 +1.35572E+00 -7.69552E+00 -1.94549E+00 -6.09700E+00 -4.60089E+00
 -3.79550E+00 -6.42488E+00 -1.07549E+00 -7.33170E+00 +1.81117E+00 -7.24636E+00 +4.56365E+00 -6.09744E+00
 +6.78304E+00 -3.89376E+00 +8.01055E+00 -8.32608E-01 +7.85514E+00 +2.63656E+00 +6.15870E+00 +5.85090E+00
 +3.11886E+00 +8.08372E+00 -6.98725E-01 +8.75706E+00 -4.48026E+00 +7.63465E+00 -7.38031E+00 +4.91621E+00
 -8.75697E+00 +1.19330E+00 -8.34083E+00 -2.71651E+00 -6.28272E+00 -5.99309E+00 -3.07616E+00 -8.01424E+00
 +6.01247E-01 -8.47102E+00 +4.06002E+00 -7.37889E+00 +6.72688E+00 -5.01001E+00 +8.20503E+00 -1.79697E+00
 +8.28182E+00 +1.74699E+00 +6.92039E+00 +5.07457E+00 +4.26688E+00 +7.63471E+00 +6.75975E-01 +8.92099E+00
 -3.27462E+00 +8.56271E+00 -6.82623E+00 +6.44991E+00 -9.16882E+00 +2.84548E+00 -9.64777E+00 -1.58190E+00
 -7.98875E+00 -5.85571E+00 -4.45090E+00 -8.92372E+00 +1.73123E-01 -9.96536E+00 +4.74152E+00 -8.66856E+00
 +8.09024E+00 -5.36401E+00 +9.39421E+00 -9.48940E-01 +8.42901E+00 +3.38853E+00 +5.62866E+00 +6.55087E+00
 +1.91188E+00 +7.87639E+00 -1.65700E+00 +7.31592E+00 -4.23761E+00 +5.37533E+00 -5.46524E+00 +2.85545E+00
 -5.48790E+00 +5.07059E-01 -4.78658E+00 -1.24712E+00 -3.87367E+00 -2.40390E+00 -3.01852E+00 -3.25325E+00
 -2.13549E+00 -4.10675E+00 -8.90685E-01 -5.02477E+00 +1.02451E+00 -5.69159E+00 +3.59316E+00 -5.51920E+00
 +6.31034E+00 -3.94935E+00 +8.26840E+00 -8.18412E-01 +8.48687E+00 +3.39746E+00 +6.36204E+00 +7.60237E+00
 +2.03740E+00 +1.04013E+01 -3.49101E+00 +1.06192E+01 -8.62046E+00 +7.81186E+00 -1.16758E+01 +2.54496E+00
 -1.15359E+01 -3.70548E+00 -8.09851E+00 -9.02388E+00 -2.37959E+00 -1.17326E+01 +3.81574E+00 -1.10127E+01
 +8.53813E+00 -7.21507E+00 +1.04050E+01 -1.72532E+00 +9.09312E+00 +3.57043E+00 +5.41134E+00 +7.00734E+00
 +9.26084E-01 +7.75663E+00 -2.70275E+00 +6.08189E+00 -4.39297E+00 +3.13623E+00 -4.03380E+00 +3.96161E-01
 -2.43824E+00 -1.01540E+00 -8.83567E-01 -8.15847E-01 -4.52798E-01 +3.57349E-01 -1.48064E+00 +1.30890E+00
 -3.36405E+00 +9.24337E-01 -4.83552E+00 -1.21112E+00 -4.58642E+00 -4.50954E+00 -1.96110E+00 -7.55425E+00
 +2.60357E+00 -8.69876E+00 +7.61831E+00 -6.83993E+00 +1.10801E+01 -2.02032E+00 +1.13032E+01 +4.42900E+00
 +7.69187E+00 +1.03051E+01 +1.11037E+00 +1.33667E+01 -6.33953E+00 +1.22517E+01 -1.20732E+01 +7.08921E+00
 -1.40194E+01 -4.67799E-01 -1.14514E+01 -7.82936E+00 -5.30062E+00 -1.24531E+01 +2.19057E+00 -1.28291E+01
 +8.34603E+00 -9.05916E+00 +1.11069E+01 -2.78563E+00 +9.82179E+00 +3.50251E+00 +5.44806E+00 +7.49705E+00
 +8.33715E-02 +7.99861E+00 -3.96768E+00 +5.35410E+00 -5.18803E+00 +1.22216E+00 -3.47311E+00 -2.22477E+00
 -1.15920E-01 -3.30758E+00 +2.83824E+00 -1.60982E+00 +3.57926E+00 +1.83569E+00 +1.41867E+00 +5.03235E+00
 -2.83021E+00 +5.96777E+00 -7.16453E+00 +3.60289E+00 -9.27686E+00 -1.54847E+00 -7.63212E+00 -7.52969E+00
 -2.25710E+00 -1.17224E+01 +5.12636E+00 -1.19794E+01 +1.17165E+01 -7.62186E+00 +1.47605E+01 +1.44983E-01
 +1.27295E+01 +8.60760E+00 +6.03240E+00 +1.45835E+01 -3.05364E+00 +1.57058E+01 -1.12354E+01 +1.14159E+01
 -1.55014E+01 +3.23738E+00 -1.43307E+01 -5.80189E+00 -8.30587E+00 -1.23712E+01 +1.32498E-01 -1.41690E+01
 +7.69423E+00 -1.08290E+01 +1.15890E+01 -4.02113E+00 +1.06497E+01 +3.29377E+00 +5.75713E+00 +8.13662E+00
 -6.10874E-01 +8.76466E+00 -5.50381E+00 +5.37150E+00 -6.80750E+00 -6.58257E-02 -4.16561E+00 -4.72123E+00
 +8.89647E-01 -6.22314E+00 +5.65686E+00 -3.75092E+00 +7.52021E+00 +1.56507E+00 +5.18512E+00 +7.12765E+00
 -6.59471E-01 +1.00396E+01 -7.56274E+00 +8.44615E+00 -1.23430E+01 +2.45678E+00 -1.24940E+01 -5.77795E+00
 -7.35566E+00 -1.28978E+01 +1.47550E+00 -1.57382E+01 +1.07026E+01 -1.27154E+01 +1.66435E+01 -4.58882E+00
 +1.67620E+01 +5.74845E+00 +1.07664E+01 +1.43890E+01 +7.96386E-01 +1.79885E+01 -9.40003E+00 +1.51426E+01
 -1.59704E+01 +6.98029E+00 -1.65187E+01 -3.28711E+00 -1.10686E+01 -1.16790E+01 -2.02173E+00 -1.50743E+01
 +6.87153E+00 -1.24706E+01 +1.20924E+01 -5.34402E+00 +1.18135E+01 +3.03788E+00 +6.61805E+00 +9.05141E+00
 -8.24358E-01 +1.02800E+01 -6.97847E+00 +6.53160E+00 -9.02587E+00 -1.28006E-01 -6.11799E+00 -6.33731E+00
 +2.50552E-01 -8.97414E+00 +6.91643E+00 -6.58858E+00 +1.04794E+01 -9.85489E-02 +8.86563E+00 +7.57014E+00
 +2.33012E+00 +1.27567E+01 -6.55759E+00 +1.27055E+01 -1.39626E+01 +6.85621E+00 -1.64327E+01 -2.79405E+00
 -1.24392E+01 -1.24405E+01 -3.13463E+00 -1.80365E+01 +8.02180E+00 -1.70184E+01 +1.66393E+01 -9.44937E+00
 +1.92050E+01 +1.91996E+00 +1.45656E+01 +1.27248E+01 +4.44627E+00 +1.87561E+01 -7.22497E+00 +1.76887E+01
