 Created: 19-Jan-2021
 $NMID
 ID='D:\BASISSIMULATI'
 FMTDAT='(8E13.5)'
 VOLUME=   1.00000E+00
 TRAMP=   1.00000E+00
 $END
 +1.19570E+02 +1.05856E+01 +1.12857E+02 +3.98687E+01 +9.87402E+01 +6.62971E+01 +7.82754E+01 +8.79933E+01
 +5.29884E+01 +1.03442E+02 +2.47562E+01 +1.11604E+02 -4.33791E+00 +1.11996E+02 -3.21650E+01 +1.04720E+02
 -5.67138E+01 +9.04570E+01 -7.62443E+01 +7.04062E+01 -8.94193E+01 +4.61916E+01 -9.54040E+01 +1.97320E+01
 -9.39260E+01 -6.90927E+00 -8.52907E+01 -3.16856E+01 -7.03525E+01 -5.27256E+01 -5.04422E+01 -6.84768E+01
 -2.72586E+01 -7.78235E+01 -2.73166E+00 -8.01694E+01 +2.11310E+01 -7.54786E+01 +4.24030E+01 -6.42730E+01
 +5.93896E+01 -4.75847E+01 +7.07596E+01 -2.68699E+01 +7.56464E+01 -3.88902E+00 +7.37124E+01 +1.94357E+01
 +6.51705E+01 +4.11741E+01 +5.07619E+01 +5.95418E+01 +3.16924E+01 +7.30408E+01 +9.53223E+00 +8.05757E+01
 -1.39124E+01 +8.15382E+01 -3.67455E+01 +7.58508E+01 -5.71328E+01 +6.39687E+01 -7.34483E+01 +4.68389E+01
 -8.44018E+01 +2.58205E+01 -8.91395E+01 +2.57289E+00 -8.73082E+01 -2.10798E+01 -7.90797E+01 -4.32956E+01
 -6.51321E+01 -6.23623E+01 -4.65913E+01 -7.68334E+01 -2.49369E+01 -8.56416E+01 -1.87994E+00 -8.81809E+01
 +2.07764E+01 -8.43514E+01 +4.12828E+01 -7.45619E+01 +5.80845E+01 -5.96930E+01 +6.99445E+01 -4.10207E+01
 +7.60413E+01 -2.01097E+01 +7.60313E+01 +1.31617E+00 +7.00724E+01 +2.15159E+01 +5.88065E+01 +3.88733E+01
 +4.33029E+01 +5.20282E+01 +2.49673E+01 +5.99860E+01 +5.42322E+00 +6.21964E+01 -1.36231E+01 +5.85962E+01
 -3.05243E+01 +4.96109E+01 -4.38282E+01 +3.61172E+01 -5.23974E+01 +1.93682E+01 -5.55025E+01 +8.87774E-01
 -5.28826E+01 -1.76567E+01 -4.47653E+01 -3.45936E+01 -3.18488E+01 -4.83863E+01 -1.52433E+01 -5.77614E+01
 +3.62022E+00 -6.18155E+01 +2.31084E+01 -6.00909E+01 +4.15203E+01 -5.26161E+01 +5.72283E+01 -3.99052E+01
 +6.88131E+01 -2.29184E+01 +7.51823E+01 -2.98543E+00 +7.56629E+01 +1.83017E+01 +7.00591E+01 +3.92175E+01
 +5.86726E+01 +5.80429E+01 +4.22810E+01 +7.32062E+01 +2.20794E+01 +8.34120E+01 -4.14359E-01 +8.77483E+01
 -2.34792E+01 +8.57637E+01 -4.53284E+01 +7.75070E+01 -6.42530E+01 +6.35274E+01 -7.87593E+01 +4.48338E+01
 -8.76902E+01 +2.28169E+01 -9.03196E+01 -8.58789E-01 -8.64134E+01 -2.43869E+01 -7.62505E+01 -4.59616E+01
 -6.06035E+01 -6.39220E+01 -4.06797E+01 -7.68842E+01 -1.80272E+01 -8.38528E+01 +5.58659E+00 -8.43015E+01
 +2.83144E+01 -7.82164E+01 +4.83752E+01 -6.60991E+01 +6.41955E+01 -4.89286E+01 +7.45348E+01 -2.80851E+01
 +7.85850E+01 -5.24163E+00 +7.60353E+01 +1.77673E+01 +6.70983E+01 +3.90911E+01 +5.24945E+01 +5.70094E+01
 +3.33964E+01 +7.00685E+01 +1.13370E+01 +7.71973E+01 -1.19108E+01 +7.77932E+01 -3.44738E+01 +7.17705E+01
 -5.45263E+01 +5.95684E+01 -7.04346E+01 +4.21181E+01 -8.08859E+01 +2.07699E+01 -8.49931E+01 -2.81209E+00
 -8.23650E+01 -2.67802E+01 -7.31387E+01 -4.92485E+01 -5.79690E+01 -6.84406E+01 -3.79787E+01 -8.28293E+01
 -1.46703E+01 -9.12569E+01 +1.01903E+01 -9.30256E+01 +3.47126E+01 -8.79529E+01 +5.70287E+01 -7.63856E+01
 +7.54389E+01 -5.91729E+01 +8.85445E+01 -3.75994E+01 +9.53562E+01 -1.32851E+01 +9.53704E+01 +1.19422E+01
 +8.86071E+01 +3.61888E+01 +7.56074E+01 +5.76433E+01 +5.73890E+01 +7.47170E+01 +3.53653E+01 +8.61668E+01
 +1.12334E+01 +9.11906E+01 -1.31593E+01 +8.94873E+01 -3.59604E+01 +8.12779E+01 -5.54572E+01 +6.72848E+01
 -7.02097E+01 +4.86723E+01 -7.91614E+01 +2.69523E+01 -8.17196E+01 +3.86352E+00 -7.77986E+01 -1.87672E+01
 -6.78228E+01 -3.91690E+01 -5.26888E+01 -5.57665E+01 -3.36916E+01 -6.73025E+01 -1.24184E+01 -7.29349E+01
 +9.37916E+00 -7.23010E+01 +2.99254E+01 -6.55417E+01 +4.75622E+01 -5.32870E+01 +6.08804E+01 -3.66024E+01
 +6.88302E+01 -1.69001E+01 +7.08027E+01 +4.17558E+00 +6.66759E+01 +2.48818E+01 +5.68213E+01 +4.35171E+01
 +4.20708E+01 +5.85580E+01 +2.36477E+01 +6.87799E+01 +3.06622E+00 +7.33538E+01 -1.79919E+01 +7.19110E+01
 -3.78132E+01 +6.45703E+01 -5.47903E+01 +5.19263E+01 -6.75509E+01 +3.49990E+01 -7.50670E+01 +1.51508E+01
 -7.67361E+01 -6.02547E+00 -7.24281E+01 -2.68349E+01 -6.24937E+01 -4.56173E+01 -4.77345E+01 -6.08811E+01
 -2.93367E+01 -7.14220E+01 -8.77470E+00 -7.64190E+01 +1.23092E+01 -7.54994E+01 +3.22371E+01 -6.87668E+01
 +4.94306E+01 -5.67911E+01 +6.25380E+01 -4.05611E+01 +7.05418E+01 -2.14036E+01 +7.28399E+01 -8.74826E-01
 +6.92927E+01 +1.93651E+01 +6.02330E+01 +3.76870E+01 +4.64373E+01 +5.26235E+01 +2.90622E+01 +6.29873E+01
 +9.54993E+00 +6.79663E+01 -1.04893E+01 +6.71884E+01 -2.94076E+01 +6.07501E+01 -4.56528E+01 +4.92084E+01
 -5.78941E+01 +3.35342E+01 -6.51293E+01 +1.50336E+01 -6.67656E+01 -4.75866E+00 -6.26673E+01 -2.42035E+01
 -5.31662E+01 -4.16903E+01 -3.90349E+01 -5.57675E+01 -2.14241E+01 -6.52598E+01 -1.76945E+00 -6.93636E+01
 +1.83243E+01 -6.77120E+01 +3.72129E+01 -6.04048E+01 +5.33454E+01 -4.80010E+01 +6.53894E+01 -3.14739E+01
 +7.23391E+01 -1.21334E+01 +7.35962E+01 +8.47905E+00 +6.90191E+01 +2.87145E+01 +5.89351E+01 +4.69485E+01
 +4.41143E+01 +6.17121E+01 +2.57091E+01 +7.18097E+01 +5.16201E+00 +7.64152E+01 -1.59093E+01 +7.51393E+01
 -3.58413E+01 +6.80606E+01 -5.30575E+01 +5.57206E+01 -6.61949E+01 +3.90802E+01 -7.42125E+01 +1.94443E+01
 -7.64750E+01 -1.64293E+00 -7.28038E+01 -2.25204E+01 -6.34913E+01 -4.15427E+01 -4.92782E+01 -5.72113E+01
 -3.12942E+01 -6.82939E+01 -1.09683E+01 -7.39227E+01 +1.00852E+01 -7.36636E+01 +3.01951E+01 -6.75504E+01
 +4.77663E+01 -5.60824E+01 +6.14073E+01 -4.01842E+01 +7.00402E+01 -2.11319E+01 +7.29871E+01 -4.51530E-01
 +7.00233E+01 +2.02029E+01 +6.13951E+01 +3.91812E+01 +4.78000E+01 +5.49682E+01 +3.03305E+01 +6.63046E+01
 +1.03869E+01 +7.22872E+01 -1.04344E+01 +7.24400E+01 -3.04684E+01 +6.67524E+01 -4.81142E+01 +5.56793E+01
 -6.19625E+01 +4.01045E+01 -7.09077E+01 +2.12701E+01 -7.42355E+01 +6.76767E-01 -7.16799E+01 -2.00356E+01
 -6.34435E+01 -3.92188E+01 -5.01813E+01 -5.53478E+01 -3.29476E+01 -6.71419E+01 -1.31123E+01 -7.36665E+01
 +7.74939E+00 -7.44074E+01 +2.79818E+01 -6.93110E+01 +4.59815E+01 -5.87883E+01 +6.03243E+01 -4.36813E+01
 +6.98788E+01 -2.51961E+01 +7.38964E+01 -4.80552E+00 +7.20697E+01 +1.58678E+01 +6.45572E+01 +3.51811E+01
 +5.19696E+01 +5.16025E+01 +3.53209E+01 +6.38328E+01 +1.59467E+01 +7.09083E+01 -4.60234E+00 +7.22777E+01
 -2.46843E+01 +6.78450E+01 -4.26971E+01 +5.79769E+01 -5.72059E+01 +4.34726E+01 -6.70572E+01 +2.54998E+01
 -7.14707E+01 +5.50113E+00 -7.01003E+01 -1.49213E+01 -6.30618E+01 -3.41335E+01 -5.09225E+01 -5.05999E+01
 -3.46557E+01 -6.30056E+01 -1.55627E+01 -7.03608E+01 +4.83139E+00 -7.20791E+01 +2.48995E+01 -6.80236E+01
 +4.30421E+01 -5.85176E+01 +5.78144E+01 -4.43177E+01 +6.80416E+01 -2.65531E+01 +7.29115E+01 -6.63575E+00
 +7.20388E+01 +1.38533E+01 +6.54951E+01 +3.32892E+01 +5.38025E+01 +5.01330E+01 +3.78916E+01 +6.30539E+01
 +1.90262E+01 +7.10346E+01 -1.29716E+00 +7.34518E+01 -2.14689E+01 +7.01250E+01 -3.98946E+01 +6.13301E+01
 -5.51217E+01 +4.77765E+01 -6.59548E+01 +3.05500E+01 -7.15500E+01 +1.10254E+01 -7.14817E+01 -9.24299E+00
 -6.57749E+01 -2.86458E+01 -5.49030E+01 -4.56463E+01 -3.97485E+01 -5.89029E+01 -2.15321E+01 -6.73750E+01
 -1.71517E+00 -7.04053E+01 +1.81177E+01 -6.77713E+01 +3.63847E+01 -5.97018E+01 +5.16326E+01 -4.68577E+01
 +6.26523E+01 -3.02782E+01 +6.85742E+01 -1.12975E+01 +6.89369E+01 +8.56227E+00 +6.37227E+01 +2.77126E+01
 +5.33578E+01 +4.46254E+01 +3.86774E+01 +5.79539E+01 +2.08583E+01 +6.66400E+01 +1.32416E+00 +6.99971E+01
 -1.83685E+01 +6.77644E+01 -3.66541E+01 +6.01257E+01 -5.20829E+01 +4.76942E+01 -6.34362E+01 +3.14619E+01
 -6.98220E+01 +1.27202E+01 -7.07453E+01 -7.04450E+00 -6.61464E+01 -2.62691E+01 -5.64038E+01 -4.34389E+01
 -4.23027E+01 -5.72074E+01 -2.49713E+01 -6.65036E+01 -5.78924E+00 -7.06156E+01 +1.37229E+01 -6.92464E+01
 +3.20254E+01 -6.25356E+01 +4.76824E+01 -5.10468E+01 +5.94756E+01 -3.57207E+01 +6.65012E+01 -1.77985E+01
 +6.82400E+01 +1.27855E+00 +6.45981E+01 +1.99852E+01 +5.59118E+01 +3.68344E+01 +4.29193E+01 +5.04965E+01
 +2.66995E+01 +5.99049E+01 +8.58438E+00 +6.43405E+01 -9.94906E+00 +6.34881E+01 -2.73982E+01 +5.74597E+01
 -4.23556E+01 +4.67846E+01 -5.36219E+01 +3.23643E+01 -6.03014E+01 +1.53994E+01 -6.18738E+01 -2.70860E+00
 -5.82344E+01 -2.04708E+01 -4.97016E+01 -3.64312E+01 -3.69901E+01 -4.92842E+01 -2.11523E+01 -5.79798E+01
 -3.49214E+00 -6.18074E+01 +1.45400E+01 -6.04531E+01 +3.14652E+01 -5.40240E+01 +4.58955E+01 -4.30390E+01
 +5.66456E+01 -2.83868E+01 +6.28286E+01 -1.12531E+01 +6.39275E+01 +6.97462E+00 +5.98364E+01 +2.48199E+01
 +5.08691E+01 +4.08360E+01 +3.77337E+01 +5.37228E+01 +2.14753E+01 +6.24316E+01 +3.39179E+00 +6.62495E+01
 -1.50706E+01 +6.48571E+01 -3.24339E+01 +5.83541E+01 -4.73073E+01 +4.72513E+01 -5.84990E+01 +3.24298E+01
 -6.51124E+01 +1.50699E+01 -6.66181E+01 -3.44340E+00 -6.28966E+01 -2.16318E+01 -5.42482E+01 -3.80425E+01
 -4.13690E+01 -5.13652E+01 -2.52951E+01 -6.05371E+01 -7.31947E+00 -6.48287E+01 +1.11116E+01 -6.39024E+01
 +2.85148E+01 -5.78401E+01 +4.34885E+01 -4.71367E+01 +5.48259E+01 -3.26610E+01 +6.16119E+01 -1.55860E+01
 +6.32966E+01 +2.70482E+00 +5.97405E+01 +2.07282E+01 +5.12255E+01 +3.70201E+01 +3.84335E+01 +5.02531E+01
 +2.23920E+01 +5.93432E+01 +4.39257E+00 +6.35366E+01 -1.41122E+01 +6.24715E+01 -3.16248E+01 +5.62068E+01
 -4.67220E+01 +4.52193E+01 -5.81692E+01 +3.03656E+01 -6.50192E+01 +1.28149E+01 -6.66885E+01 -6.04340E+00
 -6.30042E+01 -2.47103E+01 -5.42192E+01 -4.16959E+01 -4.09924E+01 -5.56383E+01 -2.43378E+01 -6.54116E+01
 -5.54401E+00 -7.02160E+01 +1.39267E+01 -6.96413E+01 +3.25542E+01 -6.37005E+01 +4.88810E+01 -5.28292E+01
 +6.16269E+01 -3.78512E+01 +6.97902E+01 -1.99143E+01 +7.27277E+01 -3.99755E-01 +7.02042E+01 +1.91865E+01
 +6.24123E+01 +3.73328E+01 +4.99560E+01 +5.26401E+01 +3.38036E+01 +6.39327E+01 +1.52108E+01 +7.03504E+01
 -4.37854E+00 +7.14153E+01 -2.34461E+01 +6.70693E+01 -4.05187E+01 +5.76775E+01 -5.42845E+01 +4.39987E+01
 -6.36954E+01 +2.71246E+01 -6.80492E+01 +8.39298E+00 -6.70433E+01 -1.07187E+01 -6.07982E+01 -2.87099E+01
 -4.98456E+01 -4.41754E+01 -3.50854E+01 -5.59160E+01 -1.77135E+01 -6.30326E+01 +8.74405E-01 -6.49955E+01
 +1.91934E+01 -6.16854E+01 +3.57874E+01 -5.34007E+01 +4.93444E+01 -4.08326E+01 +5.87994E+01 -2.50085E+01
