 Created: 19-Jan-2021
 $NMID
 ID='D:\BASISSIMULATI'
 FMTDAT='(8E13.5)'
 VOLUME=   1.00000E+00
 TRAMP=   1.00000E+00
 $END
 +5.51782E+01 +5.63327E+00 +5.25037E+01 +1.38642E+01 +4.56954E+01 +2.11614E+01 +3.54225E+01 +2.71500E+01
 +2.27151E+01 +3.15385E+01 +8.84738E+00 +3.41271E+01 -4.80576E+00 +3.48154E+01 -1.69239E+01 +3.36088E+01
 -2.63881E+01 +3.06243E+01 -3.24030E+01 +2.60925E+01 -3.45792E+01 +2.03545E+01 -3.29676E+01 +1.38505E+01
 -2.80408E+01 +7.09743E+00 -2.06269E+01 +6.55094E-01 -1.18028E+01 -4.91823E+00 -2.76177E+00 -9.11813E+00
 +5.32892E+00 -1.15491E+01 +1.14623E+01 -1.19760E+01 +1.49032E+01 -1.03643E+01 +1.52635E+01 -6.90306E+00
 +1.25350E+01 -2.00353E+00 +7.07580E+00 +3.72744E+00 -4.44315E-01 +9.54093E+00 -9.13210E+00 +1.46215E+01
 -1.79806E+01 +1.81777E+01 -2.59863E+01 +1.95383E+01 -3.22592E+01 +1.82410E+01 -3.61146E+01 +1.41042E+01
 -3.71355E+01 +7.26859E+00 -3.52022E+01 -1.79542E+00 -3.04872E+01 -1.23211E+01 -2.34186E+01 -2.33156E+01
 -1.46202E+01 -3.36615E+01 -4.83591E+00 -4.22390E+01 +5.15111E+00 -4.80545E+01 +1.45943E+01 -5.03598E+01
 +2.28477E+01 -4.87477E+01 +2.94121E+01 -4.32111E+01 +3.39612E+01 -3.41566E+01 +3.63477E+01 -2.23710E+01
 +3.65927E+01 -8.94133E+00 +3.48622E+01 +4.86110E+00 +3.14361E+01 +1.77206E+01 +2.66750E+01 +2.84242E+01
 +2.09873E+01 +3.59980E+01 +1.48014E+01 +3.98170E+01 +8.54191E+00 +3.96746E+01 +2.61067E+00 +3.58030E+01
 -2.62917E+00 +2.88425E+01 -6.86793E+00 +1.97628E+01 -9.86402E+00 +9.74660E+00 -1.14593E+01 +4.89170E-02
 -1.15945E+01 -8.15036E+00 -1.03222E+01 -1.38830E+01 -7.81588E+00 -1.65019E+01 -4.36975E+00 -1.57507E+01
 -3.88056E-01 -1.17863E+01 +3.63937E+00 -5.15182E+00 +7.17520E+00 +3.29523E+00 +9.68469E+00 +1.24895E+01
 +1.06936E+01 +2.12864E+01 +9.84822E+00 +2.85960E+01 +6.96906E+00 +3.35065E+01 +2.09204E+00 +3.53833E+01
 -4.51167E+00 +3.39326E+01 -1.23412E+01 +2.92230E+01 -2.07001E+01 +2.16664E+01 -2.87566E+01 +1.19598E+01
 -3.56271E+01 +9.98936E-01 -4.04722E+01 -1.02257E+01 -4.25966E+01 -2.07370E+01 -4.15387E+01 -2.96713E+01
 -3.71399E+01 -3.63585E+01 -2.95821E+01 -4.03760E+01 -1.93879E+01 -4.15715E+01 -7.38034E+00 -4.00549E+01
 +5.39450E+00 -3.61644E+01 +1.77748E+01 -3.04114E+01 +2.86081E+01 -2.34147E+01 +3.68803E+01 -1.58311E+01
 +4.18323E+01 -8.29156E+00 +4.30509E+01 -1.34830E+00 +4.05203E+01 +4.56214E+00 +3.46294E+01 +9.13968E+00
 +2.61309E+01 +1.22254E+01 +1.60573E+01 +1.37936E+01 +5.60298E+00 +1.39345E+01 -4.01395E+00 +1.28322E+01
 -1.16933E+01 +1.07414E+01 -1.65811E+01 +7.96556E+00 -1.81691E+01 +4.83681E+00 -1.63532E+01 +1.69916E+00
 -1.14433E+01 -1.10762E+00 -4.12438E+00 -3.26410E+00 +4.62701E+00 -4.48902E+00 +1.36603E+01 -4.55936E+00
 +2.17882E+01 -3.33217E+00 +2.79268E+01 -7.66290E-01 +3.12222E+01 +3.05910E+00 +3.11476E+01 +7.93285E+00
 +2.75615E+01 +1.35111E+01 +2.07192E+01 +1.93307E+01 +1.12381E+01 +2.48380E+01 +2.20670E-02 +2.94339E+01
 -1.18448E+01 +3.25306E+01 -2.32225E+01 +3.36164E+01 -3.30411E+01 +3.23206E+01 -4.04143E+01 +2.84706E+01
 -4.47276E+01 +2.21328E+01 -4.56924E+01 +1.36297E+01 -4.33605E+01 +3.52974E+00 -3.81007E+01 -7.39368E+00
 -3.05413E+01 -1.82298E+01 -2.14885E+01 -2.80202E+01 -1.18302E+01 -3.58606E+01 -2.43888E+00 -4.10029E+01
 +5.91630E+00 -4.29460E+01 +1.26385E+01 -4.15024E+01 +1.73474E+01 -3.68312E+01 +1.98955E+01 -2.94333E+01
 +2.03588E+01 -2.01045E+01 +1.90040E+01 -9.85416E+00 +1.62401E+01 +2.05506E-01 +1.25621E+01 +8.98480E+00
 +8.49264E+00 +1.55427E+01 +4.53000E+00 +1.91985E+01 +1.10601E+00 +1.96143E+01 -1.44286E+00 +1.68390E+01
 -2.89092E+00 +1.13058E+01 -3.12682E+00 +3.78463E+00 -2.14763E+00 -4.70699E+00 -4.70345E-02 -1.30232E+01
 +2.99955E+00 -2.00256E+01 +6.75024E+00 -2.47196E+01 +1.09114E+01 -2.63733E+01 +1.51513E+01 -2.46066E+01
 +1.91146E+01 -1.94382E+01 +2.24375E+01 -1.12855E+01 +2.47673E+01 -9.17055E-01 +2.57849E+01 +1.06354E+01
 +2.52320E+01 +2.21954E+01 +2.29398E+01 +3.25761E+01 +1.88574E+01 +4.07138E+01 +1.30751E+01 +4.57850E+01
 +5.83824E+00 +4.72947E+01 -2.45286E+00 +4.51233E+01 -1.12593E+01 +3.95312E+01 -1.99385E+01 +3.11190E+01
 -2.77960E+01 +2.07511E+01 -3.41496E+01 +9.45202E+00 -3.84015E+01 -1.71048E+00 -4.01081E+01 -1.17423E+01
 -3.90398E+01 -1.98252E+01 -3.52227E+01 -2.53943E+01 -2.89536E+01 -2.81819E+01 -2.07853E+01 -2.82261E+01
 -1.14814E+01 -2.58445E+01 -1.94305E+00 -2.15784E+01 +6.88517E+00 -1.61166E+01 +1.41191E+01 -1.02092E+01
 +1.90376E+01 -4.58173E+00 +2.11709E+01 +1.40407E-01 +2.03626E+01 +3.48900E+00 +1.67968E+01 +5.18765E+00
 +1.09863E+01 +5.16195E+00 +3.72006E+00 +3.52721E+00 -4.02342E+00 +5.57739E-01 -1.11886E+01 -3.35630E+00
 -1.67675E+01 -7.75792E+00 -1.99219E+01 -1.21718E+01 -2.00878E+01 -1.61475E+01 -1.70495E+01 -1.92931E+01
 -1.09734E+01 -2.12989E+01 -2.39592E+00 -2.19501E+01 +7.83170E+00 -2.11317E+01 +1.86381E+01 -1.88260E+01
 +2.88528E+01 -1.51072E+01 +3.73406E+01 -1.01345E+01 +4.31322E+01 -4.14353E+00 +4.55360E+01 +2.56123E+00
 +4.42178E+01 +9.61652E+00 +3.92381E+01 +1.66128E+01 +3.10442E+01 +2.31119E+01 +2.04172E+01 +2.86704E+01
 +8.38118E+00 +3.28690E+01 -3.91354E+00 +3.53479E+01 -1.53197E+01 +3.58435E+01 -2.48189E+01 +3.42236E+01
 -3.16290E+01 +3.05160E+01 -3.52818E+01 +2.49249E+01 -3.56616E+01 +1.78312E+01 -3.30029E+01 +9.77299E+00
 -2.78472E+01 +1.40634E+00 -2.09679E+01 -6.55175E+00 -1.32717E+01 -1.33936E+01 -5.68999E+00 -1.84973E+01
 +9.26520E-01 -2.13992E+01 +5.89793E+00 -2.18556E+01 +8.78038E+00 -1.98817E+01 +9.40026E+00 -1.57643E+01
 +7.85551E+00 -1.00420E+01 +4.48620E+00 -3.45475E+00 -1.79967E-01 +3.13384E+00 -5.49877E+00 +8.83315E+00
 -1.07877E+01 +1.28306E+01 -1.54018E+01 +1.44923E+01 -1.87980E+01 +1.34467E+01 -2.05833E+01 +9.64020E+00
 -2.05413E+01 +3.35646E+00 -1.86385E+01 -4.80403E+00 -1.50108E+01 -1.39835E+01 -9.93602E+00 -2.31592E+01
 -3.79601E+00 -3.12586E+01 +2.96449E+00 -3.72840E+01 +9.87822E+00 -4.04303E+01 +1.64906E+01 -4.01846E+01
 +2.23880E+01 -3.63912E+01 +2.72177E+01 -2.92775E+01 +3.07012E+01 -1.94335E+01 +3.26415E+01 -7.75031E+00
 +3.29278E+01 +4.67771E+00 +3.15373E+01 +1.66748E+01 +2.85369E+01 +2.71147E+01 +2.40838E+01 +3.50458E+01
 +1.84240E+01 +3.97947E+01 +1.18873E+01 +4.10371E+01 +4.87604E+00 +3.88272E+01 -2.15367E+00 +3.35830E+01
 -8.71929E+00 +2.60296E+01 -1.43474E+01 +1.71092E+01 -1.86155E+01 +7.86748E+00 -2.11951E+01 -6.67834E-01
 -2.18933E+01 -7.60311E+00 -2.06845E+01 -1.22748E+01 -1.77286E+01 -1.43157E+01 -1.33699E+01 -1.36836E+01
 -8.11561E+00 -1.06517E+01 -2.59190E+00 -5.76283E+00 +2.51728E+00 +2.45953E-01 +6.54454E+00 +6.53652E+00
 +8.91768E+00 +1.22704E+01 +9.23336E+00 +1.67035E+01 +7.31615E+00 +1.92655E+01 +3.25429E+00 +1.96138E+01
 -2.59390E+00 +1.76590E+01 -9.62599E+00 +1.35609E+01 -1.70526E+01 +7.69642E+00 -2.39803E+01 +6.07322E-01
 -2.95124E+01 -7.06626E+00 -3.28545E+01 -1.46563E+01 -3.34134E+01 -2.15340E+01 -3.08767E+01 -2.71656E+01
 -2.52618E+01 -3.11528E+01 -1.69277E+01 -3.32551E+01 -6.54697E+00 -3.33939E+01 +4.96046E+00 -3.16419E+01
 +1.65243E+01 -2.81995E+01 +2.70409E+01 -2.33655E+01 +3.54968E+01 -1.75046E+01 +4.10832E+01 -1.10161E+01
 +4.32889E+01 -4.30673E+00 +4.19590E+01 +2.23130E+00 +3.73124E+01 +8.23784E+00 +2.99162E+01 +1.33980E+01
 +2.06199E+01 +1.74534E+01 +1.04560E+01 +2.02120E+01 +5.21385E-01 +2.15585E+01 -8.14864E+00 +2.14636E+01
 -1.46969E+01 +1.99930E+01 -1.85386E+01 +1.73114E+01 -1.94218E+01 +1.36816E+01 -1.74478E+01 +9.45509E+00
 -1.30497E+01 +5.05142E+00 -6.93263E+00 +9.27983E-01 +1.66289E-02 -2.46022E+00 +6.83846E+00 -4.70708E+00
 +1.26147E+01 -5.50343E+00 +1.65741E+01 -4.68084E+00 +1.81777E+01 -2.24479E+00 +1.71735E+01 +1.60854E+00
 +1.36162E+01 +6.49635E+00 +7.85054E+00 +1.18759E+01 +4.62723E-01 +1.70936E+01 -7.79405E+00 +2.14515E+01
 -1.60887E+01 +2.42860E+01 -2.36057E+01 +2.50491E+01 -2.96306E+01 +2.33815E+01 -3.36203E+01 +1.91699E+01
 -3.52486E+01 +1.25778E+01 -3.44261E+01 +4.04583E+00 -3.12920E+01 -5.74116E+00 -2.61842E+01 -1.59178E+01
 -1.95896E+01 -2.55268E+01 -1.20852E+01 -3.36229E+01 -4.27622E+00 -3.93795E+01 +3.26130E+00 -4.21861E+01
 +1.00281E+01 -4.17239E+01 +1.56349E+01 -3.80093E+01 +1.98210E+01 -3.13995E+01 +2.24576E+01 -2.25587E+01
 +2.35399E+01 -1.23875E+01 +2.31701E+01 -1.92349E+00 +2.15354E+01 +7.77471E+00 +1.88855E+01 +1.57479E+01
 +1.55102E+01 +2.12450E+01 +1.17206E+01 +2.38081E+01 +7.83252E+00 +2.33229E+01 +4.15252E+00 +2.00286E+01
 +9.64424E-01 +1.44857E+01 -1.48430E+00 +7.50700E+00 -2.99745E+00 +5.83339E-02 -3.44599E+00 -6.85725E+00
 -2.78399E+00 -1.23184E+01 -1.06214E+00 -1.55932E+01 +1.56378E+00 -1.62226E+01 +4.83268E+00 -1.40705E+01
 +8.38876E+00 -9.33483E+00 +1.18044E+01 -2.51894E+00 +1.46153E+01 +5.63181E+00 +1.63655E+01 +1.42202E+01
 +1.66590E+01 +2.23025E+01 +1.52114E+01 +2.89960E+01 +1.18954E+01 +3.35756E+01 +6.77411E+00 +3.55500E+01
 +1.14708E-01 +3.47072E+01 -7.61978E+00 +3.11270E+01 -1.58034E+01 +2.51610E+01 -2.37025E+01 +1.73822E+01
 -3.05485E+01 +8.51365E+00 -3.56212E+01 -6.54348E-01 -3.83325E+01 -9.34995E+00 -3.83006E+01 -1.68964E+01
 -3.54047E+01 -2.27725E+01 -2.98125E+01 -2.66519E+01 -2.19753E+01 -2.84170E+01 -1.25898E+01 -2.81508E+01
 -2.52932E+00 -2.61075E+01 +7.24810E+00 -2.26699E+01 +1.58048E+01 -1.82978E+01 +2.23295E+01 -1.34764E+01
 +2.62312E+01 -8.66836E+00 +2.72092E+01 -4.27623E+00 +2.52908E+01 -6.15770E-01 +2.08304E+01 +2.09792E+00
 +1.44701E+01 +3.75315E+00 +7.06590E+00 +4.33558E+00 -4.12605E-01 +3.91625E+00 -6.99629E+00 +2.63665E+00
 -1.18314E+01 +6.93374E-01 -1.42810E+01 -1.67648E+00 -1.40008E+01 -4.20846E+00 -1.09799E+01 -6.62327E+00
 -5.54231E+00 -8.63964E+00 +1.69226E+00 -9.98878E+00 +9.88151E+00 -1.04316E+01 +1.80602E+01 -9.77829E+00
 +2.52532E+01 -7.90989E+00 +3.05885E+01 -4.79896E+00 +3.33968E+01 -5.26988E-01 +3.32857E+01 +4.70548E+00
 +3.01808E+01 +1.05792E+01 +2.43291E+01 +1.66696E+01 +1.62651E+01 +2.24744E+01 +6.74565E+00 +2.74547E+01
 -3.33873E+00 +3.10864E+01 -1.30647E+01 +3.29171E+01 -2.15762E+01 +3.26222E+01 -2.81731E+01 +3.00531E+01
 -3.23778E+01 +2.52698E+01 -3.39737E+01 +1.85533E+01 -3.30127E+01 +1.03927E+01 -2.97923E+01 +1.44746E+00
 -2.48069E+01 -7.51258E+00 -1.86819E+01 -1.56853E+01 -1.20975E+01 -2.23223E+01 -5.71354E+00 -2.68142E+01
