 Created: 19-Jan-2021
 $NMID
 ID='D:\BASISSIMULATI'
 FMTDAT='(8E13.5)'
 VOLUME=   1.00000E+00
 TRAMP=   1.00000E+00
 $END
 +1.84838E+01 +1.91705E+00 +1.80091E+01 +4.52266E+00 +1.71694E+01 +7.03230E+00 +1.59822E+01 +9.39517E+00
 +1.44723E+01 +1.15635E+01 +1.26708E+01 +1.34935E+01 +1.06147E+01 +1.51464E+01 +8.34622E+00 +1.64891E+01
 +5.91178E+00 +1.74947E+01 +3.36107E+00 +1.81433E+01 +7.46093E-01 +1.84224E+01 -1.87993E+00 +1.83269E+01
 -4.46365E+00 +1.78592E+01 -6.95265E+00 +1.70295E+01 -9.29651E+00 +1.58552E+01 -1.14479E+01 +1.43607E+01
 -1.33633E+01 +1.25768E+01 -1.50043E+01 +1.05403E+01 -1.63379E+01 +8.29282E+00 -1.73376E+01 +5.88044E+00
 -1.79835E+01 +3.35240E+00 -1.82631E+01 +7.60233E-01 -1.81713E+01 -1.84331E+00 -1.77106E+01 -4.40532E+00
 -1.68908E+01 -6.87383E+00 -1.57292E+01 -9.19884E+00 -1.42499E+01 -1.13333E+01 -1.24835E+01 -1.32343E+01
 -1.04663E+01 -1.48634E+01 -8.23971E+00 -1.61881E+01 -5.84920E+00 -1.71819E+01 -3.34363E+00 -1.78251E+01
 -7.74073E-01 -1.81052E+01 +1.80717E+00 -1.80171E+01 +4.34766E+00 -1.75631E+01 +6.79585E+00 -1.67532E+01
 +9.10215E+00 -1.56042E+01 +1.12199E+01 -1.41400E+01 +1.31065E+01 -1.23909E+01 +1.47239E+01 -1.03929E+01
 +1.60396E+01 -8.18689E+00 +1.70275E+01 -5.81805E+00 +1.76680E+01 -3.33476E+00 +1.79485E+01 -7.87617E-01
 +1.78641E+01 +1.77152E+00 +1.74169E+01 +4.29066E+00 +1.66166E+01 +6.71869E+00 +1.54801E+01 +9.00643E+00
 +1.40309E+01 +1.11076E+01 +1.22990E+01 +1.29799E+01 +1.03199E+01 +1.45856E+01 +8.13436E+00 +1.58925E+01
 +5.78700E+00 +1.68745E+01 +3.32578E+00 +1.75123E+01 +8.00870E-01 +1.77933E+01 -1.73635E+00 +1.77124E+01
 -4.23431E+00 +1.72719E+01 -6.64235E+00 +1.64812E+01 -8.91168E+00 +1.53570E+01 -1.09964E+01 +1.39226E+01
 -1.28545E+01 +1.22076E+01 -1.44486E+01 +1.02474E+01 -1.57467E+01 +8.08212E+00 -1.67229E+01 +5.75605E+00
 -1.73579E+01 +3.31671E+00 -1.76393E+01 +8.13836E-01 -1.75619E+01 -1.70164E+00 -1.71280E+01 -4.17861E+00
 -1.63468E+01 -6.56681E+00 -1.52348E+01 -8.81788E+00 -1.38151E+01 -1.08863E+01 -1.21170E+01 -1.27303E+01
 -1.01754E+01 -1.43129E+01 -8.03016E+00 -1.56022E+01 -5.72519E+00 -1.65726E+01 -3.30755E+00 -1.72049E+01
 -8.26519E-01 -1.74866E+01 +1.66741E+00 -1.74128E+01 +4.12355E+00 -1.69853E+01 +6.49208E+00 -1.62135E+01
 +8.72502E+00 -1.51136E+01 +1.07772E+01 -1.37084E+01 +1.26073E+01 -1.20269E+01 +1.41784E+01 -1.01038E+01
 +1.54590E+01 -7.97849E+00 +1.64237E+01 -5.69443E+00 +1.70532E+01 -3.29830E+00 +1.73353E+01 -8.38922E-01
 +1.72648E+01 +1.63363E+00 +1.68438E+01 +4.06912E+00 +1.60813E+01 +6.41814E+00 +1.49933E+01 +8.63309E+00
 +1.36025E+01 +1.06692E+01 +1.19375E+01 +1.24854E+01 +1.00327E+01 +1.40452E+01 +7.92710E+00 +1.53172E+01
 +5.66377E+00 +1.62760E+01 +3.28895E+00 +1.69028E+01 +8.51050E-01 +1.71852E+01 -1.60031E+00 +1.71181E+01
 -4.01532E+00 +1.67034E+01 -6.34498E+00 +1.59501E+01 -8.54209E+00 +1.48739E+01 -1.05622E+01 +1.34974E+01
 -1.23647E+01 +1.18488E+01 -1.39131E+01 +9.96208E+00 -1.51765E+01 +7.87600E+00 -1.61297E+01 +5.63321E+00
 -1.67537E+01 +3.27952E+00 -1.70364E+01 +8.62906E-01 -1.69726E+01 -1.56744E+00 -1.65642E+01 -3.96214E+00
 -1.58199E+01 -6.27259E+00 -1.47555E+01 -8.45201E+00 -1.33930E+01 -1.04563E+01 -1.17606E+01 -1.22451E+01
 -9.89190E+00 -1.37823E+01 -7.82518E+00 -1.50372E+01 -5.60275E+00 -1.59846E+01 -3.27000E+00 -1.66059E+01
 -8.74493E-01 -1.68889E+01 +1.53502E+00 -1.68284E+01 +3.90957E+00 -1.64261E+01 +6.20098E+00 -1.56909E+01
 +8.36283E+00 -1.46380E+01 +1.03514E+01 -1.32895E+01 +1.21266E+01 -1.16731E+01 +1.36527E+01 -9.82218E+00
 +1.48991E+01 -7.77464E+00 +1.58409E+01 -5.57239E+00 +1.64594E+01 -3.26040E+00 +1.67426E+01 -8.85817E-01
 +1.66853E+01 +1.50303E+00 +1.62892E+01 +3.85761E+00 +1.55628E+01 +6.13012E+00 +1.45214E+01 +8.27455E+00
 +1.31867E+01 +1.02475E+01 +1.15862E+01 +1.20093E+01 +9.75292E+00 +1.35243E+01 +7.72438E+00 +1.47622E+01
 +5.54213E+00 +1.56984E+01 +3.25072E+00 +1.63142E+01 +8.96879E-01 +1.65976E+01 -1.47148E+00 +1.65435E+01
 -3.80624E+00 +1.61534E+01 -6.06002E+00 +1.54357E+01 -8.18717E+00 +1.44057E+01 -1.01447E+01 +1.30847E+01
 -1.18930E+01 +1.15000E+01 -1.33971E+01 +9.68411E+00 -1.46266E+01 +7.67441E+00 -1.55571E+01 +5.51197E+00
 -1.61702E+01 +3.24096E+00 -1.64538E+01 +9.07685E-01 -1.64028E+01 -1.44036E+00 -1.60186E+01 -3.75547E+00
 -1.53097E+01 -5.99066E+00 -1.42909E+01 -8.10066E+00 -1.29834E+01 -1.00428E+01 -1.14143E+01 -1.17779E+01
 -9.61575E+00 -1.32710E+01 -7.62471E+00 -1.44922E+01 -5.48191E+00 -1.54172E+01 -3.23112E+00 -1.60275E+01
 -9.18238E-01 -1.63113E+01 +1.40967E+00 -1.62633E+01 +3.70529E+00 -1.58850E+01 +5.92204E+00 -1.51847E+01
 +8.01502E+00 -1.41770E+01 +9.94191E+00 -1.28830E+01 +1.16638E+01 -1.13292E+01 +1.31461E+01 -9.54784E+00
 +1.43591E+01 -7.57528E+00 +1.52784E+01 -5.45195E+00 +1.58860E+01 -3.22121E+00 +1.61699E+01 -9.28540E-01
 +1.61249E+01 +1.37939E+00 +1.57525E+01 +3.65569E+00 +1.50607E+01 +5.85415E+00 +1.40640E+01 +7.93025E+00
 +1.27832E+01 +9.84201E+00 +1.12448E+01 +1.15508E+01 +9.48037E+00 +1.30224E+01 +7.52614E+00 +1.42271E+01
 +5.42210E+00 +1.51409E+01 +3.21123E+00 +1.57457E+01 +9.38596E-01 +1.60298E+01 -1.34953E+00 +1.59878E+01
 -3.60666E+00 +1.56211E+01 -5.78698E+00 +1.49376E+01 -7.84633E+00 +1.39519E+01 -9.74307E+00 +1.26842E+01
 -1.14389E+01 +1.11609E+01 -1.28998E+01 +9.41334E+00 -1.40963E+01 +7.47727E+00 -1.50046E+01 +5.39235E+00
 -1.56067E+01 +3.20117E+00 -1.58908E+01 +9.48409E-01 -1.58517E+01 -1.32008E+00 -1.54907E+01 -3.55820E+00
 -1.48156E+01 -5.72053E+00 -1.38406E+01 -7.76326E+00 -1.25860E+01 -9.64510E+00 -1.10777E+01 -1.13281E+01
 -9.34676E+00 -1.27783E+01 -7.42867E+00 -1.39667E+01 -5.36271E+00 -1.48695E+01 -3.19105E+00 -1.54688E+01
 -9.57983E-01 -1.57531E+01 +1.29104E+00 -1.57168E+01 +3.51030E+00 -1.53614E+01 +5.65478E+00 -1.46945E+01
 +7.68103E+00 -1.37302E+01 +9.54808E+00 -1.24885E+01 +1.12183E+01 -1.09950E+01 +1.26579E+01 -9.28061E+00
 +1.38382E+01 -7.38035E+00 +1.47356E+01 -5.33316E+00 +1.53322E+01 -3.18086E+00 +1.56165E+01 -9.67321E-01
 +1.55831E+01 +1.26239E+00 +1.52332E+01 +3.46296E+00 +1.45744E+01 +5.58974E+00 +1.36206E+01 +7.59963E+00
 +1.23917E+01 +9.45200E+00 +1.09130E+01 +1.11095E+01 +9.21489E+00 +1.25387E+01 +7.33230E+00 +1.37109E+01
 +5.30373E+00 +1.46029E+01 +3.17060E+00 +1.51968E+01 +9.76426E-01 +1.54810E+01 -1.23414E+00 +1.54504E+01
 -3.41617E+00 +1.51060E+01 -5.52539E+00 +1.44553E+01 -7.51906E+00 +1.35119E+01 -9.35686E+00 +1.22956E+01
 -1.10017E+01 +1.08315E+01 -1.24205E+01 +9.14961E+00 -1.35848E+01 +7.28452E+00 -1.44713E+01 +5.27440E+00
 -1.50625E+01 +3.16029E+00 -1.53468E+01 +9.85301E-01 -1.53189E+01 -1.20628E+00 -1.49799E+01 -3.36993E+00
 -1.43371E+01 -5.46172E+00 -1.34041E+01 -7.43929E+00 -1.22003E+01 -9.26265E+00 -1.07506E+01 -1.08950E+01
 -9.08476E+00 -1.23035E+01 -7.23702E+00 -1.34598E+01 -5.24517E+00 -1.43409E+01 -3.14991E+00 -1.49294E+01
 -9.93951E-01 -1.52136E+01 +1.17881E+00 -1.51884E+01 +3.32422E+00 -1.48547E+01 +5.39874E+00 -1.42198E+01
 +7.36034E+00 -1.32971E+01 +9.16935E+00 -1.21057E+01 +1.07893E+01 -1.06703E+01 +1.21875E+01 -9.02034E+00
 +1.33359E+01 -7.18978E+00 +1.42117E+01 -5.21605E+00 +1.47974E+01 -3.13947E+00 +1.50817E+01 -1.00238E+00
 +1.50591E+01 +1.15172E+00 +1.47307E+01 +3.27905E+00 +1.41035E+01 +5.33643E+00 +1.31909E+01 +7.28218E+00
 +1.20118E+01 +9.07696E+00 +1.05905E+01 +1.06845E+01 +8.95634E+00 +1.20726E+01 +7.14281E+00 +1.32132E+01
 +5.18704E+00 +1.40836E+01 +3.12897E+00 +1.46666E+01 +1.01058E+00 +1.49508E+01 -1.12501E+00 +1.49308E+01
 -3.23440E+00 +1.46076E+01 -5.27478E+00 +1.39882E+01 -7.20481E+00 +1.30856E+01 -8.98547E+00 +1.19186E+01
 -1.05808E+01 +1.05113E+01 -1.19587E+01 +8.89276E+00 -1.30916E+01 +7.09610E+00 -1.39567E+01 +5.15813E+00
 -1.45370E+01 +3.11842E+00 -1.48210E+01 +1.01857E+00 -1.48036E+01 -1.09867E+00 -1.44855E+01 -3.19027E+00
 -1.38737E+01 -5.21379E+00 -1.29810E+01 -7.12823E+00 -1.18261E+01 -8.89486E+00 -1.04327E+01 -1.04781E+01
 -8.82960E+00 -1.18459E+01 -7.04967E+00 -1.29710E+01 -5.12933E+00 -1.38309E+01 -3.10782E+00 -1.44084E+01
 -1.02635E+00 -1.46924E+01 +1.07270E+00 -1.46775E+01 +3.14666E+00 -1.43645E+01 +5.15346E+00 -1.37602E+01
 +7.05242E+00 -1.28773E+01 +8.80515E+00 -1.17343E+01 +1.03763E+01 -1.03546E+01 +1.17342E+01 -8.76686E+00
 +1.28516E+01 -7.00349E+00 +1.37062E+01 -5.10064E+00 +1.42810E+01 -3.09716E+00 +1.45649E+01 -1.03392E+00
 +1.45524E+01 +1.04709E+00 +1.42444E+01 +3.10356E+00 +1.36475E+01 +5.09377E+00 +1.27744E+01 +6.97738E+00
 +1.16431E+01 +8.71630E+00 +1.02771E+01 +1.02754E+01 +8.70453E+00 +1.16234E+01 +6.95759E+00 +1.27332E+01
 +5.07205E+00 +1.35826E+01 +3.08645E+00 +1.41547E+01 +1.04127E+00 +1.44384E+01 -1.02184E+00 +1.44284E+01
 -3.06097E+00 +1.41253E+01 -5.03472E+00 +1.35358E+01 -6.90310E+00 +1.26723E+01 -8.62833E+00 +1.15527E+01
 -1.01756E+01 +1.02002E+01 -1.15137E+01 +8.64262E+00 -1.26159E+01 +6.91194E+00 -1.34600E+01 +5.04358E+00
 -1.40295E+01 +3.07570E+00 -1.43130E+01 +1.04843E+00 -1.43054E+01 -9.96953E-01 -1.40072E+01 -3.01887E+00
 -1.34250E+01 -4.97630E+00 -1.25710E+01 -6.82957E+00 -1.14629E+01 -8.54121E+00 -1.01238E+01 -1.00767E+01
 -8.58112E+00 -1.14050E+01 -6.86656E+00 -1.24996E+01 -5.01521E+00 -1.33386E+01 -3.06489E+00 -1.39054E+01
 -1.05538E+00 -1.41887E+01 +9.72413E-01 -1.41835E+01 +2.97727E+00 -1.38901E+01 +4.91851E+00 -1.33151E+01
 +6.75679E+00 -1.24704E+01 +8.45494E+00 -1.13739E+01 +9.97868E+00 -1.00479E+01 +1.12973E+01 -8.52002E+00
 +1.23844E+01 -6.82143E+00 +1.32183E+01 -4.98695E+00 +1.37823E+01 -3.05404E+00 +1.40655E+01 -1.06214E+00
 +1.40625E+01 +9.48220E-01 +1.37739E+01 +2.93616E+00 +1.32060E+01 +4.86134E+00 +1.23707E+01 +6.68475E+00
 +1.12854E+01 +8.36951E+00 +9.97264E+00 +9.88162E+00 +8.45934E+00 +1.11906E+01 +6.77657E+00 +1.22703E+01
 +4.95880E+00 +1.30990E+01 +3.04315E+00 +1.36603E+01 +1.06869E+00 +1.39433E+01 -9.24370E-01 +1.39426E+01
 -2.89553E+00 +1.36587E+01 -4.80478E+00 +1.30978E+01 -6.61343E+00 +1.22717E+01 -8.28491E+00 +1.11977E+01
 -9.78548E+00 +9.89788E+00 -1.10849E+01 +8.39905E+00 -1.21572E+01 +6.73197E+00 -1.29808E+01 +4.93075E+00
 -1.35394E+01 +3.03221E+00 -1.38222E+01 +1.07506E+00 -1.38237E+01 -9.00859E-01 -1.35444E+01 -2.85538E+00
