 Created: 19-Jan-2021
 $NMID
 ID='D:\BASISSIMULATI'
 FMTDAT='(8E13.5)'
 VOLUME=   1.00000E+00
 TRAMP=   1.00000E+00
 $END
 +3.66944E+01 +3.71622E+00 +3.44946E+01 +9.34156E+00 +2.85260E+01 +1.41291E+01 +1.94403E+01 +1.77549E+01
 +8.24277E+00 +1.99750E+01 -3.82340E+00 +2.06336E+01 -1.54205E+01 +1.96689E+01 -2.52701E+01 +1.71198E+01
 -3.22999E+01 +1.31296E+01 -3.57640E+01 +7.94915E+00 -3.53253E+01 +1.93205E+00 -3.10876E+01 -4.47639E+00
 -2.35771E+01 -1.07618E+01 -1.36743E+01 -1.63745E+01 -2.50632E+00 -2.07735E+01 +8.68608E+00 -2.34788E+01
 +1.86922E+01 -2.41259E+01 +2.64666E+01 -2.25163E+01 +3.12411E+01 -1.86572E+01 +3.26011E+01 -1.27835E+01
 +3.05185E+01 -5.35593E+00 +2.53389E+01 +2.96721E+00 +1.77270E+01 +1.13842E+01 +8.57848E+00 +1.90268E+01
 -1.08982E+00 +2.50515E+01 -1.02571E+01 +2.87371E+01 -1.80093E+01 +2.95744E+01 -2.36311E+01 +2.73385E+01
 -2.66692E+01 +2.21320E+01 -2.69625E+01 +1.43927E+01 -2.46380E+01 +4.86076E+00 -2.00749E+01 -5.49051E+00
 -1.38462E+01 -1.55563E+01 -6.64309E+00 -2.42220E+01 +8.03448E-01 -3.04914E+01 +7.79845E+00 -3.36067E+01
 +1.37455E+01 -3.31436E+01 +1.81922E+01 -2.90710E+01 +2.08547E+01 -2.17657E+01 +2.16238E+01 -1.19781E+01
 +2.05530E+01 -7.54442E-01 +1.78347E+01 +1.06792E+01 +1.37682E+01 +2.10554E+01 +8.72648E+00 +2.92118E+01
 +3.12324E+00 +3.42265E+01 -2.61548E+00 +3.55263E+01 -8.07472E+00 +3.29559E+01 -1.28694E+01 +2.67966E+01
 -1.66601E+01 +1.77348E+01 -1.91669E+01 +6.78285E+00 -2.01839E+01 -4.83902E+00 -1.95937E+01 -1.58436E+01
 -1.73815E+01 -2.50249E+01 -1.36480E+01 -3.13953E+01 -8.61675E+00 -3.42951E+01 -2.63340E+00 -3.34631E+01
 +3.84626E+00 -2.90582E+01 +1.02817E+01 -2.16330E+01 +1.60869E+01 -1.20617E+01 +2.06811E+01 -1.43306E+00
 +2.35482E+01 +9.07878E+00 +2.42968E+01 +1.83486E+01 +2.27158E+01 +2.54244E+01 +1.88150E+01 +2.96273E+01
 +1.28462E+01 +3.06158E+01 +5.29806E+00 +2.84092E+01 -3.13811E+00 +2.33680E+01 -1.16286E+01 +1.61384E+01
 -1.92803E+01 +7.56575E+00 -2.52374E+01 -1.40779E+00 -2.87816E+01 -9.85070E+00 -2.94218E+01 -1.69409E+01
 -2.69645E+01 -2.20456E+01 -2.15519E+01 -2.47738E+01 -1.36627E+01 -2.49988E+01 -4.07279E+00 -2.28500E+01
 +6.22102E+00 -1.86777E+01 +1.61074E+01 -1.29986E+01 +2.44845E+01 -6.42940E+00 +3.03882E+01 +3.82370E-01
 +3.31073E+01 +6.82201E+00 +3.22737E+01 +1.23601E+01 +2.79130E+01 +1.65891E+01 +2.04510E+01 +1.92435E+01
 +1.06719E+01 +2.02039E+01 -3.66340E-01 +1.94881E+01 -1.14502E+01 +1.72328E+01 -2.13492E+01 +1.36711E+01
 -2.89581E+01 +9.10779E+00 -3.34248E+01 +3.89644E+00 -3.42504E+01 -1.58132E+00 -3.13465E+01 -6.93394E+00
 -2.50458E+01 -1.17768E+01 -1.60619E+01 -1.57495E+01 -5.40571E+00 -1.85342E+01 +5.73320E+00 -1.98765E+01
 +1.61244E+01 -1.96082E+01 +2.46379E+01 -1.76691E+01 +3.03711E+01 -1.41261E+01 +3.27479E+01 -9.18527E+00
 +3.15769E+01 -3.19231E+00 +2.70642E+01 +3.38057E+00 +1.97802E+01 +9.96405E+00 +1.05843E+01 +1.59365E+01
 +5.19854E-01 +2.06818E+01 -9.30942E+00 +2.36543E+01 -1.78646E+01 +2.44446E+01 -2.42846E+01 +2.28374E+01
 -2.79739E+01 +1.88533E+01 -2.86559E+01 +1.27668E+01 -2.63878E+01 +5.09718E+00 -2.15365E+01 -3.43154E+00
 -1.47214E+01 -1.19572E+01 -6.73302E+00 -1.95682E+01 +1.56280E+00 -2.54042E+01 +9.32174E+00 -2.87578E+01
 +1.58082E+01 -2.91637E+01 +2.04637E+01 -2.64652E+01 +2.29501E+01 -2.08466E+01 +2.31655E+01 -1.28273E+01
 +2.12333E+01 -3.21559E+00 +1.74689E+01 +6.97422E+00 +1.23305E+01 +1.66316E+01 +6.36110E+00 +2.46757E+01
 +1.29806E-01 +3.01807E+01 -5.82142E+00 +3.24880E+01 -1.10206E+01 +3.12875E+01 -1.50956E+01 +2.66612E+01
 -1.77900E+01 +1.90805E+01 -1.89677E+01 +9.35702E+00 -1.86070E+01 -1.44659E+00 -1.67897E+01 -1.21374E+01
 -1.36858E+01 -2.15287E+01 -9.53895E+00 -2.85772E+01 -4.65143E+00 -3.25034E+01 +6.29888E-01 -3.28811E+01
 +5.92785E+00 -2.96858E+01 +1.08513E+01 -2.32948E+01 +1.50144E+01 -1.44414E+01 +1.80605E+01 -4.12685E+00
 +1.96899E+01 +6.49705E+00 +1.96891E+01 +1.62620E+01 +1.79605E+01 +2.41161E+01 +1.45466E+01 +2.92416E+01
 +9.64448E+00 +3.11413E+01 +3.60716E+00 +2.96875E+01 -3.07213E+00 +2.51254E+01 -9.79386E+00 +1.80343E+01
 -1.59029E+01 +9.25110E+00 -2.07525E+01 -2.32092E-01 -2.37749E+01 -9.38489E+00 -2.45509E+01 -1.72543E+01
 -2.28696E+01 -2.30662E+01 -1.87689E+01 -2.63020E+01 -1.25508E+01 -2.67415E+01 -4.76664E+00 -2.44706E+01
 +3.82828E+00 -1.98538E+01 +1.23479E+01 -1.34777E+01 +1.98686E+01 -6.07377E+00 +2.55334E+01 +1.56868E+00
 +2.86534E+01 +8.68929E+00 +2.87957E+01 +1.46326E+01 +2.58445E+01 +1.89062E+01 +2.00279E+01 +2.12151E+01
 +1.19045E+01 +2.14732E+01 +2.31039E+00 +1.97905E+01 -7.72871E+00 +1.64428E+01 -1.71107E+01 +1.18284E+01
 -2.47826E+01 +6.41910E+00 -2.98638E+01 +7.11124E-01 -3.17516E+01 -4.81828E+00 -3.01957E+01 -9.74530E+00
 -2.53324E+01 -1.37236E+01 -1.76743E+01 -1.64982E+01 -8.05428E+00 -1.79105E+01 +2.46818E+00 -1.78974E+01
 +1.27279E+01 -1.64866E+01 +2.15881E+01 -1.37902E+01 +2.80715E+01 -9.99768E+00 +3.14720E+01 -5.36902E+00
 +3.14345E+01 -2.25489E-01 +2.79933E+01 +5.06199E+00 +2.15639E+01 +1.00896E+01 +1.28911E+01 +1.44433E+01
 +2.95908E+00 +1.77281E+01 -7.12477E+00 +1.96022E+01 -1.62583E+01 +1.98137E+01 -2.34693E+01 +1.82358E+01
 -2.80223E+01 +1.48949E+01 -2.94948E+01 +9.98726E+00 -2.78153E+01 +3.87936E+00 -2.32598E+01 -2.91124E+00
 -1.64083E+01 -9.75461E+00 -8.06815E+00 -1.59651E+01 +8.24569E-01 -2.08709E+01 +9.31459E+00 -2.38896E+01
 +1.65332E+01 -2.46004E+01 +2.17887E+01 -2.28040E+01 +2.46321E+01 -1.85616E+01 +2.48910E+01 -1.22061E+01
 +2.26711E+01 -4.32150E+00 +1.83268E+01 +4.30852E+00 +1.24060E+01 +1.27789E+01 +5.57893E+00 +2.01612E+01
 -1.44097E+00 +2.56089E+01 -7.97309E+00 +2.84590E+01 -1.34353E+01 +2.83162E+01 -1.73922E+01 +2.51090E+01
 -1.95833E+01 +1.91095E+01 -1.99295E+01 +1.09128E+01 -1.85211E+01 +1.37796E+00 -1.55908E+01 -8.46463E+00
 -1.14770E+01 -1.75284E+01 -6.58359E+00 -2.47955E+01 -1.34003E+00 -2.94353E+01 +3.83272E+00 -3.09040E+01
 +8.54982E+00 -2.90109E+01 +1.24822E+01 -2.39443E+01 +1.53689E+01 -1.62526E+01 +1.70250E+01 -6.78299E+00
 +1.73447E+01 +3.41531E+00 +1.63041E+01 +1.32118E+01 +1.39624E+01 +2.15250E+01 +1.04631E+01 +2.74462E+01
 +6.03230E+00 +3.03427E+01 +9.74338E-01 +2.99277E+01 -4.33886E+00 +2.62886E+01 -9.48598E+00 +1.98720E+01
 -1.40230E+01 +1.14267E+01 -1.75181E+01 +1.91239E+00 -1.95919E+01 -7.61356E+00 -1.99609E+01 -1.61182E+01
 -1.84771E+01 -2.27091E+01 -1.51591E+01 -2.67301E+01 -1.02095E+01 -2.78277E+01 -4.01307E+00 -2.59792E+01
 +2.88611E+00 -2.14832E+01 +9.82863E+00 -1.49124E+01 +1.61021E+01 -7.03857E+00 +2.10159E+01 +1.26212E+00
 +2.39802E+01 +9.11007E+00 +2.45801E+01 +1.57182E+01 +2.26350E+01 +2.04718E+01 +1.82341E+01 +2.29837E+01
 +1.17432E+01 +2.31207E+01 +3.77811E+00 +2.10002E+01 -4.85226E+00 +1.69591E+01 -1.32297E+01 +1.15023E+01
 -2.04277E+01 +5.23721E+00 -2.56175E+01 -1.19653E+00 -2.81682E+01 -7.19310E+00 -2.77268E+01 -1.22362E+01
 -2.42679E+01 -1.59392E+01 -1.81065E+01 -1.80666E+01 -9.87119E+00 -1.85392E+01 -4.38274E-01 -1.74220E+01
 +9.16397E+00 -1.49024E+01 +1.78716E+01 -1.12598E+01 +2.47075E+01 -6.83436E+00 +2.88957E+01 -1.99575E+00
 +2.99530E+01 +2.88305E+00 +2.77473E+01 +7.44736E+00 +2.25149E+01 +1.13773E+01 +1.48346E+01 +1.44004E+01
 +5.56080E+00 +1.63017E+01 -4.27465E+00 +1.69329E+01 -1.35821E+01 +1.62220E+01 -2.13395E+01 +1.41815E+01
 -2.67087E+01 +1.09161E+01 -2.91291E+01 +6.62683E+00 -2.83781E+01 +1.60907E+00 -2.45906E+01 -3.75810E+00
 -1.82367E+01 -9.03222E+00 -1.00616E+01 -1.37386E+01 -9.93955E-01 -1.74110E+01 +7.96347E+00 -1.96379E+01
 +1.58491E+01 -2.01110E+01 +2.18489E+01 -1.86690E+01 +2.53825E+01 -1.53304E+01 +2.61590E+01 -1.03100E+01
 +2.41970E+01 -4.01497E+00 +1.98093E+01 +2.98318E+00 +1.35543E+01 +9.99749E+00 +6.16263E+00 +1.62933E+01
 -1.55178E+00 +2.11676E+01 -8.78463E+00 +2.40305E+01 -1.48270E+01 +2.44802E+01 -1.91348E+01 +2.23602E+01
 -2.13749E+01 +1.77916E+01 -2.14450E+01 +1.11741E+01 -1.94660E+01 +3.15371E+00 -1.57515E+01 -5.43974E+00
 -1.07600E+01 -1.36809E+01 -5.03549E+00 -2.06519E+01 +8.53112E-01 -2.55486E+01 +6.36912E+00 -2.77777E+01
 +1.10544E+01 -2.70315E+01 +1.45622E+01 -2.33318E+01 +1.66743E+01 -1.70351E+01 +1.73041E+01 -8.79856E+00
 +1.64875E+01 +4.89848E-01 +1.43649E+01 +9.81076E+00 +1.11591E+01 +1.81293E+01 +7.15132E+00 +2.45147E+01
 +2.65863E+00 +2.82485E+01 -1.98558E+00 +2.89088E+01 -6.44849E+00 +2.64201E+01 -1.04123E+01 +2.10625E+01
 -1.35880E+01 +1.34386E+01 -1.57287E+01 +4.40343E+00 -1.66450E+01 -5.03543E+00 -1.62204E+01 -1.38346E+01
 -1.44271E+01 -2.10347E+01 -1.13393E+01 -2.58686E+01 -7.14075E+00 -2.78460E+01 -2.12491E+00 -2.68037E+01
 +3.31671E+00 -2.29174E+01 +8.71796E+00 -1.66736E+01 +1.35740E+01 -8.80660E+00 +1.73874E+01 -2.08184E-01
 +1.97200E+01 +8.17720E+00 +2.02461E+01 +1.54601E+01 +1.87985E+01 +2.09033E+01 +1.54024E+01 +2.39973E+01
 +1.02903E+01 +2.45070E+01 +3.89393E+00 +2.24844E+01 -3.18754E+00 +1.82491E+01 -1.02424E+01 +1.23386E+01
 -1.65190E+01 +5.43795E+00 -2.13082E+01 -1.70278E+00 -2.40271E+01 -8.35299E+00 -2.42934E+01 -1.38775E+01
 -2.19797E+01 -1.77962E+01 -1.72415E+01 -1.98223E+01 -1.05124E+01 -1.98758E+01 -2.46600E+00 -1.80741E+01
 +6.05180E+00 -1.47025E+01 +1.41147E+01 -1.01702E+01 +2.08200E+01 -4.95917E+00 +2.53944E+01 +4.28989E-01
 +2.72865E+01 +5.52038E+00 +2.62368E+01 +9.90724E+00 +2.23135E+01 +1.32743E+01 +1.59119E+01 +1.54130E+01
 +7.71332E+00 +1.62236E+01 -1.38904E+00 +1.57094E+01 -1.03913E+01 +1.39642E+01 -1.82936E+01 +1.11567E+01
 -2.42158E+01 +7.51481E+00 -2.74993E+01 +3.31047E+00 -2.77831E+01 -1.15441E+00 -2.50454E+01 -5.56114E+00
 -1.96048E+01 -9.58786E+00 -1.20817E+01 -1.29249E+01 -3.32449E+00 -1.52929E+01 +5.68949E+00 -1.64630E+01
 +1.39678E+01 -1.62794E+01 +2.06159E+01 -1.46806E+01 +2.49375E+01 -1.17176E+01 +2.65091E+01 -7.56480E+00
 +2.52220E+01 -2.51980E+00 +2.12859E+01 +3.00925E+00 +1.51964E+01 +8.53110E+00 +7.67002E+00 +1.35121E+01
 -4.43200E-01 +1.74277E+01 -8.25989E+00 +1.98193E+01 -1.49627E+01 +2.03504E+01 -1.98881E+01 +1.88554E+01
 -2.25923E+01 +1.53719E+01 -2.28888E+01 +1.01543E+01 -2.08556E+01 +3.66070E+00 -1.68115E+01 -3.48329E+00
 -1.12675E+01 -1.05448E+01 -4.85970E+00 -1.67604E+01 +1.72620E+00 -2.14215E+01 +7.83091E+00 -2.39589E+01
