 Created: 19-Jan-2021
 $NMID
 ID='D:\BASISSIMULATI'
 FMTDAT='(8E13.5)'
 VOLUME=   1.00000E+00
 TRAMP=   1.00000E+00
 $END
 +6.10250E+01 +5.29216E+00 +5.54931E+01 +2.41744E+01 +4.37503E+01 +3.95365E+01 +2.77333E+01 +4.93612E+01
 +9.97613E+00 +5.26166E+01 -6.86344E+00 +4.93907E+01 -2.04789E+01 +4.08100E+01 -2.92968E+01 +2.87670E+01
 -3.26958E+01 +1.55208E+01 -3.10279E+01 +3.25851E+00 -2.54517E+01 -6.29333E+00 -1.76244E+01 -1.21316E+01
 -9.32785E+00 -1.40704E+01 -2.11005E+00 -1.26609E+01 +2.98190E+00 -8.97073E+00 +5.53073E+00 -4.28225E+00
 +5.72489E+00 +2.13891E-01 +4.20299E+00 +3.66269E+00 +1.81642E+00 +5.67595E+00 -6.25056E-01 +6.33167E+00
 -2.56114E+00 +6.05559E+00 -3.79460E+00 +5.42584E+00 -4.48955E+00 +4.95817E+00 -5.06385E+00 +4.93021E+00
 -6.01118E+00 +5.29023E+00 -7.70531E+00 +5.67193E+00 -1.02418E+01 +5.50832E+00 -1.33608E+01 +4.21192E+00
 -1.64742E+01 +1.37177E+00 -1.87898E+01 -3.08691E+00 -1.95046E+01 -8.82448E+00 -1.80159E+01 -1.51141E+01
 -1.40988E+01 -2.09717E+01 -8.00125E+00 -2.53593E+01 -4.31339E-01 -2.74160E+01 +7.56422E+00 -2.66587E+01
 +1.48058E+01 -2.31066E+01 +2.02241E+01 -1.72955E+01 +2.30851E+01 -1.01773E+01 +2.31450E+01 -2.92515E+00
 +2.06984E+01 +3.31229E+00 +1.65074E+01 +7.65179E+00 +1.16280E+01 +9.65752E+00 +7.17156E+00 +9.42214E+00
 +4.05656E+00 +7.52877E+00 +2.80629E+00 +4.90261E+00 +3.43868E+00 +2.58630E+00 +5.47296E+00 +1.49022E+00
 +8.05132E+00 +2.17479E+00 +1.01477E+01 +4.71431E+00 +1.08160E+01 +8.67320E+00 +9.42158E+00 +1.32002E+01
 +5.80295E+00 +1.72192E+01 +3.28078E-01 +1.96742E+01 -6.16872E+00 +1.97737E+01 -1.25549E+01 +1.71793E+01
 -1.76363E+01 +1.20987E+01 -2.04105E+01 +5.26018E+00 -2.02828E+01 -2.22343E+00 -1.71970E+01 -9.07356E+00
 -1.16560E+01 -1.40998E+01 -4.62785E+00 -1.64353E+01 +2.64232E+00 -1.57052E+01 +8.87181E+00 -1.20947E+01
 +1.29831E+01 -6.30532E+00 +1.42995E+01 +5.88045E-01 +1.26565E+01 +7.34746E+00 +8.41044E+00 +1.28037E+01
 +2.34733E+00 +1.60632E+01 -4.48303E+00 +1.66494E+01 -1.09707E+01 +1.45569E+01 -1.61435E+01 +1.02120E+01
 -1.93205E+01 +4.35756E+00 -2.01946E+01 -2.10932E+00 -1.88359E+01 -8.30799E+00 -1.56229E+01 -1.35187E+01
 -1.11269E+01 -1.72738E+01 -5.97906E+00 -1.93848E+01 -7.51458E-01 -1.99077E+01 +4.12209E+00 -1.90663E+01
 +8.37523E+00 -1.71578E+01 +1.18892E+01 -1.44672E+01 +1.46383E+01 -1.12135E+01 +1.66235E+01 -7.53573E+00
 +1.78154E+01 -3.51977E+00 +1.81285E+01 +7.49913E-01 +1.74320E+01 +5.13227E+00 +1.55961E+01 +9.38804E+00
 +1.25602E+01 +1.31714E+01 +8.40093E+00 +1.60625E+01 +3.37893E+00 +1.76375E+01 -2.05412E+00 +1.75608E+01
 -7.29594E+00 +1.56769E+01 -1.16783E+01 +1.20794E+01 -1.45807E+01 +7.13508E+00 -1.55500E+01 +1.45428E+00
 -1.43989E+01 -4.19277E+00 -1.12609E+01 -8.99839E+00 -6.58709E+00 -1.22562E+01 -1.08177E+00 -1.34878E+01
 +4.41186E+00 -1.25321E+01 +9.05456E+00 -9.57635E+00 +1.21547E+01 -5.12480E+00 +1.32845E+01 +9.20248E-02
 +1.23463E+01 +5.24748E+00 +9.57739E+00 +9.56347E+00 +5.49262E+00 +1.24409E+01 +7.80140E-01 +1.35511E+01
 -3.82934E+00 +1.28733E+01 -7.69200E+00 +1.06714E+01 -1.03542E+01 +7.42132E+00 -1.16108E+01 +3.70405E+00
 -1.15114E+01 +8.96326E-02 -1.03156E+01 -2.96426E+00 -8.41341E+00 -5.17981E+00 -6.22885E+00 -6.48188E+00
 -4.12944E+00 -6.97580E+00 -2.36052E+00 -6.88961E+00 -1.01614E+00 -6.49733E+00 -4.92361E-02 -6.04258E+00
 +6.85287E-01 -5.68028E+00 +1.36816E+00 -5.44846E+00 +2.15098E+00 -5.27441E+00 +3.10544E+00 -5.01074E+00
 +4.19836E+00 -4.49003E+00 +5.29744E+00 -3.58320E+00 +6.20480E+00 -2.24631E+00 +6.70874E+00 -5.44260E-01
 +6.64029E+00 +1.35391E+00 +5.92011E+00 +3.20655E+00 +4.58457E+00 +4.74946E+00 +2.78493E+00 +5.75224E+00
 +7.60330E-01 +6.06746E+00 -1.20873E+00 +5.66131E+00 -2.85503E+00 +4.61924E+00 -3.97495E+00 +3.12614E+00
 -4.46324E+00 +1.42654E+00 -4.32524E+00 -2.25357E-01 -3.66509E+00 -1.61387E+00 -2.65432E+00 -2.59772E+00
 -1.48912E+00 -3.12622E+00 -3.47440E-01 -3.23372E+00 +6.44286E-01 -3.01540E+00 +1.42733E+00 -2.59203E+00
 +2.00737E+00 -2.07339E+00 +2.43419E+00 -1.53005E+00 +2.77101E+00 -9.80286E-01 +3.06267E+00 -3.95079E-01
 +3.31172E+00 +2.81129E-01 +3.46928E+00 +1.10006E+00 +3.44348E+00 +2.07841E+00 +3.12373E+00 +3.17486E+00
 +2.41470E+00 +4.28232E+00 +1.27142E+00 +5.23855E+00 -2.73861E-01 +5.85380E+00 -2.10041E+00 +5.94985E+00
 -4.00757E+00 +5.40174E+00 -5.74233E+00 +4.17257E+00 -7.04122E+00 +2.33305E+00 -7.67794E+00 +6.07815E-02
 -7.50709E+00 -2.38174E+00 -6.49492E+00 -4.68641E+00 -4.73056E+00 -6.54880E+00 -2.41542E+00 -7.71789E+00
 +1.67158E-01 -8.03687E+00 +2.69622E+00 -7.46739E+00 +4.86282E+00 -6.09336E+00 +6.41584E+00 -4.10442E+00
 +7.19609E+00 -1.76302E+00 +7.15346E+00 +6.37911E-01 +6.34543E+00 +2.81870E+00 +4.91910E+00 +4.55027E+00
 +3.08162E+00 +5.67950E+00 +1.06546E+00 +6.13978E+00 -9.04716E-01 +5.94727E+00 -2.63827E+00 +5.18569E+00
 -3.99484E+00 +3.98461E+00 -4.88985E+00 +2.49630E+00 -5.29121E+00 +8.75588E-01 -5.21021E+00 -7.34664E-01
 -4.69035E+00 -2.21144E+00 -3.79738E+00 -3.45407E+00 -2.61226E+00 -4.38354E+00 -1.22753E+00 -4.94115E+00
 +2.54196E-01 -5.08865E+00 +1.72143E+00 -4.81084E+00 +3.05702E+00 -4.12010E+00 +4.14467E+00 -3.06128E+00
 +4.87926E+00 -1.71450E+00 +5.17966E+00 -1.93760E-01 +5.00188E+00 +1.36035E+00 +4.34953E+00 +2.79380E+00
 +3.27885E+00 +3.95688E+00 +1.89618E+00 +4.72384E+00 +3.47483E-01 +5.01101E+00 -1.19910E+00 +4.78984E+00
 -2.57507E+00 +4.09227E+00 -3.63405E+00 +3.00705E+00 -4.27123E+00 +1.66748E+00 -4.43641E+00 +2.32497E-01
 -4.13849E+00 -1.13550E+00 -3.44099E+00 -2.29238E+00 -2.44985E+00 -3.13001E+00 -1.29584E+00 -3.58727E+00
 -1.15100E-01 -3.65313E+00 +9.68921E-01 -3.36217E+00 +1.85934E+00 -2.78407E+00 +2.49382E+00 -2.00961E+00
 +2.84626E+00 -1.13617E+00 +2.92315E+00 -2.54974E-01 +2.75610E+00 +5.57961E-01 +2.39284E+00 +1.24669E+00
 +1.88853E+00 +1.77617E+00 +1.29869E+00 +2.13022E+00 +6.74613E-01 +2.30782E+00 +6.09374E-02 +2.31928E+00
 -5.05148E-01 +2.18293E+00 -9.93910E-01 +1.92285E+00 -1.38306E+00 +1.56732E+00 -1.65809E+00 +1.14767E+00
 -1.81289E+00 +6.96777E-01 -1.85030E+00 +2.46947E-01 -1.78187E+00 -1.72770E-01 -1.62655E+00 -5.39465E-01
 -1.40792E+00 -8.38701E-01 -1.15050E+00 -1.06554E+00 -8.75671E-01 -1.22375E+00 -5.98380E-01 -1.32304E+00
 -3.25460E-01 -1.37498E+00 -5.63198E-02 -1.38834E+00 +2.13989E-01 -1.36538E+00 +4.89931E-01 -1.30017E+00
 +7.70086E-01 -1.17966E+00 +1.04275E+00 -9.87843E-01 +1.28406E+00 -7.12093E-01 +1.45959E+00 -3.50292E-01
 +1.52985E+00 +8.30752E-02 +1.45866E+00 +5.53806E-01 +1.22313E+00 +1.00921E+00 +8.22701E-01 +1.38421E+00
 +2.85107E-01 +1.61172E+00 -3.32706E-01 +1.63565E+00 -9.49776E-01 +1.42394E+00 -1.47214E+00 +9.78848E-01
 -1.80819E+00 +3.41974E-01 -1.88565E+00 -4.07876E-01 -1.66697E+00 -1.16422E+00 -1.15985E+00 -1.80877E+00
 -4.20317E-01 -2.23124E+00 +4.52942E-01 -2.34932E+00 +1.33261E+00 -2.12527E+00 +2.08307E+00 -1.57542E+00
 +2.58353E+00 -7.70411E-01 +2.74988E+00 +1.74504E-01 +2.55080E+00 +1.11780E+00 +2.01507E+00 +1.91565E+00
 +1.22801E+00 +2.44725E+00 +3.17440E-01 +2.63674E+00 -5.68570E-01 +2.46749E+00 -1.28837E+00 +1.98565E+00
 -1.73273E+00 +1.29216E+00 -1.84526E+00 +5.24211E-01 -1.63317E+00 -1.70503E-01 -1.16605E+00 -6.61894E-01
 -5.62714E-01 -8.62695E-01 +3.17332E-02 -7.45762E-01 +4.74240E-01 -3.49981E-01 +6.52167E-01 +2.26579E-01
 +5.06167E-01 +8.45139E-01 +4.30185E-02 +1.35288E+00 -6.64187E-01 +1.61268E+00 -1.48865E+00 +1.53022E+00
 -2.27292E+00 +1.07317E+00 -2.85789E+00 +2.78593E-01 -3.11220E+00 -7.52499E-01 -2.95638E+00 -1.87266E+00
 -2.37714E+00 -2.91379E+00 -1.42941E+00 -3.71623E+00 -2.26012E-01 -4.15542E+00 +1.08247E+00 -4.16136E+00
 +2.33341E+00 -3.72733E+00 +3.37806E+00 -2.90708E+00 +4.10295E+00 -1.80185E+00 +4.44275E+00 -5.40716E-01
 +4.38341E+00 +7.41193E-01 +3.95590E+00 +1.92188E+00 +3.22369E+00 +2.90558E+00 +2.26756E+00 +3.62800E+00
 +1.17215E+00 +4.05423E+00 +1.72043E-02 +4.17167E+00 -1.12493E+00 +3.98155E+00 -2.18643E+00 +3.49292E+00
 -3.09828E+00 +2.72158E+00 -3.78557E+00 +1.69494E+00 -4.16746E+00 +4.61368E-01 -4.16457E+00 -8.99559E-01
 -3.71384E+00 -2.27040E+00 -2.78886E+00 -3.49737E+00 -1.42081E+00 -4.40312E+00 +2.86072E-01 -4.81099E+00
 +2.15044E+00 -4.57810E+00 +3.92586E+00 -3.63110E+00 +5.32993E+00 -1.99692E+00 +6.08792E+00 +1.80046E-01
 +5.98410E+00 +2.64087E+00 +4.91128E+00 +5.03829E+00 +2.90749E+00 +6.98481E+00 +1.70376E-01 +8.11588E+00
 -2.95683E+00 +8.15763E+00 -6.02872E+00 +6.98591E+00 -8.56515E+00 +4.66396E+00 -1.01319E+01 +1.44891E+00
 -1.04204E+01 -2.23699E+00 -9.30996E+00 -5.86798E+00 -6.90058E+00 -8.89967E+00 -3.50664E+00 -1.08625E+01
 +3.88806E-01 -1.14461E+01 +4.21267E+00 -1.05585E+01 +7.39965E+00 -8.34629E+00 +9.49124E+00 -5.17284E+00
 +1.02168E+01 -1.55471E+00 +9.54091E+00 +1.93025E+00 +7.66681E+00 +4.74695E+00 +4.99540E+00 +6.49894E+00
 +2.04697E+00 +6.99735E+00 -6.38735E-01 +6.28951E+00 -2.60450E+00 +4.64162E+00 -3.55931E+00 +2.47943E+00
 -3.42742E+00 +2.99221E-01 -2.35341E+00 -1.43252E+00 -6.63176E-01 -2.37023E+00 +1.21020E+00 -2.35281E+00
 +2.81950E+00 -1.42733E+00 +3.79561E+00 +1.70788E-01 +3.91966E+00 +2.07574E+00 +3.16069E+00 +3.87368E+00
 +1.67218E+00 +5.19126E+00 -2.50193E-01 +5.77116E+00 -2.23867E+00 +5.51886E+00 -3.93499E+00 +4.51187E+00
 -5.06480E+00 +2.97137E+00 -5.48896E+00 +1.20425E+00 -5.22128E+00 -4.69497E-01 -4.41076E+00 -1.78677E+00
 -3.29455E+00 -2.59272E+00 -2.13453E+00 -2.86245E+00 -1.15388E+00 -2.68977E+00 -4.89237E-01 -2.24788E+00
 -1.69684E-01 -1.73369E+00 -1.26331E-01 -1.31131E+00 -2.28490E-01 -1.06988E+00 -3.35164E-01 -1.00699E+00
 -3.46681E-01 -1.04180E+00 -2.41146E-01 -1.05360E+00 -8.44035E-02 -9.34655E-01 -9.35599E-03 -6.41537E-01
 -1.69008E-01 -2.28769E-01 -6.75415E-01 +1.47167E-01 -1.54166E+00 +2.58126E-01 -2.64471E+00 -1.35749E-01
 -3.72291E+00 -1.20973E+00 -4.41421E+00 -3.00109E+00 -4.33065E+00 -5.35914E+00 -3.15497E+00 -7.93563E+00
 -7.37804E-01 -1.02241E+01 +2.82878E+00 -1.16454E+01 +7.18247E+00 -1.16653E+01 +1.17195E+01 -9.92029E+00
 +1.56815E+01 -6.32429E+00 +1.82880E+01 -1.12941E+00 +1.88896E+01 +5.07741E+00 +1.71124E+01 +1.14477E+01
 +1.29600E+01 +1.70056E+01 +6.84988E+00 +2.08200E+01 -4.29264E-01 +2.21819E+01 -7.83587E+00 +2.07514E+01
