 Created: 19-Jan-2021
 $NMID
 ID='D:\BASISSIMULATI'
 FMTDAT='(8E13.5)'
 VOLUME=   1.00000E+00
 TRAMP=   1.00000E+00
 $END
 +3.30609E+01 +3.02073E+00 +3.13638E+01 +1.03233E+01 +2.79625E+01 +1.69465E+01 +2.31024E+01 +2.24798E+01
 +1.71283E+01 +2.65969E+01 +1.04567E+01 +2.90792E+01 +3.54269E+00 +2.98306E+01 -3.15597E+00 +2.88821E+01
 -9.21391E+00 +2.63864E+01 -1.42704E+01 +2.26027E+01 -1.80554E+01 +1.78731E+01 -2.04079E+01 +1.25930E+01
 -2.12850E+01 +7.17776E+00 -2.07607E+01 +2.02832E+00 -1.90152E+01 -2.50073E+00 -1.63160E+01 -6.12863E+00
 -1.29917E+01 -8.66893E+00 -9.40119E+00 -1.00414E+01 -5.90196E+00 -1.02748E+01 -2.81821E+00 -9.49943E+00
 -4.13413E-01 -7.93229E+00 +1.13143E+00 -5.85374E+00 +1.73174E+00 -3.57987E+00 +1.40443E+00 -1.43195E+00
 +2.63848E-01 +2.93949E-01 -1.49096E+00 +1.35462E+00 -3.59650E+00 +1.58224E+00 -5.75065E+00 +8.99856E-01
 -7.64180E+00 -6.71485E-01 -8.97864E+00 -3.01450E+00 -9.51814E+00 -5.92613E+00 -9.08906E+00 -9.13570E+00
 -7.60913E+00 -1.23292E+01 -5.09433E+00 -1.51774E+01 -1.65957E+00 -1.73658E+01 +2.48948E+00 -1.86232E+01
 +7.07238E+00 -1.87463E+01 +1.17567E+01 -1.76197E+01 +1.61851E+01 -1.52274E+01 +2.00055E+01 -1.16568E+01
 +2.29001E+01 -7.09277E+00 +2.46123E+01 -1.80513E+00 +2.49685E+01 +3.87241E+00 +2.38932E+01 +9.56794E+00
 +2.14162E+01 +1.49006E+01 +1.76707E+01 +1.95102E+01 +1.28839E+01 +2.30857E+01 +7.35880E+00 +2.53893E+01
 +1.45155E+00 +2.62743E+01 -4.45680E+00 +2.56962E+01 -9.98940E+00 +2.37151E+01 -1.48023E+01 +2.04895E+01
 -1.86103E+01 +1.62629E+01 -2.12074E+01 +1.13434E+01 -2.24807E+01 +6.07874E+00 -2.24170E+01 +8.28460E-01
 -2.11002E+01 -4.06422E+00 -1.87025E+01 -8.29850E+00 -1.54668E+01 -1.16381E+01 -1.16858E+01 -1.39273E+01
 -7.67587E+00 -1.51005E+01 -3.75076E+00 -1.51834E+01 -1.96101E-01 -1.42869E+01 +2.75309E+00 -1.25942E+01
 +4.92991E+00 -1.03418E+01 +6.24665E+00 -7.79716E+00 +6.69884E+00 -5.23384E+00 +6.36193E+00 -2.90708E+00
 +5.38111E+00 -1.03173E+00 +3.95532E+00 +2.35658E-01 +2.31690E+00 +8.09186E-01 +7.08772E-01 +6.79293E-01
 -6.38773E-01 -8.84872E-02 -1.52975E+00 -1.36151E+00 -1.82060E+00 -2.95390E+00 -1.43339E+00 -4.64510E+00
 -3.62750E-01 -6.20123E+00 +1.32362E+00 -7.39753E+00 +3.49125E+00 -8.03978E+00 +5.95104E+00 -7.98280E+00
 +8.47631E+00 -7.14464E+00 +1.08232E+01 -5.51492E+00 +1.27527E+01 -3.15698E+00 +1.40518E+01 -2.03461E-01
 +1.45532E+01 +3.15417E+00 +1.41505E+01 +6.68121E+00 +1.28081E+01 +1.01191E+01 +1.05658E+01 +1.32067E+01
 +7.53633E+00 +1.57023E+01 +3.89686E+00 +1.74033E+01 -1.24473E-01 +1.81635E+01 -4.26665E+00 +1.79046E+01
 -8.25631E+00 +1.66233E+01 -1.18292E+01 +1.43911E+01 -1.47508E+01 +1.13492E+01 -1.68345E+01 +7.69626E+00
 -1.79551E+01 +3.67349E+00 -1.80581E+01 -4.55085E-01 -1.71628E+01 -4.42296E+00 -1.53587E+01 -7.98168E+00
 -1.27979E+01 -1.09195E+01 -9.68098E+00 -1.30764E+01 -6.24063E+00 -1.43553E+01 -2.72229E+00 -1.47271E+01
 +6.35288E-01 -1.42304E+01 +3.61848E+00 -1.29663E+01 +6.05462E+00 -1.10871E+01 +7.82392E+00 -8.78225E+00
 +8.86664E+00 -6.26140E+00 +9.18501E+00 -3.73602E+00 +8.83994E+00 -1.40194E+00 +7.94283E+00 +5.76249E-01
 +6.64348E+00 +2.07763E+00 +5.11515E+00 +3.03312E+00 +3.53805E+00 +3.42890E+00 +2.08298E+00 +3.30486E+00
 +8.96242E-01 +2.74840E+00 +8.73148E-02 +1.88428E+00 -2.79831E-01 +8.61388E-01 -1.91046E-01 -1.62189E-01
 +3.18291E-01 -1.03451E+00 +1.16804E+00 -1.62419E+00 +2.24204E+00 -1.83254E+00 +3.39990E+00 -1.60257E+00
 +4.49080E+00 -9.23936E-01 +5.36807E+00 +1.66416E-01 +5.90302E+00 +1.58786E+00 +5.99720E+00 +3.22367E+00
 +5.59161E+00 +4.93173E+00 +4.67245E+00 +6.55745E+00 +3.27266E+00 +7.94770E+00 +1.46947E+00 +8.96449E+00
 -6.22075E-01 +9.49726E+00 -2.85870E+00 +9.47274E+00 -5.08101E+00 +8.86143E+00 -7.12677E+00 +7.68041E+00
 -8.84444E+00 +5.99205E+00 -1.01056E+01 +3.89899E+00 -1.08154E+01 +1.53571E+00 -1.09201E+01 -9.42363E-01
 -1.04109E+01 -3.37148E+00 -9.32412E+00 -5.59254E+00 -7.73814E+00 -7.46361E+00 -5.76599E+00 -8.87069E+00
 -3.54608E+00 -9.73600E+00 -1.23073E+00 -1.00232E+01 +1.02608E+00 -9.73891E+00 +3.08075E+00 -8.93100E+00
 +4.81088E+00 -7.68318E+00 +6.12404E+00 -6.10719E+00 +6.96375E+00 -4.33271E+00 +7.31231E+00 -2.49636E+00
 +7.19031E+00 -7.30389E-01 +6.65298E+00 +8.47724E-01 +5.78383E+00 +2.14401E+00 +4.68615E+00 +3.09442E+00
 +3.47324E+00 +3.66842E+00 +2.25825E+00 +3.86950E+00 +1.14446E+00 +3.73286E+00 +2.16897E-01 +3.32032E+00
 -4.64046E-01 +2.71321E+00 -8.66538E-01 +2.00388E+00 -9.88503E-01 +1.28659E+00 -8.56092E-01 +6.48660E-01
 -5.19667E-01 +1.62630E-01 -4.77461E-02 -1.19877E-01 +4.80466E-01 -1.72134E-01 +9.83236E-01 +6.17072E-03
 +1.38440E+00 +3.89923E-01 +1.62064E+00 +9.31904E-01 +1.64735E+00 +1.56806E+00 +1.44255E+00 +2.22419E+00
 +1.00858E+00 +2.82340E+00 +3.71509E-01 +3.29357E+00 -4.21725E-01 +3.57424E+00 -1.30795E+00 +3.62224E+00
 -2.21385E+00 +3.41558E+00 -3.06287E+00 +2.95531E+00 -3.78221E+00 +2.26528E+00 -4.30944E+00 +1.38977E+00
 -4.59793E+00 +3.89315E-01 -4.62080E+00 -6.64749E-01 -4.37303E+00 -1.69672E+00 -3.87155E+00 -2.63314E+00
 -3.15337E+00 -3.40901E+00 -2.27201E+00 -3.97324E+00 -1.29253E+00 -4.29255E+00 -2.85729E-01 -4.35382E+00
 +6.78010E-01 -4.16454E+00 +1.53464E+00 -3.75149E+00 +2.23161E+00 -3.15767E+00 +2.73182E+00 -2.43800E+00
 +3.01603E+00 -1.65413E+00 +3.08370E+00 -8.68773E-01 +2.95196E+00 -1.40308E-01 +2.65323E+00 +4.82102E-01
 +2.23140E+00 +9.62282E-01 +1.73729E+00 +1.27949E+00 +1.22357E+00 +1.42931E+00 +7.39868E-01 +1.42304E+00
 +3.28324E-01 +1.28562E+00 +2.00871E-02 +1.05236E+00 -1.66964E-01 +7.64897E-01 -2.29125E-01 +4.66723E-01
 -1.76359E-01 +1.98735E-01 -3.04773E-02 -4.73157E-03 +1.77764E-01 -1.19048E-01 +4.12320E-01 -1.31332E-01
 +6.35895E-01 -4.12244E-02 +8.13938E-01 +1.39627E-01 +9.18207E-01 +3.89286E-01 +9.29565E-01 +6.78234E-01
 +8.39741E-01 +9.72763E-01 +6.51925E-01 +1.23870E+00 +3.80156E-01 +1.44507E+00 +4.75982E-02 +1.56733E+00
 -3.16082E-01 +1.58987E+00 -6.77968E-01 +1.50751E+00 -1.00541E+00 +1.32588E+00 -1.26948E+00 +1.06074E+00
 -1.44793E+00 +7.36092E-01 -1.52747E+00 +3.81652E-01 -1.50506E+00 +2.95952E-02 -1.38810E+00 -2.88840E-01
 -1.19355E+00 -5.46644E-01 -9.46027E-01 -7.23870E-01 -6.75115E-01 -8.09699E-01 -4.12173E-01 -8.03557E-01
 -1.86930E-01 -7.15135E-01 -2.42545E-02 -5.63345E-01 +5.85764E-02 -3.74281E-01 +5.38372E-02 -1.78420E-01
 -3.56762E-02 -7.32696E-03 -1.96769E-01 +1.09797E-01 -4.07058E-01 +1.49370E-01 -6.37167E-01 +9.61645E-02
 -8.53693E-01 -5.47824E-02 -1.02265E+00 -2.97263E-01 -1.11305E+00 -6.14122E-01 -1.10030E+00 -9.78604E-01
 -9.69006E-01 -1.35670E+00 -7.14957E-01 -1.71029E+00 -3.46043E-01 -2.00077E+00 +1.17983E-01 -2.19287E+00
 +6.46917E-01 -2.25818E+00 +1.20256E+00 -2.17818E+00 +1.74199E+00 -1.94637E+00 +2.22142E+00 -1.56928E+00
 +2.60016E+00 -1.06637E+00 +2.84440E+00 -4.68579E-01 +2.93049E+00 +1.84101E-01 +2.84723E+00 +8.46026E-01
 +2.59717E+00 +1.46983E+00 +2.19652E+00 +2.01061E+00 +1.67397E+00 +2.42990E+00 +1.06819E+00 +2.69913E+00
 +4.24528E-01 +2.80223E+00 -2.09061E-01 +2.73704E+00 -7.86252E-01 +2.51553E+00 -1.26651E+00 +2.16266E+00
 -1.61875E+00 +1.71407E+00 -1.82409E+00 +1.21274E+00 -1.87749E+00 +7.04952E-01 -1.78815E+00 +2.35977E-01
 -1.57851E+00 -1.54234E-01 -1.28200E+00 -4.34828E-01 -9.39781E-01 -5.87002E-01 -5.96644E-01 -6.05824E-01
 -2.96606E-01 -5.00736E-01 -7.84801E-02 -2.94691E-01 +2.80838E-02 -2.19607E-02 +5.74457E-03 +2.75165E-01
 -1.48526E-01 +5.50522E-01 -4.22777E-01 +7.58661E-01 -7.90840E-01 +8.59478E-01 -1.21447E+00 +8.22426E-01
 -1.64671E+00 +6.29941E-01 -2.03614E+00 +2.79719E-01 -2.33171E+00 -2.14384E-01 -2.48766E+00 -8.22925E-01
 -2.46810E+00 -1.50293E+00 -2.25082E+00 -2.20123E+00 -1.83002E+00 -2.85889E+00 -1.21754E+00 -3.41622E+00
 -4.42638E-01 -3.81804E+00 +4.49823E-01 -4.01874E+00 +1.40261E+00 -3.98658E+00 +2.35053E+00 -3.70689E+00
 +3.22560E+00 -3.18394E+00 +3.96267E+00 -2.44114E+00 +4.50477E+00 -1.51967E+00 +4.80802E+00 -4.75563E-01
 +4.84544E+00 +6.24557E-01 +4.60935E+00 +1.70863E+00 +4.11229E+00 +2.70485E+00 +3.38617E+00 +3.54744E+00
 +2.47983E+00 +4.18185E+00 +1.45515E+00 +4.56916E+00 +3.82155E-01 +4.68915E+00 -6.66706E-01 +4.54174E+00
 -1.62234E+00 +4.14684E+00 -2.42454E+00 +3.54250E+00 -3.02674E+00 +2.78150E+00 -3.39957E+00 +1.92675E+00
 -3.53286E+00 +1.04591E+00 -3.43610E+00 +2.05606E-01 -3.13709E+00 -5.34173E-01 -2.67907E+00 -1.12502E+00
 -2.11657E+00 -1.53398E+00 -1.51025E+00 -1.74606E+00 -9.21360E-01 -1.76504E+00 -4.06106E-01 -1.61263E+00
 -1.06391E-02 -1.32608E+00 +2.33055E-01 -9.54303E-01 +3.09921E-01 -5.53073E-01 +2.23031E-01 -1.79563E-01
 -6.89138E-03 +1.13190E-01 -3.43576E-01 +2.81426E-01 -7.38746E-01 +2.94949E-01 -1.13678E+00 +1.40156E-01
 -1.48006E+00 -1.78448E-01 -1.71459E+00 -6.38403E-01 -1.79524E+00 -1.20111E+00 -1.69031E+00 -1.81513E+00
 -1.38494E+00 -2.42072E+00 -8.82916E-01 -2.95520E+00 -2.06974E-01 -3.35859E+00 +6.02694E-01 -3.57922E+00
 +1.49147E+00 -3.57854E+00 +2.39465E+00 -3.33503E+00 +3.24278E+00 -2.84652E+00 +3.96744E+00 -2.13095E+00
 +4.50705E+00 -1.22545E+00 +4.81215E+00 -1.83656E-01 +4.84976E+00 +9.28292E-01 +4.60635E+00 +2.03691E+00
 +4.08925E+00 +3.06715E+00 +3.32632E+00 +3.94840E+00 +2.36393E+00 +4.62010E+00 +1.26338E+00 +5.03653E+00
 +9.61819E-02 +5.17049E+00 -1.06161E+00 +5.01529E+00 -2.13529E+00 +4.58522E+00 -3.05734E+00 +3.91423E+00
 -3.77255E+00 +3.05298E+00 -4.24215E+00 +2.06466E+00 -4.44649E+00 +1.01979E+00 -4.38611E+00 -9.52322E-03
 -4.08118E+00 -9.55303E-01 -3.56931E+00 -1.75899E+00 -2.90192E+00 -2.37584E+00 -2.13961E+00 -2.77805E+00
 -1.34683E+00 -2.95641E+00 -5.86392E-01 -2.92030E+00 +8.57569E-02 -2.69617E+00 +6.25007E-01 -2.32454E+00
 +1.00147E+00 -1.85590E+00 +1.20197E+00 -1.34583E+00 +1.23052E+00 -8.49841E-01 +1.10730E+00 -4.18357E-01
 +8.66122E-01 -9.22412E-02 +5.50845E-01 +1.00664E-01 +2.10895E-01 +1.47753E-01 -1.03605E-01 +5.24461E-02
 -3.46671E-01 -1.66510E-01 -4.80842E-01 -4.77131E-01 -4.80706E-01 -8.37469E-01 -3.35275E-01 -1.19977E+00
 -4.90155E-02 -1.51510E+00 +3.58561E-01 -1.73808E+00 +8.54670E-01 -1.83126E+00 +1.39624E+00 -1.76867E+00
 +1.93384E+00 -1.53847E+00 +2.41611E+00 -1.14419E+00 +2.79446E+00 -6.04658E-01 +3.02746E+00 +4.74766E-02
