 Created: 19-Jan-2021
 $NMID
 ID='D:\BASISSIMULATI'
 FMTDAT='(8E13.5)'
 VOLUME=   1.00000E+00
 TRAMP=   1.00000E+00
 $END
 +4.28682E+01 +3.63187E+00 +3.70708E+01 +2.13579E+01 +2.41952E+01 +3.46090E+01 +7.08371E+00 +4.07562E+01
 -1.05811E+01 +3.87991E+01 -2.51429E+01 +2.95418E+01 -3.38030E+01 +1.53358E+01 -3.52157E+01 -5.30946E-01
 -2.97116E+01 -1.46375E+01 -1.91142E+01 -2.42210E+01 -6.21138E+00 -2.77645E+01 +5.96565E+00 -2.52491E+01
 +1.48718E+01 -1.80296E+01 +1.90034E+01 -8.38823E+00 +1.81562E+01 +1.10057E+00 +1.33423E+01 +8.22248E+00
 +6.41430E+00 +1.16292E+01 -4.86405E-01 +1.10818E+01 -5.50267E+00 +7.39172E+00 -7.50816E+00 +2.10002E+00
 -6.32395E+00 -3.00024E+00 -2.66935E+00 -6.36146E+00 +2.11635E+00 -7.06799E+00 +6.48795E+00 -5.02107E+00
 +9.12346E+00 -8.92512E-01 +9.25427E+00 +4.11895E+00 +6.81941E+00 +8.64537E+00 +2.42104E+00 +1.15162E+01
 -2.88650E+00 +1.20362E+01 -7.90004E+00 +1.01123E+01 -1.15732E+01 +6.21227E+00 -1.32431E+01 +1.18867E+00
 -1.27297E+01 -3.96768E+00 -1.02993E+01 -8.36896E+00 -6.52554E+00 -1.14019E+01 -2.10278E+00 -1.27951E+01
 +2.32412E+00 -1.25842E+01 +6.26789E+00 -1.10071E+01 +9.42525E+00 -8.38069E+00 +1.16336E+01 -5.00518E+00
 +1.27938E+01 -1.12934E+00 +1.28046E+01 +3.02263E+00 +1.15433E+01 +7.18532E+00 +8.90983E+00 +1.09885E+01
 +4.91858E+00 +1.39377E+01 -1.97746E-01 +1.54652E+01 -5.92004E+00 +1.50518E+01 -1.14525E+01 +1.23913E+01
 -1.58294E+01 +7.54510E+00 -1.81078E+01 +1.03314E+00 -1.76021E+01 -6.18491E+00 -1.40987E+01 -1.28531E+01
 -7.98263E+00 -1.76671E+01 -2.29234E-01 -1.95717E+01 +7.75509E+00 -1.80334E+01 +1.44168E+01 -1.32116E+01
 +1.84010E+01 -5.97466E+00 +1.88743E+01 +2.25653E+00 +1.57405E+01 +9.80904E+00 +9.68879E+00 +1.51340E+01
 +2.05320E+00 +1.71672E+01 -5.48732E+00 +1.55834E+01 -1.12988E+01 +1.08773E+01 -1.41765E+01 +4.24594E+00
 -1.36279E+01 -2.69907E+00 -9.98205E+00 -8.32210E+00 -4.29784E+00 -1.13586E+01 +1.90690E+00 -1.12164E+01
 +7.03730E+00 -8.10852E+00 +9.81828E+00 -2.98449E+00 +9.60685E+00 +2.72093E+00 +6.54233E+00 +7.45682E+00
 +1.49876E+00 +9.94927E+00 -4.14619E+00 +9.51982E+00 -8.86535E+00 +6.25041E+00 -1.13689E+01 +9.56011E-01
 -1.09271E+01 -5.02531E+00 -7.54907E+00 -1.01694E+01 -1.97776E+00 -1.31443E+01 +4.49626E+00 -1.31363E+01
 +1.03506E+01 -1.00440E+01 +1.41975E+01 -4.49773E+00 +1.51109E+01 +2.29677E+00 +1.28366E+01 +8.84763E+00
 +7.83894E+00 +1.37252E+01 +1.18025E+00 +1.58857E+01 -5.73401E+00 +1.48953E+01 -1.14775E+01 +1.10061E+01
 -1.49158E+01 +5.07494E+00 -1.54388E+01 -1.64865E+00 -1.30644E+01 -7.80973E+00 -8.39814E+00 -1.22403E+01
 -2.46919E+00 -1.41915E+01 +3.51331E+00 -1.34585E+01 +8.42198E+00 -1.03801E+01 +1.14330E+01 -5.72319E+00
 +1.21635E+01 -4.88928E-01 +1.07038E+01 +4.30969E+00 +7.54908E+00 +7.84893E+00 +3.45689E+00 +9.63354E+00
 -7.31043E-01 +9.55287E+00 -4.26008E+00 +7.85330E+00 -6.59366E+00 +5.04423E+00 -7.48313E+00 +1.76676E+00
 -6.97212E+00 -1.34302E+00 -5.34560E+00 -3.76833E+00 -3.04299E+00 -5.18559E+00 -5.58166E-01 -5.49150E+00
 +1.65290E+00 -4.78737E+00 +3.24250E+00 -3.33195E+00 +4.01227E+00 -1.47702E+00 +3.92484E+00 +4.00890E-01
 +3.09032E+00 +1.96203E+00 +1.73407E+00 +2.95178E+00 +1.52618E-01 +3.23241E+00 -1.33642E+00 +2.79704E+00
 -2.44504E+00 +1.76562E+00 -2.96103E+00 +3.63464E-01 -2.78409E+00 -1.11614E+00 -1.94605E+00 -2.36184E+00
 -6.10268E-01 -3.10053E+00 +9.52760E-01 -3.15134E+00 +2.41218E+00 -2.46688E+00 +3.43992E+00 -1.15189E+00
 +3.77905E+00 +5.47649E-01 +3.30356E+00 +2.28620E+00 +2.05512E+00 +3.68552E+00 +2.46417E-01 +4.41433E+00
 -1.77306E+00 +4.26415E+00 -3.58432E+00 +3.20348E+00 -4.78645E+00 +1.39633E+00 -5.08592E+00 -8.21966E-01
 -4.36712E+00 -3.00865E+00 -2.72685E+00 -4.70513E+00 -4.63053E-01 -5.53643E+00 +1.98192E+00 -5.29631E+00
 +4.11215E+00 -3.99796E+00 +5.48379E+00 -1.87773E+00 +5.80182E+00 +6.50405E-01 +4.98613E+00 +3.08030E+00
 +3.19143E+00 +4.92052E+00 +7.76058E-01 +5.79906E+00 -1.77348E+00 +5.54241E+00 -3.94571E+00 +4.21164E+00
 -5.31207E+00 +2.08755E+00 -5.61574E+00 -3.91172E-01 -4.82222E+00 -2.72262E+00 -3.12137E+00 -4.44785E+00
 -8.81711E-01 -5.24517E+00 +1.43188E+00 -4.99247E+00 +3.35792E+00 -3.78515E+00 +4.53350E+00 -1.90754E+00
 +4.76470E+00 +2.34227E-01 +4.05821E+00 +2.20170E+00 +2.60943E+00 +3.61587E+00 +7.51847E-01 +4.23156E+00
 -1.11943E+00 +3.97972E+00 -2.63231E+00 +2.97054E+00 -3.51226E+00 +1.45932E+00 -3.63169E+00 -2.15441E-01
 -3.02582E+00 -1.70694E+00 -1.87370E+00 -2.73135E+00 -4.51259E-01 -3.12106E+00 +9.32268E-01 -2.85017E+00
 +1.99986E+00 -2.02906E+00 +2.56080E+00 -8.71440E-01 +2.54297E+00 +3.57112E-01 +1.99858E+00 +1.39740E+00
 +1.08407E+00 +2.04909E+00 +2.03080E-02 +2.20735E+00 -9.57328E-01 +1.87730E+00 -1.64828E+00 +1.16513E+00
 -1.92552E+00 +2.49333E-01 -1.75675E+00 -6.60743E-01 -1.20500E+00 -1.36986E+00 -4.09916E-01 -1.73614E+00
 +4.45308E-01 -1.69709E+00 +1.17383E+00 -1.27821E+00 +1.62364E+00 -5.83319E-01 +1.70704E+00 +2.30348E-01
 +1.41577E+00 +9.86590E-01 +8.19486E-01 +1.52691E+00 +4.86678E-02 +1.74211E+00 -7.33964E-01 +1.59271E+00
 -1.36745E+00 +1.11466E+00 -1.72503E+00 +4.09731E-01 -1.73865E+00 -3.76960E-01 -1.41087E+00 -1.08737E+00
 -8.12321E-01 -1.58257E+00 -6.55473E-02 -1.76998E+00 +6.81049E-01 -1.62038E+00 +1.28358E+00 -1.17177E+00
 +1.63115E+00 -5.19474E-01 +1.66670E+00 +2.04793E-01 +1.39627E+00 +8.60486E-01 +8.85257E-01 +1.32646E+00
 +2.42835E-01 +1.52416E+00 -4.01694E-01 +1.43124E+00 -9.25555E-01 +1.08326E+00 -1.23656E+00 +5.63665E-01
 -1.28981E+00 -1.53915E-02 -1.09404E+00 -5.36946E-01 -7.06858E-01 -9.02872E-01 -2.20391E-01 -1.05243E+00
 +2.59141E-01 -9.72322E-01 +6.33596E-01 -6.96645E-01 +8.32232E-01 -2.97423E-01 +8.24527E-01 +1.31967E-01
 +6.24316E-01 +4.96738E-01 +2.84911E-01 +7.19923E-01 -1.13358E-01 +7.57160E-01 -4.80378E-01 +6.04389E-01
 -7.34683E-01 +2.97325E-01 -8.19510E-01 -9.68064E-02 -7.13513E-01 -4.93372E-01 -4.34319E-01 -8.07350E-01
 -3.45409E-02 -9.69974E-01 +4.08775E-01 -9.41901E-01 +8.09094E-01 -7.20565E-01 +1.08687E+00 -3.40513E-01
 +1.18450E+00 +1.33169E-01 +1.07699E+00 +6.17018E-01 +7.76602E-01 +1.02463E+00 +3.30442E-01 +1.28251E+00
 -1.88191E-01 +1.34336E+00 -6.93312E-01 +1.19455E+00 -1.10193E+00 +8.59902E-01 -1.34897E+00 +3.94879E-01
 -1.39866E+00 -1.24268E-01 -1.25004E+00 -6.14970E-01 -9.35727E-01 -1.00371E+00 -5.14064E-01 -1.23908E+00
 -5.65282E-02 -1.29995E+00 +3.66977E-01 -1.19701E+00 +7.01631E-01 -9.67540E-01 +9.17012E-01 -6.64718E-01
 +1.01016E+00 -3.44167E-01 +1.00186E+00 -5.09913E-02 +9.27192E-01 +1.89415E-01 +8.23071E-01 +3.74489E-01
 +7.16074E-01 +5.20789E-01 +6.14065E-01 +6.54521E-01 +5.04092E-01 +7.98954E-01 +3.57404E-01 +9.62370E-01
 +1.40502E-01 +1.13021E+00 -1.70627E-01 +1.26413E+00 -5.77056E-01 +1.30899E+00 -1.04829E+00 +1.20648E+00
 -1.52151E+00 +9.12538E-01 -1.90996E+00 +4.13914E-01 -2.11927E+00 -2.60462E-01 -2.06857E+00 -1.03702E+00
 -1.71154E+00 -1.80560E+00 -1.05221E+00 -2.43718E+00 -1.51437E-01 -2.80798E+00 +8.78444E-01 -2.82495E+00
 +1.89026E+00 -2.44692E+00 +2.72698E+00 -1.69657E+00 +3.25001E+00 -6.60162E-01 +3.36485E+00 +5.25143E-01
 +3.03869E+00 +1.69409E+00 +2.30649E+00 +2.68136E+00 +1.26436E+00 +3.34909E+00 +5.21548E-02 +3.60847E+00
 -1.17067E+00 +3.43131E+00 -2.25068E+00 +2.85032E+00 -3.06246E+00 +1.94895E+00 -3.52317E+00 +8.44304E-01
 -3.59805E+00 -3.32650E-01 -3.29766E+00 -1.45520E+00 -2.66914E+00 -2.41427E+00 -1.78512E+00 -3.12586E+00
 -7.33317E-01 -3.53316E+00 +3.91326E-01 -3.60550E+00 +1.49144E+00 -3.33655E+00 +2.47039E+00 -2.74370E+00
 +3.23583E+00 -1.86921E+00 +3.70544E+00 -7.81975E-01 +3.81597E+00 +4.22199E-01 +3.53437E+00 +1.62457E+00
 +2.86869E+00 +2.69337E+00 +1.87502E+00 +3.49988E+00 +6.56923E-01 +3.93840E+00 -6.44771E-01 +3.94616E+00
 -1.87145E+00 +3.51800E+00 -2.87251E+00 +2.71114E+00 -3.53188E+00 +1.63739E+00 -3.78890E+00 +4.43338E-01
 -3.64781E+00 -7.17833E-01 -3.17253E+00 -1.71606E+00 -2.46748E+00 -2.46811E+00 -1.64907E+00 -2.94850E+00
 -8.15598E-01 -3.18433E+00 -2.44013E-02 -3.23484E+00 +7.16317E-01 -3.16170E+00 +1.43756E+00 -2.99901E+00
 +2.18338E+00 -2.73333E+00 +2.97592E+00 -2.30173E+00 +3.78273E+00 -1.61136E+00 +4.49840E+00 -5.77166E-01
 +4.94976E+00 +8.31698E-01 +4.92789E+00 +2.55054E+00 +4.24245E+00 +4.39761E+00 +2.78608E+00 +6.08337E+00
 +5.91803E-01 +7.25434E+00 -2.13477E+00 +7.56597E+00 -5.02219E+00 +6.76956E+00 -7.58410E+00 +4.79237E+00
 -9.30829E+00 +1.78864E+00 -9.76673E+00 -1.85615E+00 -8.72194E+00 -5.57526E+00 -6.20280E+00 -8.71949E+00
 -2.52799E+00 -1.06864E+01 +1.73414E+00 -1.10515E+01 +5.86524E+00 -9.67154E+00 +9.13742E+00 -6.73124E+00
 +1.09642E+01 -2.72080E+00 +1.10271E+01 +1.65607E+00 +9.34736E+00 +5.62460E+00 +6.28326E+00 +8.50082E+00
 +2.45227E+00 +9.83510E+00 -1.40571E+00 +9.50325E+00 -4.59213E+00 +7.72283E+00 -6.60139E+00 +4.99028E+00
 -7.22378E+00 +1.95412E+00 -6.57459E+00 -7.44422E-01 -5.04299E+00 -2.62335E+00 -3.17448E+00 -3.46638E+00
 -1.51791E+00 -3.35713E+00 -4.77311E-01 -2.63325E+00 -2.07758E-01 -1.77339E+00 -5.82673E-01 -1.24799E+00
 -1.24138E+00 -1.37451E+00 -1.70392E+00 -2.21699E+00 -1.52201E+00 -3.55796E+00 -4.24663E-01 -4.95184E+00
 +1.58199E+00 -5.84653E+00 +4.18964E+00 -5.74153E+00 +6.84658E+00 -4.34015E+00 +8.88708E+00 -1.65426E+00
 +9.69898E+00 +1.96805E+00 +8.88624E+00 +5.90164E+00 +6.38398E+00 +9.37730E+00 +2.49542E+00 +1.16560E+01
 -2.15990E+00 +1.22011E+01 -6.77438E+00 +1.08050E+01 -1.05253E+01 +7.64014E+00 -1.27497E+01 +3.22184E+00
 -1.30796E+01 -1.70571E+00 -1.15049E+01 -6.32983E+00 -8.35488E+00 -9.93593E+00 -4.20577E+00 -1.20399E+01
 +2.56470E-01 -1.24578E+01 +4.38100E+00 -1.13008E+01 +7.66838E+00 -8.90755E+00 +9.83297E+00 -5.73599E+00
 +1.08035E+01 -2.25172E+00 +1.06728E+01 +1.15812E+00 +9.62026E+00 +4.22503E+00 +7.83812E+00 +6.79037E+00
 +5.48596E+00 +8.76152E+00 +2.68647E+00 +1.00576E+01 -4.41250E-01 +1.05718E+01 -3.72967E+00 +1.01700E+01
 -6.91908E+00 +8.73105E+00 -9.64778E+00 +6.21649E+00 -1.14911E+01 +2.74444E+00 -1.20469E+01 -1.36317E+00
 -1.10477E+01 -5.58638E+00 -8.46569E+00 -9.27722E+00 -4.57426E+00 -1.17853E+01 +6.11842E-02 -1.26103E+01
 +4.67316E+00 -1.15406E+01 +8.44808E+00 -8.73482E+00 +1.07126E+01 -4.71662E+00 +1.11015E+01 -2.74164E-01
