 Created: 19-Jan-2021
 $NMID
 ID='D:\BASISSIMULATI'
 FMTDAT='(8E13.5)'
 VOLUME=   1.00000E+00
 TRAMP=   1.00000E+00
 $END
 +6.03616E+01 +6.11227E+00 +5.80522E+01 +1.65278E+01 +5.34880E+01 +2.61610E+01 +4.69063E+01 +3.45513E+01
 +3.86426E+01 +4.13059E+01 +2.91114E+01 +4.61208E+01 +1.87827E+01 +4.87954E+01 +8.15668E+00 +4.92417E+01
 -2.26398E+00 +4.74870E+01 -1.20006E+01 +4.36701E+01 -2.06236E+01 +3.80309E+01 -2.77735E+01 +3.08957E+01
 -3.31788E+01 +2.26566E+01 -3.66665E+01 +1.37486E+01 -3.81690E+01 +4.62517E+00 -3.77228E+01 -4.26712E+00
 -3.54627E+01 -1.25123E+01 -3.16105E+01 -1.97465E+01 -2.64582E+01 -2.56749E+01 -2.03496E+01 -3.00853E+01
 -1.36580E+01 -3.28555E+01 -6.76453E+00 -3.39555E+01 -3.60762E-02 -3.34444E+01 +6.19425E+00 -3.14625E+01
 +1.16441E+01 -2.82185E+01 +1.60947E+01 -2.39742E+01 +1.94001E+01 -1.90260E+01 +2.14900E+01 -1.36863E+01
 +2.23700E+01 -8.26429E+00 +2.21155E+01 -3.04839E+00 +2.08627E+01 +1.70927E+00 +1.87965E+01 +5.80516E+00
 +1.61356E+01 +9.09295E+00 +1.31166E+01 +1.14882E+01 +9.97853E+00 +1.29690E+01 +6.94716E+00 +1.35724E+01
 +4.22190E+00 +1.33880E+01 +1.96475E+00 +1.25480E+01 +2.92332E-01 +1.12156E+01 -7.28702E-01 +9.57222E+00
 -1.08285E+00 +7.80382E+00 -8.03617E-01 +6.08840E+00 +3.16913E-02 +4.58431E+00 +1.30961E+00 +3.42074E+00
 +2.89012E+00 +2.69049E+00 +4.61744E+00 +2.44558E+00 +6.33124E+00 +2.69572E+00 +7.87764E+00 +3.40959E+00
 +9.11925E+00 +4.51866E+00 +9.94365E+00 +5.92336E+00 +1.02701E+01 +7.50083E+00 +1.00536E+01 +9.11388E+00
 +9.28725E+00 +1.06206E+01 +8.00123E+00 +1.18835E+01 +6.26047E+00 +1.27790E+01 +4.15978E+00 +1.32045E+01
 +1.81750E+00 +1.30848E+01 -6.31923E-01 +1.23767E+01 -3.04614E+00 +1.10712E+01 -5.28326E+00 +9.19402E+00
 -7.20995E+00 +6.80402E+00 -8.70878E+00 +3.98988E+00 -9.68452E+00 +8.65232E-01 -1.00691E+01 -2.43739E+00
 -9.82504E+00 -5.77344E+00 -8.94703E+00 -8.99374E+00 -7.46214E+00 -1.19519E+01 -5.42822E+00 -1.45114E+01
 -2.93085E+00 -1.65521E+01 -7.90999E-02 -1.79760E+01 +2.99981E+00 -1.87116E+01 +6.16652E+00 -1.87169E+01
 +9.27609E+00 -1.79816E+01 +1.21846E+01 -1.65272E+01 +1.47558E+01 -1.44061E+01 +1.68670E+01 -1.16993E+01
 +1.84150E+01 -8.51273E+00 +1.93200E+01 -4.97288E+00 +1.95300E+01 -1.22122E+00 +1.90226E+01 +2.59170E+00
 +1.78065E+01 +6.31265E+00 +1.59211E+01 +9.79225E+00 +1.34353E+01 +1.28913E+01 +1.04444E+01 +1.54867E+01
 +7.06669E+00 +1.74768E+01 +3.43815E+00 +1.87858E+01 -2.93039E-01 +1.93672E+01 -3.97290E+00 +1.92059E+01
 -7.44835E+00 +1.83188E+01 -1.05739E+01 +1.67545E+01 -1.32183E+01 +1.45913E+01 -1.52704E+01 +1.19333E+01
 -1.66442E+01 +8.90643E+00 -1.72833E+01 +5.65239E+00 -1.71636E+01 +2.32227E+00 -1.62945E+01 -9.30500E-01
 -1.47188E+01 -3.95735E+00 -1.25110E+01 -6.62166E+00 -9.77370E+00 -8.80538E+00 -6.63308E+00 -1.04147E+01
 -3.23284E+00 -1.13848E+01 +2.72729E-01 -1.16828E+01 +3.72617E+00 -1.13095E+01 +6.97463E+00 -1.02993E+01
 +9.87733E+00 -8.71813E+00 +1.23125E+01 -6.66024E+00 +1.41834E+01 -4.24281E+00 +1.54229E+01 -1.59993E+00
 +1.59966E+01 +1.12469E+00 +1.59042E+01 +3.78536E+00 +1.51790E+01 +6.24231E+00 +1.38857E+01 +8.36910E+00
 +1.21162E+01 +1.00594E+01 +9.98415E+00 +1.12324E+01 +7.61848E+00 +1.18373E+01 +5.15579E+00 +1.18554E+01
 +2.73258E+00 +1.13008E+01 +4.77605E-01 +1.02190E+01 -1.49535E+00 +8.68394E+00 -3.09361E+00 +6.79332E+00
 -4.25054E+00 +4.66235E+00 -4.92877E+00 +2.41694E+00 -5.12166E+00 +1.86045E-01 -4.85297E+00 -1.90593E+00
 -4.17457E+00 -3.74640E+00 -3.16258E+00 -5.24110E+00 -1.91205E+00 -6.31929E+00 -5.30501E-01 -6.93759E+00
 +8.69121E-01 -7.08199E+00 +2.17582E+00 -6.76810E+00 +3.28764E+00 -6.03951E+00 +4.11818E+00 -4.96452E+00
 +4.60193E+00 -3.63131E+00 +4.69835E+00 -2.14196E+00 +4.39426E+00 -6.05722E-01 +3.70444E+00 +8.68138E-01
 +2.67055E+00 +2.17738E+00 +1.35820E+00 +3.23329E+00 -1.47341E-01 +3.96628E+00 -1.74676E+00 +4.33020E+00
 -3.33314E+00 +4.30513E+00 -4.79891E+00 +3.89847E+00 -6.04272E+00 +3.14428E+00 -6.97601E+00 +2.10098E+00
 -7.52870E+00 +8.47416E-01 -7.65374E+00 -5.22241E-01 -7.33025E+00 -1.90464E+00 -6.56497E+00 -3.19390E+00
 -5.39207E+00 -4.28845E+00 -3.87126E+00 -5.09757E+00 -2.08428E+00 -5.54729E+00 -1.30182E-01 -5.58520E+00
 +1.88058E+00 -5.18404E+00 +3.83264E+00 -4.34367E+00 +5.61257E+00 -3.09143E+00 +7.11556E+00 -1.48085E+00
 +8.25163E+00 +4.11182E-01 +8.95093E+00 +2.48872E+00 +9.16789E+00 +4.64214E+00 +8.88392E+00 +6.75431E+00
 +8.10860E+00 +8.70730E+00 +6.87916E+00 +1.03891E+01 +5.25849E+00 +1.16998E+01 +3.33162E+00 +1.25578E+01
 +1.20098E+00 +1.29037E+01 -1.01929E+00 +1.27045E+01 -3.20963E+00 +1.19551E+01 -5.25170E+00 +1.06788E+01
 -7.03483E+00 +8.92607E+00 -8.46206E+00 +6.77224E+00 -9.45534E+00 +4.31318E+00 -9.95973E+00 +1.66041E+00
 -9.94623E+00 -1.06473E+00 -9.41324E+00 -3.73745E+00 -8.38650E+00 -6.23596E+00 -6.91758E+00 -8.44765E+00
 -5.08096E+00 -1.02749E+01 -2.96998E+00 -1.16396E+01 -6.91809E-01 -1.24875E+01 +1.63832E+00 -1.27899E+01
 +3.90314E+00 -1.25452E+01 +5.98946E+00 -1.17787E+01 +7.79400E+00 -1.05404E+01 +9.22857E+00 -8.90213E+00
 +1.02244E+01 -6.95378E+00 +1.07356E+01 -4.79804E+00 +1.07407E+01 -2.54501E+00 +1.02439E+01 -3.06365E-01
 +9.27419E+00 +1.81034E+00 +7.88343E+00 +3.70715E+00 +6.14327E+00 +5.30047E+00 +4.14111E+00 +6.52501E+00
 +1.97535E+00 +7.33669E+00 -2.49982E-01 +7.71434E+00 -2.43061E+00 +7.66011E+00 -4.46742E+00 +7.19874E+00
 -6.27145E+00 +6.37552E+00 -7.76819E+00 +5.25324E+00 -8.90109E+00 +3.90832E+00 -9.63398E+00 +2.42623E+00
 -9.95233E+00 +8.96526E-01 -9.86342E+00 -5.92154E-01 -9.39519E+00 -1.95700E+00 -8.59411E+00 -3.12548E+00
 -7.52204E+00 -4.03905E+00 -6.25233E+00 -4.65615E+00 -4.86538E+00 -4.95401E+00 -3.44394E+00 -4.92946E+00
 -2.06840E+00 -4.59861E+00 -8.12280E-01 -3.99538E+00 +2.61712E-01 -3.16909E+00 +1.10495E+00 -2.18119E+00
 +1.68527E+00 -1.10138E+00 +1.98830E+00 -3.25413E-03 +2.01778E+00 +1.04013E+00 +1.79479E+00 +1.96060E+00
 +1.35592E+00 +2.69892E+00 +7.50631E-01 +3.20815E+00 +3.78392E-02 +3.45632E+00 -7.17985E-01 +3.42813E+00
 -1.45101E+00 +3.12570E+00 -2.09824E+00 +2.56817E+00 -2.60351E+00 +1.79042E+00 -2.92102E+00 +8.40748E-01
 -3.01816E+00 -2.22146E-01 -2.87757E+00 -1.33283E+00 -2.49821E+00 -2.42313E+00 -1.89547E+00 -3.42635E+00
 -1.10021E+00 -4.28123E+00 -1.56932E-01 -4.93571E+00 +8.78915E-01 -5.35004E+00 +1.94429E+00 -5.49912E+00
 +2.97235E+00 -5.37408E+00 +3.89652E+00 -4.98273E+00 +4.65452E+00 -4.34913E+00 +5.19216E+00 -3.51219E+00
 +5.46667E+00 -2.52331E+00 +5.44937E+00 -1.44341E+00 +5.12751E+00 -3.39295E-01 +4.50524E+00 +7.20252E-01
 +3.60354E+00 +1.66853E+00 +2.45919E+00 +2.44484E+00 +1.12291E+00 +2.99805E+00 -3.43446E-01 +3.28965E+00
 -1.87017E+00 +3.29601E+00 -3.38357E+00 +3.00982E+00 -4.80997E+00 +2.44063E+00 -6.07982E+00 +1.61438E+00
 -7.13142E+00 +5.71971E-01 -7.91439E+00 -6.32919E-01 -8.39238E+00 -1.93684E+00 -8.54507E+00 -3.27008E+00
 -8.36923E+00 -4.56053E+00 -7.87890E+00 -5.73771E+00 -7.10457E+00 -6.73673E+00 -6.09150E+00 -7.50185E+00
 -4.89718E+00 -7.98966E+00 -3.58820E+00 -8.17154E+00 -2.23655E+00 -8.03524E+00 -9.15710E-01 -7.58569E+00
 +3.03404E-01 -6.84480E+00 +1.35629E+00 -5.85029E+00 +2.18837E+00 -4.65378E+00 +2.75799E+00 -3.31797E+00
 +3.03866E+00 -1.91334E+00 +3.02048E+00 -5.14340E-01 +2.71066E+00 +8.04646E-01 +2.13314E+00 +1.97329E+00
 +1.32720E+00 +2.92920E+00 +3.45342E-01 +3.62126E+00 -7.49678E-01 +4.01252E+00 -1.88830E+00 +4.08226E+00
 -2.99807E+00 +3.82714E+00 -4.00770E+00 +3.26153E+00 -4.85111E+00 +2.41678E+00 -5.47120E+00 +1.33963E+00
 -5.82318E+00 +8.97410E-02 -5.87726E+00 -1.26352E+00 -5.62052E+00 -2.64479E+00 -5.05787E+00 -3.97685E+00
 -4.21206E+00 -5.18489E+00 -3.12266E+00 -6.20063E+00 -1.84416E+00 -6.96624E+00 -4.43112E-01 -7.43760E+00
 +1.00533E+00 -7.58697E+00 +2.42148E+00 -7.40469E+00 +3.72551E+00 -6.89993E+00 +4.84186E+00 -6.10042E+00
 +5.70357E+00 -5.05111E+00 +6.25612E+00 -3.81188E+00 +6.46075E+00 -2.45432E+00 +6.29683E+00 -1.05790E+00
 +5.76339E+00 +2.94476E-01 +4.87945E+00 +1.52109E+00 +3.68337E+00 +2.54607E+00 +2.23096E+00 +3.30380E+00
 +5.92694E-01 +3.74279E+00 -1.14998E+00 +3.82878E+00 -2.90904E+00 +3.54698E+00 -4.59465E+00 +2.90317E+00
 -6.12017E+00 +1.92362E+00 -7.40698E+00 +6.53876E-01 -8.38892E+00 -8.43571E-01 -9.01609E+00 -2.49269E+00
 -9.25772E+00 -4.20807E+00 -9.10401E+00 -5.89971E+00 -8.56673E+00 -7.47810E+00 -7.67859E+00 -8.85936E+00
 -6.49143E+00 -9.97002E+00 -5.07322E+00 -1.07513E+01 -3.50412E+00 -1.11627E+01 -1.87187E+00 -1.11840E+01
 -2.66627E-01 -1.08167E+01 +1.22426E+00 -1.00841E+01 +2.52138E+00 -9.02950E+00 +3.55787E+00 -7.71381E+00
 +4.28328E+00 -6.21200E+00 +4.66641E+00 -4.60847E+00 +4.69701E+00 -2.99211E+00 +4.38616E+00 -1.45091E+00
 +3.76535E+00 -6.67829E-02 +2.88430E+00 +1.08927E+00 +1.80766E+00 +1.96130E+00 +6.10796E-01 +2.51163E+00
 -6.25064E-01 +2.72279E+00 -1.81801E+00 +2.59833E+00 -2.89067E+00 +2.16221E+00 -3.77502E+00 +1.45694E+00
 -4.41667E+00 +5.40538E-01 -4.77816E+00 -5.17411E-01 -4.84111E+00 -1.64047E+00 -4.60723E+00 -2.75039E+00
 -4.09788E+00 -3.77224E+00 -3.35247E+00 -4.63924E+00 -2.42560E+00 -5.29702E+00 -1.38331E+00 -5.70701E+00
 -2.98570E-01 -5.84870E+00 +7.53629E-01 -5.72077E+00 +1.70126E+00 -5.34083E+00 +2.48001E+00 -4.74397E+00
 +3.03745E+00 -3.98016E+00 +3.33638E+00 -3.11063E+00 +3.35710E+00 -2.20361E+00 +3.09857E+00 -1.32961E+00
 +2.57822E+00 -5.56637E-01 +1.83056E+00 +5.43946E-02 +9.04737E-01 +4.53680E-01 -1.38919E-01 +6.05762E-01
 -1.23300E+00 +4.91756E-01 -2.30755E+00 +1.10430E-01 -3.29465E+00 -5.21911E-01 -4.13281E+00 -1.37271E+00
 -4.77086E+00 -2.39552E+00 -5.17102E+00 -3.53320E+00 -5.31104E+00 -4.72184E+00 -5.18528E+00 -5.89496E+00
 -4.80464E+00 -6.98788E+00 -4.19532E+00 -7.94172E+00 -3.39674E+00 -8.70710E+00 -2.45849E+00 -9.24690E+00
 -1.43681E+00 -9.53823E+00 -3.90681E-01 -9.57341E+00 +6.22054E-01 -9.35979E+00 +1.54842E+00 -8.91862E+00
 +2.34348E+00 -8.28310E+00 +2.97284E+00 -7.49557E+00 +3.41432E+00 -6.60433E+00 +3.65865E+00 -5.66013E+00
 +3.70929E+00 -4.71272E+00 +3.58129E+00 -3.80765E+00 +3.29942E+00 -2.98355E+00 +2.89570E+00 -2.27006E+00
 +2.40653E+00 -1.68661E+00 +1.86972E+00 -1.24194E+00 +1.32151E+00 -9.34565E-01 +7.94033E-01 -7.53917E-01
