 Created: 19-Jan-2021
 $NMID
 ID='D:\BASISSIMULATI'
 FMTDAT='(8E13.5)'
 VOLUME=   1.00000E+00
 TRAMP=   1.00000E+00
 $END
 +5.60722E+01 +6.07371E+00 +5.06691E+01 +1.42368E+01 +3.56509E+01 +1.98223E+01 +1.43348E+01 +2.21411E+01
 -8.62275E+00 +2.10634E+01 -2.83126E+01 +1.69921E+01 -4.07006E+01 +1.07736E+01 -4.35251E+01 +3.56318E+00
 -3.67527E+01 -3.34147E+00 -2.24965E+01 -8.68958E+00 -4.43340E+00 -1.14758E+01 +1.31200E+01 -1.11252E+01
 +2.62336E+01 -7.63291E+00 +3.22411E+01 -1.62020E+00 +3.02650E+01 +5.72395E+00 +2.12840E+01 +1.28291E+01
 +7.75814E+00 +1.80396E+01 -7.06364E+00 +1.99712E+01 -1.99595E+01 +1.78501E+01 -2.84640E+01 +1.17476E+01
 -3.13398E+01 +2.63957E+00 -2.87021E+01 -7.74859E+00 -2.18042E+01 -1.72925E+01 -1.25784E+01 -2.39464E+01
 -3.08101E+00 -2.62352E+01 +5.00185E+00 -2.36369E+01 +1.06674E+01 -1.67476E+01 +1.36722E+01 -7.17408E+00
 +1.43897E+01 +2.83249E+00 +1.35291E+01 +1.09201E+01 +1.18240E+01 +1.52208E+01 +9.79581E+00 +1.48253E+01
 +7.65740E+00 +1.00203E+01 +5.36795E+00 +2.21903E+00 +2.79701E+00 -6.40256E+00 -8.03702E-02 -1.34720E+01
 -3.04206E+00 -1.70408E+01 -5.59242E+00 -1.60941E+01 -7.06944E+00 -1.08108E+01 -6.85407E+00 -2.50591E+00
 -4.61187E+00 +6.73243E+00 -4.81751E-01 +1.46093E+01 +4.86050E+00 +1.92387E+01 +1.02989E+01 +1.96395E+01
 +1.45196E+01 +1.59764E+01 +1.63367E+01 +9.48166E+00 +1.50133E+01 +2.08446E+00 +1.04838E+01 -4.14611E+00
 +3.41227E+00 -7.58455E+00 -4.93474E+00 -7.49449E+00 -1.29697E+01 -4.21188E+00 -1.91471E+01 +9.82561E-01
 -2.23130E+01 +6.26112E+00 -2.19518E+01 +9.79909E+00 -1.82737E+01 +1.03167E+01 -1.21267E+01 +7.45620E+00
 -4.77027E+00 +1.88548E+00 +2.42403E+00 -4.89927E+00 +8.26304E+00 -1.10139E+01 +1.19441E+01 -1.47399E+01
 +1.31485E+01 -1.50297E+01 +1.20151E+01 -1.18178E+01 +9.02331E+00 -6.04553E+00 +4.83906E+00 +6.05729E-01
 +1.73315E-01 +6.19777E+00 -4.31193E+00 +9.09461E+00 -8.04216E+00 +8.43720E+00 -1.05313E+01 +4.39721E+00
 -1.13780E+01 -1.86296E+00 -1.02884E+01 -8.51244E+00 -7.14035E+00 -1.35648E+01 -2.07743E+00 -1.54363E+01
 +4.40399E+00 -1.33921E+01 +1.14228E+01 -7.75613E+00 +1.77800E+01 +1.73037E-01 +2.21417E+01 +8.47294E+00
 +2.33185E+01 +1.51159E+01 +2.05811E+01 +1.85098E+01 +1.39280E+01 +1.79123E+01 +4.21569E+00 +1.36085E+01
 -6.90982E+00 +6.81011E+00 -1.72960E+01 -6.89699E-01 -2.47350E+01 -7.00287E+00 -2.74849E+01 -1.06392E+01
 -2.47297E+01 -1.08720E+01 -1.68513E+01 -7.88447E+00 -5.42529E+00 -2.66903E+00 +7.08072E+00 +3.27926E+00
 +1.78496E+01 +8.38062E+00 +2.43729E+01 +1.13800E+01 +2.50639E+01 +1.16394E+01 +1.96655E+01 +9.24318E+00
 +9.34447E+00 +4.90615E+00 -3.56375E+00 -2.73962E-01 -1.61006E+01 -5.13470E+00 -2.53890E+01 -8.74381E+00
 -2.93198E+01 -1.05920E+01 -2.70483E+01 -1.06438E+01 -1.91755E+01 -9.25165E+00 -7.57301E+00 -6.98124E+00
 +5.09916E+00 -4.41340E+00 +1.60537E+01 -1.99019E+00 +2.30435E+01 +5.36017E-02 +2.48677E+01 +1.66585E+00
 +2.15933E+01 +2.88685E+00 +1.44508E+01 +3.74249E+00 +5.44697E+00 +4.17248E+00 -3.18785E+00 +4.02813E+00
 -9.56551E+00 +3.14357E+00 -1.25689E+01 +1.45252E+00 -1.20424E+01 -8.99580E-01 -8.71266E+00 -3.50216E+00
 -3.88470E+00 -5.72165E+00 +9.81993E-01 -6.84384E+00 +4.68832E+00 -6.28364E+00 +6.58394E+00 -3.79990E+00
 +6.65836E+00 +3.57839E-01 +5.42809E+00 +5.43031E+00 +3.67478E+00 +1.02825E+01 +2.13147E+00 +1.36692E+01
 +1.22311E+00 +1.45680E+01 +9.44051E-01 +1.24856E+01 +9.05566E-01 +7.64678E+00 +5.29402E-01 +9.98607E-01
 -6.85417E-01 -5.98536E+00 -2.91860E+00 -1.16597E+01 -5.89558E+00 -1.46311E+01 -8.91683E+00 -1.41362E+01
 -1.10472E+01 -1.02679E+01 -1.14094E+01 -3.97797E+00 -9.48980E+00 +3.14849E+00 -5.35600E+00 +9.29570E+00
 +2.88499E-01 +1.28882E+01 +6.24108E+00 +1.30046E+01 +1.10971E+01 +9.61968E+00 +1.36267E+01 +3.60901E+00
 +1.31231E+01 -3.48692E+00 +9.62092E+00 -9.87350E+00 +3.91570E+00 -1.39751E+01 -2.62418E+00 -1.48412E+01
 -8.40572E+00 -1.23754E+01 -1.20236E+01 -7.33007E+00 -1.26229E+01 -1.07213E+00 -1.01128E+01 +4.80674E+00
 -5.17337E+00 +8.92397E+00 +9.40953E-01 +1.04613E+01 +6.74450E+00 +9.34589E+00 +1.09099E+01 +6.21345E+00
 +1.25966E+01 +2.17579E+00 +1.16303E+01 -1.53203E+00 +8.49294E+00 -3.91566E+00 +4.13574E+00 -4.48934E+00
 -3.18326E-01 -3.37356E+00 -3.89161E+00 -1.20193E+00 -5.99462E+00 +1.12430E+00 -6.52991E+00 +2.75080E+00
 -5.83789E+00 +3.15176E+00 -4.51535E+00 +2.29014E+00 -3.17507E+00 +6.08483E-01 -2.22999E+00 -1.14276E+00
 -1.77243E+00 -2.18054E+00 -1.58437E+00 -1.97642E+00 -1.26882E+00 -4.60114E-01 -4.51101E-01 +1.92966E+00
 +1.02537E+00 +4.36732E+00 +2.98242E+00 +5.90060E+00 +4.91707E+00 +5.76832E+00 +6.14258E+00 +3.67490E+00
 +6.01945E+00 -6.85367E-02 +4.20210E+00 -4.58781E+00 +8.16577E-01 -8.66904E+00 -3.49743E+00 -1.11013E+01
 -7.70754E+00 -1.10391E+01 -1.06486E+01 -8.27593E+00 -1.13521E+01 -3.34409E+00 -9.34921E+00 +2.59649E+00
 -4.85366E+00 +8.05398E+00 +1.23824E+00 +1.16054E+01 +7.54190E+00 +1.22896E+01 +1.25276E+01 +9.88124E+00
 +1.49219E+01 +4.96431E+00 +1.40554E+01 -1.21533E+00 +1.00592E+01 -7.08036E+00 +3.84929E+00 -1.11426E+01
 -3.09964E+00 -1.23969E+01 -9.13171E+00 -1.05793E+01 -1.28371E+01 -6.22030E+00 -1.34113E+01 -4.82130E-01
 -1.08503E+01 +5.16953E+00 -5.92839E+00 +9.36380E+00 +2.92054E-02 +1.11802E+01 +5.51294E+00 +1.03648E+01
 +9.23024E+00 +7.35187E+00 +1.04296E+01 +3.09675E+00 +9.06114E+00 -1.22500E+00 +5.73669E+00 -4.55679E+00
 +1.51029E+00 -6.23940E+00 -2.44863E+00 -6.15128E+00 -5.18966E+00 -4.67884E+00 -6.22595E+00 -2.53784E+00
 -5.62252E+00 -5.10828E-01 -3.91184E+00 +8.11296E-01 -1.87321E+00 +1.20168E+00 -2.52774E-01 +8.32757E-01
 +4.83923E-01 +1.69774E-01 +2.88619E-01 -2.35361E-01 -4.84132E-01 +2.43150E-02 -1.23301E+00 +1.03546E+00
 -1.35196E+00 +2.50778E+00 -4.74920E-01 +3.85856E+00 +1.36113E+00 +4.41350E+00 +3.69248E+00 +3.65842E+00
 +5.75726E+00 +1.45731E+00 +6.73876E+00 -1.84050E+00 +6.04763E+00 -5.44824E+00 +3.55131E+00 -8.34036E+00
 -3.27350E-01 -9.54893E+00 -4.68192E+00 -8.47051E+00 -8.35225E+00 -5.08829E+00 -1.02501E+01 -3.53235E-02
 -9.68609E+00 +5.53034E+00 -6.59924E+00 +1.02125E+01 -1.61604E+00 +1.27500E+01 +4.08573E+00 +1.23720E+01
 +9.07623E+00 +9.03202E+00 +1.20550E+01 +3.45092E+00 +1.22075E+01 -3.05054E+00 +9.43613E+00 -8.88661E+00
 +4.39652E+00 -1.26194E+01 -1.67060E+00 -1.33364E+01 -7.26804E+00 -1.08888E+01 -1.10388E+01 -5.92431E+00
 -1.21207E+01 +2.91261E-01 -1.03605E+01 +6.21507E+00 -6.33185E+00 +1.04332E+01 -1.15520E+00 +1.20200E+01
 +3.82387E+00 +1.07550E+01 +7.40392E+00 +7.14119E+00 +8.83912E+00 +2.23012E+00 +8.00782E+00 -2.69107E+00
 +5.39675E+00 -6.45551E+00 +1.91482E+00 -8.31416E+00 -1.40053E+00 -8.09451E+00 -3.69264E+00 -6.18461E+00
 -4.51763E+00 -3.35924E+00 -3.93405E+00 -5.10826E-01 -2.43053E+00 +1.62722E+00 -7.23016E-01 +2.68007E+00
 +5.07792E-01 +2.69746E+00 +8.51308E-01 +2.07451E+00 +2.98464E-01 +1.36288E+00 -7.71360E-01 +1.04153E+00
 -1.74109E+00 +1.32734E+00 -1.99258E+00 +2.09072E+00 -1.14898E+00 +2.90474E+00 +7.59862E-01 +3.21101E+00
 +3.26782E+00 +2.54547E+00 +5.59401E+00 +7.45527E-01 +6.88209E+00 -1.93575E+00 +6.48425E+00 -4.85445E+00
 +4.19982E+00 -7.14103E+00 +3.89176E-01 -7.96096E+00 -4.08065E+00 -6.79218E+00 -8.05126E+00 -3.63089E+00
 -1.03920E+01 +9.44891E-01 -1.03317E+01 +5.88437E+00 -7.70437E+00 +9.92371E+00 -3.03261E+00 +1.19281E+01
 +2.58201E+00 +1.12194E+01 +7.73697E+00 +7.79241E+00 +1.11004E+01 +2.35325E+00 +1.17732E+01 -3.83955E+00
 +9.53893E+00 -9.29158E+00 +4.93104E+00 -1.26623E+01 -9.04260E-01 -1.31210E+01 -6.51083E+00 -1.05686E+01
 -1.05076E+01 -5.66465E+00 -1.19489E+01 +3.50481E-01 -1.05609E+01 +5.98649E+00 -6.79246E+00 +9.89609E+00
 -1.67003E+00 +1.12206E+01 +3.49656E+00 +9.79436E+00 +7.47163E+00 +6.15563E+00 +9.41260E+00 +1.36697E+00
 +9.06364E+00 -3.29762E+00 +6.77639E+00 -6.70617E+00 +3.36171E+00 -8.16124E+00 -1.75034E-01 -7.55183E+00
 -2.93143E+00 -5.32865E+00 -4.34936E+00 -2.32008E+00 -4.33304E+00 +5.47478E-01 -3.21718E+00 +2.53570E+00
 -1.60633E+00 +3.29938E+00 -1.44724E-01 +2.95156E+00 +7.04782E-01 +1.97567E+00 +8.01170E-01 +1.01991E+00
 +3.42512E-01 +6.45867E-01 -2.40332E-01 +1.11605E+00 -4.72678E-01 +2.29154E+00 -3.94296E-02 +3.67409E+00
 +1.06982E+00 +4.57987E+00 +2.52728E+00 +4.38861E+00 +3.76073E+00 +2.78589E+00 +4.14742E+00 -8.32550E-02
 +3.24519E+00 -3.60523E+00 +9.83231E-01 -6.84446E+00 -2.25610E+00 -8.80763E+00 -5.70015E+00 -8.74894E+00
 -8.38421E+00 -6.42346E+00 -9.43147E+00 -2.20797E+00 -8.33176E+00 +2.95462E+00 -5.13193E+00 +7.77977E+00
 -4.73106E-01 +1.09769E+01 +4.54625E+00 +1.16035E+01 +8.65067E+00 +9.33795E+00 +1.07362E+01 +4.59096E+00
 +1.01880E+01 -1.57909E+00 +7.07376E+00 -7.72651E+00 +2.15194E+00 -1.23855E+01 -3.31389E+00 -1.44441E+01
 -7.88679E+00 -1.34246E+01 -1.03443E+01 -9.59467E+00 -1.00140E+01 -3.88359E+00 -6.96078E+00 +2.36962E+00
 -1.97351E+00 +7.76414E+00 +3.64873E+00 +1.11844E+01 +8.44976E+00 +1.20546E+01 +1.12107E+01 +1.04375E+01
 +1.12750E+01 +6.96185E+00 +8.71401E+00 +2.61056E+00 +4.28877E+00 -1.56191E+00 -7.78262E-01 -4.69885E+00
 -5.15329E+00 -6.32408E+00 -7.76193E+00 -6.39642E+00 -8.07510E+00 -5.23569E+00 -6.23103E+00 -3.35862E+00
 -2.96333E+00 -1.28760E+00 +6.38518E-01 +6.02794E-01 +3.46159E+00 +2.15483E+00 +4.69540E+00 +3.39868E+00
 +4.05601E+00 +4.44798E+00 +1.84576E+00 +5.36880E+00 -1.16403E+00 +6.07971E+00 -3.98699E+00 +6.32851E+00
 -5.73213E+00 +5.76207E+00 -5.87573E+00 +4.07028E+00 -4.41307E+00 +1.15431E+00 -1.84659E+00 -2.74474E+00
 +9.82761E-01 -7.01339E+00 +3.16651E+00 -1.07585E+01 +4.01739E+00 -1.30138E+01 +3.28644E+00 -1.30093E+01
 +1.24239E+00 -1.04261E+01 -1.41065E+00 -5.55462E+00 -3.75126E+00 +7.01975E-01 -4.92763E+00 +6.99878E+00
 -4.42540E+00 +1.18602E+01 -2.23492E+00 +1.40553E+01 +1.13352E+00 +1.29356E+01 +4.79141E+00 +8.64031E+00
 +7.72875E+00 +2.10232E+00 +9.10931E+00 -5.15420E+00 +8.51661E+00 -1.13801E+01 +6.07787E+00 -1.50376E+01
 +2.42960E+00 -1.51919E+01 -1.46411E+00 -1.17526E+01 -4.58660E+00 -5.49890E+00 -6.15576E+00 +2.11855E+00
 -5.83983E+00 +9.34764E+00 -3.84045E+00 +1.45760E+01 -8.21692E-01 +1.67264E+01 +2.29088E+00 +1.55023E+01
 +4.57953E+00 +1.14222E+01 +5.39225E+00 +5.64196E+00 +4.51488E+00 -3.80357E-01 +2.21101E+00 -5.27809E+00
