 Created: 19-Jan-2021
 $NMID
 ID='D:\BASISSIMULATI'
 FMTDAT='(8E13.5)'
 VOLUME=   1.00000E+00
 TRAMP=   1.00000E+00
 $END
 +4.15454E+01 +3.10389E+00 +3.62925E+01 +1.96525E+01 +2.44562E+01 +3.21154E+01 +8.61428E+00 +3.80271E+01
 -7.84291E+00 +3.63761E+01 -2.14707E+01 +2.78026E+01 -2.95279E+01 +1.44258E+01 -3.05647E+01 -6.54397E-01
 -2.47114E+01 -1.40634E+01 -1.36098E+01 -2.29037E+01 -1.05788E-02 -2.53831E+01 +1.28668E+01 -2.11812E+01
 +2.20604E+01 -1.14793E+01 +2.55155E+01 +1.34406E+00 +2.25142E+01 +1.42754E+01 +1.37948E+01 +2.43516E+01
 +1.34467E+00 +2.93136E+01 -1.20759E+01 +2.80817E+01 -2.35653E+01 +2.09539E+01 -3.07195E+01 +9.49395E+00
 -3.21370E+01 -3.85642E+00 -2.76833E+01 -1.63412E+01 -1.84658E+01 -2.54991E+01 -6.53772E+00 -2.96802E+01
 +5.59010E+00 -2.83596E+01 +1.55128E+01 -2.21902E+01 +2.14412E+01 -1.27946E+01 +2.25481E+01 -2.35740E+00
 +1.90843E+01 +6.88051E+00 +1.22508E+01 +1.31087E+01 +3.87266E+00 +1.53077E+01 -4.04193E+00 +1.34121E+01
 -9.75171E+00 +8.25273E+00 -1.21405E+01 +1.30707E+00 -1.09113E+01 -5.67370E+00 -6.58492E+00 -1.10681E+01
 -3.19832E-01 -1.37266E+01 +6.39321E+00 -1.31811E+01 +1.20822E+01 -9.68685E+00 +1.56085E+01 -4.10194E+00
 +1.63785E+01 +2.35340E+00 +1.44144E+01 +8.39220E+00 +1.02830E+01 +1.29391E+01 +4.91416E+00 +1.53306E+01
 -6.38186E-01 +1.54018E+01 -5.43147E+00 +1.34519E+01 -8.81238E+00 +1.01139E+01 -1.05047E+01 +6.16896E+00
 -1.05991E+01 +2.35880E+00 -9.46229E+00 -7.61491E-01 -7.60031E+00 -2.89974E+00 -5.51673E+00 -4.02629E+00
 -3.60328E+00 -4.31056E+00 -2.08476E+00 -4.02312E+00 -1.02266E+00 -3.43699E+00 -3.64263E-01 -2.75684E+00
 -1.25695E-02 -2.09212E+00 +1.10847E-01 -1.47430E+00 +3.18469E-02 -9.03642E-01 -2.71614E-01 -4.02406E-01
 -8.31137E-01 -5.04884E-02 -1.63320E+00 +1.31352E-02 -2.57192E+00 -3.72900E-01 -3.43145E+00 -1.32777E+00
 -3.91115E+00 -2.85744E+00 -3.69277E+00 -4.80328E+00 -2.53437E+00 -6.83287E+00 -3.64567E-01 -8.48443E+00
 +2.65236E+00 -9.26103E+00 +6.10552E+00 -8.75454E+00 +9.39226E+00 -6.76855E+00 +1.18333E+01 -3.40553E+00
 +1.28251E+01 +9.09992E-01 +1.19940E+01 +5.48649E+00 +9.31182E+00 +9.49326E+00 +5.14121E+00 +1.21363E+01
 +1.90551E-01 +1.28427E+01 -4.61650E+00 +1.14096E+01 -8.33295E+00 +8.07739E+00 -1.01999E+01 +3.50536E+00
 -9.82799E+00 -1.35166E+00 -7.30493E+00 -5.44255E+00 -3.19824E+00 -7.85209E+00 +1.55153E+00 -8.01357E+00
 +5.82815E+00 -5.85134E+00 +8.58564E+00 -1.81713E+00 +9.08783E+00 +3.19248E+00 +7.08618E+00 +8.02292E+00
 +2.89311E+00 +1.15133E+01 -2.66947E+00 +1.27577E+01 -8.43793E+00 +1.13166E+01 -1.31562E+01 +7.32896E+00
 -1.57518E+01 +1.49784E+00 -1.55775E+01 -5.05040E+00 -1.25622E+01 -1.10038E+01 -7.23816E+00 -1.51479E+01
 -6.33770E-01 -1.66307E+01 +5.94295E+00 -1.51522E+01 +1.11850E+01 -1.10326E+01 +1.40683E+01 -5.14657E+00
 +1.40728E+01 +1.26529E+00 +1.12937E+01 +6.86478E+00 +6.41755E+00 +1.05056E+01 +5.70286E-01 +1.14801E+01
 -4.93116E+00 +9.66909E+00 -8.86667E+00 +5.56202E+00 -1.03776E+01 +1.44150E-01 -9.15031E+00 -5.32364E+00
 -5.47819E+00 -9.58291E+00 -1.91429E-01 -1.16522E+01 +5.53010E+00 -1.10378E+01 +1.04174E+01 -7.83555E+00
 +1.33885E+01 -2.70311E+00 +1.37802E+01 +3.28937E+00 +1.14848E+01 +8.89544E+00 +6.96485E+00 +1.29624E+01
 +1.14398E+00 +1.46760E+01 -4.79845E+00 +1.37271E+01 -9.68354E+00 +1.03658E+01 -1.25824E+01 +5.33500E+00
 -1.30058E+01 -3.00567E-01 -1.09937E+01 -5.38894E+00 -7.09040E+00 -8.93710E+00 -2.21088E+00 -1.03154E+01
 +2.56599E+00 -9.37771E+00 +6.23290E+00 -6.47347E+00 +8.06536E+00 -2.35420E+00 +7.76472E+00 +2.00302E+00
 +5.50450E+00 +5.61324E+00 +1.87407E+00 +7.69438E+00 -2.26440E+00 +7.82620E+00 -5.97126E+00 +6.02532E+00
 -8.43314E+00 +2.72387E+00 -9.13097E+00 -1.33953E+00 -7.93803E+00 -5.28926E+00 -5.13027E+00 -8.30371E+00
 -1.31069E+00 -9.78606E+00 +2.73179E+00 -9.47938E+00 +6.19588E+00 -7.50441E+00 +8.43529E+00 -4.31581E+00
 +9.08470E+00 -5.90634E-01 +8.12006E+00 +2.92390E+00 +5.84392E+00 +5.56869E+00 +2.80338E+00 +6.90345E+00
 -3.38154E-01 +6.78375E+00 -2.94554E+00 +5.37152E+00 -4.54128E+00 +3.08094E+00 -4.89356E+00 +4.75226E-01
 -4.04711E+00 -1.86079E+00 -2.29416E+00 -3.44380E+00 -9.59482E-02 -3.98544E+00 +2.02564E+00 -3.43848E+00
 +3.60117E+00 -1.98940E+00 +4.30767E+00 -2.94003E-03 +4.02535E+00 +2.06633E+00 +2.84801E+00 +3.77445E+00
 +1.04845E+00 +4.77880E+00 -9.90176E-01 +4.90094E+00 -2.86044E+00 +4.15097E+00 -4.21472E+00 +2.71140E+00
 -4.83042E+00 +8.87312E-01 -4.64434E+00 -9.64204E-01 -3.75211E+00 -2.50901E+00 -2.37576E+00 -3.49979E+00
 -8.08948E-01 -3.81680E+00 +6.46995E-01 -3.47951E+00 +1.74255E+00 -2.62958E+00 +2.32349E+00 -1.49124E+00
 +2.35135E+00 -3.19372E-01 +1.89906E+00 +6.53248E-01 +1.12525E+00 +1.25906E+00 +2.34384E-01 +1.42167E+00
 -5.67876E-01 +1.16136E+00 -1.11500E+00 +5.81295E-01 -1.30817E+00 -1.60909E-01 -1.12892E+00 -8.89174E-01
 -6.35173E-01 -1.44486E+00 +5.69781E-02 -1.71578E+00 +8.00563E-01 -1.65354E+00 +1.44827E+00 -1.27734E+00
 +1.88017E+00 -6.64794E-01 +2.02377E+00 +6.72107E-02 +1.86373E+00 +7.87037E-01 +1.44021E+00 +1.37343E+00
 +8.37513E-01 +1.73662E+00 +1.65626E-01 +1.83211E+00 -4.61273E-01 +1.66528E+00 -9.45486E-01 +1.28678E+00
 -1.22204E+00 +7.80230E-01 -1.26796E+00 +2.44877E-01 -1.10351E+00 -2.23413E-01 -7.85433E-01 -5.49407E-01
 -3.94100E-01 -6.91000E-01 -1.68655E-02 -6.44970E-01 +2.68985E-01 -4.45199E-01 +4.10648E-01 -1.53968E-01
 +3.88930E-01 +1.51839E-01 +2.20509E-01 +3.96866E-01 -4.69630E-02 +5.22601E-01 -3.45819E-01 +4.98896E-01
 -6.03142E-01 +3.29450E-01 -7.56309E-01 +5.02385E-02 -7.66152E-01 -2.78732E-01 -6.25024E-01 -5.86607E-01
 -3.58117E-01 -8.07020E-01 -1.77720E-02 -8.92339E-01 +3.27997E-01 -8.23811E-01 +6.10290E-01 -6.15400E-01
 +7.74223E-01 -3.10515E-01 +7.90688E-01 +2.76665E-02 +6.62389E-01 +3.30153E-01 +4.22838E-01 +5.37283E-01
 +1.28520E-01 +6.11690E-01 -1.53992E-01 +5.46189E-01 -3.63060E-01 +3.64840E-01 -4.55767E-01 +1.16949E-01
 -4.17315E-01 -1.34587E-01 -2.63940E-01 -3.27931E-01 -3.86745E-02 -4.16586E-01 +1.99010E-01 -3.80026E-01
 +3.87305E-01 -2.28261E-01 +4.76627E-01 +7.13697E-04 +4.41283E-01 +2.49958E-01 +2.85550E-01 +4.57024E-01
 +4.27589E-02 +5.68651E-01 -2.32375E-01 +5.53332E-01 -4.76404E-01 +4.08819E-01 -6.31832E-01 +1.62857E-01
 -6.60432E-01 -1.33019E-01 -5.52119E-01 -4.15179E-01 -3.27349E-01 -6.22349E-01 -3.25168E-02 -7.09491E-01
 +2.70545E-01 -6.57916E-01 +5.18513E-01 -4.79325E-01 +6.60730E-01 -2.12933E-01 +6.70339E-01 +8.36132E-02
 +5.49888E-01 +3.47363E-01 +3.30194E-01 +5.24171E-01 +6.28628E-02 +5.80559E-01 -1.91738E-01 +5.10683E-01
 -3.78210E-01 +3.36891E-01 -4.58399E-01 +1.03909E-01 -4.19448E-01 -1.31881E-01 -2.75898E-01 -3.15507E-01
 -6.55209E-02 -4.05763E-01 +1.59983E-01 -3.84051E-01 +3.47144E-01 -2.57804E-01 +4.52855E-01 -5.78753E-02
 +4.53687E-01 +1.69302E-01 +3.50365E-01 +3.72772E-01 +1.66557E-01 +5.08677E-01 -5.75056E-02 +5.49710E-01
 -2.74852E-01 +4.90336E-01 -4.42599E-01 +3.46760E-01 -5.31211E-01 +1.51924E-01 -5.30101E-01 -5.30037E-02
 -4.48484E-01 -2.28459E-01 -3.11567E-01 -3.45203E-01 -1.53303E-01 -3.89933E-01 -7.68477E-03 -3.66636E-01
 +9.91749E-02 -2.93666E-01 +1.54287E-01 -1.97587E-01 +1.59225E-01 -1.05570E-01 +1.27681E-01 -3.84259E-02
 +8.00835E-02 -6.03268E-03 +3.69360E-02 -6.22425E-03 +1.28015E-02 -2.71926E-02 +1.25928E-02 -5.25014E-02
 +3.11158E-02 -6.71076E-02 +5.58553E-02 -6.25561E-02 +7.20561E-02 -3.97883E-02 +6.84879E-02 -8.72954E-03
 +4.20823E-02 +1.52266E-02 -5.50352E-05 +1.67888E-02 -4.20011E-02 -1.32953E-02 -6.35010E-02 -7.37946E-02
 -4.63975E-02 -1.51540E-01 +1.88215E-02 -2.23654E-01 +1.28334E-01 -2.63114E-01 +2.63725E-01 -2.46335E-01
 +3.94873E-01 -1.60732E-01 +4.86566E-01 -1.01309E-02 +5.07385E-01 +1.83717E-01 +4.38643E-01 +3.84321E-01
 +2.80966E-01 +5.47938E-01 +5.65697E-02 +6.33773E-01 -1.93768E-01 +6.14501E-01 -4.18714E-01 +4.84425E-01
 -5.67749E-01 +2.63006E-01 -6.03333E-01 -7.46647E-03 -5.10897E-01 -2.69926E-01 -3.04097E-01 -4.64740E-01
 -2.37353E-02 -5.43380E-01 +2.69760E-01 -4.80381E-01 +5.08877E-01 -2.80656E-01 +6.33884E-01 +1.97812E-02
 +6.06679E-01 +3.60162E-01 +4.20363E-01 +6.67199E-01 +1.02219E-01 +8.70622E-01 -2.90805E-01 +9.18609E-01
 -6.83288E-01 +7.89612E-01 -9.96847E-01 +4.97885E-01 -1.16660E+00 +9.13546E-02 -1.15497E+00 -3.57773E-01
 -9.59796E-01 -7.67667E-01 -6.14980E-01 -1.06362E+00 -1.83548E-01 -1.19325E+00 +2.55300E-01 -1.13700E+00
 +6.22330E-01 -9.11589E-01 +8.54126E-01 -5.66069E-01 +9.15335E-01 -1.71300E-01 +8.04902E-01 +1.94643E-01
 +5.55219E-01 +4.62028E-01 +2.24693E-01 +5.82758E-01 -1.14450E-01 +5.38873E-01 -3.90426E-01 +3.44822E-01
 -5.45310E-01 +4.35018E-02 -5.45116E-01 -3.02747E-01 -3.84917E-01 -6.24082E-01 -8.85422E-02 -8.55616E-01
 +2.96582E-01 -9.48154E-01 +7.08032E-01 -8.75579E-01 +1.07866E+00 -6.38101E-01 +1.34679E+00 -2.61392E-01
 +1.46493E+00 +2.07736E-01 +1.40606E+00 +7.08135E-01 +1.16718E+00 +1.17253E+00 +7.69899E-01 +1.53621E+00
 +2.58367E-01 +1.74544E+00 -3.05442E-01 +1.76496E+00 -8.48788E-01 +1.58378E+00 -1.29727E+00 +1.21873E+00
 -1.58532E+00 +7.14719E-01 -1.66706E+00 +1.40950E-01 -1.52577E+00 -4.17121E-01 -1.18033E+00 -8.69991E-01
 -6.86345E-01 -1.13910E+00 -1.30930E-01 -1.17241E+00 +3.79557E-01 -9.57605E-01 +7.37490E-01 -5.29631E-01
 +8.55147E-01 +3.00025E-02 +6.85097E-01 +6.03625E-01 +2.35278E-01 +1.05691E+00 -4.25395E-01 +1.26473E+00
 -1.17360E+00 +1.13875E+00 -1.85072E+00 +6.50927E-01 -2.29209E+00 -1.52925E-01 -2.36122E+00 -1.15365E+00
 -1.98217E+00 -2.17523E+00 -1.16263E+00 -3.01540E+00 -1.60921E-03 -3.48542E+00 +1.32178E+00 -3.45108E+00
 +2.57784E+00 -2.86631E+00 +3.52953E+00 -1.79097E+00 +3.98131E+00 -3.87633E-01 +3.82324E+00 +1.10393E+00
 +3.06050E+00 +2.41098E+00 +1.82042E+00 +3.28251E+00 +3.33893E-01 +3.54340E+00 -1.10679E+00 +3.13611E+00
 -2.20616E+00 +2.13989E+00 -2.72834E+00 +7.61855E-01 -2.55080E+00 -7.00118E-01 -1.69707E+00 -1.91634E+00
 -3.39718E-01 -2.59461E+00 +1.22859E+00 -2.54545E+00 +2.65165E+00 -1.72880E+00 +3.58315E+00 -2.71142E-01
 +3.76189E+00 +1.55240E+00 +3.07268E+00 +3.36887E+00 +1.57911E+00 +4.78184E+00 -4.80347E-01 +5.45456E+00
 -2.73373E+00 +5.18435E+00 -4.74723E+00 +3.95193E+00 -6.11318E+00 +1.93406E+00 -6.53615E+00 -5.24779E-01
