 Created: 19-Jan-2021
 $NMID
 ID='D:\BASISSIMULATI'
 FMTDAT='(8E13.5)'
 VOLUME=   1.00000E+00
 TRAMP=   1.00000E+00
 $END
 +1.87620E+01 +1.76342E+00 +1.79491E+01 +5.69187E+00 +1.63239E+01 +9.35622E+00 +1.39616E+01 +1.25908E+01
 +1.09702E+01 +1.52497E+01 +7.48639E+00 +1.72133E+01 +3.66877E+00 +1.83938E+01 -3.09132E-01 +1.87388E+01
 -4.26678E+00 +1.82341E+01 -8.02485E+00 +1.69038E+01 -1.14133E+01 +1.48096E+01 -1.42793E+01 +1.20475E+01
 -1.64936E+01 +8.74374E+00 -1.79570E+01 +5.04892E+00 -1.86043E+01 +1.13109E+00 -1.84075E+01 -2.83185E+00
 -1.73767E+01 -6.66023E+00 -1.55601E+01 -1.01808E+01 -1.30412E+01 -1.32344E+01 -9.93525E+00 -1.56835E+01
 -6.38391E+00 -1.74180E+01 -2.54883E+00 -1.83604E+01 +1.39574E+00 -1.84692E+01 +5.27087E+00 -1.77409E+01
 +8.90104E+00 -1.62098E+01 +1.21221E+01 -1.39464E+01 +1.47888E+01 -1.10545E+01 +1.67811E+01 -7.66626E+00
 +1.80098E+01 -3.93588E+00 +1.84203E+01 -3.29741E-02 +1.79955E+01 +3.86530E+00 +1.67557E+01 +7.58228E+00
 +1.47586E+01 +1.09498E+01 +1.20958E+01 +1.38158E+01 +8.88893E+00 +1.60512E+01 +5.28431E+00 +1.75557E+01
 +1.44587E+00 +1.82622E+01 -2.45207E+00 +1.81400E+01 -6.23277E+00 +1.71959E+01 -9.72507E+00 +1.54740E+01
 -1.27712E+01 +1.30535E+01 -1.52337E+01 +1.00453E+01 -1.70020E+01 +6.58652E+00 -1.79970E+01 +2.83470E+00
 -1.81749E+01 -1.03969E+00 -1.75288E+01 -4.86088E+00 -1.60894E+01 -8.45579E+00 -1.39230E+01 -1.16619E+01
 -1.11291E+01 -1.43344E+01 -7.83526E+00 -1.63531E+01 -4.19146E+00 -1.76276E+01 -3.63439E-01 -1.81012E+01
 +3.47505E+00 -1.77537E+01 +7.15002E+00 -1.66022E+01 +1.04952E+01 -1.47001E+01 +1.33595E+01 -1.21348E+01
 +1.56139E+01 -9.02366E+00 +1.71571E+01 -5.50842E+00 +1.79204E+01 -1.74906E+00 +1.78703E+01 +2.08366E+00
 +1.70105E+01 +5.81594E+00 +1.53811E+01 +9.27879E+00 +1.30573E+01 +1.23157E+01 +1.01453E+01 +1.47897E+01
 +6.77816E+00 +1.65896E+01 +3.10911E+00 +1.76348E+01 -6.95083E-01 +1.78793E+01 -4.46180E+00 +1.73130E+01
 -8.02041E+00 +1.59631E+01 -1.12100E+01 +1.38918E+01 -1.38865E+01 +1.11943E+01 -1.59295E+01 +7.99363E+00
 -1.72474E+01 +4.43576E+00 -1.77816E+01 +6.82454E-01 -1.75091E+01 -3.09589E+00 -1.64436E+01 -6.72801E+00
 -1.46345E+01 -1.00495E+01 -1.21651E+01 -1.29104E+01 -9.14820E+00 -1.51817E+01 -5.72149E+00 -1.67614E+01
 -2.04086E+00 -1.75790E+01 +1.72648E+00 -1.75987E+01 +5.40966E+00 -1.68208E+01 +8.84190E+00 -1.52819E+01
 +1.18681E+01 -1.30528E+01 +1.43516E+01 -1.02356E+01 +1.61809E+01 -6.95907E+00 +1.72740E+01 -3.37226E+00
 +1.75825E+01 +3.61750E-01 +1.70938E+01 +4.07350E+00 +1.58311E+01 +7.59482E+00 +1.38530E+01 +1.07664E+01
 +1.12502E+01 +1.34451E+01 +8.14166E+00 +1.55103E+01 +4.66900E+00 +1.68694E+01 +9.90208E-01 +1.74618E+01
 -2.72769E+00 +1.72619E+01 -6.31614E+00 +1.62801E+01 -9.61271E+00 +1.45620E+01 -1.24685E+01 +1.21867E+01
 -1.47547E+01 +9.26282E+00 -1.63687E+01 +5.92376E+00 -1.72383E+01 +2.32148E+00 -1.73254E+01 -1.38035E+00
 -1.66271E+01 -5.01381E+00 -1.51765E+01 -8.41435E+00 -1.30403E+01 -1.14282E+01 -1.03165E+01 -1.39195E+01
 -7.12950E+00 -1.57760E+01 -3.62437E+00 -1.69146E+01 +3.95136E-02 -1.72850E+01 +3.69586E+00 -1.68714E+01
 +7.17897E+00 -1.56938E+01 +1.03313E+01 -1.38069E+01 +1.30104E+01 -1.12973E+01 +1.50958E+01 -8.27959E+00
 +1.64937E+01 -4.89142E+00 +1.71420E+01 -1.28689E+00 +1.70124E+01 +2.37030E+00 +1.61120E+01 +5.91433E+00
 +1.44829E+01 +9.18477E+00 +1.22000E+01 +1.20338E+01 +9.36778E+00 +1.43331E+01 +6.11547E+00 +1.59791E+01
 +2.59113E+00 +1.68985E+01 -1.04512E+00 +1.70506E+01 -4.62829E+00 +1.64297E+01 -7.99609E+00 +1.50652E+01
 -1.09962E+01 +1.30202E+01 -1.34933E+01 +1.03883E+01 -1.53750E+01 +7.28971E+00 -1.65570E+01 +3.86566E+00
 -1.69867E+01 +2.71801E-01 -1.66460E+01 -3.32874E+00 -1.55514E+01 -6.77277E+00 -1.37538E+01 -9.90447E+00
 -1.13357E+01 -1.25824E+01 -8.40769E+00 -1.46859E+01 -5.10324E+00 -1.61206E+01 -1.57270E+00 -1.68224E+01
 +2.02357E+00 -1.67608E+01 +5.52249E+00 -1.59397E+01 +8.76564E+00 -1.43975E+01 +1.16065E+01 -1.22053E+01
 +1.39168E+01 -9.46335E+00 +1.55929E+01 -6.29687E+00 +1.65597E+01 -2.85000E+00 +1.67745E+01 +7.20621E-01
 +1.62287E+01 +4.25298E+00 +1.49484E+01 +7.58706E+00 +1.29926E+01 +1.05721E+01 +1.04511E+01 +1.30733E+01
 +7.43995E+00 +1.49781E+01 +4.09636E+00 +1.62011E+01 +5.72373E-01 +1.66881E+01 -2.97202E+00 +1.64179E+01
 -6.37616E+00 +1.54042E+01 -9.48600E+00 +1.36939E+01 -1.21611E+01 +1.13658E+01 -1.42808E+01 +8.52620E+00
 -1.57500E+01 +5.30468E+00 -1.65032E+01 +1.84782E+00 -1.65073E+01 -1.68736E+00 -1.57632E+01 -5.14052E+00
 -1.43060E+01 -8.35530E+00 -1.22028E+01 -1.11864E+01 -9.54979E+00 -1.35061E+01 -6.46819E+00 -1.52100E+01
 -3.09831E+00 -1.62220E+01 +4.06701E-01 -1.64973E+01 +3.88778E+00 -1.60245E+01 +7.18720E+00 -1.48262E+01
 +1.01557E+01 -1.29579E+01 +1.26594E+01 -1.05053E+01 +1.45854E+01 -7.58045E+00 +1.58473E+01 -4.31667E+00
 +1.63892E+01 -8.62379E-01 +1.61874E+01 +2.62557E+00 +1.52524E+01 +5.98906E+00 +1.36276E+01 +9.07585E+00
 +1.13878E+01 +1.17465E+01 +8.63539E+00 +1.38806E+01 +5.49599E+00 +1.53823E+01 +2.11244E+00 +1.61846E+01
 -1.36152E+00 +1.62521E+01 -4.76834E+00 +1.55830E+01 -7.95371E+00 +1.42088E+01 -1.07736E+01 +1.21928E+01
 -1.31009E+01 +9.62735E+00 -1.48308E+01 +6.62967E+00 -1.58858E+01 +3.33625E+00 -1.62193E+01 -1.03190E-01
 -1.58172E+01 -3.53256E+00 -1.46989E+01 -6.79646E+00 -1.29163E+01 -9.74722E+00 -1.05511E+01 -1.22516E+01
 -7.71147E+00 -1.41969E+01 -4.52681E+00 -1.54957E+01 -1.14200E+00 -1.60902E+01 +2.28925E+00 -1.59546E+01
 +5.61137E+00 -1.50962E+01 +8.67398E+00 -1.35550E+01 +1.13387E+01 -1.14019E+01 +1.34854E+01 -8.73549E+00
 +1.50175E+01 -5.67738E+00 +1.58667E+01 -2.36677E+00 +1.59955E+01 +1.04591E+00 +1.53992E+01 +4.40582E+00
 +1.41060E+01 +7.56080E+00 +1.21755E+01 +1.03682E+01 +9.69629E+00 +1.27013E+01 +6.78154E+00 +1.44551E+01
 +3.56404E+00 +1.55511E+01 +1.90075E-01 +1.59406E+01 -3.18721E+00 +1.56071E+01 -6.41475E+00 +1.45669E+01
 -9.34653E+00 +1.28681E+01 -1.18501E+01 +1.05888E+01 -1.38128E+01 +7.83324E+00 -1.51463E+01 +4.72699E+00
 -1.57914E+01 +1.41141E+00 -1.57198E+01 -1.96294E+00 -1.49360E+01 -5.24303E+00 -1.34765E+01 -8.28037E+00
 -1.14085E+01 -1.09377E+01 -8.82677E+00 -1.30951E+01 -5.84907E+00 -1.46558E+01 -2.61098E+00 -1.55498E+01
 +7.40359E-01 -1.57377E+01 +4.05288E+00 -1.52121E+01 +7.17654E+00 -1.39979E+01 +9.97006E+00 -1.21513E+01
 +1.23074E+01 -9.75685E+00 +1.40833E+01 -6.92403E+00 +1.52181E+01 -3.78188E+00 +1.56615E+01 -4.73260E-01
 +1.53945E+01 +2.85161E+00 +1.44302E+01 +6.04203E+00 +1.28135E+01 +8.95363E+00 +1.06186E+01 +1.14549E+01
 +7.94599E+00 +1.34331E+01 +4.91744E+00 +1.47994E+01 +1.67079E+00 +1.54929E+01 -1.64648E+00 +1.54832E+01
 -4.88393E+00 +1.47719E+01 -7.89497E+00 +1.33922E+01 -1.05435E+01 +1.14078E+01 -1.27100E+01 +8.90945E+00
 -1.42972E+01 +6.01129E+00 -1.52339E+01 +2.84527E+00 -1.54788E+01 -4.44730E-01 -1.50218E+01 -3.70941E+00
 -1.38848E+01 -6.80086E+00 -1.21203E+01 -9.57926E+00 -9.80929E+00 -1.19192E+01 -7.05738E+00 -1.37153E+01
 -3.98996E+00 -1.48870E+01 -7.46532E-01 -1.53822E+01 +2.52563E+00 -1.51795E+01 +5.67821E+00 -1.42892E+01
 +8.56850E+00 -1.27528E+01 +1.10659E+01 -1.06409E+01 +1.30580E+01 -8.04998E+00 +1.44551E+01 -5.09836E+00
 +1.51950E+01 -1.92032E+00 +1.52451E+01 +1.33976E+00 +1.46042E+01 +4.53400E+00 +1.33025E+01 +7.51776E+00
 +1.13999E+01 +1.01561E+01 +8.98377E+00 +1.23301E+01 +6.16427E+00 +1.39419E+01 +3.06983E+00 +1.49193E+01
 -1.58866E-01 +1.52191E+01 -3.37530E+00 +1.48287E+01 -6.43372E+00 +1.37669E+01 -9.19577E+00 +1.20828E+01
 -1.15367E+01 +9.85384E+00 -1.33512E+01 +7.18180E+00 -1.45578E+01 +4.18849E+00 -1.51027E+01 +1.01006E+00
 -1.49624E+01 -2.20916E+00 -1.41442E+01 -5.32321E+00 -1.26862E+01 -8.19113E+00 -1.06557E+01 -1.06833E+01
 -8.14543E+00 -1.26875E+01 -5.26996E+00 -1.41135E+01 -2.16018E+00 -1.48977E+01 +1.04261E+00 -1.50055E+01
 +4.19313E+00 -1.44331E+01 +7.14868E+00 -1.32075E+01 +9.77562E+00 -1.13853E+01 +1.19554E+01 -9.04999E+00
 +1.35900E+01 -6.30821E+00 +1.46061E+01 -3.28486E+00 +1.49587E+01 -1.17387E-01 +1.46329E+01 +3.05043E+00
 +1.36444E+01 +6.07504E+00 +1.20391E+01 +8.81959E+00 +9.89075E+00 +1.11601E+01 +7.29753E+00 +1.29913E+01
 +4.37767E+00 +1.42307E+01 +1.26400E+00 +1.48234E+01 -1.90206E+00 +1.47433E+01 -4.97696E+00 +1.39952E+01
 -7.82148E+00 +1.26140E+01 -1.03071E+01 +1.06634E+01 -1.23217E+01 +8.23256E+00 -1.37747E+01 +5.43246E+00
 -1.46012E+01 +2.39055E+00 -1.47647E+01 -7.54915E-01 -1.42588E+01 -3.86123E+00 -1.31076E+01 -6.78769E+00
 -1.13641E+01 -9.40194E+00 -9.10833E+00 -1.15860E+01 -6.44334E+00 -1.32416E+01 -3.49054E+00 -1.42945E+01
 -3.84184E-01 -1.46979E+01 +2.73471E+00 -1.44346E+01 +5.72477E+00 -1.35176E+01 +8.45070E+00 -1.19894E+01
 +1.07894E+01 -9.92026E+00 +1.26354E+01 -7.40479E+00 +1.39060E+01 -4.55771E+00 +1.45443E+01 -1.50854E+00
 +1.45225E+01 +1.60421E+00 +1.38426E+01 +4.63937E+00 +1.25365E+01 +7.45952E+00 +1.06642E+01 +9.93719E+00
 +8.31162E+00 +1.19606E+01 +5.58605E+00 +1.34388E+01 +2.61161E+00 +1.43057E+01 -4.76519E-01 +1.45229E+01
 -3.53821E+00 +1.40816E+01 -6.43474E+00 +1.30028E+01 -9.03511E+00 +1.13365E+01 -1.12219E+01 +9.15902E+00
 -1.28968E+01 +6.56988E+00 -1.39845E+01 +3.68706E+00 -1.44368E+01 +6.41679E-01 -1.42341E+01 -2.42800E+00
 -1.33867E+01 -5.38283E+00 -1.19339E+01 -8.08908E+00 -9.94259E+00 -1.04245E+01 -7.50380E+00 -1.22838E+01
 -4.72879E+00 -1.35836E+01 -1.74383E+00 -1.42656E+01 +1.31548E+00 -1.43002E+01 +4.31037E+00 -1.36866E+01
 +7.10521E+00 -1.24537E+01 +9.57368E+00 -1.06584E+01 +1.16044E+01 -8.38282E+00 +1.31060E+01 -5.73096E+00
 +1.40114E+01 -2.82353E+00 +1.42803E+01 +2.07283E-01 +1.39017E+01 +3.22395E+00 +1.28936E+01 +6.08978E+00
 +1.13028E+01 +8.67512E+00 +9.20229E+00 +1.08633E+01 +6.68802E+00 +1.25557E+01 +3.87461E+00 +1.36764E+01
 +8.90028E-01 +1.41756E+01 -2.13021E+00 +1.40316E+01 -5.04917E+00 +1.32519E+01 -7.73472E+00 +1.18729E+01
 -1.00655E+01 +9.95797E+00 -1.19365E+01 +7.59478E+00 -1.32636E+01 +4.89112E+00 -1.39876E+01 +1.97004E+00
 -1.40765E+01 -1.03574E+00 -1.35273E+01 -3.98986E+00 -1.23660E+01 -6.75852E+00 -1.06461E+01 -9.21656E+00
 -8.44639E+00 -1.12531E+01 -5.86737E+00 -1.27764E+01 -3.02650E+00 -1.37183E+01 -5.29362E-02 -1.40371E+01
