 Created: 19-Jan-2021
 $NMID
 ID='D:\BASISSIMULATI'
 FMTDAT='(8E13.5)'
 VOLUME=   1.00000E+00
 TRAMP=   1.00000E+00
 $END
 +1.65189E+02 +1.54246E+01 +1.57505E+02 +5.03768E+01 +1.41760E+02 +8.23679E+01 +1.18985E+02 +1.09479E+02
 +9.06717E+01 +1.30130E+02 +5.86610E+01 +1.43188E+02 +2.50148E+01 +1.48046E+02 -8.13348E+00 +1.44654E+02
 -3.87291E+01 +1.33518E+02 -6.49403E+01 +1.15658E+02 -8.52840E+01 +9.25216E+01 -9.87251E+01 +6.58783E+01
 -1.04741E+02 +3.76821E+01 -1.03349E+02 +9.92820E+00 -9.50908E+01 -1.54930E+01 -8.09803E+01 -3.69316E+01
 -6.24175E+01 -5.30939E+01 -4.10738E+01 -6.31285E+01 -1.87590E+01 -6.66787E+01 +2.71902E+00 -6.38955E+01
 +2.16922E+01 -5.54124E+01 +3.67573E+01 -4.22835E+01 +4.68773E+01 -2.58903E+01 +5.14538E+01 -7.82437E+00
 +5.03633E+01 +1.02430E+01 +4.39554E+01 +2.66968E+01 +3.30146E+01 +4.01063E+01 +1.86876E+01 +4.93378E+01
 +2.38326E+00 +5.36410E+01 -1.43474E+01 +5.27047E+01 -2.99409E+01 +4.66756E+01 -4.29510E+01 +3.61416E+01
 -5.21676E+01 +2.20779E+01 -5.67157E+01 +5.76378E+00 -5.61265E+01 -1.13256E+01 -5.03758E+01 -2.76425E+01
 -3.98858E+01 -4.16955E+01 -2.54910E+01 -5.21734E+01 -8.37021E+00 -5.80550E+01 +1.00484E+01 -5.86948E+01
 +2.82037E+01 -5.38790E+01 +4.45281E+01 -4.38468E+01 +5.75758E+01 -2.92754E+01 +6.61420E+01 -1.12295E+01
 +6.93622E+01 +8.92031E+00 +6.67871E+01 +2.96043E+01 +5.84230E+01 +4.91768E+01 +4.47374E+01 +6.60461E+01
 +2.66277E+01 +7.88018E+01 +5.35622E+00 +8.63280E+01 -1.75445E+01 +8.78953E+01 -4.03883E+01 +8.32218E+01
 -6.14648E+01 +7.25013E+01 -7.91715E+01 +5.63932E+01 -9.21396E+01 +3.59768E+01 -9.93410E+01 +1.26731E+01
 -1.00172E+02 -1.18619E+01 -9.45010E+01 -3.58607E+01 -8.26870E+01 -5.75796E+01 -6.55521E+01 -7.54310E+01
 -4.43249E+01 -8.81063E+01 -2.05490E+01 -9.46769E+01 +4.03159E+00 -9.46675E+01 +2.76038E+01 -8.80951E+01
 +4.84226E+01 -7.54706E+01 +6.49434E+01 -5.77625E+01 +7.59401E+01 -3.63264E+01 +8.05993E+01 -1.28038E+01
 +7.85836E+01 +1.10002E+01 +7.00595E+01 +3.32526E+01 +5.56863E+01 +5.22312E+01 +3.65688E+01 +6.64541E+01
 +1.41756E+01 +7.47929E+01 -9.77025E+00 +7.65584E+01 -3.34197E+01 +7.15541E+01 -5.49360E+01 +6.00923E+01
 -7.26329E+01 +4.29721E+01 -8.51001E+01 +2.14208E+01 -9.13101E+01 -2.99659E+00 -9.06949E+01 -2.84937E+01
 -8.31889E+01 -5.31953E+01 -6.92339E+01 -7.52764E+01 -4.97467E+01 -9.30976E+01 -2.60503E+01 -1.05326E+02
 +2.23818E-01 -1.11034E+02 +2.72570E+01 -1.09764E+02 +5.31782E+01 -1.01566E+02 +7.62014E+01 -8.69838E+01
 +9.47570E+01 -6.70201E+01 +1.07605E+02 -4.30549E+01 +1.13925E+02 -1.67430E+01 +1.13370E+02 +1.01106E+01
 +1.06092E+02 +3.56848E+01 +9.27190E+01 +5.82769E+01 +7.43086E+01 +7.64270E+01 +5.22601E+01 +8.90225E+01
 +2.82075E+01 +9.53763E+01 +3.89340E+00 +9.52705E+01 -1.89630E+01 +8.89662E+01 -3.87945E+01 +7.71744E+01
 -5.43018E+01 +6.09955E+01 -6.45472E+01 +4.18277E+01 -6.90193E+01 +2.12550E+01 -6.76642E+01 +9.22021E-01
 -6.08815E+01 -1.75943E+01 -4.94838E+01 -3.29063E+01 -3.46263E+01 -4.39209E+01 -1.77091E+01 -4.99201E+01
 -2.62207E-01 -5.06121E+01 +1.61790E+01 -4.61477E+01 +3.01969E+01 -3.71015E+01 +4.06051E+01 -2.44200E+01
 +4.65413E+01 -9.34029E+00 +4.75353E+01 +6.71351E+00 +4.35438E+01 +2.22486E+01 +3.49514E+01 +3.58263E+01
 +2.25377E+01 +4.61805E+01 +7.41186E+00 +5.23213E+01 -9.07855E+00 +5.36171E+01 -2.54581E+01 +4.98471E+01
 -4.02444E+01 +4.12218E+01 -5.20700E+01 +2.83676E+01 -5.97950E+01 +1.22795E+01 -6.26026E+01 -5.75742E+00
 -6.00691E+01 -2.42686E+01 -5.22024E+01 -4.17077E+01 -3.94475E+01 -5.65797E+01 -2.26566E+01 -6.75620E+01
 -3.02745E+00 -7.36115E+01 +1.79869E+01 -7.40521E+01 +3.87883E+01 -6.86327E+01 +5.77564E+01 -5.75540E+01
 +7.33744E+01 -4.14587E+01 +8.43478E+01 -2.13894E+01 +8.97073E+01 +1.28719E+00 +8.88872E+01 +2.49794E+01
 +8.17732E+01 +4.79894E+01 +6.87171E+01 +6.86402E+01 +5.05151E+01 +8.54026E+01 +2.83525E+01 +9.70108E+01
 +3.71838E+00 +1.02560E+02 -2.17026E+01 +1.01577E+02 -4.61545E+01 +9.40575E+01 -6.79394E+01 +8.04682E+01
 -8.55438E+01 +6.17164E+01 -9.77503E+01 +3.90828E+01 -1.03729E+02 +1.41280E+01 -1.03096E+02 -1.14221E+01
 -9.59475E+01 -3.58039E+01 -8.28438E+01 -5.73459E+01 -6.47733E+01 -7.45917E+01 -4.30746E+01 -8.64070E+01
 -1.93367E+01 -9.20612E+01 +4.71995E+00 -9.12796E+01 +2.73721E+01 -8.42608E+01 +4.70219E+01 -7.16582E+01
 +6.23146E+01 -5.45275E+01 +7.22382E+01 -3.42449E+01 +7.61955E+01 -1.24005E+01 +7.40459E+01 +9.32298E+00
 +6.61105E+01 +2.92781E+01 +5.31441E+01 +4.59769E+01 +3.62730E+01 +5.82022E+01 +1.69059E+01 +6.50974E+01
 -3.37672E+00 +6.62288E+01 -2.29453E+01 +6.16139E+01 -4.02468E+01 +5.17165E+01 -5.39235E+01 +3.74065E+01
 -6.29160E+01 +1.98889E+01 -6.65431E+01 +6.08657E-01 -6.45513E+01 -1.88642E+01 -5.71314E+01 -3.69570E+01
 -4.49005E+01 -5.22165E+01 -2.88514E+01 -6.34218E+01 -1.02732E+01 -6.96781E+01 +9.35121E+00 -7.04844E+01
 +2.84617E+01 -6.57712E+01 +4.55430E+01 -5.59038E+01 +5.92427E+01 -4.16523E+01 +6.84769E+01 -2.41301E+01
 +7.25134E+01 -4.70559E+00 +7.10284E+01 +1.51048E+01 +6.41308E+01 +3.37560E+01 +5.23526E+01 +4.97940E+01
 +3.66070E+01 +6.19702E+01 +1.81163E+01 +6.93376E+01 -1.68352E+00 +7.13243E+01 -2.12548E+01 +6.77782E+01
 -3.90784E+01 +5.89776E+01 -5.37713E+01 +4.56099E+01 -6.41948E+01 +2.87172E+01 -6.95421E+01 +9.61572E+00
 -6.94014E+01 -1.02073E+01 -6.37875E+01 -2.92088E+01 -5.31405E+01 -4.59100E+01 -3.82913E+01 -5.90107E+01
 -2.03975E+01 -6.74911E+01 -8.52921E-01 -7.06897E+01 +1.88200E+01 -6.83558E+01 +3.70885E+01 -6.06679E+01
 +5.25286E+01 -4.82204E+01 +6.39349E+01 -3.19779E+01 +7.04146E+01 -1.31998E+01 +7.14564E+01 +6.65646E+00
 +6.69705E+01 +2.60487E+01 +5.72956E+01 +4.34688E+01 +4.31731E+01 +5.75599E+01 +2.56899E+01 +6.72210E+01
 +6.19489E+00 +7.16929E+01 -1.38054E+01 +7.06162E+01 -3.27627E+01 +6.40603E+01 -4.92067E+01 +5.25180E+01
 -6.18580E+01 +3.68681E+01 -6.97278E+01 +1.83077E+01 -7.21935E+01 -1.73926E+00 -6.90473E+01 -2.17316E+01
 -6.05128E+01 -4.01291E+01 -4.72280E+01 -5.55115E+01 -3.01964E+01 -6.66867E+01 -1.07110E+01 -7.27833E+01
 +9.74543E+00 -7.33173E+01 +2.96134E+01 -6.82292E+01 +4.73763E+01 -5.78892E+01 +6.16763E+01 -4.30687E+01
 +7.14183E+01 -2.48813E+01 +7.58538E+01 -4.69790E+00 +7.46376E+01 +1.59581E+01 +6.78544E+01 +3.55276E+01
 +5.60117E+01 +5.25342E+01 +4.00008E+01 +6.56971E+01 +2.10286E+01 +7.40289E+01 +5.24795E-01 +7.69099E+01
 -1.99674E+01 +7.41349E+01 -3.89092E+01 +6.59284E+01 -5.48832E+01 +5.29263E+01 -6.67020E+01 +3.61266E+01
 -7.34974E+01 +1.68120E+01 -7.47864E+01 -3.54842E+00 -7.05064E+01 -2.34121E+01 -6.10192E+01 -4.12812E+01
 -4.70816E+01 -5.58168E+01 -2.97863E+01 -6.59407E+01 -1.04769E+01 -7.09175E+01 +9.35586E+00 -7.04091E+01
 +2.81889E+01 -6.44996E+01 +4.45840E+01 -5.36872E+01 +5.72977E+01 -3.88442E+01 +6.53765E+01 -2.11489E+01
 +6.82289E+01 -1.99330E+00 +6.56699E+01 +1.71242E+01 +5.79337E+01 +3.47152E+01 +4.56543E+01 +4.94158E+01
 +2.98154E+01 +6.00917E+01 +1.16734E+01 +6.59248E+01 -7.34087E+00 +6.64759E+01 -2.57325E+01 +6.17174E+01
 -4.20590E+01 +5.20347E+01 -5.50411E+01 +3.81953E+01 -6.36622E+01 +2.12889E+01 -6.72459E+01 +2.64207E+00
 -6.55081E+01 -1.62841E+01 -5.85786E+01 -3.40078E+01 -4.69903E+01 -4.91407E+01 -3.16381E+01 -6.04958E+01
 -1.37087E+01 -6.71784E+01 +5.41058E+00 -6.86553E+01 +2.42393E+01 -6.47959E+01 +4.13183E+01 -5.58820E+01
 +5.53221E+01 -4.25859E+01 +6.51611E+01 -2.59184E+01 +7.00652E+01 -7.15095E+00 +6.96435E+01 +1.22823E+01
 +6.39135E+01 +3.08950E+01 +5.33002E+01 +4.72627E+01 +3.86029E+01 +6.01324E+01 +2.09338E+01 +6.85185E+01
 +1.63214E+00 +7.17783E+01 -1.78383E+01 +6.96607E+01 -3.60017E+01 +6.23255E+01 -5.14834E+01 +5.03304E+01
 -6.31149E+01 +3.45875E+01 -7.00231E+01 +1.62933E+01 -7.16962E+01 -3.16376E+00 -6.80230E+01 -2.23097E+01
 -5.92995E+01 -3.96984E+01 -4.62060E+01 -5.40216E+01 -2.97537E+01 -6.42097E+01 -1.12064E+01 -6.95119E+01
 +8.01713E+00 -6.95539E+01 +2.64525E+01 -6.43645E+01 +4.27021E+01 -5.43726E+01 +5.55420E+01 -4.03730E+01
 +6.40156E+01 -2.34637E+01 +6.75063E+01 -4.96054E+00 +6.57832E+01 +1.37045E+01 +5.90182E+01 +3.10942E+01
 +4.77708E+01 +4.58770E+01 +3.29437E+01 +5.69291E+01 +1.57122E+01 +6.34205E+01 -2.56802E+00 +6.48784E+01
 -2.04659E+01 +6.12223E+01 -3.65861E+01 +5.27690E+01 -4.96772E+01 +4.02071E+01 -5.87278E+01 +2.45425E+01
 -6.30450E+01 +7.01981E+00 -6.23067E+01 -1.09753E+01 -5.65866E+01 -2.80236E+01 -4.63471E+01 -4.27825E+01
 -3.24032E+01 -5.40904E+01 -1.58588E+01 -6.10568E+01 +1.97988E+00 -6.31313E+01 +1.97053E+01 -6.01457E+01
 +3.59185E+01 -5.23274E+01 +4.93374E+01 -4.02817E+01 +5.88968E+01 -2.49443E+01 +6.38308E+01 -7.50936E+00
 +6.37323E+01 +1.06631E+01 +5.85855E+01 +2.81528E+01 +4.87666E+01 +4.35889E+01 +3.50159E+01 +5.57561E+01
 +1.83805E+01 +6.36890E+01 +1.34084E-01 +6.67472E+01 -1.83212E+01 +6.46647E+01 -3.55625E+01 +5.75714E+01
 -5.02562E+01 +4.59835E+01 -6.12600E+01 +3.07644E+01 -6.77119E+01 +1.30585E+01 -6.90958E+01 -5.79551E+00
 -6.52823E+01 -2.43680E+01 -5.65384E+01 -4.12472E+01 -4.35080E+01 -5.51476E+01 -2.71625E+01 -6.50083E+01
 -8.72682E+00 -7.00742E+01 +1.04137E+01 -6.99537E+01 +2.88196E+01 -6.46486E+01 +4.51064E+01 -5.45541E+01
 +5.80505E+01 -4.04280E+01 +6.66825E+01 -2.33335E+01 +7.03600E+01 -4.55728E+00 +6.88169E+01 +1.44886E+01
 +6.21826E+01 +3.23740E+01 +5.09715E+01 +4.77602E+01 +3.60432E+01 +5.95010E+01 +1.85360E+01 +6.67299E+01
 -2.20091E-01 +6.89252E+01 -1.88057E+01 +6.59486E+01 -3.58202E+01 +5.80550E+01 -4.99883E+01 +4.58712E+01
 -6.02572E+01 +3.03469E+01 -6.58759E+01 +1.26816E+01 -6.64512E+01 -5.76871E+00 -6.19767E+01 -2.35955E+01
 -5.28312E+01 -3.94454E+01 -3.97485E+01 -5.21239E+01 -2.37594E+01 -6.06859E+01 -6.11149E+00 -6.45071E+01
 +1.18277E+01 -6.33308E+01 +2.86759E+01 -5.72852E+01 +4.31430E+01 -4.68728E+01 +5.41292E+01 -3.29293E+01
 +6.08093E+01 -1.65582E+01 +6.26952E+01 +9.55398E-01 +5.96716E+01 +1.82449E+01 +5.20038E+01 +3.39679E+01
 +4.03157E+01 +4.69096E+01 +2.55400E+01 +5.60766E+01 +8.84478E+00 +6.07725E+01 -8.45724E+00 +6.06512E+01
 -2.50114E+01 +5.57423E+01 -3.95259E+01 +4.64472E+01 -5.08720E+01 +3.35077E+01 -5.81705E+01 +1.79468E+01
 -6.08603E+01 +9.88989E-01 -5.87403E+01 -1.60356E+01 -5.19844E+01 -3.17945E+01 -4.11277E+01 -4.50563E+01
