 Created: 19-Jan-2021
 $NMID
 ID='D:\BASISSIMULATI'
 FMTDAT='(8E13.5)'
 VOLUME=   1.00000E+00
 TRAMP=   1.00000E+00
 $END
 +9.63216E+01 +1.01373E+01 +8.87288E+01 +2.46323E+01 +6.82048E+01 +3.71144E+01 +3.95192E+01 +4.74792E+01
 +9.26790E+00 +5.49918E+01 -1.60747E+01 +5.82790E+01 -3.19662E+01 +5.58755E+01 -3.68700E+01 +4.70755E+01
 -3.22897E+01 +3.26700E+01 -2.18526E+01 +1.51680E+01 -9.86525E+00 -1.68692E+00 +9.10352E-02 -1.39878E+01
 +6.03954E+00 -1.89338E+01 +7.74428E+00 -1.58038E+01 +6.20360E+00 -6.23412E+00 +2.84235E+00 +6.32234E+00
 -1.19157E+00 +1.77595E+01 -5.34007E+00 +2.46596E+01 -9.50336E+00 +2.53130E+01 -1.36398E+01 +2.00608E+01
 -1.73898E+01 +1.08895E+01 -1.99760E+01 +5.06319E-01 -2.04592E+01 -8.69395E+00 -1.82216E+01 -1.53531E+01
 -1.34069E+01 -1.93248E+01 -7.04863E+00 -2.13202E+01 -7.64176E-01 -2.22721E+01 +3.89257E+00 -2.27632E+01
 +6.13608E+00 -2.27893E+01 +6.37234E+00 -2.19348E+01 +6.10409E+00 -1.98138E+01 +7.30956E+00 -1.64972E+01
 +1.15340E+01 -1.26567E+01 +1.90861E+01 -9.31257E+00 +2.87132E+01 -7.29020E+00 +3.79380E+01 -6.66491E+00
 +4.39552E+01 -6.51061E+00 +4.47350E+01 -5.14534E+00 +3.98696E+01 -8.32750E-01 +3.07927E+01 +7.33719E+00
 +2.02584E+01 +1.87884E+01 +1.12769E+01 +3.13641E+01 +5.94348E+00 +4.19183E+01 +4.64687E+00 +4.74175E+01
 +5.98959E+00 +4.61304E+01 +7.45172E+00 +3.84121E+01 +6.51578E+00 +2.67230E+01 +1.77518E+00 +1.48208E+01
 -6.44193E+00 +6.40896E+00 -1.61916E+01 +3.75597E+00 -2.47153E+01 +6.83646E+00 -2.95728E+01 +1.33446E+01
 -2.96205E+01 +1.95892E+01 -2.54241E+01 +2.19266E+01 -1.89456E+01 +1.81728E+01 -1.26600E+01 +8.44677E+00
 -8.50136E+00 -4.87109E+00 -7.09905E+00 -1.80289E+01 -7.63043E+00 -2.72757E+01 -8.33303E+00 -3.01774E+01
 -7.42954E+00 -2.63856E+01 -4.03809E+00 -1.76104E+01 +1.34678E+00 -6.87437E+00 +7.02116E+00 +2.60590E+00
 +1.08148E+01 +8.45273E+00 +1.10826E+01 +9.70475E+00 +7.50606E+00 +6.79801E+00 +1.35231E+00 +1.07361E+00
 -4.92896E+00 -5.88655E+00 -8.60336E+00 -1.27718E+01 -7.67273E+00 -1.87090E+01 -1.60474E+00 -2.30976E+01
 +8.50659E+00 -2.53102E+01 +2.03784E+01 -2.45185E+01 +3.13564E+01 -1.98216E+01 +3.92537E+01 -1.06729E+01
 +4.28810E+01 +2.59225E+00 +4.21066E+01 +1.84244E+01 +3.75139E+01 +3.41680E+01 +2.99030E+01 +4.66733E+01
 +1.99280E+01 +5.32383E+01 +8.05595E+00 +5.25292E+01 -5.16158E+00 +4.50957E+01 -1.87062E+01 +3.32371E+01
 -3.08859E+01 +2.02354E+01 -3.95238E+01 +9.23360E+00 -4.25663E+01 +2.19706E+00 -3.89076E+01 -6.31878E-01
 -2.90696E+01 -5.78246E-01 -1.53842E+01 +2.36232E-01 -1.49690E+00 -6.64840E-02 +8.70758E+00 -2.26683E+00
 +1.23956E+01 -5.74905E+00 +8.79919E+00 -8.87828E+00 -4.61302E-01 -9.87244E+00 -1.19118E+01 -7.76562E+00
 -2.14427E+01 -3.01610E+00 -2.57628E+01 +2.53420E+00 -2.35355E+01 +6.35504E+00 -1.57668E+01 +6.29164E+00
 -5.30818E+00 +1.53926E+00 +4.31109E+00 -6.90142E+00 +1.02484E+01 -1.65028E+01 +1.13691E+01 -2.41266E+01
 +8.54088E+00 -2.72090E+01 +4.12311E+00 -2.47302E+01 +9.00063E-01 -1.75732E+01 +9.19400E-01 -8.13271E+00
 +4.70996E+00 +6.52605E-01 +1.11696E+01 +6.43743E+00 +1.81202E+01 +8.31181E+00 +2.32492E+01 +7.02061E+00
 +2.50195E+01 +4.50476E+00 +2.31711E+01 +2.99263E+00 +1.86450E+01 +4.04550E+00 +1.30217E+01 +7.95668E+00
 +7.77156E+00 +1.37294E+01 +3.67033E+00 +1.95965E+01 +6.27590E-01 +2.38144E+01 -2.03653E+00 +2.53636E+01
 -5.04839E+00 +2.42577E+01 -8.67044E+00 +2.13619E+01 -1.24906E+01 +1.78526E+01 -1.56161E+01 +1.46086E+01
 -1.71657E+01 +1.18384E+01 -1.67982E+01 +9.11220E+00 -1.49892E+01 +5.76007E+00 -1.28874E+01 +1.41015E+00
 -1.17923E+01 -3.63057E+00 -1.24881E+01 -8.37232E+00 -1.47622E+01 -1.15452E+01 -1.73684E+01 -1.22268E+01
 -1.84984E+01 -1.03856E+01 -1.65862E+01 -7.04755E+00 -1.10970E+01 -3.96115E+00 -2.93290E+00 -2.86842E+00
 +5.76306E+00 -4.69295E+00 +1.23674E+01 -9.02013E+00 +1.48078E+01 -1.41395E+01 +1.24372E+01 -1.76813E+01
 +6.36849E+00 -1.76115E+01 -8.96068E-01 -1.31698E+01 -6.41181E+00 -5.33529E+00 -7.93620E+00 +3.41742E+00
 -4.80201E+00 +1.00136E+01 +1.84366E+00 +1.19851E+01 +9.53408E+00 +8.50253E+00 +1.55033E+01 +7.98464E-01
 +1.78045E+01 -8.21051E+00 +1.60591E+01 -1.49740E+01 +1.15308E+01 -1.66243E+01 +6.50551E+00 -1.20424E+01
 +3.25526E+00 -2.26053E+00 +3.03374E+00 +9.94561E+00 +5.53336E+00 +2.10953E+01 +9.02868E+00 +2.82479E+01
 +1.11353E+01 +2.99671E+01 +9.85256E+00 +2.66525E+01 +4.44434E+00 +2.01580E+01 -4.21037E+00 +1.29127E+01
 -1.39321E+01 +6.93923E+00 -2.20733E+01 +3.17868E+00 -2.65097E+01 +1.36337E+00 -2.63806E+01 +4.25005E-01
 -2.22939E+01 -8.06178E-01 -1.59513E+01 -2.96172E+00 -9.39562E+00 -5.84731E+00 -4.22601E+00 -8.61220E+00
 -1.11235E+00 -1.02562E+01 +2.21292E-01 -1.01986E+01 +5.99034E-01 -8.61590E+00 +8.21330E-01 -6.37912E+00
 +1.22006E+00 -4.62603E+00 +1.55561E+00 -4.18528E+00 +1.28460E+00 -5.14611E+00 +3.19357E-02 -6.79747E+00
 -2.00623E+00 -7.97990E+00 -3.97087E+00 -7.68793E+00 -4.64484E+00 -5.62914E+00 -3.03321E+00 -2.45392E+00
 +1.05690E+00 +4.82107E-01 +6.73912E+00 +1.73933E+00 +1.22528E+01 +5.23290E-01 +1.56110E+01 -2.82502E+00
 +1.54371E+01 -6.83413E+00 +1.16219E+01 -9.44374E+00 +5.48895E+00 -8.87729E+00 -6.48451E-01 -4.47385E+00
 -4.38860E+00 +2.89807E+00 -4.24035E+00 +1.10580E+01 -2.95070E-01 +1.73087E+01 +5.73231E+00 +1.94989E+01
 +1.11392E+01 +1.69151E+01 +1.33077E+01 +1.06177E+01 +1.07794E+01 +3.06308E+00 +3.88751E+00 -2.85233E+00
 -5.32503E+00 -4.94093E+00 -1.38767E+01 -2.59656E+00 -1.89996E+01 +2.96971E+00 -1.92045E+01 +9.22776E+00
 -1.48285E+01 +1.33544E+01 -7.85084E+00 +1.33647E+01 -1.06622E+00 +8.88736E+00 +3.03484E+00 +1.27799E+00
 +3.21655E+00 -6.95723E+00 -9.72468E-02 -1.31719E+01 -5.10327E+00 -1.55977E+01 -9.43507E+00 -1.39590E+01
 -1.11524E+01 -9.45727E+00 -9.48735E+00 -4.17145E+00 -5.05695E+00 -1.59004E-01 +5.07847E-01 +1.34831E+00
 +5.31551E+00 +3.28200E-01 +8.00071E+00 -2.19308E+00 +8.20636E+00 -4.72640E+00 +6.58143E+00 -6.03416E+00
 +4.34305E+00 -5.64361E+00 +2.64297E+00 -3.94599E+00 +2.04950E+00 -1.87496E+00 +2.37858E+00 -3.55377E-01
 +2.92550E+00 +1.88171E-01 +2.95033E+00 +1.87265E-02 +2.15031E+00 -1.13482E-01 +8.66982E-01 +5.55466E-01
 -8.46833E-02 +2.31024E+00 +1.17842E-01 +4.71008E+00 +1.78349E+00 +6.73499E+00 +4.41064E+00 +7.27368E+00
 +6.79494E+00 +5.72442E+00 +7.52835E+00 +2.40778E+00 +5.67810E+00 -1.43758E+00 +1.32722E+00 -4.11680E+00
 -4.30120E+00 -4.21987E+00 -9.23856E+00 -1.31582E+00 -1.15511E+01 +3.72943E+00 -1.01846E+01 +8.99132E+00
 -5.49981E+00 +1.22193E+01 +7.63385E-01 +1.17748E+01 +6.11445E+00 +7.37635E+00 +8.29941E+00 +3.16414E-01
 +6.24288E+00 -6.97355E+00 +5.43938E-01 -1.18550E+01 -6.70045E+00 -1.25398E+01 -1.26926E+01 -8.83365E+00
 -1.50377E+01 -2.24975E+00 -1.27039E+01 +4.56991E+00 -6.44431E+00 +8.89575E+00 +1.49583E+00 +8.99250E+00
 +8.26765E+00 +4.80050E+00 +1.15377E+01 -2.05890E+00 +1.03819E+01 -8.94881E+00 +5.59821E+00 -1.32722E+01
 -6.75515E-01 -1.34821E+01 -5.85958E+00 -9.63920E+00 -7.96594E+00 -3.30927E+00 -6.34218E+00 +3.13092E+00
 -1.83911E+00 +7.46839E+00 +3.63346E+00 +8.49806E+00 +7.94324E+00 +6.39964E+00 +9.59395E+00 +2.52493E+00
 +8.25003E+00 -1.27302E+00 +4.73672E+00 -3.45201E+00 +5.62232E-01 -3.37949E+00 -2.78887E+00 -1.48104E+00
 -4.46179E+00 +1.08471E+00 -4.47905E+00 +3.03659E+00 -3.55436E+00 +3.56580E+00 -2.60408E+00 +2.64358E+00
 -2.22103E+00 +9.23767E-01 -2.37690E+00 -6.78263E-01 -2.49375E+00 -1.49691E+00 -1.83423E+00 -1.45194E+00
 +1.90724E-03 -1.04039E+00 +2.74291E+00 -9.96127E-01 +5.46180E+00 -1.80132E+00 +6.96088E+00 -3.31503E+00
 +6.35231E+00 -4.73300E+00 +3.55383E+00 -4.93152E+00 -5.57497E-01 -3.05235E+00 -4.44034E+00 +9.49688E-01
 -6.52944E+00 +6.08164E+00 -5.94543E+00 +1.05634E+01 -2.94683E+00 +1.24930E+01 +1.10474E+00 +1.06637E+01
 +4.28422E+00 +5.17523E+00 +4.93647E+00 -2.45177E+00 +2.44608E+00 -9.75194E+00 -2.40458E+00 -1.42205E+01
 -7.67251E+00 -1.42918E+01 -1.10160E+01 -9.98518E+00 -1.06775E+01 -2.93782E+00 -6.27506E+00 +4.20956E+00
 +9.44476E-01 +8.83585E+00 +8.51844E+00 +9.36048E+00 +1.36977E+01 +5.84585E+00 +1.45219E+01 -6.36864E-02
 +1.06019E+01 -5.83764E+00 +3.28828E+00 -9.09900E+00 -4.84536E+00 -8.57816E+00 -1.09929E+01 -4.59319E+00
 -1.31785E+01 +1.12803E+00 -1.09654E+01 +6.19223E+00 -5.53938E+00 +8.52828E+00 +8.43780E-01 +7.20415E+00
 +5.79688E+00 +2.74578E+00 +7.73034E+00 -3.14927E+00 +6.39860E+00 -8.35323E+00 +2.86839E+00 -1.11720E+01
 -1.03657E+00 -1.09655E+01 -3.54561E+00 -8.28319E+00 -3.65008E+00 -4.49567E+00 -1.42445E+00 -1.12168E+00
 +2.13835E+00 +8.32608E-01 +5.65709E+00 +1.23137E+00 +7.98773E+00 +7.30230E-01 +8.65541E+00 +3.34344E-01
 +7.91812E+00 +8.30005E-01 +6.47440E+00 +2.37202E+00 +4.99770E+00 +4.42040E+00 +3.75279E+00 +6.04269E+00
 +2.49475E+00 +6.41881E+00 +6.97413E-01 +5.28775E+00 -2.01741E+00 +3.10704E+00 -5.48925E+00 +8.38715E-01
 -8.89660E+00 -5.37551E-01 -1.10051E+01 -5.43823E-01 -1.07021E+01 +5.09736E-01 -7.57844E+00 +1.63206E+00
 -2.26983E+00 +1.62492E+00 +3.63969E+00 -2.86941E-01 +8.15898E+00 -3.97001E+00 +9.67466E+00 -8.29285E+00
 +7.64936E+00 -1.15143E+01 +2.91696E+00 -1.20107E+01 -2.58347E+00 -9.03452E+00 -6.55579E+00 -3.16267E+00
 -7.28268E+00 +3.79394E+00 -4.35994E+00 +9.41845E+00 +1.09054E+00 +1.16183E+01 +6.83764E+00 +9.47804E+00
 +1.04330E+01 +3.67024E+00 +1.02183E+01 -3.76330E+00 +6.03344E+00 -1.01895E+01 -6.72232E-01 -1.34115E+01
 -7.37693E+00 -1.25267E+01 -1.14567E+01 -8.26115E+00 -1.11961E+01 -2.64052E+00 -6.43339E+00 +1.86521E+00
 +1.41020E+00 +3.37051E+00 +9.90980E+00 +1.35176E+00 +1.65716E+01 -3.14301E+00 +1.97329E+01 -7.93084E+00
 +1.90714E+01 -1.05888E+01 +1.55451E+01 -9.43555E+00 +1.08345E+01 -4.20307E+00 +6.55937E+00 +3.86018E+00
 +3.62427E+00 +1.24715E+01 +1.96409E+00 +1.91628E+01 +7.68976E-01 +2.21430E+01 -9.52143E-01 +2.08395E+01
 -3.75630E+00 +1.59414E+01 -7.39659E+00 +8.98584E+00 -1.08695E+01 +1.71168E+00 -1.28518E+01 -4.52494E+00
 -1.23166E+01 -9.04392E+00 -9.03996E+00 -1.17762E+01 -3.76041E+00 -1.29494E+01 +2.08038E+00 -1.27422E+01
 +6.89749E+00 -1.11164E+01 +9.56854E+00 -7.91966E+00 +9.81617E+00 -3.19071E+00 +8.20720E+00 +2.52698E+00
 +5.78984E+00 +8.08075E+00 +3.55775E+00 +1.19383E+01 +2.00549E+00 +1.27077E+01 +9.87987E-01 +9.74399E+00
