 Created: 19-Jan-2021
 $NMID
 ID='D:\BASISSIMULATI'
 FMTDAT='(8E13.5)'
 VOLUME=   1.00000E+00
 TRAMP=   1.00000E+00
 $END
 +7.81418E+01 +8.70723E+00 +7.08505E+01 +2.16176E+01 +5.13345E+01 +3.17334E+01 +2.42415E+01 +3.84885E+01
 -4.11088E+00 +4.14077E+01 -2.75405E+01 +4.00723E+01 -4.16746E+01 +3.43253E+01 -4.49651E+01 +2.46016E+01
 -3.87650E+01 +1.21703E+01 -2.65229E+01 -9.08726E-01 -1.24494E+01 -1.21949E+01 -1.59066E-01 -1.95442E+01
 +8.25346E+00 -2.18090E+01 +1.24536E+01 -1.92648E+01 +1.34557E+01 -1.35523E+01 +1.28328E+01 -7.10747E+00
 +1.19253E+01 -2.26932E+00 +1.13691E+01 -4.01472E-01 +1.10809E+01 -1.38251E+00 +1.06174E+01 -3.68548E+00
 +9.66150E+00 -5.03565E+00 +8.35716E+00 -3.39725E+00 +7.31088E+00 +2.10467E+00 +7.25933E+00 +1.07084E+01
 +8.57946E+00 +2.01962E+01 +1.09052E+01 +2.76805E+01 +1.30767E+01 +3.06963E+01 +1.34964E+01 +2.81682E+01
 +1.07752E+01 +2.08636E+01 +4.40172E+00 +1.11395E+01 -4.86327E+00 +2.07443E+00 -1.50686E+01 -3.68104E+00
 -2.36365E+01 -4.88228E+00 -2.82131E+01 -2.11565E+00 -2.74792E+01 +2.49527E+00 -2.16055E+01 +6.18133E+00
 -1.21720E+01 +6.66165E+00 -1.58833E+00 +3.07165E+00 +7.74795E+00 -3.67574E+00 +1.42182E+01 -1.12287E+01
 +1.73772E+01 -1.66910E+01 +1.78439E+01 -1.77164E+01 +1.67752E+01 -1.33772E+01 +1.51845E+01 -4.48860E+00
 +1.34268E+01 +6.71143E+00 +1.10884E+01 +1.73692E+01 +7.32893E+00 +2.49774E+01 +1.50836E+00 +2.81230E+01
 -6.20618E+00 +2.67660E+01 -1.45683E+01 +2.20008E+01 -2.14901E+01 +1.54648E+01 -2.47431E+01 +8.68004E+00
 -2.28589E+01 +2.61058E+00 -1.58570E+01 -2.41438E+00 -5.46770E+00 -6.44497E+00 +5.29242E+00 -9.51393E+00
 +1.30788E+01 -1.13457E+01 +1.53733E+01 -1.13525E+01 +1.14018E+01 -8.94050E+00 +2.45827E+00 -3.98027E+00
 -8.50327E+00 +2.81298E+00 -1.78701E+01 +9.82487E+00 -2.26003E+01 +1.49179E+01 -2.12306E+01 +1.61462E+01
 -1.43039E+01 +1.25453E+01 -4.08118E+00 +4.66562E+00 +6.32231E+00 -5.40839E+00 +1.40306E+01 -1.46221E+01
 +1.73159E+01 -1.99307E+01 +1.60065E+01 -1.93504E+01 +1.12925E+01 -1.26877E+01 +5.07165E+00 -1.66162E+00
 -8.58945E-01 +1.06416E+01 -5.42108E+00 +2.07867E+01 -8.45812E+00 +2.61085E+01 -1.04919E+01 +2.55226E+01
 -1.22030E+01 +1.97454E+01 -1.39149E+01 +1.08761E+01 -1.53394E+01 +1.53432E+00 -1.57040E+01 -6.08615E+00
 -1.41933E+01 -1.08797E+01 -1.04767E+01 -1.29761E+01 -5.05351E+00 -1.33667E+01 +7.79820E-01 -1.32219E+01
 +5.36077E+00 -1.32295E+01 +7.32181E+00 -1.32576E+01 +6.19599E+00 -1.24840E+01 +2.68756E+00 -9.91885E+00
 -1.53921E+00 -5.06228E+00 -4.49518E+00 +1.62339E+00 -4.67932E+00 +8.67315E+00 -1.73450E+00 +1.40640E+01
 +3.33840E+00 +1.59814E+01 +8.51741E+00 +1.35920E+01 +1.15307E+01 +7.48532E+00 +1.07615E+01 -4.24211E-01
 +5.92190E+00 -7.52795E+00 -1.78074E+00 -1.14569E+01 -1.00610E+01 -1.09584E+01 -1.63949E+01 -6.36899E+00
 -1.89506E+01 +5.03786E-01 -1.72406E+01 +7.04904E+00 -1.22426E+01 +1.08079E+01 -5.95096E+00 +1.03487E+01
 -5.53854E-01 +5.73140E+00 +2.42435E+00 -1.59582E+00 +2.66579E+00 -9.39922E+00 +1.07817E+00 -1.54978E+01
 -6.98412E-01 -1.84969E+01 -1.07195E+00 -1.81412E+01 +7.72592E-01 -1.51861E+01 +4.50568E+00 -1.08943E+01
 +8.79617E+00 -6.41527E+00 +1.18941E+01 -2.33693E+00 +1.23952E+01 +1.39893E+00 +9.85616E+00 +5.20729E+00
 +4.99446E+00 +9.36567E+00 -6.07247E-01 +1.35842E+01 -5.16296E+00 +1.68820E+01 -7.42185E+00 +1.78698E+01
 -7.16431E+00 +1.53447E+01 -5.24209E+00 +8.94327E+00 -3.14780E+00 -4.52211E-01 -2.30359E+00 -1.07758E+01
 -3.38216E+00 -1.93410E+01 -5.96110E+00 -2.37242E+01 -8.66976E+00 -2.26384E+01 -9.77539E+00 -1.64500E+01
 -7.96401E+00 -7.11673E+00 -2.98211E+00 +2.45346E+00 +4.14179E+00 +9.39418E+00 +1.14044E+01 +1.18558E+01
 +1.65513E+01 +9.59872E+00 +1.79297E+01 +3.98925E+00 +1.51248E+01 -2.58432E+00 +9.12202E+00 -7.63529E+00
 +1.92967E+00 -9.47748E+00 -4.18262E+00 -7.75928E+00 -7.52153E+00 -3.45145E+00 -7.54920E+00 +1.66740E+00
 -4.98264E+00 +5.78546E+00 -1.39435E+00 +7.76007E+00 +1.49985E+00 +7.46610E+00 +2.55657E+00 +5.67530E+00
 +1.62524E+00 +3.55883E+00 -4.89355E-01 +2.06403E+00 -2.48342E+00 +1.45984E+00 -3.20940E+00 +1.25714E+00
 -2.22935E+00 +5.32053E-01 -1.68903E-02 -1.50826E+00 +2.28091E+00 -4.99289E+00 +3.41135E+00 -9.15329E+00
 +2.65272E+00 -1.25230E+01 +2.23980E-01 -1.35105E+01 -2.73251E+00 -1.11101E+01 -4.60822E+00 -5.44046E+00
 -4.04149E+00 +2.14218E+00 -5.81324E-01 +9.43640E+00 +4.99547E+00 +1.41639E+01 +1.08729E+01 +1.48181E+01
 +1.48402E+01 +1.12536E+01 +1.51453E+01 +4.77186E+00 +1.12174E+01 -2.34223E+00 +3.95813E+00 -7.65845E+00
 -4.52715E+00 -9.48876E+00 -1.16638E+01 -7.47874E+00 -1.53268E+01 -2.67827E+00 -1.45870E+01 +2.92306E+00
 -1.00003E+01 +7.19734E+00 -3.33778E+00 +8.68903E+00 +3.12088E+00 +7.11465E+00 +7.43942E+00 +3.36863E+00
 +8.68451E+00 -9.39072E-01 +7.14592E+00 -4.19706E+00 +4.06004E+00 -5.44707E+00 +9.85441E-01 -4.70751E+00
 -8.84837E-01 -2.84734E+00 -1.17866E+00 -1.09105E+00 -3.87265E-01 -3.93789E-01 +4.96643E-01 -9.76214E-01
 +5.57302E-01 -2.23064E+00 -5.29226E-01 -3.03902E+00 -2.28946E+00 -2.35517E+00 -3.65767E+00 +2.18785E-01
 -3.50294E+00 +4.13479E+00 -1.23745E+00 +8.03334E+00 +2.78065E+00 +1.02733E+01 +7.25432E+00 +9.64147E+00
 +1.03932E+01 +5.93604E+00 +1.06313E+01 +1.62008E-01 +7.32178E+00 -5.77004E+00 +1.10811E+00 -9.74008E+00
 -6.20588E+00 -1.02394E+01 -1.22611E+01 -6.98429E+00 -1.50004E+01 -1.06687E+00 -1.34430E+01 +5.42694E+00
 -8.06915E+00 +1.01898E+01 -6.57568E-01 +1.15525E+01 +6.36432E+00 +9.09342E+00 +1.08031E+01 +3.76161E+00
 +1.14722E+01 -2.52430E+00 +8.56043E+00 -7.63093E+00 +3.46857E+00 -1.00099E+01 -1.79979E+00 -9.22533E+00
 -5.43125E+00 -6.01378E+00 -6.45704E+00 -1.87802E+00 -5.01725E+00 +1.59160E+00 -2.15606E+00 +3.37123E+00
 +7.31877E-01 +3.35959E+00 +2.54359E+00 +2.30165E+00 +2.91389E+00 +1.33803E+00 +2.28020E+00 +1.39963E+00
 +1.55795E+00 +2.72954E+00 +1.59453E+00 +4.75109E+00 +2.66821E+00 +6.34161E+00 +4.27606E+00 +6.38665E+00
 +5.32234E+00 +4.35977E+00 +4.63455E+00 +6.56544E-01 +1.57925E+00 -3.48409E+00 -3.50625E+00 -6.45715E+00
 -9.28132E+00 -6.97433E+00 -1.38168E+01 -4.65975E+00 -1.53112E+01 -2.92162E-01 -1.28238E+01 +4.43099E+00
 -6.72026E+00 +7.53211E+00 +1.36863E+00 +7.54566E+00 +9.07898E+00 +4.14221E+00 +1.41416E+01 -1.67761E+00
 +1.51872E+01 -7.91066E+00 +1.22165E+01 -1.22815E+01 +6.55344E+00 -1.30917E+01 +3.08361E-01 -9.85600E+00
 -4.43126E+00 -3.47731E+00 -6.35940E+00 +4.10146E+00 -5.36638E+00 +1.06225E+01 -2.46363E+00 +1.43236E+01
 +7.25230E-01 +1.45162E+01 +2.67688E+00 +1.17200E+01 +2.58163E+00 +7.32662E+00 +6.09922E-01 +2.96122E+00
 -2.25835E+00 -1.78341E-01 -4.74191E+00 -1.72811E+00 -5.86262E+00 -2.15790E+00 -5.37254E+00 -2.39429E+00
 -3.81714E+00 -3.26045E+00 -2.21614E+00 -5.00106E+00 -1.51749E+00 -7.11479E+00 -2.08356E+00 -8.57252E+00
 -3.45611E+00 -8.32171E+00 -4.52293E+00 -5.84346E+00 -4.02798E+00 -1.49966E+00 -1.20720E+00 +3.50451E+00
 +3.73516E+00 +7.54900E+00 +9.53881E+00 +9.24909E+00 +1.42585E+01 +8.05225E+00 +1.59697E+01 +4.51842E+00
 +1.35356E+01 +1.46680E-01 +7.12312E+00 -3.19914E+00 -1.75150E+00 -4.04106E+00 -1.06863E+01 -1.90740E+00
 -1.71995E+01 +2.43773E+00 -1.95745E+01 +7.26084E+00 -1.74241E+01 +1.05243E+01 -1.17654E+01 +1.06880E+01
 -4.59107E+00 +7.32755E+00 +1.88224E+00 +1.32015E+00 +5.98792E+00 -5.47559E+00 +7.11049E+00 -1.09161E+01
 +5.74260E+00 -1.33663E+01 +3.11378E+00 -1.22769E+01 +5.79749E-01 -8.32402E+00 -9.53373E-01 -3.07541E+00
 -1.32946E+00 +1.66575E+00 -1.06167E+00 +4.55837E+00 -9.39635E-01 +5.17902E+00 -1.53132E+00 +4.06368E+00
 -2.82673E+00 +2.34490E+00 -4.19919E+00 +1.16455E+00 -4.70772E+00 +1.13179E+00 -3.60122E+00 +2.06630E+00
 -7.84426E-01 +3.13331E+00 +2.98773E+00 +3.29997E+00 +6.30565E+00 +1.89739E+00 +7.63643E+00 -9.75356E-01
 +5.98041E+00 -4.40027E+00 +1.37244E+00 -6.98184E+00 -5.00293E+00 -7.44412E+00 -1.11610E+01 -5.22804E+00
 -1.50174E+01 -8.23770E-01 -1.51728E+01 +4.32174E+00 -1.14714E+01 +8.30540E+00 -5.10033E+00 +9.48640E+00
 +1.82152E+00 +7.13554E+00 +7.01349E+00 +1.75040E+00 +8.86783E+00 -5.09601E+00 +7.02528E+00 -1.13176E+01
 +2.47155E+00 -1.50669E+01 -2.87508E+00 -1.53810E+01 -6.91482E+00 -1.24721E+01 -8.15612E+00 -7.56278E+00
 -6.23706E+00 -2.35188E+00 -1.98793E+00 +1.65794E+00 +2.96670E+00 +3.69168E+00 +6.88377E+00 +3.88582E+00
 +8.57029E+00 +3.07288E+00 +7.77682E+00 +2.28810E+00 +5.17545E+00 +2.23407E+00 +1.96193E+00 +2.94857E+00
 -7.22176E-01 +3.82137E+00 -2.28482E+00 +3.94315E+00 -2.88213E+00 +2.61625E+00 -3.24561E+00 -2.19818E-01
 -4.23129E+00 -3.85994E+00 -6.30780E+00 -7.08130E+00 -9.22530E+00 -8.67451E+00 -1.20254E+01 -8.02796E+00
 -1.33987E+01 -5.49672E+00 -1.22399E+01 -2.36651E+00 -8.15934E+00 -3.90436E-01 -1.72553E+00 -1.06224E+00
 +5.67670E+00 -4.91560E+00 +1.23196E+01 -1.11480E+01 +1.67448E+01 -1.77524E+01 +1.82594E+01 -2.21446E+01
 +1.71134E+01 -2.20731E+01 +1.42888E+01 -1.64794E+01 +1.10042E+01 -5.98234E+00 +8.15597E+00 +7.20386E+00
 +5.94709E+00 +1.99013E+01 +3.87023E+00 +2.89279E+01 +1.05291E+00 +3.20486E+01 -3.19014E+00 +2.85937E+01
 -8.85134E+00 +1.95535E+01 -1.50139E+01 +7.15593E+00 -2.00486E+01 -5.88109E+00 -2.21703E+01 -1.71358E+01
 -2.01402E+01 -2.50362E+01 -1.38254E+01 -2.90342E+01 -4.37226E+00 -2.94168E+01 +6.09915E+00 -2.69120E+01
 +1.51796E+01 -2.22998E+01 +2.09772E+01 -1.62010E+01 +2.27339E+01 -9.09603E+00 +2.10109E+01 -1.50107E+00
 +1.73739E+01 +5.85452E+00 +1.37073E+01 +1.20022E+01 +1.14359E+01 +1.59276E+01 +1.09669E+01 +1.69251E+01
 +1.15744E+01 +1.49546E+01 +1.17669E+01 +1.08069E+01 +9.98173E+00 +5.95344E+00 +5.32137E+00 +2.08335E+00
 -1.97178E+00 +4.81729E-01 -1.04937E+01 +1.49231E+00 -1.81208E+01 +4.30153E+00 -2.27397E+01 +7.16875E+00
 -2.29803E+01 +8.05289E+00 -1.86715E+01 +5.41801E+00 -1.08588E+01 -1.08804E+00 -1.39813E+00 -1.03568E+01
 +7.69465E+00 -2.00752E+01 +1.48770E+01 -2.74437E+01 +1.94584E+01 -3.01038E+01 +2.16103E+01 -2.69375E+01
 +2.20490E+01 -1.84449E+01 +2.15666E+01 -6.56402E+00 +2.06314E+01 +5.98991E+00 +1.92253E+01 +1.66105E+01
 +1.69695E+01 +2.35789E+01 +1.34480E+01 +2.64569E+01 +8.55466E+00 +2.59765E+01 +2.68336E+00 +2.35139E+01
 -3.33449E+00 +2.03916E+01 -8.51833E+00 +1.73130E+01 -1.21122E+01 +1.41574E+01 -1.38604E+01 +1.02054E+01
