 Created: 19-Jan-2021
 $NMID
 ID='D:\BASISSIMULATI'
 FMTDAT='(8E13.5)'
 VOLUME=   1.00000E+00
 TRAMP=   1.00000E+00
 $END
 +3.07276E+01 +1.40607E+00 +2.51793E+01 +1.70797E+01 +1.16062E+01 +2.64284E+01 -4.58431E+00 +2.59572E+01
 -1.69978E+01 +1.61249E+01 -2.08250E+01 +1.12674E+00 -1.47572E+01 -1.28212E+01 -1.48073E+00 -1.99940E+01
 +1.34360E+01 -1.74528E+01 +2.38031E+01 -6.20186E+00 +2.53006E+01 +9.24664E+00 +1.71987E+01 +2.27122E+01
 +2.62241E+00 +2.88398E+01 -1.27331E+01 +2.52414E+01 -2.29067E+01 +1.34287E+01 -2.40630E+01 -1.82722E+00
 -1.60097E+01 -1.44371E+01 -2.23986E+00 -1.94472E+01 +1.15039E+01 -1.50142E+01 +1.95555E+01 -3.11502E+00
 +1.85982E+01 +1.12828E+01 +8.97503E+00 +2.22435E+01 -5.48224E+00 +2.52542E+01 -1.90221E+01 +1.90237E+01
 -2.62971E+01 +5.97139E+00 -2.45043E+01 -8.77666E+00 -1.44834E+01 -1.94671E+01 -3.45263E-01 -2.20304E+01
 +1.22092E+01 -1.56930E+01 +1.81893E+01 -3.25330E+00 +1.53078E+01 +1.00789E+01 +4.86914E+00 +1.87969E+01
 -8.79139E+00 +1.93094E+01 -2.00785E+01 +1.13619E+01 -2.43941E+01 -1.89537E+00 -1.99714E+01 -1.52049E+01
 -8.55417E+00 -2.33305E+01 +5.33827E+00 -2.31548E+01 +1.62506E+01 -1.49050E+01 +1.99860E+01 -2.02413E+00
 +1.52720E+01 +1.02438E+01 +4.23564E+00 +1.69754E+01 -8.48853E+00 +1.55366E+01 -1.76459E+01 +6.61139E+00
 -1.94756E+01 -6.11092E+00 -1.32013E+01 -1.74496E+01 -1.30824E+00 -2.28261E+01 +1.14894E+01 -2.00919E+01
 +2.01623E+01 -1.03613E+01 +2.13834E+01 +2.47346E+00 +1.48382E+01 +1.33332E+01 +3.31329E+00 +1.79992E+01
 -8.45862E+00 +1.47900E+01 -1.57184E+01 +5.20178E+00 -1.55866E+01 -6.73245E+00 -8.19224E+00 -1.60917E+01
 +3.41790E+00 -1.90497E+01 +1.45373E+01 -1.43941E+01 +2.07062E+01 -3.97841E+00 +1.94937E+01 +8.05941E+00
 +1.14448E+01 +1.69827E+01 -1.78096E-01 +1.93588E+01 -1.07362E+01 +1.44140E+01 -1.60892E+01 +4.30549E+00
 -1.42433E+01 -6.78301E+00 -6.11824E+00 -1.43445E+01 +4.86351E+00 -1.53569E+01 +1.41831E+01 -9.47090E+00
 +1.80499E+01 +8.88752E-01 +1.49087E+01 +1.15339E+01 +6.02914E+00 +1.82145E+01 -5.04254E+00 +1.83194E+01
 -1.39355E+01 +1.18961E+01 -1.72134E+01 +1.59214E+00 -1.37333E+01 -8.44357E+00 -5.06599E+00 -1.42418E+01
 +5.17502E+00 -1.35964E+01 +1.28113E+01 -6.91765E+00 +1.47793E+01 +2.97449E+00 +1.03373E+01 +1.20175E+01
 +1.32392E+00 +1.65512E+01 -8.61857E+00 +1.47747E+01 -1.55303E+01 +7.43601E+00 -1.67210E+01 -2.50921E+00
 -1.18235E+01 -1.11151E+01 -2.90034E+00 -1.50380E+01 +6.42192E+00 -1.28613E+01 +1.24285E+01 -5.62603E+00
 +1.28011E+01 +3.62891E+00 +7.51811E+00 +1.11169E+01 -1.17878E+00 +1.38299E+01 -9.72206E+00 +1.07256E+01
 -1.46679E+01 +3.10757E+00 -1.40691E+01 -5.93891E+00 -8.22484E+00 -1.28120E+01 +4.81400E-01 -1.48407E+01
 +8.57274E+00 -1.13321E+01 +1.28870E+01 -3.80966E+00 +1.18313E+01 +4.63901E+00 +5.98572E+00 +1.06249E+01
 -2.17312E+00 +1.18154E+01 -9.29917E+00 +7.84290E+00 -1.25300E+01 +4.10049E-01 -1.06187E+01 -7.43297E+00
 -4.39669E+00 -1.25338E+01 +3.60167E+00 -1.28971E+01 +1.01866E+01 -8.45525E+00 +1.27980E+01 -1.05326E+00
 +1.05119E+01 +6.32888E+00 +4.37081E+00 +1.07885E+01 -3.07611E+00 +1.06546E+01 -8.82362E+00 +6.12404E+00
 -1.06179E+01 -8.60668E-01 -7.83631E+00 -7.42719E+00 -1.69563E+00 -1.09398E+01 +5.27718E+00 -1.00432E+01
 +1.02836E+01 -5.17098E+00 +1.13744E+01 +1.67176E+00 +8.20375E+00 +7.74575E+00 +2.12603E+00 +1.06860E+01
 -4.38708E+00 +9.43249E+00 -8.75871E+00 +4.61705E+00 -9.33396E+00 -1.73336E+00 -6.01236E+00 -7.04049E+00
 -2.44640E-01 -9.21493E+00 +5.58763E+00 -7.47280E+00 +9.14508E+00 -2.61008E+00 +9.05900E+00 +3.35919E+00
 +5.44683E+00 +8.03869E+00 -1.78491E-01 +9.61274E+00 -5.55094E+00 +7.54976E+00 -8.57368E+00 +2.77397E+00
 -8.14557E+00 -2.74647E+00 -4.56627E+00 -6.81306E+00 +6.27741E-01 -7.87608E+00 +5.31300E+00 -5.62765E+00
 +7.64040E+00 -1.08230E+00 +6.75883E+00 +3.87010E+00 +3.11807E+00 +7.24341E+00 -1.75492E+00 +7.74553E+00
 -5.89906E+00 +5.26545E+00 -7.71115E+00 +8.74497E-01 -6.56707E+00 -3.64114E+00 -3.03180E+00 -6.51365E+00
 +1.40953E+00 -6.69175E+00 +4.97461E+00 -4.22804E+00 +6.29990E+00 -2.14041E-01 +4.96214E+00 +3.69339E+00
 +1.60619E+00 +5.94986E+00 -2.35490E+00 +5.72832E+00 -5.33085E+00 +3.21430E+00 -6.18928E+00 -5.12082E-01
 -4.68133E+00 -3.94235E+00 -1.49892E+00 -5.75375E+00 +2.04218E+00 -5.32122E+00 +4.55032E+00 -2.92950E+00
 +5.10891E+00 +3.84166E-01 +3.61236E+00 +3.27600E+00 +7.65042E-01 +4.63962E+00 -2.23882E+00 +4.02759E+00
 -4.21081E+00 +1.79059E+00 -4.43405E+00 -1.10539E+00 -2.91657E+00 -3.49347E+00 -3.44723E-01 -4.47478E+00
 +2.22716E+00 -3.75350E+00 +3.81221E+00 -1.71407E+00 +3.87172E+00 +7.73656E-01 +2.49475E+00 +2.72652E+00
 +3.19163E-01 +3.43895E+00 -1.75653E+00 +2.73723E+00 -2.94214E+00 +1.00668E+00 -2.85401E+00 -1.00181E+00
 -1.63053E+00 -2.49285E+00 +1.65874E-01 -2.93825E+00 +1.80371E+00 -2.25743E+00 +2.68035E+00 -8.07055E-01
 +2.54146E+00 +7.98778E-01 +1.54315E+00 +1.95064E+00 +1.48115E-01 +2.27678E+00 -1.08606E+00 +1.75816E+00
 -1.73072E+00 +6.93302E-01 -1.63256E+00 -4.55787E-01 -9.34031E-01 -1.26089E+00 +2.36874E-02 -1.48423E+00
 +8.60227E-01 -1.13774E+00 +1.30496E+00 -4.35967E-01 +1.27713E+00 +3.21570E-01 +8.76586E-01 +8.78417E-01
 +3.05844E-01 +1.10527E+00 -2.30015E-01 +1.01401E+00 -5.97809E-01 +7.11407E-01 -7.58449E-01 +3.27903E-01
 -7.40619E-01 -3.85444E-02 -5.93481E-01 -3.39555E-01 -3.51773E-01 -5.56511E-01 -3.33744E-02 -6.67647E-01
 +3.34434E-01 -6.31551E-01 +6.84111E-01 -4.03826E-01 +9.01737E-01 +1.98854E-02 +8.61479E-01 +5.62078E-01
 +4.91303E-01 +1.05581E+00 -1.62695E-01 +1.29009E+00 -9.13542E-01 +1.09866E+00 -1.47804E+00 +4.54863E-01
 -1.58310E+00 -4.76963E-01 -1.09403E+00 -1.37058E+00 -1.05594E-01 -1.85065E+00 +1.05563E+00 -1.65113E+00
 +1.93483E+00 -7.52591E-01 +2.12802E+00 +5.69275E-01 +1.46589E+00 +1.81973E+00 +1.19828E-01 +2.46921E+00
 -1.42787E+00 +2.17734E+00 -2.55354E+00 +9.62247E-01 -2.74301E+00 -7.66267E-01 -1.82269E+00 -2.33925E+00
 -6.83127E-02 -3.08652E+00 +1.86836E+00 -2.62073E+00 +3.20032E+00 -1.02728E+00 +3.32535E+00 +1.13001E+00
 +2.09503E+00 +3.00590E+00 -8.63969E-02 +3.80610E+00 -2.38891E+00 +3.12424E+00 -3.87267E+00 +1.14066E+00
 -3.87313E+00 -1.41124E+00 -2.29733E+00 -3.51329E+00 +2.99519E-01 -4.26836E+00 +2.90383E+00 -3.28177E+00
 +4.43704E+00 -8.56633E-01 +4.19997E+00 +2.09029E+00 +2.18509E+00 +4.37354E+00 -8.81362E-01 +5.01539E+00
 -3.80024E+00 +3.66228E+00 -5.37081E+00 +7.64111E-01 -4.88723E+00 -2.57063E+00 -2.45483E+00 -5.00018E+00
 +1.01408E+00 -5.49241E+00 +4.13890E+00 -3.76547E+00 +5.61883E+00 -4.38537E-01 +4.77287E+00 +3.18312E+00
 +1.84772E+00 +5.61600E+00 -2.04409E+00 +5.80185E+00 -5.34590E+00 +3.56107E+00 -6.67907E+00 -2.97473E-01
 -5.41691E+00 -4.26952E+00 -1.97132E+00 -6.74643E+00 +2.33694E+00 -6.67181E+00 +5.78684E+00 -3.99562E+00
 +6.94890E+00 +2.68961E-01 +5.28200E+00 +4.42361E+00 +1.38622E+00 +6.75770E+00 -3.20431E+00 +6.24951E+00
 -6.61906E+00 +3.00814E+00 -7.40656E+00 -1.73378E+00 -5.14252E+00 -6.08868E+00 -6.36219E-01 -8.26598E+00
 +4.36235E+00 -7.30788E+00 +7.84968E+00 -3.50637E+00 +8.38050E+00 +1.67902E+00 +5.67472E+00 +6.18406E+00
 +7.65124E-01 +8.16632E+00 -4.38807E+00 +6.76449E+00 -7.67285E+00 +2.47742E+00 -7.68440E+00 -3.00272E+00
 -4.31814E+00 -7.44980E+00 +1.15308E+00 -8.99884E+00 +6.56263E+00 -6.91694E+00 +9.71141E+00 -1.93149E+00
 +9.26413E+00 +4.02985E+00 +5.31506E+00 +8.59568E+00 -6.16024E-01 +9.90698E+00 -6.16982E+00 +7.38700E+00
 -9.08984E+00 +2.00599E+00 -8.14469E+00 -4.07908E+00 -3.65319E+00 -8.37720E+00 +2.61095E+00 -9.07137E+00
 +8.10986E+00 -5.77426E+00 +1.05590E+01 +2.82553E-01 +8.86323E+00 +6.71519E+00 +3.58813E+00 +1.09336E+01
 -3.23555E+00 +1.11913E+01 -8.90835E+00 +7.31336E+00 -1.11468E+01 +7.98779E-01 -9.02076E+00 -5.75677E+00
 -3.35725E+00 -9.69584E+00 +3.56226E+00 -9.37941E+00 +8.90325E+00 -4.87307E+00 +1.04213E+01 +2.04773E+00
 +7.38625E+00 +8.58826E+00 +9.07603E-01 +1.20525E+01 -6.48324E+00 +1.09412E+01 -1.18362E+01 +5.58284E+00
 -1.29736E+01 -1.96756E+00 -9.38822E+00 -8.73382E+00 -2.47693E+00 -1.20118E+01 +4.99543E+00 -1.04720E+01
 +9.99722E+00 -4.72198E+00 +1.04575E+01 +2.90959E+00 +6.12313E+00 +9.29208E+00 -1.30960E+00 +1.17523E+01
 -8.85300E+00 +9.16811E+00 -1.34214E+01 +2.44894E+00 -1.30824E+01 -5.80178E+00 -7.85911E+00 -1.23172E+01
 +2.50190E-01 -1.44825E+01 +8.05379E+00 -1.14051E+01 +1.24442E+01 -4.30061E+00 +1.16599E+01 +3.97060E+00
 +6.01852E+00 +1.00421E+01 -2.18415E+00 +1.14005E+01 -9.57888E+00 +7.41787E+00 -1.30764E+01 -3.68028E-01
 -1.11250E+01 -8.84782E+00 -4.36152E+00 -1.45808E+01 +4.61766E+00 -1.51861E+01 +1.22832E+01 -1.03215E+01
 +1.55911E+01 -1.84833E+00 +1.32217E+01 +6.89535E+00 +6.13528E+00 +1.24296E+01 -2.79048E+00 +1.25411E+01
 -9.90494E+00 +7.19509E+00 -1.22558E+01 -1.42527E+00 -8.79503E+00 -9.77838E+00 -8.26128E-01 -1.43847E+01
 +8.49606E+00 -1.32386E+01 +1.54224E+01 -6.63880E+00 +1.71215E+01 +2.90569E+00 +1.28367E+01 +1.16665E+01
 +4.21494E+00 +1.61919E+01 -5.33453E+00 +1.47066E+01 -1.20022E+01 +7.84763E+00 -1.31171E+01 -1.56996E+00
 -8.23959E+00 -9.67166E+00 +6.37755E-01 -1.30832E+01 +9.87352E+00 -1.03032E+01 +1.56363E+01 -2.33111E+00
 +1.54551E+01 +7.71184E+00 +9.23431E+00 +1.58249E+01 -6.83536E-01 +1.87382E+01 -1.04420E+01 +1.52429E+01
 -1.62159E+01 +6.69909E+00 -1.57590E+01 -3.49130E+00 -9.32564E+00 -1.12430E+01 +4.10909E-01 -1.34351E+01
 +9.42048E+00 -9.18196E+00 +1.39366E+01 -2.11857E-01 +1.19845E+01 +9.81081E+00 +4.19729E+00 +1.67521E+01
 -6.41719E+00 +1.76783E+01 -1.56718E+01 +1.20537E+01 -1.98836E+01 +1.97822E+00 -1.73664E+01 -8.63938E+00
 -9.12824E+00 -1.56470E+01 +1.51614E+00 -1.63252E+01 +1.02686E+01 -1.04969E+01 +1.35792E+01 -6.16768E-01
 +1.00876E+01 +9.20307E+00 +1.19027E+00 +1.48457E+01 -9.50428E+00 +1.38562E+01 -1.76188E+01 +6.44802E+00
 -1.97722E+01 -4.56191E+00 -1.49550E+01 -1.48723E+01 -4.95411E+00 -2.04246E+01 +6.34837E+00 -1.90438E+01
 +1.45297E+01 -1.13294E+01 +1.64093E+01 -4.30249E-01 +1.13409E+01 +9.21268E+00 +1.48901E+00 +1.36540E+01
 -9.02981E+00 +1.10425E+01 -1.58005E+01 +2.38390E+00 -1.58941E+01 -8.84806E+00 -9.06259E+00 -1.80997E+01
 +2.14223E+00 -2.15714E+01 +1.33815E+01 -1.77581E+01 +2.02698E+01 -8.07139E+00 +2.01454E+01 +3.71331E+00
