 Created: 19-Jan-2021
 $NMID
 ID='D:\BASISSIMULATI'
 FMTDAT='(8E13.5)'
 VOLUME=   1.00000E+00
 TRAMP=   1.00000E+00
 $END
 +5.32639E+01 +5.08699E+00 +5.09358E+01 +1.56468E+01 +4.64487E+01 +2.54232E+01 +4.00390E+01 +3.39690E+01
 +3.20353E+01 +4.09042E+01 +2.28405E+01 +4.59351E+01 +1.29091E+01 +4.88685E+01 +2.72256E+00 +4.96192E+01
 -7.23665E+00 +4.82126E+01 -1.65100E+01 +4.47808E+01 -2.46864E+01 +3.95524E+01 -3.14221E+01 +3.28382E+01
 -3.64568E+01 +2.50124E+01 -3.96242E+01 +1.64910E+01 -4.08573E+01 +7.70831E+00 -4.01884E+01 -9.05748E-01
 -3.77432E+01 -8.94830E+00 -3.37305E+01 -1.60632E+01 -2.84275E+01 -2.19573E+01 -2.21625E+01 -2.64130E+01
 -1.52951E+01 -2.92957E+01 -8.19622E+00 -3.05568E+01 -1.22817E+00 -3.02312E+01 +5.27342E+00 -2.84315E+01
 +1.10155E+01 -2.53373E+01 +1.57599E+01 -2.11827E+01 +1.93326E+01 -1.62401E+01 +2.16280E+01 -1.08048E+01
 +2.26103E+01 -5.17808E+00 +2.23104E+01 +3.48158E-01 +2.08197E+01 +5.50542E+00 +1.82817E+01 +1.00602E+01
 +1.48806E+01 +1.38228E+01 +1.08297E+01 +1.66535E+01 +6.35889E+00 +1.84652E+01 +1.70243E+00 +1.92231E+01
 -2.91215E+00 +1.89428E+01 -7.27388E+00 +1.76848E+01 -1.11963E+01 +1.55480E+01 -1.45234E+01 +1.26627E+01
 -1.71334E+01 +9.18172E+00 -1.89408E+01 +5.27248E+00 -1.98964E+01 +1.10916E+00 -1.99856E+01 -3.13447E+00
 -1.92264E+01 -7.29116E+00 -1.76653E+01 -1.12053E+01 -1.53737E+01 -1.47366E+01 -1.24437E+01 -1.77634E+01
 -8.98403E+00 -2.01842E+01 -5.11625E+00 -2.19190E+01 -9.70993E-01 -2.29100E+01 +3.31521E+00 -2.31221E+01
 +7.60303E+00 -2.25423E+01 +1.17532E+01 -2.11803E+01 +1.56295E+01 -1.90681E+01 +1.91015E+01 -1.62596E+01
 +2.20478E+01 -1.28300E+01 +2.43592E+01 -8.87520E+00 +2.59425E+01 -4.51038E+00 +2.67236E+01 +1.32106E-01
 +2.66515E+01 +4.90540E+00 +2.57015E+01 +9.65182E+00 +2.38779E+01 +1.42074E+01 +2.12161E+01 +1.84071E+01
 +1.77837E+01 +2.20914E+01 +1.36801E+01 +2.51124E+01 +9.03488E+00 +2.73408E+01 +4.00440E+00 +2.86727E+01
 -1.23315E+00 +2.90353E+01 -6.48415E+00 +2.83925E+01 -1.15472E+01 +2.67480E+01 -1.62220E+01 +2.41478E+01
 -2.03184E+01 +2.06800E+01 -2.36657E+01 +1.64725E+01 -2.61218E+01 +1.16888E+01 -2.75808E+01 +6.52179E+00
 -2.79795E+01 +1.18493E+00 -2.73017E+01 -4.09697E+00 -2.55805E+01 -9.09873E+00 -2.28978E+01 -1.36058E+01
 -1.93813E+01 -1.74255E+01 -1.51987E+01 -2.03966E+01 -1.05503E+01 -2.23986E+01 -5.65857E+00 -2.33580E+01
 -7.57578E-01 -2.32529E+01 +3.91954E+00 -2.21141E+01 +8.15255E+00 -2.00244E+01 +1.17458E+01 -1.71139E+01
 +1.45385E+01 -1.35535E+01 +1.64134E+01 -9.54580E+00 +1.73031E+01 -5.31401E+00 +1.71932E+01 -1.09003E+00
 +1.61229E+01 +2.89820E+00 +1.41829E+01 +6.43908E+00 +1.15095E+01 +9.34876E+00 +8.27732E+00 +1.14810E+01
 +4.68893E+00 +1.27350E+01 +9.63575E-01 +1.30604E+01 -2.67520E+00 +1.24593E+01 -6.01197E+00 +1.09863E+01
 -8.85131E+00 +8.74393E+00 -1.10284E+01 +5.87706E+00 -1.24180E+01 +2.56400E+00 -1.29403E+01 -9.93760E-01
 -1.25657E+01 -4.58306E+00 -1.13147E+01 -7.99101E+00 -9.25697E+00 -1.10168E+01 -6.50611E+00 -1.34824E+01
 -3.21313E+00 -1.52422E+01 +4.42511E-01 -1.61903E+01 +4.26309E+00 -1.62656E+01 +8.04362E+00 -1.54544E+01
 +1.15830E+01 -1.37901E+01 +1.46945E+01 -1.13506E+01 +1.72156E+01 -8.25335E+00 +1.90157E+01 -4.64835E+00
 +2.00026E+01 -7.09388E-01 +2.01258E+01 +3.37532E+00 +1.93785E+01 +7.41320E+00 +1.77964E+01 +1.12172E+01
 +1.54549E+01 +1.46152E+01 +1.24641E+01 +1.74578E+01 +8.96212E+00 +1.96254E+01 +5.10751E+00 +2.10327E+01
 +1.07064E+00 +2.16317E+01 -2.97480E+00 +2.14128E+01 -6.86032E+00 +2.04034E+01 -1.04303E+01 +1.86654E+01
 -1.35489E+01 +1.62903E+01 -1.61050E+01 +1.33940E+01 -1.80168E+01 +1.01103E+01 -1.92335E+01 +6.58344E+00
 -1.97362E+01 +2.96164E+00 -1.95371E+01 -6.10143E-01 -1.86771E+01 -3.99630E+00 -1.72225E+01 -7.07603E+00
 -1.52606E+01 -9.74773E+00 -1.28944E+01 -1.19322E+01 -1.02376E+01 -1.35747E+01 -7.40915E+00 -1.46457E+01
 -4.52757E+00 -1.51404E+01 -1.70642E+00 -1.50777E+01 +9.50199E-01 -1.44977E+01 +3.35125E+00 -1.34585E+01
 +5.42161E+00 -1.20333E+01 +7.10403E+00 -1.03059E+01 +8.36038E+00 -8.36727E+00 +9.17196E+00 -6.31125E+00
 +9.53913E+00 -4.23082E+00 +9.48023E+00 -2.21452E+00 +9.02998E+00 -3.43329E-01 +8.23728E+00 +1.31212E+00
 +7.16275E+00 +2.69376E+00 +5.87589E+00 +3.75779E+00 +4.45211E+00 +4.47583E+00 +2.96960E+00 +4.83550E+00
 +1.50623E+00 +4.84042E+00 +1.36537E-01 +4.50973E+00 -1.07114E+00 +3.87705E+00 -2.05734E+00 +2.98888E+00
 -2.77372E+00 +1.90265E+00 -3.18504E+00 +6.84319E-01 -3.27057E+00 -5.94354E-01 -3.02502E+00 -1.85880E+00
 -2.45892E+00 -3.03479E+00 -1.59828E+00 -4.05159E+00 -4.83745E-01 -4.84514E+00 +8.30940E-01 -5.36097E+00
 +2.28108E+00 -5.55680E+00 +3.79364E+00 -5.40472E+00 +5.29037E+00 -4.89286E+00 +6.69122E+00 -4.02625E+00
 +7.91792E+00 -2.82717E+00 +8.89766E+00 -1.33453E+00 +9.56656E+00 +3.97362E-01 +9.87294E+00 +2.30090E+00
 +9.77999E+00 +4.29789E+00 +9.26796E+00 +6.30282E+00 +8.33550E+00 +8.22666E+00 +7.00030E+00 +9.98076E+00
 +5.29873E+00 +1.14810E+01 +3.28470E+00 +1.26518E+01 +1.02757E+00 +1.34296E+01 -1.39059E+00 +1.37663E+01
 -3.87851E+00 +1.36312E+01 -6.33962E+00 +1.30136E+01 -8.67630E+00 +1.19228E+01 -1.07942E+01 +1.03883E+01
 -1.26065E+01 +8.45887E+00 -1.40380E+01 +6.20051E+00 -1.50280E+01 +3.69356E+00 -1.55338E+01 +1.02945E+00
 -1.55320E+01 -1.69331E+00 -1.50201E+01 -4.37342E+00 -1.40162E+01 -6.91112E+00 -1.25583E+01 -9.21255E+00
 -1.07027E+01 -1.11937E+01 -8.52137E+00 -1.27841E+01 -6.09894E+00 -1.39295E+01 -3.52869E+00 -1.45942E+01
 -9.08690E-01 -1.47625E+01 +1.66249E+00 -1.44386E+01 +4.08995E+00 -1.36469E+01 +6.28642E+00 -1.24299E+01
 +8.17587E+00 -1.08468E+01 +9.69648E+00 -8.97019E+00 +1.08031E+01 -6.88289E+00 +1.14686E+01 -4.67441E+00
 +1.16852E+01 -2.43681E+00 +1.14638E+01 -2.60846E-01 +1.08336E+01 +1.76793E+00 +9.84035E+00 +3.57271E+00
 +8.54399E+00 +5.08859E+00 +7.01597E+00 +6.26513E+00 +5.33579E+00 +7.06835E+00 +3.58749E+00 +7.48186E+00
 +1.85584E+00 +7.50739E+00 +2.22534E-01 +7.16441E+00 -1.23734E+00 +6.48904E+00 -2.45868E+00 +5.53227E+00
 -3.38920E+00 +4.35748E+00 -3.99177E+00 +3.03749E+00 -4.24599E+00 +1.65108E+00 -4.14921E+00 +2.79380E-01
 -3.71655E+00 -9.97986E-01 -2.98026E+00 -2.10668E+00 -1.98828E+00 -2.98123E+00 -8.02024E-01 -3.56822E+00
 +5.06489E-01 -3.82906E+00 +1.85800E+00 -3.74198E+00 +3.16983E+00 -3.30340E+00 +4.35987E+00 -2.52837E+00
 +5.35075E+00 -1.45018E+00 +6.07370E+00 -1.19082E-01 +6.47227E+00 +1.39987E+00 +6.50539E+00 +3.02973E+00
 +6.14985E+00 +4.68522E+00 +5.40193E+00 +6.27683E+00 +4.27808E+00 +7.71520E+00 +2.81468E+00 +8.91563E+00
 +1.06671E+00 +9.80246E+00 -8.94457E-01 +1.03131E+01 -2.98424E+00 +1.04017E+01 -5.10869E+00 +1.00416E+01
 -7.16899E+00 +9.22743E+00 -9.06623E+00 +7.97573E+00 -1.07064E+01 +6.32483E+00 -1.20049E+01 +4.33333E+00
 -1.28916E+01 +2.07766E+00 -1.33137E+01 -3.51315E-01 -1.32394E+01 -2.85255E+00 -1.26594E+01 -5.31961E+00
 -1.15879E+01 -7.64579E+00 -1.00620E+01 -9.72939E+00 -8.14046E+00 -1.14787E+01 -5.90062E+00 -1.28167E+01
 -3.43499E+00 -1.36845E+01 -8.46736E-01 -1.40450E+01 +1.75530E+00 -1.38839E+01 +4.26190E+00 -1.32110E+01
 +6.56877E+00 -1.20593E+01 +8.58158E+00 -1.04836E+01 +1.02204E+01 -8.55742E+00 +1.14235E+01 -6.36917E+00
 +1.21502E+01 -4.01805E+00 +1.23821E+01 -1.60882E+00 +1.21243E+01 +7.53248E-01 +1.14041E+01 +2.96747E+00
 +1.02696E+01 +4.94255E+00 +8.78671E+00 +6.60072E+00 +7.03567E+00 +7.88121E+00 +5.10678E+00 +8.74267E+00
 +3.09579E+00 +9.16469E+00 +1.09915E+00 +9.14813E+00 -7.90596E-01 +8.71446E+00 -2.48910E+00 +7.90411E+00
 -3.92397E+00 +6.77392E+00 -5.03775E+00 +5.39396E+00 -5.79019E+00 +3.84380E+00 -6.15949E+00 +2.20844E+00
 -6.14274E+00 +5.74288E-01 -5.75540E+00 -9.74936E-01 -5.03004E+00 -2.36186E+00 -4.01435E+00 -3.51874E+00
 -2.76851E+00 -4.39022E+00 -1.36229E+00 -4.93532E+00 +1.28276E-01 -5.12891E+00 +1.62425E+00 -4.96235E+00
 +3.04713E+00 -4.44350E+00 +4.32212E+00 -3.59612E+00 +5.38105E+00 -2.45865E+00 +6.16503E+00 -1.08256E+00
 +6.62673E+00 +4.69763E-01 +6.73216E+00 +2.12746E+00 +6.46205E+00 +3.81382E+00 +5.81270E+00 +5.44919E+00
 +4.79634E+00 +6.95386E+00 +3.44103E+00 +8.25109E+00 +1.79001E+00 +9.27001E+00 -9.93902E-02 +9.94853E+00
 -2.15745E+00 +1.02359E+01 -4.30409E+00 +1.00954E+01 -6.45152E+00 +9.50585E+00 -8.50720E+00 +8.46400E+00
 -1.03773E+01 +6.98511E+00 -1.19701E+01 +5.10366E+00 -1.32006E+01 +2.87313E+00 -1.39933E+01 +3.65000E-01
 -1.42872E+01 -2.33303E+00 -1.40387E+01 -5.11969E+00 -1.32248E+01 -7.88362E+00 -1.18456E+01 -1.05075E+01
 -9.92590E+00 -1.28731E+01 -7.51584E+00 -1.48662E+01 -4.69010E+00 -1.63822E+01 -1.54629E+00 -1.73320E+01
 +1.79824E+00 -1.76465E+01 +5.21060E+00 -1.72816E+01 +8.54775E+00 -1.62216E+01 +1.16627E+01 -1.44820E+01
 +1.44116E+01 -1.21100E+01 +1.66604E+01 -9.18447E+00 +1.82927E+01 -5.81360E+00 +1.92157E+01 -2.13105E+00
 +1.93664E+01 +1.70937E+00 +1.87158E+01 +5.54045E+00 +1.72724E+01 +9.18937E+00 +1.50827E+01 +1.24861E+01
 +1.22310E+01 +1.52724E+01 +8.83605E+00 +1.74099E+01 +5.04658E+00 +1.87881E+01 +1.03443E+00 +1.93312E+01
 -3.01351E+00 +1.90028E+01 -6.90451E+00 +1.78089E+01 -1.04499E+01 +1.57992E+01 -1.34750E+01 +1.30651E+01
 -1.58286E+01 +9.73607E+00 -1.73914E+01 +5.97376E+00 -1.80831E+01 +1.96406E+00 -1.78668E+01 -2.09235E+00
 -1.67525E+01 -5.99038E+00 -1.47964E+01 -9.53133E+00 -1.20991E+01 -1.25336E+01 -8.80032E+00 -1.48427E+01
 -5.07208E+00 -1.63393E+01 -1.10952E+00 -1.69466E+01 +2.87933E+00 -1.66341E+01 +6.68466E+00 -1.54199E+01
 +1.01062E+01 -1.33694E+01 +1.29639E+01 -1.05925E+01 +1.51077E+01 -7.23690E+00 +1.64255E+01 -3.48089E+00
 +1.68493E+01 +4.76809E-01 +1.63580E+01 +4.42766E+00 +1.49791E+01 +8.16451E+00 +1.27862E+01 +1.14927E+01
 +9.89487E+00 +1.42403E+01 +6.45611E+00 +1.62671E+01 +2.64771E+00 +1.74714E+01 -1.33544E+00 +1.77951E+01
 -5.29195E+00 +1.72260E+01 -9.02461E+00 +1.57972E+01 -1.23506E+01 +1.35851E+01 -1.51106E+01 +1.07037E+01
 -1.71767E+01 +7.29839E+00 -1.84578E+01 +3.53723E+00 -1.89032E+01 -3.98196E-01 -1.85041E+01 -4.32245E+00
 -1.72923E+01 -8.05571E+00 -1.53374E+01 -1.14326E+01 -1.27414E+01 -1.43097E+01 -9.63243E+00 -1.65717E+01
 -6.15744E+00 -1.81359E+01 -2.47394E+00 -1.89541E+01 +1.25796E+00 -1.90135E+01 +4.88330E+00 -1.83348E+01
