 Created: 19-Jan-2021
 $NMID
 ID='D:\BASISSIMULATI'
 FMTDAT='(8E13.5)'
 VOLUME=   1.00000E+00
 TRAMP=   1.00000E+00
 $END
 +5.64035E+01 +5.15442E+00 +4.95124E+01 +2.05882E+01 +3.17666E+01 +3.18754E+01 +7.69075E+00 +3.70018E+01
 -1.65642E+01 +3.51116E+01 -3.48977E+01 +2.66432E+01 -4.29032E+01 +1.32753E+01 -3.90128E+01 -2.32802E+00
 -2.48254E+01 -1.69666E+01 -4.54921E+00 -2.75080E+01 +1.62544E+01 -3.15542E+01 +3.22386E+01 -2.80341E+01
 +3.96933E+01 -1.75606E+01 +3.74274E+01 -2.41856E+00 +2.68954E+01 +1.38748E+01 +1.15853E+01 +2.73775E+01
 -4.10159E+00 +3.47214E+01 -1.61237E+01 +3.40389E+01 -2.18495E+01 +2.55428E+01 -2.06134E+01 +1.15581E+01
 -1.36725E+01 -4.04755E+00 -3.64291E+00 -1.69095E+01 +6.36483E+00 -2.34049E+01 +1.36331E+01 -2.17235E+01
 +1.65009E+01 -1.24389E+01 +1.46549E+01 +1.61557E+00 +9.02859E+00 +1.61553E+01 +1.40125E+00 +2.67119E+01
 -6.14731E+00 +2.99857E+01 -1.17624E+01 +2.48684E+01 -1.42009E+01 +1.28151E+01 -1.30235E+01 -2.56427E+00
 -8.60104E+00 -1.65783E+01 -1.97892E+00 -2.48732E+01 +5.34706E+00 -2.47643E+01 +1.17030E+01 -1.60702E+01
 +1.55331E+01 -1.19289E+00 +1.56995E+01 +1.55816E+01 +1.17555E+01 +2.93499E+01 +4.13737E+00 +3.60385E+01
 -5.79475E+00 +3.35955E+01 -1.59260E+01 +2.25749E+01 -2.37867E+01 +5.95115E+00 -2.71325E+01 -1.17638E+01
 -2.45777E+01 -2.58227E+01 -1.61059E+01 -3.25720E+01 -3.27570E+00 -3.04229E+01 +1.09966E+01 -2.02052E+01
 +2.30811E+01 -4.83486E+00 +2.95728E+01 +1.15696E+01 +2.82787E+01 +2.48383E+01 +1.89582E+01 +3.18338E+01
 +3.56460E+00 +3.11769E+01 -1.41342E+01 +2.34543E+01 -2.94978E+01 +1.09062E+01 -3.82780E+01 -3.26638E+00
 -3.78491E+01 -1.57520E+01 -2.80327E+01 -2.39028E+01 -1.12489E+01 -2.62575E+01 +8.08330E+00 -2.27295E+01
 +2.47470E+01 -1.44778E+01 +3.41929E+01 -3.54221E+00 +3.38413E+01 +7.63708E+00 +2.38336E+01 +1.67110E+01
 +7.00294E+00 +2.18436E+01 -1.19329E+01 +2.20193E+01 -2.77207E+01 +1.72119E+01 -3.60649E+01 +8.40182E+00
 -3.48275E+01 -2.57226E+00 -2.45869E+01 -1.33276E+01 -8.40666E+00 -2.13964E+01 +9.09971E+00 -2.47665E+01
 +2.31157E+01 -2.23954E+01 +2.99765E+01 -1.45649E+01 +2.81418E+01 -2.94900E+00 +1.85236E+01 +9.67638E+00
 +4.10909E+00 +2.00592E+01 -1.09739E+01 +2.53057E+01 -2.26516E+01 +2.37073E+01 -2.80037E+01 +1.53171E+01
 -2.59685E+01 +2.07520E+00 -1.74901E+01 -1.26022E+01 -5.11595E+00 -2.46966E+01 +7.79470E+00 -3.07025E+01
 +1.79983E+01 -2.86678E+01 +2.31711E+01 -1.88399E+01 +2.23955E+01 -3.70069E+00 +1.62450E+01 +1.26572E+01
 +6.50252E+00 +2.56556E+01 -4.36763E+00 +3.15438E+01 -1.38323E+01 +2.85102E+01 -1.98382E+01 +1.72563E+01
 -2.11943E+01 +8.43883E-01 -1.77426E+01 -1.61525E+01 -1.03240E+01 -2.89482E+01 -5.74596E-01 -3.39247E+01
 +9.39885E+00 -2.96723E+01 +1.74172E+01 -1.73908E+01 +2.16498E+01 -5.32585E-01 +2.10016E+01 +1.62017E+01
 +1.53955E+01 +2.82126E+01 +5.87881E+00 +3.22972E+01 -5.50642E+00 +2.75170E+01 -1.61062E+01 +1.53978E+01
 -2.32423E+01 -5.72464E-01 -2.48885E+01 -1.59786E+01 -2.02634E+01 -2.67280E+01 -1.01616E+01 -3.01515E+01
 +3.10908E+00 -2.56539E+01 +1.62209E+01 -1.47605E+01 +2.56558E+01 -5.85527E-01 +2.86678E+01 +1.30885E+01
 +2.41066E+01 +2.28401E+01 +1.28472E+01 +2.64606E+01 -2.33436E+00 +2.34196E+01 -1.74421E+01 +1.48593E+01
 -2.83350E+01 +3.17219E+00 -3.18985E+01 -8.68462E+00 -2.69712E+01 -1.79366E+01 -1.47402E+01 -2.26129E+01
 +1.53154E+00 -2.19147E+01 +1.73885E+01 -1.62862E+01 +2.84321E+01 -7.21561E+00 +3.15760E+01 +3.15176E+00
 +2.59375E+01 +1.24908E+01 +1.30991E+01 +1.87683E+01 -3.34140E+00 +2.06350E+01 -1.88004E+01 +1.76832E+01
 -2.90168E+01 +1.05343E+01 -3.12546E+01 +7.39180E-01 -2.50511E+01 -9.50925E+00 -1.23034E+01 -1.78184E+01
 +3.31989E+00 -2.21251E+01 +1.74533E+01 -2.12075E+01 +2.62733E+01 -1.50529E+01 +2.75424E+01 -4.96753E+00
 +2.11683E+01 +6.64236E+00 +9.14315E+00 +1.68041E+01 -5.09085E+00 +2.27235E+01 -1.76419E+01 +2.25570E+01
 -2.52366E+01 +1.59936E+01 -2.60585E+01 +4.45904E+00 -2.01453E+01 -9.15688E+00 -9.27045E+00 -2.12114E+01
 +3.61803E+00 -2.82893E+01 +1.52182E+01 -2.81840E+01 +2.27193E+01 -2.05921E+01 +2.44560E+01 -7.29731E+00
 +2.02305E+01 +8.23820E+00 +1.12595E+01 +2.17865E+01 -1.99821E-01 +2.95247E+01 -1.14233E+01 +2.91321E+01
 -1.98465E+01 +2.04898E+01 -2.36081E+01 +5.76723E+00 -2.19104E+01 -1.11419E+01 -1.51482E+01 -2.56851E+01
 -4.79934E+00 -3.39143E+01 +6.88895E+00 -3.35856E+01 +1.73599E+01 -2.47796E+01 +2.42736E+01 -9.86770E+00
 +2.60085E+01 +7.16212E+00 +2.20409E+01 +2.18180E+01 +1.31168E+01 +3.03342E+01 +1.15432E+00 +3.06702E+01
 -1.11286E+01 +2.30058E+01 -2.08096E+01 +9.61306E+00 -2.54583E+01 -5.83426E+00 -2.37689E+01 -1.92975E+01
 -1.59586E+01 -2.74546E+01 -3.80016E+00 -2.85298E+01 +9.75315E+00 -2.26617E+01 +2.12847E+01 -1.17443E+01
 +2.78011E+01 +1.18048E+00 +2.75533E+01 +1.27811E+01 +2.05555E+01 +2.03018E+01 +8.63789E+00 +2.22091E+01
 -5.00721E+00 +1.84754E+01 -1.66789E+01 +1.04622E+01 -2.31912E+01 +4.74127E-01 -2.27764E+01 -8.87588E+00
 -1.56033E+01 -1.53157E+01 -3.74941E+00 -1.74263E+01 +9.37738E+00 -1.49137E+01 +2.00073E+01 -8.60529E+00
 +2.50913E+01 -1.97313E-01 +2.31822E+01 +8.17244E+00 +1.48545E+01 +1.44266E+01 +2.53976E+00 +1.70210E+01
 -1.01771E+01 +1.52947E+01 -1.95941E+01 +9.62989E+00 -2.29591E+01 +1.38547E+00 -1.92580E+01 -7.39047E+00
 -9.49923E+00 -1.44211E+01 +3.58075E+00 -1.77450E+01 +1.62996E+01 -1.62254E+01 +2.50678E+01 -9.89815E+00
 +2.73860E+01 -5.51040E-02 +2.25237E+01 +1.09881E+01 +1.16983E+01 +2.04130E+01 -2.27912E+00 +2.56016E+01
 -1.57777E+01 +2.48495E+01 -2.53176E+01 +1.78976E+01 -2.84713E+01 +6.11583E+00 -2.44618E+01 -7.74179E+00
 -1.43179E+01 -2.01797E+01 -5.68094E-01 -2.78534E+01 +1.34239E+01 -2.84808E+01 +2.43002E+01 -2.15183E+01
 +2.95095E+01 -8.39933E+00 +2.78817E+01 +7.75716E+00 +1.98544E+01 +2.29110E+01 +7.32193E+00 +3.31470E+01
 -6.83716E+00 +3.57220E+01 -1.94321E+01 +2.98231E+01 -2.76753E+01 +1.68210E+01 -2.97877E+01 -6.22278E-02
 -2.53711E+01 -1.65865E+01 -1.54778E+01 -2.86048E+01 -2.36820E+00 -3.31484E+01 +1.09901E+01 -2.91936E+01
 +2.15783E+01 -1.79021E+01 +2.69997E+01 -2.27960E+00 +2.60258E+01 +1.36450E+01 +1.88916E+01 +2.58887E+01
 +7.26245E+00 +3.15387E+01 -6.13164E+00 +2.94610E+01 -1.81255E+01 +2.05177E+01 -2.58721E+01 +7.25723E+00
 -2.75416E+01 -6.81703E+00 -2.27890E+01 -1.81867E+01 -1.28624E+01 -2.42109E+01 -3.08335E-01 -2.37435E+01
 +1.16648E+01 -1.73327E+01 +2.00097E+01 -6.97930E+00 +2.26368E+01 +4.45629E+00 +1.89694E+01 +1.40242E+01
 +1.01013E+01 +1.94272E+01 -1.49472E+00 +1.95525E+01 -1.26371E+01 +1.46764E+01 -2.03035E+01 +6.31409E+00
 -2.24592E+01 -3.22444E+00 -1.86142E+01 -1.14477E+01 -9.95041E+00 -1.63076E+01 +1.01812E+00 -1.66877E+01
 +1.11578E+01 -1.26464E+01 +1.76002E+01 -5.36711E+00 +1.85484E+01 +3.16127E+00 +1.37774E+01 +1.06536E+01
 +4.68843E+00 +1.51039E+01 -6.09521E+00 +1.52910E+01 -1.54743E+01 +1.10935E+01 -2.07479E+01 +3.53646E+00
 -2.03701E+01 -5.44774E+00 -1.43786E+01 -1.34937E+01 -4.37976E+00 -1.84029E+01 +6.89977E+00 -1.87240E+01
 +1.63656E+01 -1.41636E+01 +2.14016E+01 -5.71509E+00 +2.05789E+01 +4.54470E+00 +1.40380E+01 +1.39541E+01
 +3.44829E+00 +1.99461E+01 -8.43668E+00 +2.07366E+01 -1.85041E+01 +1.58397E+01 -2.40925E+01 +6.26037E+00
 -2.36771E+01 -5.70237E+00 -1.72585E+01 -1.70089E+01 -6.36019E+00 -2.46558E+01 +6.35559E+00 -2.64761E+01
 +1.77525E+01 -2.17475E+01 +2.49969E+01 -1.14371E+01 +2.62555E+01 +1.99639E+00 +2.11457E+01 +1.52031E+01
 +1.08338E+01 +2.47960E+01 -2.24101E+00 +2.82353E+01 -1.49485E+01 +2.45083E+01 -2.42160E+01 +1.44201E+01
 -2.77669E+01 +4.12844E-01 -2.46738E+01 -1.40435E+01 -1.55944E+01 -2.53313E+01 -2.62988E+00 -3.06084E+01
 +1.11636E+01 -2.85312E+01 +2.24993E+01 -1.95947E+01 +2.86492E+01 -5.99995E+00 +2.81091E+01 +8.90807E+00
 +2.09758E+01 +2.14872E+01 +8.93856E+00 +2.87077E+01 -5.11871E+00 +2.88950E+01 -1.78139E+01 +2.21211E+01
 -2.60934E+01 +1.01555E+01 -2.79845E+01 -4.00339E+00 -2.30844E+01 -1.68891E+01 -1.26592E+01 -2.54247E+01
 +6.75132E-01 -2.76642E+01 +1.36115E+01 -2.32387E+01 +2.29839E+01 -1.34061E+01 +2.65601E+01 -7.01875E-01
 +2.35920E+01 +1.17119E+01 +1.49828E+01 +2.08353E+01 +3.03010E+00 +2.45599E+01 -9.18361E+00 +2.21635E+01
 -1.85928E+01 +1.44527E+01 -2.29315E+01 +3.52642E+00 -2.12941E+01 -7.77620E+00 -1.43327E+01 -1.66017E+01
 -4.04713E+00 -2.08002E+01 +6.76951E+00 -1.94549E+01 +1.52771E+01 -1.30937E+01 +1.93283E+01 -3.52916E+00
 +1.80083E+01 +6.62904E+00 +1.18414E+01 +1.46635E+01 +2.61612E+00 +1.84625E+01 -7.11387E+00 +1.70716E+01
 -1.47177E+01 +1.09387E+01 -1.81806E+01 +1.78783E+00 -1.66237E+01 -7.84729E+00 -1.05196E+01 -1.53063E+01
 -1.55329E+00 -1.85217E+01 +7.83059E+00 -1.65811E+01 +1.50740E+01 -9.98118E+00 +1.81783E+01 -5.01228E-01
 +1.62314E+01 +9.27010E+00 +9.65449E+00 +1.66307E+01 +1.06499E-01 +1.94962E+01 -9.93289E+00 +1.69696E+01
 -1.77964E+01 +9.59542E+00 -2.13208E+01 -7.71511E-01 -1.94206E+01 -1.14479E+01 -1.23966E+01 -1.96263E+01
 -1.89335E+00 -2.31150E+01 +9.49052E+00 -2.09173E+01 +1.88482E+01 -1.34988E+01 +2.37079E+01 -2.67416E+00
 +2.26841E+01 +8.85433E+00 +1.58661E+01 +1.81845E+01 +4.83568E+00 +2.29499E+01 -7.70144E+00 +2.19155E+01
 -1.85857E+01 +1.52847E+01 -2.50084E+01 +4.64531E+00 -2.52438E+01 -7.42749E+00 -1.91163E+01 -1.80074E+01
 -8.07185E+00 -2.45330E+01 +5.17080E+00 -2.54287E+01 +1.73067E+01 -2.04809E+01 +2.52921E+01 -1.08835E+01
 +2.71317E+01 +1.05533E+00 +2.23968E+01 +1.24712E+01 +1.23358E+01 +2.06320E+01 -4.52874E-01 +2.35940E+01
 -1.26996E+01 +2.06689E+01 -2.13131E+01 +1.25912E+01 -2.41753E+01 +1.34508E+00 -2.06725E+01 -1.03116E+01
 -1.18255E+01 -1.95152E+01 +6.48975E-03 -2.39974E+01 +1.17645E+01 -2.26497E+01 +2.04932E+01 -1.58092E+01
 +2.40950E+01 -5.18940E+00 +2.18414E+01 +6.53584E+00 +1.45136E+01 +1.63998E+01 +4.15257E+00 +2.18975E+01
 -6.50479E+00 +2.16362E+01 -1.47445E+01 +1.57110E+01 -1.85603E+01 +5.69785E+00 -1.71327E+01 -5.74225E+00
 -1.09899E+01 -1.55550E+01 -1.82736E+00 -2.11013E+01 +7.95517E+00 -2.08687E+01 +1.58719E+01 -1.48900E+01
 +1.99666E+01 -4.74977E+00 +1.92777E+01 +6.83109E+00 +1.40487E+01 +1.67268E+01 +5.64266E+00 +2.22566E+01
 -3.80812E+00 +2.19202E+01 -1.19292E+01 +1.58151E+01 -1.66813E+01 +5.61551E+00 -1.68544E+01 -5.88206E+00
