 Created: 19-Jan-2021
 $NMID
 ID='D:\BASISSIMULATI'
 FMTDAT='(8E13.5)'
 VOLUME=   1.00000E+00
 TRAMP=   1.00000E+00
 $END
 +9.65214E+01 +6.74212E+00 +8.47436E+01 +4.42922E+01 +5.72768E+01 +7.21031E+01 +2.05340E+01 +8.40815E+01
 -1.70134E+01 +7.78847E+01 -4.68572E+01 +5.54197E+01 -6.24553E+01 +2.23232E+01 -6.07322E+01 -1.34378E+01
 -4.27262E+01 -4.34936E+01 -1.32419E+01 -6.10552E+01 +2.03857E+01 -6.24729E+01 +5.01005E+01 -4.80071E+01
 +6.90563E+01 -2.16428E+01 +7.32017E+01 +9.98157E+00 +6.21452E+01 +3.92478E+01 +3.91134E+01 +5.94129E+01
 +1.00387E+01 +6.61895E+01 -1.79743E+01 +5.86778E+01 -3.84100E+01 +3.94433E+01 -4.68948E+01 +1.37498E+01
 -4.21694E+01 -1.18363E+01 -2.62623E+01 -3.11063E+01 -3.85049E+00 -3.97190E+01 +1.90083E+01 -3.61920E+01
 +3.64354E+01 -2.21503E+01 +4.41897E+01 -1.79482E+00 +4.06649E+01 +1.92502E+01 +2.71956E+01 +3.54035E+01
 +7.61731E+00 +4.25332E+01 -1.27856E+01 +3.89538E+01 -2.86624E+01 +2.57786E+01 -3.59552E+01 +6.55930E+00
 -3.28947E+01 -1.36782E+01 -2.03957E+01 -2.97428E+01 -1.76770E+00 -3.75965E+01 +1.81685E+01 -3.53543E+01
 +3.43247E+01 -2.37215E+01 +4.26309E+01 -5.77525E+00 +4.10428E+01 +1.38433E+01 +3.00265E+01 +3.01113E+01
 +1.24117E+01 +3.88819E+01 -7.33836E+00 +3.79047E+01 -2.42488E+01 +2.73624E+01 -3.40640E+01 +9.80040E+00
 -3.42834E+01 -1.05215E+01 -2.47541E+01 -2.86866E+01 -7.68166E+00 -4.03227E+01 +1.29302E+01 -4.26530E+01
 +3.22660E+01 -3.51443E+01 +4.58647E+01 -1.96040E+01 +5.06794E+01 +2.86977E-01 +4.57800E+01 +1.98817E+01
 +3.25360E+01 +3.46882E+01 +1.42471E+01 +4.14313E+01 -4.67759E+00 +3.88017E+01 -1.97866E+01 +2.77224E+01
 -2.76380E+01 +1.10776E+01 -2.65872E+01 -7.01613E+00 -1.71281E+01 -2.22136E+01 -1.71938E+00 -3.09725E+01
 +1.58513E+01 -3.13670E+01 +3.13999E+01 -2.34960E+01 +4.13473E+01 -9.39876E+00 +4.35465E+01 +7.48728E+00
 +3.77462E+01 +2.31853E+01 +2.55875E+01 +3.41404E+01 +1.01510E+01 +3.80500E+01 -4.82766E+00 +3.43697E+01
 -1.58723E+01 +2.43818E+01 -2.05907E+01 +1.08232E+01 -1.82111E+01 -2.82444E+00 -9.71100E+00 -1.32017E+01
 +2.48206E+00 -1.78809E+01 +1.51310E+01 -1.59239E+01 +2.50073E+01 -8.05954E+00 +2.96811E+01 +3.55036E+00
 +2.80921E+01 +1.58895E+01 +2.07669E+01 +2.58571E+01 +9.63960E+00 +3.10368E+01 -2.46926E+00 +3.02741E+01
 -1.25793E+01 +2.39260E+01 -1.82959E+01 +1.37287E+01 -1.83913E+01 +2.32599E+00 -1.30791E+01 -7.41559E+00
 -3.92299E+00 -1.31313E+01 +6.59094E+00 -1.35386E+01 +1.57027E+01 -8.73354E+00 +2.10813E+01 -1.33251E-01
 +2.14046E+01 +9.91251E+00 +1.66722E+01 +1.87371E+01 +8.17848E+00 +2.40407E+01 -1.84232E+00 +2.44675E+01
 -1.08021E+01 +1.99339E+01 -1.64248E+01 +1.16269E+01 -1.73220E+01 +1.67993E+00 -1.33329E+01 -7.38707E+00
 -5.54638E+00 -1.33179E+01 +3.99651E+00 -1.46934E+01 +1.28392E+01 -1.12828E+01 +1.87455E+01 -4.08601E+00
 +2.02716E+01 +4.93910E+00 +1.71272E+01 +1.33932E+01 +1.02375E+01 +1.90592E+01 +1.49076E+00 +2.04725E+01
 -6.75861E+00 +1.72934E+01 -1.23039E+01 +1.03850E+01 -1.36568E+01 +1.58208E+00 -1.04292E+01 -6.79090E+00
 -3.42888E+00 -1.25242E+01 +5.55424E+00 -1.40954E+01 +1.42142E+01 -1.10618E+01 +2.03272E+01 -4.17326E+00
 +2.23264E+01 +4.82390E+00 +1.97067E+01 +1.36388E+01 +1.31543E+01 +2.00283E+01 +4.36943E+00 +2.23760E+01
 -4.37277E+00 +2.01091E+01 -1.08084E+01 +1.38464E+01 -1.32685E+01 +5.23973E+00 -1.11095E+01 -3.45159E+00
 -4.88021E+00 -9.94137E+00 +3.81862E+00 -1.25051E+01 +1.27442E+01 -1.04243E+01 +1.95872E+01 -4.17211E+00
 +2.25652E+01 +4.70621E+00 +2.08803E+01 +1.39892E+01 +1.49249E+01 +2.13482E+01 +6.18161E+00 +2.49450E+01
 -3.15697E+00 +2.39033E+01 -1.07509E+01 +1.85336E+01 -1.47140E+01 +1.02532E+01 -1.40991E+01 +1.22131E+00
 -9.14171E+00 -6.21701E+00 -1.19934E+00 -1.01360E+01 +7.59828E+00 -9.52728E+00 +1.48995E+01 -4.56201E+00
 +1.87403E+01 +3.45026E+00 +1.80554E+01 +1.23979E+01 +1.29600E+01 +1.99127E+01 +4.72665E+00 +2.39844E+01
 -4.53762E+00 +2.34875E+01 -1.24333E+01 +1.84821E+01 -1.68910E+01 +1.02102E+01 -1.67144E+01 +7.85359E-01
 -1.19034E+01 -7.34719E+00 -3.67050E+00 -1.20426E+01 +5.85627E+00 -1.20191E+01 +1.41715E+01 -7.20599E+00
 +1.90365E+01 +1.21743E+00 +1.90649E+01 +1.11037E+01 +1.40978E+01 +1.98738E+01 +5.27088E+00 +2.51747E+01
 -5.25059E+00 +2.54897E+01 -1.48052E+01 +2.05469E+01 -2.09056E+01 +1.14169E+01 -2.18776E+01 +2.70023E-01
 -1.73042E+01 -1.01508E+01 -8.15994E+00 -1.72127E+01 +3.40470E+00 -1.90603E+01 +1.45797E+01 -1.50999E+01
 +2.25872E+01 -6.17474E+00 +2.53778E+01 +5.61737E+00 +2.21562E+01 +1.74242E+01 +1.36017E+01 +2.63358E+01
 +1.72471E+00 +3.01071E+01 -1.06104E+01 +2.77250E+01 -2.03820E+01 +1.96786E+01 -2.51559E+01 +7.85892E+00
 -2.36944E+01 -4.88933E+00 -1.62754E+01 -1.54576E+01 -4.64165E+00 -2.12362E+01 +8.41352E+00 -2.07614E+01
 +1.97229E+01 -1.40861E+01 +2.65205E+01 -2.77910E+00 +2.71234E+01 +1.04485E+01 +2.13517E+01 +2.24016E+01
 +1.05814E+01 +3.01822E+01 -2.58639E+00 +3.19019E+01 -1.49583E+01 +2.71491E+01 -2.35309E+01 +1.70952E+01
 -2.62283E+01 +4.21100E+00 -2.24142E+01 -8.33723E+00 -1.30509E+01 -1.74645E+01 -4.64613E-01 -2.09256E+01
 +1.22248E+01 -1.78681E+01 +2.18706E+01 -9.04317E+00 +2.60737E+01 +3.37833E+00 +2.37725E+01 +1.63398E+01
 +1.55046E+01 +2.66508E+01 +3.27340E+00 +3.17719E+01 -9.94532E+00 +3.04391E+01 -2.09367E+01 +2.29727E+01
 -2.70376E+01 +1.11961E+01 -2.67900E+01 -2.01553E+00 -2.02962E+01 -1.34455E+01 -9.18828E+00 -2.03272E+01
 +3.77890E+00 -2.10224E+01 +1.54107E+01 -1.54192E+01 +2.28606E+01 -4.95165E+00 +2.43288E+01 +7.76265E+00
 +1.94988E+01 +1.95744E+01 +9.60439E+00 +2.75829E+01 -2.88669E+00 +2.98489E+01 -1.48923E+01 +2.58658E+01
 -2.34837E+01 +1.66713E+01 -2.66085E+01 +4.57532E+00 -2.35910E+01 -7.42573E+00 -1.52847E+01 -1.64014E+01
 -3.84185E+00 -2.02162E+01 +7.83900E+00 -1.80537E+01 +1.68484E+01 -1.06048E+01 +2.09977E+01 +1.23448E-01
 +1.93628E+01 +1.13303E+01 +1.25041E+01 +2.01396E+01 +2.30863E+00 +2.43329E+01 -8.50488E+00 +2.29099E+01
 -1.70901E+01 +1.63358E+01 -2.12078E+01 +6.41256E+00 -1.98027E+01 -4.19328E+00 -1.32757E+01 -1.26444E+01
 -3.38003E+00 -1.66724E+01 +7.23180E+00 -1.51719E+01 +1.56972E+01 -8.49800E+00 +1.96926E+01 +1.61370E+00
 +1.80496E+01 +1.24859E+01 +1.10798E+01 +2.11884E+01 +5.19411E-01 +2.53023E+01 -1.08959E+01 +2.35647E+01
 -2.01232E+01 +1.62265E+01 -2.45983E+01 +5.02592E+00 -2.29154E+01 -7.22207E+00 -1.52261E+01 -1.73221E+01
 -3.24868E+00 -2.25103E+01 +1.01217E+01 -2.11770E+01 +2.15122E+01 -1.33153E+01 +2.79119E+01 -5.76192E-01
 +2.74419E+01 +1.40916E+01 +1.98638E+01 +2.71379E+01 +6.69181E+00 +3.52750E+01 -9.12723E+00 +3.62994E+01
 -2.38956E+01 +2.96665E+01 -3.40479E+01 +1.66707E+01 -3.70217E+01 +1.79497E-01 -3.19027E+01 -1.60210E+01
 -1.96823E+01 -2.81175E+01 -3.05929E+00 -3.31828E+01 +1.41734E+01 -2.98912E+01 +2.80129E+01 -1.88592E+01
 +3.51924E+01 -2.52594E+00 +3.39607E+01 +1.54031E+01 +2.45078E+01 +3.08177E+01 +8.93164E+00 +4.01661E+01
 -9.24763E+00 +4.12893E+01 -2.59101E+01 +3.39273E+01 -3.73004E+01 +1.97754E+01 -4.09019E+01 +2.07905E+00
 -3.60152E+01 -1.51351E+01 -2.39018E+01 -2.80067E+01 -7.46458E+00 -3.37403E+01 +9.45615E+00 -3.12421E+01
 +2.29979E+01 -2.13448E+01 +3.01819E+01 -6.57301E+00 +2.95932E+01 +9.48880E+00 +2.16746E+01 +2.30674E+01
 +8.57240E+00 +3.10984E+01 -6.42265E+00 +3.19334E+01 -1.96945E+01 +2.56899E+01 -2.81789E+01 +1.41674E+01
 -3.00833E+01 +3.58496E-01 -2.52785E+01 -1.23166E+01 -1.52728E+01 -2.08583E+01 -2.78578E+00 -2.34098E+01
 +8.96560E+00 -1.96759E+01 +1.70842E+01 -1.09445E+01 +1.97087E+01 +2.88366E-01 +1.64516E+01 +1.09864E+01
 +8.45451E+00 +1.83612E+01 -1.94415E+00 +2.05803E+01 -1.18410E+01 +1.72173E+01 -1.85320E+01 +9.33431E+00
 -2.02148E+01 -8.19044E-01 -1.64496E+01 -1.04093E+01 -8.26442E+00 -1.67682E+01 +2.12106E+00 -1.80946E+01
 +1.18793E+01 -1.39299E+01 +1.83167E+01 -5.28488E+00 +1.95835E+01 +5.61299E+00 +1.51692E+01 +1.58896E+01
 +6.05642E+00 +2.27659E+01 -5.50831E+00 +2.42836E+01 -1.65716E+01 +1.98290E+01 -2.42193E+01 +1.03212E+01
 -2.63252E+01 -1.98838E+00 -2.21118E+01 -1.40577E+01 -1.23813E+01 -2.28056E+01 +6.47154E-01 -2.58870E+01
 +1.38580E+01 -2.22991E+01 +2.39930E+01 -1.26636E+01 +2.84547E+01 +8.88635E-01 +2.59610E+01 +1.52072E+01
 +1.68878E+01 +2.68722E+01 +3.21161E+00 +3.30223E+01 -1.19402E+01 +3.20600E+01 -2.50249E+01 +2.40597E+01
 -3.29318E+01 +1.07759E+01 -3.37344E+01 -4.75356E+00 -2.71669E+01 -1.89197E+01 -1.47054E+01 -2.83980E+01
 +7.68550E-01 -3.09435E+01 +1.56434E+01 -2.59332E+01 +2.64318E+01 -1.45233E+01 +3.05999E+01 +6.18154E-01
 +2.71706E+01 +1.59407E+01 +1.69574E+01 +2.78531E+01 +2.37034E+00 +3.35757E+01 -1.31592E+01 +3.17985E+01
 -2.59966E+01 +2.29873E+01 -3.31691E+01 +9.26494E+00 -3.30687E+01 -6.10364E+00 -2.58265E+01 -1.94975E+01
 -1.32661E+01 -2.78069E+01 +1.54711E+00 -2.91718E+01 +1.50539E+01 -2.34153E+01 +2.40608E+01 -1.20675E+01
 +2.65051E+01 +2.02293E+00 +2.19390E+01 +1.53925E+01 +1.16173E+01 +2.48092E+01 -1.82965E+00 +2.80540E+01
 -1.50542E+01 +2.44477E+01 -2.48189E+01 +1.49961E+01 -2.87878E+01 +2.12090E+00 -2.60882E+01 -1.09544E+01
 -1.75060E+01 -2.10093E+01 -5.26981E+00 -2.56219E+01 +7.52003E+00 -2.37590E+01 +1.76724E+01 -1.60152E+01
 +2.27021E+01 -4.44568E+00 +2.14425E+01 +7.96441E+00 +1.43234E+01 +1.80577E+01 +3.24744E+00 +2.32994E+01
 -8.90329E+00 +2.24093E+01 -1.90022E+01 +1.56738E+01 -2.44702E+01 +4.86186E+00 -2.39251E+01 -7.23362E+00
 -1.75243E+01 -1.75095E+01 -6.91708E+00 -2.33419E+01 +5.18093E+00 -2.32505E+01 +1.56822E+01 -1.72708E+01
 +2.19138E+01 -6.94095E+00 +2.22966E+01 +5.09325E+00 +1.67460E+01 +1.57534E+01 +6.69150E+00 +2.23125E+01
 -5.28705E+00 +2.30895E+01 -1.61164E+01 +1.78766E+01 -2.30111E+01 +7.99356E+00 -2.41825E+01 -4.04650E+00
 -1.92942E+01 -1.51742E+01 -9.54980E+00 -2.25424E+01 +2.60922E+00 -2.42487E+01 +1.41204E+01 -1.98193E+01
 +2.20739E+01 -1.03321E+01 +2.44488E+01 +1.85340E+00 +2.06249E+01 +1.36891E+01 +1.15416E+01 +2.22065E+01
 -5.36948E-01 +2.52642E+01 -1.25895E+01 +2.20879E+01 -2.15967E+01 +1.34656E+01 -2.52989E+01 +1.55118E+00
 -2.27625E+01 -1.06763E+01 -1.46133E+01 -2.01585E+01 -2.87834E+00 -2.45227E+01 +9.52195E+00 -2.26742E+01
 +1.95047E+01 -1.50663E+01 +2.45934E+01 -3.58447E+00 +2.35330E+01 +8.92826E+00 +1.65977E+01 +1.93819E+01
