 Created: 19-Jan-2021
 $NMID
 ID='D:\BASISSIMULATI'
 FMTDAT='(8E13.5)'
 VOLUME=   1.00000E+00
 TRAMP=   1.00000E+00
 $END
 +6.12732E+01 +9.61740E+00 +5.85541E+01 -5.12825E+00 +4.46390E+01 -1.69576E+01 +2.28196E+01 -2.16937E+01
 -1.69390E+00 -1.72570E+01 -2.31371E+01 -4.27525E+00 -3.66931E+01 +1.40610E+01 -3.97270E+01 +3.28565E+01
 -3.24249E+01 +4.68496E+01 -1.76703E+01 +5.18656E+01 -1.99606E-01 +4.59867E+01 +1.47293E+01 +3.01188E+01
 +2.27881E+01 +7.79839E+00 +2.17536E+01 -1.57109E+01 +1.20902E+01 -3.47893E+01 -3.21548E+00 -4.49313E+01
 -1.95178E+01 -4.39185E+01 -3.18303E+01 -3.23830E+01 -3.62369E+01 -1.36116E+01 -3.10061E+01 +7.35263E+00
 -1.71029E+01 +2.50641E+01 +2.04116E+00 +3.51182E+01 +2.14390E+01 +3.52950E+01 +3.58902E+01 +2.60983E+01
 +4.13899E+01 +1.05521E+01 +3.62219E+01 -6.68263E+00 +2.14392E+01 -2.06228E+01 +6.01633E-01 -2.73483E+01
 -2.11559E+01 -2.50772E+01 -3.84738E+01 -1.46419E+01 -4.71715E+01 +7.61555E-01 -4.53280E+01 +1.64754E+01
 -3.37518E+01 +2.76847E+01 -1.57198E+01 +3.07639E+01 +3.93790E+00 +2.42973E+01 +2.01538E+01 +9.49476E+00
 +2.89812E+01 -1.01091E+01 +2.86270E+01 -2.95897E+01 +1.98853E+01 -4.39461E+01 +5.86081E+00 -4.94372E+01
 -8.93408E+00 -4.45782E+01 -1.98549E+01 -3.05324E+01 -2.34230E+01 -1.07932E+01 -1.82896E+01 +9.75124E+00
 -5.60690E+00 +2.61166E+01 +1.12914E+01 +3.45320E+01 +2.78088E+01 +3.34092E+01 +3.93490E+01 +2.37148E+01
 +4.25772E+01 +8.65302E+00 +3.63367E+01 -7.24708E+00 +2.19734E+01 -1.93857E+01 +2.98233E+00 -2.43445E+01
 -1.59233E+01 -2.07986E+01 -3.00674E+01 -9.84395E+00 -3.60482E+01 +5.33903E+00 -3.26269E+01 +2.03890E+01
 -2.10291E+01 +3.09799E+01 -4.58590E+00 +3.40173E+01 +1.21834E+01 +2.84873E+01 +2.47933E+01 +1.57320E+01
 +2.99869E+01 -9.20615E-01 +2.65829E+01 -1.70647E+01 +1.57505E+01 -2.84135E+01 +6.46867E-01 -3.19574E+01
 -1.44764E+01 -2.67701E+01 -2.54495E+01 -1.42480E+01 -2.93197E+01 +2.27738E+00 -2.51406E+01 +1.84429E+01
 -1.42038E+01 +3.00259E+01 +3.40950E-01 +3.40658E+01 +1.43680E+01 +2.96340E+01 +2.39144E+01 +1.80503E+01
 +2.62633E+01 +2.49335E+00 +2.06782E+01 -1.28812E+01 +8.59299E+00 -2.40707E+01 -6.78804E+00 -2.82966E+01
 -2.13660E+01 -2.47276E+01 -3.12571E+01 -1.46662E+01 -3.38349E+01 -1.15533E+00 -2.84224E+01 +1.18800E+01
 -1.64543E+01 +2.07168E+01 -1.06950E+00 +2.28476E+01 +1.37478E+01 +1.76503E+01 +2.42420E+01 +6.53648E+00
 +2.78836E+01 -7.45376E+00 +2.40214E+01 -2.04947E+01 +1.40214E+01 -2.90214E+01 +8.59706E-01 -3.06936E+01
 -1.17097E+01 -2.50185E+01 -2.01838E+01 -1.34669E+01 -2.22539E+01 +9.40367E-01 -1.74110E+01 +1.44595E+01
 -7.05475E+00 +2.36340E+01 +5.91626E+00 +2.62144E+01 +1.79137E+01 +2.17414E+01 +2.56442E+01 +1.16387E+01
 +2.70002E+01 -1.20048E+00 +2.16179E+01 -1.32151E+01 +1.09561E+01 -2.11450E+01 -2.11935E+00 -2.29015E+01
 -1.41243E+01 -1.81085E+01 -2.19026E+01 -8.17272E+00 -2.34701E+01 +4.12806E+00 -1.85319E+01 +1.54201E+01
 -8.53706E+00 +2.26569E+01 +3.73602E+00 +2.39385E+01 +1.49459E+01 +1.90088E+01 +2.20934E+01 +9.29972E+00
 +2.33199E+01 -2.48139E+00 +1.83865E+01 -1.31026E+01 +8.70877E+00 -1.96893E+01 -3.05378E+00 -2.04961E+01
 -1.37362E+01 -1.53633E+01 -2.05293E+01 -5.73777E+00 -2.17304E+01 +5.73824E+00 -1.71818E+01 +1.59553E+01
 -8.28446E+00 +2.21789E+01 +2.40870E+00 +2.27782E+01 +1.19050E+01 +1.76455E+01 +1.75906E+01 +8.20088E+00
 +1.79334E+01 -3.01541E+00 +1.28825E+01 -1.30431E+01 +3.86046E+00 -1.93032E+01 -6.64196E+00 -2.02816E+01
 -1.57541E+01 -1.59141E+01 -2.10053E+01 -7.57346E+00 -2.09859E+01 +2.33098E+00 -1.57118E+01 +1.10251E+01
 -6.60009E+00 +1.61286E+01 +3.93197E+00 +1.62927E+01 +1.31297E+01 +1.15480E+01 +1.86435E+01 +3.27260E+00
 +1.91492E+01 -6.20421E+00 +1.46822E+01 -1.42491E+01 +6.59945E+00 -1.86445E+01 -2.81234E+00 -1.81843E+01
 -1.09714E+01 -1.29879E+01 -1.57027E+01 -4.45065E+00 -1.58156E+01 +5.14816E+00 -1.14055E+01 +1.32704E+01
 -3.80084E+00 +1.78037E+01 +4.82188E+00 +1.76206E+01 +1.20459E+01 +1.28643E+01 +1.58769E+01 +4.88725E+00
 +1.52792E+01 -4.13267E+00 +1.04439E+01 -1.17915E+01 +2.71984E+00 -1.61072E+01 -5.76795E+00 -1.60422E+01
 -1.27044E+01 -1.17602E+01 -1.62131E+01 -4.55587E+00 -1.53575E+01 +3.52105E+00 -1.03807E+01 +1.02369E+01
 -2.62432E+00 +1.37845E+01 +5.84753E+00 +1.32659E+01 +1.28122E+01 +8.92010E+00 +1.64855E+01 +2.03740E+00
 +1.59904E+01 -5.41001E+00 +1.15732E+01 -1.13169E+01 +4.51392E+00 -1.40214E+01 -3.23993E+00 -1.27528E+01
 -9.61168E+00 -7.83073E+00 -1.29580E+01 -5.66382E-01 -1.25029E+01 +7.10306E+00 -8.52804E+00 +1.31441E+01
 -2.27277E+00 +1.59747E+01 +4.42405E+00 +1.48824E+01 +9.63879E+00 +1.02016E+01 +1.18919E+01 +3.20675E+00
 +1.05474E+01 -4.24570E+00 +5.97554E+00 -1.02247E+01 -5.59580E-01 -1.32425E+01 -7.25549E+00 -1.26433E+01
 -1.22678E+01 -8.75909E+00 -1.42117E+01 -2.79567E+00 -1.25331E+01 +3.51543E+00 -7.64984E+00 +8.40092E+00
 -8.28826E-01 +1.05315E+01 +6.16342E+00 +9.37749E+00 +1.15398E+01 +5.34009E+00 +1.39690E+01 -3.74317E-01
 +1.29216E+01 -6.09797E+00 +8.79374E+00 -1.01673E+01 +2.77982E+00 -1.13814E+01 -3.46755E+00 -9.32908E+00
 -8.29400E+00 -4.49721E+00 -1.04907E+01 +1.86658E+00 -9.61115E+00 +8.09571E+00 -6.07413E+00 +1.25563E+01
 -1.02777E+00 +1.40847E+01 +3.98329E+00 +1.22929E+01 +7.45433E+00 +7.66140E+00 +8.33931E+00 +1.39752E+00
 +6.33803E+00 -4.89881E+00 +1.97474E+00 -9.66818E+00 -3.55063E+00 -1.18053E+01 -8.69549E+00 -1.09413E+01
 -1.19989E+01 -7.52138E+00 -1.24805E+01 -2.65945E+00 -9.90675E+00 +2.18540E+00 -4.85218E+00 +5.61999E+00
 +1.45715E+00 +6.70160E+00 +7.47393E+00 +5.19129E+00 +1.17420E+01 +1.60846E+00 +1.32786E+01 -2.92535E+00
 +1.18236E+01 -7.00793E+00 +7.89139E+00 -9.35283E+00 +2.61364E+00 -9.15105E+00 -2.57949E+00 -6.29923E+00
 -6.35155E+00 -1.43269E+00 -7.81696E+00 +4.24395E+00 -6.76702E+00 +9.28105E+00 -3.70533E+00 +1.23737E+01
 +3.13342E-01 +1.27106E+01 +3.99342E+00 +1.01881E+01 +6.17018E+00 +5.43310E+00 +6.13956E+00 -3.69239E-01
 +3.85540E+00 -5.79447E+00 -5.88223E-02 -9.55589E+00 -4.48539E+00 -1.08378E+01 -8.12519E+00 -9.49569E+00
 -9.86082E+00 -6.07208E+00 -9.07008E+00 -1.62674E+00 -5.80400E+00 +2.56847E+00 -7.81409E-01 +5.38465E+00
 +4.79761E+00 +6.14278E+00 +9.56792E+00 +4.78913E+00 +1.23587E+01 +1.89312E+00 +1.24991E+01 -1.52897E+00
 +9.98766E+00 -4.31341E+00 +5.48316E+00 -5.48689E+00 +1.19550E-01 -4.54886E+00 -4.80064E+00 -1.62016E+00
 -8.15125E+00 +2.58249E+00 -9.27162E+00 +6.93870E+00 -8.12316E+00 +1.02299E+01 -5.27346E+00 +1.14737E+01
 -1.71592E+00 +1.01964E+01 +1.42252E+00 +6.56852E+00 +3.20319E+00 +1.36704E+00 +3.13762E+00 -4.22388E+00
 +1.31808E+00 -8.92043E+00 -1.61783E+00 -1.16708E+01 -4.67677E+00 -1.19223E+01 -6.79943E+00 -9.75234E+00
 -7.16898E+00 -5.83187E+00 -5.45229E+00 -1.23188E+00 -1.90695E+00 +2.87086E+00 +2.67561E+00 +5.50820E+00
 +7.17546E+00 +6.16967E+00 +1.04417E+01 +4.92000E+00 +1.16016E+01 +2.35574E+00 +1.02961E+01 -5.83742E-01
 +6.77999E+00 -2.89604E+00 +1.85856E+00 -3.80728E+00 -3.32114E+00 -2.99417E+00 -7.56683E+00 -6.75365E-01
 -9.94606E+00 +2.45207E+00 -1.00180E+01 +5.41262E+00 -7.93128E+00 +7.23222E+00 -4.36410E+00 +7.22005E+00
 -3.25758E-01 +5.17389E+00 +3.12429E+00 +1.45186E+00 +5.16193E+00 -3.10954E+00 +5.41101E+00 -7.40938E+00
 +4.02655E+00 -1.03703E+01 +1.62850E+00 -1.12225E+01 -8.92926E-01 -9.70768E+00 -2.64387E+00 -6.14804E+00
 -2.99029E+00 -1.36240E+00 -1.74449E+00 +3.54656E+00 +7.77004E-01 +7.47641E+00 +3.83963E+00 +9.60399E+00
 +6.49696E+00 +9.58520E+00 +7.85923E+00 +7.62387E+00 +7.34980E+00 +4.39408E+00 +4.87854E+00 +8.40044E-01
 +8.83950E-01 -2.08952E+00 -3.76833E+00 -3.69908E+00 -8.00346E+00 -3.72572E+00 -1.08136E+01 -2.39295E+00
 -1.15179E+01 -3.26570E-01 -9.93763E+00 +1.64169E+00 -6.43957E+00 +2.72595E+00 -1.83743E+00 +2.42251E+00
 +2.82062E+00 +6.64197E-01 +6.52098E+00 -2.15011E+00 +8.53792E+00 -5.25922E+00 +8.60420E+00 -7.74786E+00
 +6.95568E+00 -8.80207E+00 +4.24115E+00 -7.94147E+00 +1.32506E+00 -5.16427E+00 -9.60527E-01 -9.65163E-01
 -2.04579E+00 +3.77970E+00 -1.77209E+00 +8.03005E+00 -4.20628E-01 +1.08433E+01 +1.38499E+00 +1.16114E+01
 +2.87291E+00 +1.02097E+01 +3.35842E+00 +7.02041E+00 +2.45392E+00 +2.82507E+00 +1.94557E-01 -1.40252E+00
 -2.95586E+00 -4.74734E+00 -6.22085E+00 -6.58010E+00 -8.71755E+00 -6.70112E+00 -9.69727E+00 -5.36472E+00
 -8.75447E+00 -3.18126E+00 -5.94726E+00 -9.26866E-01 -1.79656E+00 +6.84781E-01 +2.83654E+00 +1.20457E+00
 +6.96245E+00 +5.68781E-01 +9.70778E+00 -8.93521E-01 +1.05285E+01 -2.56687E+00 +9.33626E+00 -3.73821E+00
 +6.50583E+00 -3.81446E+00 +2.76459E+00 -2.50740E+00 -1.00480E+00 +6.60125E-02 -3.99397E+00 +3.39643E+00
 -5.66913E+00 +6.70526E+00 -5.88971E+00 +9.14529E+00 -4.91609E+00 +1.00245E+01 -3.30787E+00 +8.99320E+00
 -1.74385E+00 +6.14332E+00 -8.15624E-01 +1.99449E+00 -8.52742E-01 -2.63052E+00 -1.82782E+00 -6.80678E+00
 -3.36705E+00 -9.73194E+00 -4.86196E+00 -1.09155E+01 -5.65051E+00 -1.02844E+01 -5.21625E+00 -8.17902E+00
 -3.35002E+00 -5.24357E+00 -2.28671E-01 -2.24365E+00 +3.61140E+00 +1.39587E-01 +7.39959E+00 +1.48199E+00
 +1.03222E+01 +1.71089E+00 +1.17280E+01 +1.09827E+00 +1.12943E+01 +1.57835E-01 +9.10881E+00 -5.22854E-01
 +5.64696E+00 -4.66741E-01 +1.65143E+00 +5.44000E-01 -2.05364E+00 +2.39625E+00 -4.76398E+00 +4.67083E+00
 -6.05948E+00 +6.75658E+00 -5.88966E+00 +8.02164E+00 -4.56021E+00 +7.99444E+00 -2.62768E+00 +6.50420E+00
 -7.33320E-01 +3.74226E+00 +5.77122E-01 +2.27048E-01 +9.98362E-01 -3.31837E+00 +5.36981E-01 -6.14357E+00
 -5.08200E-01 -7.65590E+00 -1.64881E+00 -7.56488E+00 -2.36203E+00 -5.94834E+00 -2.25367E+00 -3.22432E+00
 -1.18308E+00 -3.77668E-02 +6.84920E-01 +2.90655E+00 +2.91539E+00 +5.01981E+00 +4.91622E+00 +5.96739E+00
 +6.09732E+00 +5.73444E+00 +6.03277E+00 +4.60399E+00 +4.58140E+00 +3.05664E+00 +1.93344E+00 +1.62186E+00
 -1.42940E+00 +7.23092E-01 -4.84956E+00 +5.59439E-01 -7.65401E+00 +1.05582E+00 -9.31677E+00 +1.89369E+00
 -9.58120E+00 +2.61217E+00 -8.51092E+00 +2.75004E+00 -6.45786E+00 +1.98835E+00 -3.95819E+00 +2.53427E-01
 -1.58571E+00 -2.24809E+00 +1.97038E-01 -5.07218E+00 +1.15025E+00 -7.64641E+00 +1.30240E+00 -9.41544E+00
 +9.19916E-01 -9.98360E+00 +4.12031E-01 -9.21658E+00 +1.99096E-01 -7.27519E+00 +5.82128E-01 -4.57328E+00
