 Created: 19-Jan-2021
 $NMID
 ID='D:\BASISSIMULATI'
 FMTDAT='(8E13.5)'
 VOLUME=   1.00000E+00
 TRAMP=   1.00000E+00
 $END
 +1.18390E+02 +1.06795E+01 +1.12096E+02 +3.82763E+01 +9.89210E+01 +6.32439E+01 +7.98276E+01 +8.38523E+01
 +5.62059E+01 +9.86980E+01 +2.97702E+01 +1.06807E+02 +2.42921E+00 +1.07706E+02 -2.38578E+01 +1.01457E+02
 -4.72277E+01 +8.86452E+01 -6.60529E+01 +7.03376E+01 -7.90615E+01 +4.79949E+01 -8.54302E+01 +2.33607E+01
 -8.48432E+01 -1.67266E+00 -7.75109E+01 -2.52083E+01 -6.41495E+01 -4.54882E+01 -4.59221E+01 -6.10256E+01
 -2.43456E+01 -7.07151E+01 -1.17168E+00 -7.39131E+01 +2.17493E+01 -7.04827E+01 +4.26113E+01 -6.07987E+01
 +5.97905E+01 -4.57137E+01 +7.19687E+01 -2.64878E+01 +7.82321E+01 -4.68688E+00 +7.81376E+01 +1.79410E+01
 +7.17425E+01 +3.96034E+01 +5.95957E+01 +5.86030E+01 +4.26900E+01 +7.34686E+01 +2.23807E+01 +8.30683E+01
 +2.76298E-01 +8.66946E+01 -2.18896E+01 +8.41164E+01 -4.23951E+01 +7.55928E+01 -5.96658E+01 +6.18497E+01
 -7.23973E+01 +4.40182E+01 -7.96565E+01 +2.35430E+01 -8.09526E+01 +2.06617E+00 -7.62737E+01 -1.87044E+01
 -6.60847E+01 -3.71305E+01 -5.12882E+01 -5.17737E+01 -3.31507E+01 -6.15086E+01 -1.32007E+01 -6.56113E+01
 +6.89431E+00 -6.38163E+01 +2.54611E+01 -5.63362E+01 +4.09543E+01 -4.38445E+01 +5.20795E+01 -2.74209E+01
 +5.78972E+01 -8.46575E+00 +5.78977E+01 +1.14120E+01 +5.20430E+01 +3.05226E+01 +4.07704E+01 +4.72305E+01
 +2.49600E+01 +6.00842E+01 +5.86545E+00 +6.79332E+01 -1.49831E+01 +7.00205E+01 -3.58996E+01 +6.60445E+01
 -5.51741E+01 +5.61857E+01 -7.12080E+01 +4.10951E+01 -8.26406E+01 +2.18463E+01 -8.84574E+01 -1.46470E-01
 -8.80720E+01 -2.32365E+01 -8.13747E+01 -4.56716E+01 -6.87447E+01 -6.57302E+01 -5.10235E+01 -8.18548E+01
 -2.94529E+01 -9.27742E+01 -5.58180E+00 -9.76031E+01 +1.88517E+01 -9.59128E+01 +4.20525E+01 -8.77671E+01
 +6.23061E+01 -7.37193E+01 +7.81103E+01 -5.47728E+01 +8.82907E+01 -3.23061E+01 +9.20919E+01 -7.96946E+00
 +8.92363E+01 +1.64406E+01 +7.99465E+01 +3.91168E+01 +6.49300E+01 +5.83791E+01 +4.53256E+01 +7.28021E+01
 +2.26186E+01 +8.13237E+01 -1.47231E+00 +8.33260E+01 -2.51250E+01 +7.86823E+01 -4.65520E+01 +6.77667E+01
 -6.41357E+01 +5.14256E+01 -7.65509E+01 +3.09128E+01 -8.28648E+01 +7.79446E+00 -8.26069E+01 -1.61702E+01
 -7.58038E+01 -3.91629E+01 -6.29755E+01 -5.94437E+01 -4.50949E+01 -7.54830E+01 -2.35127E+01 -8.60765E+01
 +1.47027E-01 -9.04355E+01 +2.41104E+01 -8.82448E+01 +4.65896E+01 -7.96847E+01 +6.59183E+01 -6.54150E+01
 +8.06778E+01 -4.65221E+01 +8.98036E+01 -2.44341E+01 +9.26643E+01 -8.10326E-01 +8.91069E+01 +2.25867E+01
 +7.94657E+01 +4.40265E+01 +6.45330E+01 +6.19424E+01 +4.54957E+01 +7.50501E+01 +2.38413E+01 +8.24443E+01
 +1.24167E+00 +8.36655E+01 -2.05769E+01 +7.87312E+01 -3.99672E+01 +6.81319E+01 -5.54872E+01 +5.27887E+01
 -6.60102E+01 +3.39795E+01 -7.08098E+01 +1.32371E+01 -6.96131E+01 -7.77188E+00 -6.26186E+01 -2.73772E+01
 -5.04775E+01 -4.40355E+01 -3.42397E+01 -5.64495E+01 -1.52695E+01 -6.36682E+01 +4.86381E+00 -6.51590E+01
 +2.45094E+01 -6.08474E+01 +4.20655E+01 -5.11201E+01 +5.61048E+01 -3.67926E+01 +6.54864E+01 -1.90433E+01
 +6.94441E+01 +6.80812E-01 +6.76459E+01 +2.07788E+01 +6.02188E+01 +3.96228E+01 +4.77380E+01 +5.56860E+01
 +3.11805E+01 +6.76631E+01 +1.18477E+01 +7.45728E+01 -8.73722E+00 +7.58351E+01 -2.89500E+01 +7.13163E+01
 -4.71925E+01 +6.13402E+01 -6.20190E+01 +4.66620E+01 -7.22495E+01 +2.84096E+01 -7.70631E+01 +7.99544E+00
 -7.60624E+01 -1.29946E+01 -6.93054E+01 -3.29248E+01 -5.73018E+01 -5.02380E+01 -4.09733E+01 -6.35775E+01
 -2.15831E+01 -7.18936E+01 -6.36910E-01 -7.45260E+01 +2.02334E+01 -7.12562E+01 +3.93971E+01 -6.23256E+01
 +5.53516E+01 -4.84172E+01 +6.68395E+01 -3.06039E+01 +7.29470E+01 -1.02655E+01 +7.31757E+01 +1.10175E+01
 +6.74818E+01 +3.15863E+01 +5.62809E+01 +4.98324E+01 +4.04164E+01 +6.43216E+01 +2.10951E+01 +7.39063E+01
 -2.04955E-01 +7.78138E+01 -2.18488E+01 +7.57074E+01 -4.21700E+01 +6.77126E+01 -5.95992E+01 +5.44083E+01
 -7.27849E+01 +3.67830E+01 -8.06981E+01 +1.61591E+01 -8.27117E+01 -5.90848E+00 -7.86485E+01 -2.77515E+01
 -6.87959E+01 -4.77166E+01 -5.38834E+01 -6.42916E+01 -3.50270E+01 -7.62223E+01 -1.36435E+01 -8.26080E+01
 +8.65806E+00 -8.29706E+01 +3.01998E+01 -7.72910E+01 +4.93637E+01 -6.60099E+01 +6.47151E+01 -4.99941E+01
 +7.51127E+01 -3.04687E+01 +7.97950E+01 -8.92346E+00 +7.84383E+01 +1.30022E+01 +7.11805E+01 +3.36450E+01
 +5.86092E+01 +5.14453E+01 +4.17156E+01 +6.50664E+01 +2.18178E+01 +7.34961E+01 +4.58108E-01 +7.61242E+01
 -2.07156E+01 +7.27874E+01 -4.00768E+01 +6.37805E+01 -5.61456E+01 +4.98327E+01 -6.77014E+01 +3.20498E+01
 -7.38766E+01 +1.18278E+01 -7.42219E+01 -9.25565E+00 -6.87391E+01 -2.95630E+01 -5.78803E+01 -4.75236E+01
 -4.25104E+01 -6.17546E+01 -2.38399E+01 -7.11669E+01 -3.32950E+00 -7.50481E+01 +1.74230E+01 -7.31167E+01
 +3.68071E+01 -6.55419E+01 +5.33238E+01 -5.29294E+01 +6.57014E+01 -3.62731E+01 +7.29931E+01 -1.68768E+01
 +7.46493E+01 +3.74756E+00 +7.05590E+01 +2.39974E+01 +6.10568E+01 +4.23043E+01 +4.68963E+01 +5.72549E+01
 +2.91900E+01 +6.77005E+01 +9.32209E+00 +7.28449E+01 -1.11591E+01 +7.23052E+01 -3.06622E+01 +6.61408E+01
 -4.76756E+01 +5.48472E+01 -6.08850E+01 +3.93166E+01 -6.92747E+01 +2.07678E+01 -7.22056E+01 +6.50912E-01
 -6.94638E+01 -1.94659E+01 -6.12763E+01 -3.80182E+01 -4.82924E+01 -5.35664E+01 -3.15324E+01 -6.49077E+01
 -1.23075E+01 -7.11683E+01 +7.88265E+00 -7.18711E+01 +2.74663E+01 -6.69713E+01 +4.49222E+01 -5.68594E+01
 +5.88973E+01 -4.23299E+01 +6.83115E+01 -2.45186E+01 +7.24409E+01 -4.81411E+00 +7.09734E+01 +1.52506E+01
 +6.40320E+01 +3.41173E+01 +5.21647E+01 +5.03240E+01 +3.63007E+01 +6.26175E+01 +1.76781E+01 +7.00509E+01
 -2.25298E+00 +7.20564E+01 -2.19435E+01 +6.84885E+01 -3.98656E+01 +5.96350E+01 -5.46316E+01 +4.61936E+01
 -6.51012E+01 +2.92171E+01 -7.04697E+01 +1.00312E+01 -7.03301E+01 -9.86903E+00 -6.47041E+01 -2.89354E+01
 -5.40394E+01 -4.56869E+01 -3.91750E+01 -5.88251E+01 -2.12746E+01 -6.73339E+01 -1.73669E+00 -7.05589E+01
 +1.79153E+01 -6.82574E+01 +3.61508E+01 -6.06168E+01 +5.15517E+01 -4.82394E+01 +6.29217E+01 -3.20953E+01
 +6.93797E+01 -1.34467E+01 +7.04276E+01 +6.25081E+00 +6.59888E+01 +2.54612E+01 +5.64138E+01 +4.26878E+01
 +4.24525E+01 +5.65893E+01 +2.51958E+01 +6.60839E+01 +5.99066E+00 +7.04335E+01 -1.36648E+01 +6.93007E+01
 -3.22378E+01 +6.27748E+01 -4.82798E+01 +5.13650E+01 -6.05392E+01 +3.59603E+01 -6.80584E+01 +1.77610E+01
 -7.02482E+01 -1.81493E+00 -6.69335E+01 -2.12417E+01 -5.83672E+01 -3.90041E+01 -4.52102E+01 -5.37152E+01
 -2.84808E+01 -6.42237E+01 -9.47543E+00 -6.97033E+01 +1.03312E+01 -6.97170E+01 +2.94004E+01 -6.42509E+01
 +4.62488E+01 -5.37156E+01 +5.95626E+01 -3.89149E+01 +6.82997E+01 -2.09832E+01 +7.17699E+01 -1.29878E+00
 +6.96888E+01 +1.86228E+01 +6.21994E+01 +3.72457E+01 +4.98617E+01 +5.31320E+01 +3.36096E+01 +6.50523E+01
 +1.46788E+01 +7.20811E+01 -5.48792E+00 +7.36674E+01 -2.53518E+01 +6.96772E+01 -4.33964E+01 +6.04041E+01
 -5.82438E+01 +4.65461E+01 -6.87607E+01 +2.91523E+01 -7.41448E+01 +9.54180E+00 -7.39865E+01 -1.07974E+01
 -6.82994E+01 -3.03227E+01 -5.75189E+01 -4.75554E+01 -4.24686E+01 -6.11934E+01 -2.42959E+01 -7.02111E+01
 -4.38412E+00 -7.39372E+01 +1.57545E+01 -7.21051E+01 +3.45942E+01 -6.48727E+01 +5.07133E+01 -5.28090E+01
 +6.29020E+01 -3.68493E+01 +7.02552E+01 -1.82227E+01 +7.22398E+01 +1.64365E+00 +6.87353E+01 +2.12339E+01
 +6.00405E+01 +3.90604E+01 +4.68497E+01 +5.37778E+01 +3.01971E+01 +6.42853E+01 +1.13764E+01 +6.98104E+01
 -8.16000E+00 +6.99668E+01 -2.69134E+01 +6.47820E+01 -4.34543E+01 +5.46934E+01 -5.65321E+01 +4.05125E+01
 -6.51708E+01 +2.33605E+01 -6.87427E+01 +4.58027E+00 -6.70149E+01 -1.43687E+01 -6.01657E+01 -3.20236E+01
 -4.87683E+01 -4.70314E+01 -3.37443E+01 -5.82535E+01 -1.62906E+01 -6.48522E+01 +2.21489E+00 -6.63552E+01
 +2.03216E+01 -6.26894E+01 +3.66193E+01 -5.41853E+01 +4.98477E+01 -4.15490E+01 +5.89943E+01 -2.58057E+01
 +6.33719E+01 -8.21782E+00 +6.26713E+01 +9.81450E+00 +5.69839E+01 +2.68633E+01 +4.67927E+01 +4.15850E+01
 +3.29337E+01 +5.28251E+01 +1.65285E+01 +5.97085E+01 -1.10404E+00 +6.17069E+01 -1.85521E+01 +5.86799E+01
 -3.44219E+01 +5.08849E+01 -4.74475E+01 +3.89561E+01 -5.65899E+01 +2.38543E+01 -6.11186E+01 +6.79084E+00
 -6.06690E+01 -1.08678E+01 -5.52708E+01 -2.77075E+01 -4.53458E+01 -4.23781E+01 -3.16750E+01 -5.36989E+01
 -1.53372E+01 -6.07524E+01 +2.37506E+00 -6.29560E+01 +2.00567E+01 -6.01089E+01 +3.63005E+01 -5.24080E+01
 +4.98068E+01 -4.04337E+01 +5.94863E+01 -2.51052E+01 +6.45451E+01 -7.60960E+00 +6.45481E+01 +1.06902E+01
 +5.94540E+01 +2.83615E+01 +4.96195E+01 +4.40127E+01 +3.57732E+01 +5.64024E+01 +1.89600E+01 +6.45360E+01
 +4.61196E-01 +6.77442E+01 -1.83040E+01 +6.57354E+01 -3.58878E+01 +5.86199E+01 -5.09259E+01 +4.69030E+01
 -6.22426E+01 +3.14468E+01 -6.89423E+01 +1.34052E+01 -7.04789E+01 -5.86398E+00 -6.66993E+01 -2.49029E+01
 -5.78555E+01 -4.22651E+01 -4.45868E+01 -5.66265E+01 -2.78711E+01 -6.68869E+01 -8.95150E+00 -7.22543E+01
 +1.07589E+01 -7.23060E+01 +2.97844E+01 -6.70213E+01 +4.66987E+01 -5.67831E+01 +6.02340E+01 -4.23492E+01
 +6.93773E+01 -2.47941E+01 +7.34470E+01 -5.42799E+00 +7.21449E+01 +1.43038E+01 +6.55778E+01 +3.29304E+01
 +5.42493E+01 +4.90669E+01 +3.90202E+01 +6.15199E+01 +2.10426E+01 +6.93770E+01 +1.67123E+00 +7.20757E+01
 -1.76396E+01 +6.94448E+01 -3.54474E+01 +6.17157E+01 -5.04306E+01 +4.95036E+01 -6.14888E+01 +3.37585E+01
 -6.78253E+01 +1.56916E+01 -6.90061E+01 -3.31815E+00 -6.49912E+01 -2.18306E+01 -5.61348E+01 -3.84540E+01
 -4.31565E+01 -5.19515E+01 -2.70835E+01 -6.13343E+01 -9.17012E+00 -6.59358E+01 +9.20000E+00 -6.54606E+01
 +2.66210E+01 -6.00045E+01 +4.17728E+01 -5.00443E+01 +5.35226E+01 -3.63983E+01 +6.10103E+01 -2.01606E+01
 +6.37133E+01 -2.61480E+00 +6.14840E+01 +1.48671E+01 +5.45592E+01 +3.09313E+01 +4.35380E+01 +4.43476E+01
 +2.93334E+01 +5.41037E+01 +1.30984E+01 +5.94832E+01 -3.86555E+00 +6.01188E+01 -2.02111E+01 +5.60195E+01
 -3.46510E+01 +4.75666E+01 -4.60587E+01 +3.54826E+01 -5.35561E+01 +2.07715E+01 -5.65811E+01 +4.63919E+00
 -5.49308E+01 -1.16032E+01 -4.87756E+01 -2.66426E+01 -3.86445E+01 -3.92685E+01 -2.53822E+01 -4.84675E+01
