 Created: 19-Jan-2021
 $NMID
 ID='D:\BASISSIMULATI'
 FMTDAT='(8E13.5)'
 VOLUME=   1.00000E+00
 TRAMP=   1.00000E+00
 $END
 +6.28526E+01 +7.12368E+00 +5.99544E+01 +1.14331E+01 +5.11180E+01 +1.54243E+01 +3.75412E+01 +1.95392E+01
 +2.11080E+01 +2.39354E+01 +4.05063E+00 +2.83817E+01 -1.14426E+01 +3.22768E+01 -2.35924E+01 +3.47883E+01
 -3.12934E+01 +3.50768E+01 -3.42303E+01 +3.25475E+01 -3.28332E+01 +2.70605E+01 -2.80961E+01 +1.90429E+01
 -2.13112E+01 +9.46690E+00 -1.37862E+01 -3.05698E-01 -6.61179E+00 -8.78100E+00 -5.24189E-01 -1.46339E+01
 +4.11714E+00 -1.69825E+01 +7.25137E+00 -1.55717E+01 +8.97635E+00 -1.08237E+01 +9.40005E+00 -3.74576E+00
 +8.53470E+00 +4.28313E+00 +6.26855E+00 +1.17933E+01 +2.42422E+00 +1.75084E+01 -3.11549E+00 +2.05673E+01
 -1.02565E+01 +2.06387E+01 -1.85696E+01 +1.79089E+01 -2.72421E+01 +1.29591E+01 -3.51342E+01 +6.57105E+00
 -4.09423E+01 -4.79934E-01 -4.34389E+01 -7.58939E+00 -4.17388E+01 -1.44041E+01 -3.55246E+01 -2.08027E+01
 -2.51755E+01 -2.67917E+01 -1.17585E+01 -3.23555E+01 +3.12440E+00 -3.73136E+01 +1.76061E+01 -4.12380E+01
 +2.98869E+01 -4.34643E+01 +3.85571E+01 -4.32069E+01 +4.28397E+01 -3.97544E+01 +4.27012E+01 -3.26993E+01
 +3.88072E+01 -2.21378E+01 +3.23386E+01 -8.78226E+00 +2.47120E+01 +6.05719E+00 +1.72744E+01 +2.06319E+01
 +1.10398E+01 +3.30331E+01 +6.52902E+00 +4.15344E+01 +3.74208E+00 +4.49261E+01 +2.26059E+00 +4.27681E+01
 +1.44577E+00 +3.55003E+01 +6.73718E-01 +2.43845E+01 -4.56972E-01 +1.12862E+01 -2.00088E+00 -1.66111E+00
 -3.65656E+00 -1.24357E+01 -4.87260E+00 -1.94759E+01 -5.03789E+00 -2.19250E+01 -3.70208E+00 -1.97274E+01
 -7.63553E-01 -1.35662E+01 +3.42946E+00 -4.66748E+00 +8.09693E+00 +5.47812E+00 +1.21654E+01 +1.54062E+01
 +1.44963E+01 +2.39192E+01 +1.41498E+01 +3.02299E+01 +1.06196E+01 +3.39883E+01 +3.97928E+00 +3.52063E+01
 -5.09605E+00 +3.41162E+01 -1.54419E+01 +3.10161E+01 -2.56237E+01 +2.61522E+01 -3.42136E+01 +1.96720E+01
 -4.00591E+01 +1.16603E+01 -4.24845E+01 +2.23907E+00 -4.13806E+01 -8.30567E+00 -3.71674E+01 -1.94200E+01
 -3.06488E+01 -3.02463E+01 -2.27992E+01 -3.96815E+01 -1.45414E+01 -4.65322E+01 -6.57177E+00 -4.97370E+01
 +7.26595E-01 -4.86064E+01 +7.26611E+00 -4.30212E+01 +1.31479E+01 -3.35325E+01 +1.85038E+01 -2.13307E+01
 +2.33409E+01 -8.07676E+00 +2.74397E+01 +4.37417E+00 +3.03431E+01 +1.43031E+01 +3.14454E+01 +2.04398E+01
 +3.01632E+01 +2.21912E+01 +2.61433E+01 +1.97330E+01 +1.94475E+01 +1.39476E+01 +1.06606E+01 +6.22150E+00
 +8.78782E-01 -1.84905E+00 -8.43285E+00 -8.77868E+00 -1.56905E+01 -1.34669E+01 -1.95016E+01 -1.53686E+01
 -1.89645E+01 -1.45281E+01 -1.38895E+01 -1.14805E+01 -4.88586E+00 -7.05144E+00 +6.70944E+00 -2.11502E+00
 +1.90529E+01 +2.62898E+00 +3.01199E+01 +6.80079E+00 +3.80684E+01 +1.03771E+01 +4.15632E+01 +1.36152E+01
 +3.99970E+01 +1.68927E+01 +3.35637E+01 +2.05121E+01 +2.31769E+01 +2.45292E+01 +1.02601E+01 +2.86571E+01
 -3.54013E+00 +3.22757E+01 -1.66498E+01 +3.45498E+01 -2.78097E+01 +3.46271E+01 -3.62177E+01 +3.18657E+01
 -4.15542E+01 +2.60327E+01 -4.39021E+01 +1.74187E+01 -4.36004E+01 +6.83603E+00 -4.10798E+01 -4.50473E+00
 -3.67331E+01 -1.52135E+01 -3.08522E+01 -2.39850E+01 -2.36463E+01 -2.98473E+01 -1.53237E+01 -3.23368E+01
 -6.20279E+00 -3.15602E+01 +3.19478E+00 -2.81330E+01 +1.21106E+01 -2.30113E+01 +1.96024E+01 -1.72643E+01
 +2.46827E+01 -1.18421E+01 +2.65194E+01 -7.39714E+00 +2.46482E+01 -4.20015E+00 +1.91432E+01 -2.16325E+00
 +1.06926E+01 -9.58031E-01 +5.49987E-01 -1.87905E-01 -9.64325E+00 +4.37772E-01 -1.81335E+01 +9.80464E-01
 -2.33752E+01 +1.23749E+00 -2.43270E+01 +8.07439E-01 -2.06586E+01 -7.60825E-01 -1.28212E+01 -3.77731E+00
 -1.96393E+00 -8.23378E+00 +1.02863E+01 -1.36953E+01 +2.21335E+01 -1.92997E+01 +3.19428E+01 -2.38768E+01
 +3.85217E+01 -2.61696E+01 +4.12942E+01 -2.51093E+01 +4.03359E+01 -2.00818E+01 +3.62736E+01 -1.11202E+01
 +3.00799E+01 +1.02756E+00 +2.28210E+01 +1.49784E+01 +1.54198E+01 +2.89306E+01 +8.49136E+00 +4.09750E+01
 +2.28314E+00 +4.94353E+01 -3.27252E+00 +5.31672E+01 -8.42046E+00 +5.17514E+01 -1.34044E+01 +4.55449E+01
 -1.83043E+01 +3.55825E+01 -2.29382E+01 +2.33570E+01 -2.68593E+01 +1.05296E+01 -2.94504E+01 -1.36275E+00
 -3.00921E+01 -1.11428E+01 -2.83564E+01 -1.81263E+01 -2.41738E+01 -2.21368E+01 -1.79221E+01 -2.34158E+01
 -1.04093E+01 -2.24643E+01 -2.74709E+00 -1.98681E+01 +3.85920E+00 -1.61541E+01 +8.35566E+00 -1.17155E+01
 +1.00614E+01 -6.81592E+00 +8.81357E+00 -1.65996E+00 +4.99948E+00 +3.50386E+00 -5.30917E-01 +8.29201E+00
 -6.65214E+00 +1.21477E+01 -1.22036E+01 +1.43804E+01 -1.62262E+01 +1.42856E+01 -1.81384E+01 +1.13187E+01
 -1.78139E+01 +5.28124E+00 -1.55458E+01 -3.53474E+00 -1.19140E+01 -1.42913E+01 -7.59421E+00 -2.56665E+01
 -3.16480E+00 -3.60342E+01 +1.03815E+00 -4.37335E+01 +4.97702E+00 -4.73738E+01 +8.86731E+00 -4.61110E+01
 +1.30452E+01 -3.98308E+01 +1.77875E+01 -2.91978E+01 +2.31374E+01 -1.55525E+01 +2.87901E+01 -6.77727E-01
 +3.40758E+01 +1.35184E+01 +3.80552E+01 +2.53366E+01 +3.97109E+01 +3.35670E+01 +3.81903E+01 +3.76593E+01
 +3.30435E+01 +3.77541E+01 +2.43932E+01 +3.45742E+01 +1.29906E+01 +2.92120E+01 +1.35222E-01 +2.28668E+01
 -1.25295E+01 +1.65953E+01 -2.33057E+01 +1.11319E+01 -3.07540E+01 +6.81355E+00 -3.39606E+01 +3.61540E+00
 -3.27035E+01 +1.27581E+00 -2.74802E+01 -5.33799E-01 -1.93952E+01 -2.04685E+00 -9.93458E+00 -3.29526E+00
 -6.79520E-01 -4.08882E+00 +6.97676E+00 -4.08458E+00 +1.20500E+01 -2.92416E+00 +1.40822E+01 -3.97147E-01
 +1.31394E+01 +3.42004E+00 +9.70656E+00 +8.09456E+00 +4.51467E+00 +1.28636E+01 -1.64708E+00 +1.67583E+01
 -8.08602E+00 +1.87990E+01 -1.42917E+01 +1.82170E+01 -1.99405E+01 +1.46464E+01 -2.48306E+01 +8.23809E+00
 -2.87816E+01 -3.36752E-01 -3.15397E+01 -9.99794E+00 -3.27306E+01 -1.94589E+01 -3.18831E+01 -2.74746E+01
 -2.85280E+01 -3.30778E+01 -2.23484E+01 -3.57483E+01 -1.33426E+01 -3.54787E+01 -1.94744E+00 -3.27236E+01
 +1.09201E+01 -2.82499E+01 +2.39301E+01 -2.29289E+01 +3.55158E+01 -1.75247E+01 +4.41306E+01 -1.25324E+01
 +4.85331E+01 -8.10653E+00 +4.80411E+01 -4.09293E+00 +4.26914E+01 -1.52408E-01 +3.32686E+01 +4.06252E+00
 +2.11882E+01 +8.72954E+00 +8.25465E+00 +1.37299E+01 -3.65647E+00 +1.86122E+01 -1.29280E+01 +2.26627E+01
 -1.84726E+01 +2.50665E+01 -1.98925E+01 +2.51231E+01 -1.74982E+01 +2.24595E+01 -1.21889E+01 +1.71842E+01
 -5.22868E+00 +9.93853E+00 +2.02748E+00 +1.82359E+00 +8.39321E+00 -5.78581E+00 +1.30417E+01 -1.15031E+01
 +1.55916E+01 -1.42097E+01 +1.60805E+01 -1.32902E+01 +1.48469E+01 -8.76881E+00 +1.23619E+01 -1.31547E+00
 +9.06215E+00 +7.87812E+00 +5.23194E+00 +1.73259E+01 +9.62903E-01 +2.55259E+01 -3.80132E+00 +3.12290E+01
 -9.15547E+00 +3.36411E+01 -1.50962E+01 +3.25198E+01 -2.14056E+01 +2.81537E+01 -2.75952E+01 +2.12393E+01
 -3.29367E+01 +1.26956E+01 -3.65781E+01 +3.46516E+00 -3.77217E+01 -5.64795E+00 -3.58206E+01 -1.40690E+01
 -3.07423E+01 -2.14594E+01 -2.28540E+01 -2.76521E+01 -1.30014E+01 -3.25465E+01 -2.38082E+00 -3.60066E+01
 +7.67334E+00 -3.78006E+01 +1.59363E+01 -3.76094E+01 +2.15220E+01 -3.51051E+01 +2.40394E+01 -3.00830E+01
 +2.36416E+01 -2.26050E+01 +2.09568E+01 -1.31112E+01 +1.69210E+01 -2.45526E+00 +1.25530E+01 +8.16001E+00
 +8.72848E+00 +1.73472E+01 +6.00583E+00 +2.37717E+01 +4.54492E+00 +2.64137E+01 +4.13333E+00 +2.47959E+01
 +4.30830E+00 +1.91206E+01 +4.53732E+00 +1.02800E+01 +4.40624E+00 -2.71246E-01 +3.76231E+00 -1.07605E+01
 +2.77243E+00 -1.94098E+01 +1.87969E+00 -2.47543E+01 +1.66911E+00 -2.58984E+01 +2.67808E+00 -2.26590E+01
 +5.20297E+00 -1.55687E+01 +9.15564E+00 -5.74214E+00 +1.40124E+01 +5.35962E+00 +1.88746E+01 +1.62117E+01
 +2.26331E+01 +2.54930E+01 +2.41997E+01 +3.22835E+01 +2.27548E+01 +3.61552E+01 +1.79499E+01 +3.71500E+01
 +1.00178E+01 +3.56627E+01 -2.38371E-01 +3.22709E+01 -1.15768E+01 +2.75608E+01 -2.25401E+01 +2.19973E+01
 -3.17217E+01 +1.58661E+01 -3.80147E+01 +9.29797E+00 -4.07919E+01 +2.35623E+00 -3.99804E+01 -4.84655E+00
 -3.60209E+01 -1.20465E+01 -2.97295E+01 -1.87796E+01 -2.21016E+01 -2.44092E+01 -1.41081E+01 -2.82300E+01
 -6.53168E+00 -2.96261E+01 +1.21740E-01 -2.82413E+01 +5.62455E+00 -2.41161E+01 +9.95518E+00 -1.77482E+01
 +1.31832E+01 -1.00527E+01 +1.53546E+01 -2.22290E+00 +1.64162E+01 +4.48340E+00 +1.62074E+01 +8.98501E+00
 +1.45211E+01 +1.05921E+01 +1.12193E+01 +9.14422E+00 +6.36493E+00 +5.03813E+00 +3.25835E-01 -8.61206E-01
 -6.18822E+00 -7.40695E+00 -1.21807E+01 -1.34103E+01 -1.65157E+01 -1.78787E+01 -1.81321E+01 -2.01978E+01
 -1.62793E+01 -2.02172E+01 -1.07185E+01 -1.82254E+01 -1.83860E+00 -1.48238E+01 +9.34893E+00 -1.07390E+01
 +2.13443E+01 -6.62129E+00 +3.24013E+01 -2.88471E+00 +4.08300E+01 +3.73069E-01 +4.52990E+01 +3.35099E+00
 +4.50738E+01 +6.43403E+00 +4.01410E+01 +1.00242E+01 +3.11951E+01 +1.43614E+01 +1.94923E+01 +1.93854E+01
 +6.60713E+00 +2.46800E+01 -5.85533E+00 +2.95184E+01 -1.65284E+01 +3.30034E+01 -2.44805E+01 +3.42705E+01
 -2.93055E+01 +3.27033E+01 -3.10970E+01 +2.81093E+01 -3.03287E+01 +2.08084E+01 -2.76781E+01 +1.16111E+01
 -2.38448E+01 +1.68709E+00 -1.94085E+01 -7.64817E+00 -1.47577E+01 -1.51798E+01 -1.00984E+01 -2.00188E+01
 -5.52700E+00 -2.17556E+01 -1.13427E+00 -2.05101E+01 +2.89854E+00 -1.68714E+01 +6.25037E+00 -1.17458E+01
 +8.47875E+00 -6.15400E+00 +9.10712E+00 -1.02575E+00 +7.75971E+00 +2.95851E+00 +4.30672E+00 +5.44797E+00
 -1.02451E+00 +6.41207E+00 -7.61005E+00 +6.05474E+00 -1.44832E+01 +4.68515E+00 -2.04795E+01 +2.58711E+00
 -2.44460E+01 -7.22139E-02 -2.54710E+01 -3.26773E+00 -2.30806E+01 -7.06952E+00 -1.73556E+01 -1.15402E+01
 -8.93739E+00 -1.66109E+01 +1.08080E+00 -2.19784E+01 +1.13566E+01 -2.70631E+01 +2.05501E+01 -3.10504E+01
 +2.75697E+01 -3.30189E+01 +3.17569E+01 -3.21310E+01 +3.29721E+01 -2.78430E+01 +3.15650E+01 -2.00840E+01
 +2.82428E+01 -9.35398E+00 +2.38724E+01 +3.29043E+00 +1.92662E+01 +1.63709E+01 +1.50065E+01 +2.82205E+01
 +1.13477E+01 +3.72713E+01 +8.21761E+00 +4.23362E+01 +5.31101E+00 +4.28256E+01 +2.24507E+00 +3.88527E+01
 -1.26848E+00 +3.12048E+01 -5.28438E+00 +2.11874E+01 -9.55770E+00 +1.03771E+01 -1.35708E+01 +3.35817E-01
 -1.66481E+01 -7.65316E+00 -1.81299E+01 -1.27740E+01 -1.75603E+01 -1.47596E+01 -1.48384E+01 -1.38580E+01
