 Created: 19-Jan-2021
 $NMID
 ID='D:\BASISSIMULATI'
 FMTDAT='(8E13.5)'
 VOLUME=   1.00000E+00
 TRAMP=   1.00000E+00
 $END
 +3.21943E+01 +3.04058E+00 +3.07381E+01 +9.48993E+00 +2.78566E+01 +1.53908E+01 +2.37408E+01 +2.04107E+01
 +1.86606E+01 +2.42804E+01 +1.29442E+01 +2.68129E+01 +6.95409E+00 +2.79147E+01 +1.05989E+00 +2.75914E+01
 -4.38802E+00 +2.59451E+01 -9.08363E+00 +2.31644E+01 -1.27865E+01 +1.95088E+01 -1.53377E+01 +1.52876E+01
 -1.66691E+01 +1.08354E+01 -1.68064E+01 +6.48625E+00 -1.58634E+01 +2.54833E+00 -1.40313E+01 -7.18930E-01
 -1.15614E+01 -3.12351E+00 -8.74316E+00 -4.55391E+00 -5.88052E+00 -4.98573E+00 -3.26688E+00 -4.48131E+00
 -1.16160E+00 -3.18253E+00 +2.30552E-01 -1.29746E+00 +7.75227E-01 +9.18056E-01 +4.18580E-01 +3.18237E+00
 -8.09214E-01 +5.21181E+00 -2.79718E+00 +6.74435E+00 -5.36320E+00 +7.56136E+00 -8.26924E+00 +7.50575E+00
 -1.12410E+01 +6.49508E+00 -1.39904E+01 +4.52864E+00 -1.62388E+01 +1.68810E+00 -1.77400E+01 -1.86847E+00
 -1.82997E+01 -5.91842E+00 -1.77921E+01 -1.01916E+01 -1.61701E+01 -1.43909E+01 -1.34698E+01 -1.82150E+01
 -9.80854E+00 -2.13815E+01 -5.37700E+00 -2.36484E+01 -4.25096E-01 -2.48324E+01 +4.75611E+00 -2.48232E+01
 +9.85566E+00 -2.35913E+01 +1.45655E+01 -2.11909E+01 +1.86026E+01 -1.77553E+01 +2.17295E+01 -1.34873E+01
 +2.37710E+01 -8.64386E+00 +2.46261E+01 -3.51761E+00 +2.42743E+01 +1.58492E+00 +2.27758E+01 +6.36522E+00
 +2.02659E+01 +1.05541E+01 +1.69435E+01 +1.39304E+01 +1.30558E+01 +1.63356E+01 +8.87869E+00 +1.76843E+01
 +4.69601E+00 +1.79676E+01 +7.78680E-01 +1.72521E+01 -2.63511E+00 +1.56727E+01 -5.35657E+00 +1.34198E+01
 -7.25890E+00 +1.07236E+01 -8.28488E+00 +7.83480E+00 -8.44889E+00 +5.00503E+00 -7.83338E+00 +2.46689E+00
 -6.58016E+00 +4.16379E-01 -4.87721E+00 -1.00158E+00 -2.94222E+00 -1.70324E+00 -1.00406E+00 -1.67118E+00
 +7.16190E-01 -9.54003E-01 +2.02329E+00 +3.39102E-01 +2.76348E+00 +2.04857E+00 +2.83657E+00 +3.97852E+00
 +2.20357E+00 +5.91343E+00 +8.89379E-01 +7.63629E+00 -1.01975E+00 +8.94648E+00 -3.38348E+00 +9.67629E+00
 -6.01900E+00 +9.70459E+00 -8.71583E+00 +8.96666E+00 -1.12527E+01 +7.45959E+00 -1.34152E+01 +5.24266E+00
 -1.50127E+01 +2.43289E+00 -1.58933E+01 -8.03834E-01 -1.59558E+01 -4.26546E+00 -1.51575E+01 -7.72911E+00
 -1.35176E+01 -1.09679E+01 -1.11157E+01 -1.37681E+01 -8.08588E+00 -1.59447E+01 -4.60639E+00 -1.73554E+01
 -8.86557E-01 -1.79105E+01 +2.84885E+00 -1.75789E+01 +6.37607E+00 -1.63902E+01 +9.48852E+00 -1.44311E+01
 +1.20114E+01 -1.18388E+01 +1.38138E+01 -8.78988E+00 +1.48170E+01 -5.48685E+00 +1.49992E+01 -2.14281E+00
 +1.43953E+01 +1.03417E+00 +1.30930E+01 +3.85604E+00 +1.12247E+01 +6.16792E+00 +8.95616E+00 +7.85837E+00
 +6.47331E+00 +8.86612E+00 +3.96756E+00 +9.18292E+00 +1.62120E+00 +8.85209E+00 -4.06081E-01 +7.96337E+00
 -1.98859E+00 +6.64421E+00 -3.04302E+00 +5.04848E+00 -3.53339E+00 +3.34340E+00 -3.47208E+00 +1.69588E+00
 -2.91709E+00 +2.59153E-01 -1.96584E+00 -8.38983E-01 -7.45895E-01 -1.50575E+00 +5.96293E-01 -1.68986E+00
 +1.90798E+00 -1.38454E+00 +3.04287E+00 -6.26980E-01 +3.87300E+00 +5.05805E-01 +4.29899E+00 +1.90409E+00
 +4.25770E+00 +3.43511E+00 +3.72689E+00 +4.95431E+00 +2.72650E+00 +6.31736E+00 +1.31658E+00 +7.39190E+00
 -4.07988E-01 +8.06818E+00 -2.32540E+00 +8.26764E+00 -4.29683E+00 +7.94898E+00 -6.17754E+00 +7.11111E+00
 -7.82826E+00 +5.79296E+00 -9.12594E+00 +4.07012E+00 -9.97310E+00 +2.04874E+00 -1.03050E+01 -1.42911E-01
 -1.00942E+01 -2.36440E+00 -9.35203E+00 -4.47382E+00 -8.12736E+00 -6.33846E+00 -6.50214E+00 -7.84447E+00
 -4.58479E+00 -8.90493E+00 -2.50161E+00 -9.46568E+00 -3.87076E-01 -9.50852E+00 +1.62626E+00 -9.05157E+00
 +3.41746E+00 -8.14690E+00 +4.88569E+00 -6.87565E+00 +5.95702E+00 -5.34104E+00 +6.58885E+00 -3.65998E+00
 +6.77191E+00 -1.95384E+00 +6.52958E+00 -3.39261E-01 +5.91479E+00 +1.08041E+00 +5.00470E+00 +2.22232E+00
 +3.89372E+00 +3.02952E+00 +2.68554E+00 +3.47406E+00 +1.48458E+00 +3.55784E+00 +3.87888E-01 +3.31097E+00
 -5.22168E-01 +2.78808E+00 -1.18374E+00 +2.06277E+00 -1.55944E+00 +1.22083E+00 -1.63824E+00 +3.52695E-01
 -1.43512E+00 -4.54081E-01 -9.88671E-01 -1.12191E+00 -3.56886E-01 -1.58913E+00 +3.88459E-01 -1.81443E+00
 +1.16834E+00 -1.77948E+00 +1.90336E+00 -1.48961E+00 +2.52040E+00 -9.72429E-01 +2.95850E+00 -2.74821E-01
 +3.17358E+00 +5.41666E-01 +3.14153E+00 +1.40639E+00 +2.85967E+00 +2.24579E+00 +2.34626E+00 +2.98952E+00
 +1.63845E+00 +3.57621E+00 +7.88620E-01 +3.95817E+00 -1.40263E-01 +4.10496E+00 -1.08012E+00 +4.00528E+00
 -1.96339E+00 +3.66735E+00 -2.72845E+00 +3.11761E+00 -3.32433E+00 +2.39804E+00 -3.71442E+00 +1.56223E+00
 -3.87887E+00 +6.70771E-01 -3.81549E+00 -2.13882E-01 -3.53923E+00 -1.03237E+00 -3.08026E+00 -1.73303E+00
 -2.48087E+00 -2.27560E+00 -1.79157E+00 -2.63389E+00 -1.06666E+00 -2.79716E+00 -3.59639E-01 -2.77011E+00
 +2.80975E-01 -2.57171E+00 +8.15319E-01 -2.23277E+00 +1.21489E+00 -1.79275E+00 +1.46417E+00 -1.29598E+00
 +1.56108E+00 -7.87598E-01 +1.51620E+00 -3.09787E-01 +1.35106E+00 +1.01666E-01 +1.09545E+00 +4.19977E-01
 +7.84251E-01 +6.29061E-01 +4.53930E-01 +7.24181E-01 +1.39163E-01 +7.11537E-01 -1.30237E-01 +6.06886E-01
 -3.31752E-01 +4.33369E-01 -4.51768E-01 +2.18769E-01 -4.86270E-01 -7.51294E-03 -4.40568E-01 -2.17475E-01
 -3.28158E-01 -3.87238E-01 -1.68815E-01 -4.99231E-01 +1.38237E-02 -5.43654E-01 +1.94970E-01 -5.19089E-01
 +3.51397E-01 -4.32251E-01 +4.63895E-01 -2.96910E-01 +5.19235E-01 -1.32121E-01 +5.11453E-01 +4.00410E-02
 +4.42348E-01 +1.97012E-01 +3.21157E-01 +3.18274E-01 +1.63448E-01 +3.87639E-01 -1.06434E-02 +3.95054E-01
 -1.78654E-01 +3.37753E-01 -3.18279E-01 +2.20637E-01 -4.09853E-01 +5.58442E-02 -4.38574E-01 -1.38433E-01
 -3.96249E-01 -3.39796E-01 -2.82372E-01 -5.23943E-01 -1.04438E-01 -6.67220E-01 +1.22572E-01 -7.49166E-01
 +3.77479E-01 -7.54782E-01 +6.34859E-01 -6.76324E-01 +8.67486E-01 -5.14406E-01 +1.04902E+00 -2.78300E-01
 +1.15672E+00 +1.46081E-02 +1.17387E+00 +3.40185E-01 +1.09168E+00 +6.69627E-01 +9.10569E-01 +9.72060E-01
 +6.40508E-01 +1.21744E+00 +3.00517E-01 +1.37948E+00 -8.27297E-02 +1.43834E+00 -4.77080E-01 +1.38276E+00
 -8.47673E-01 +1.21158E+00 -1.16007E+00 +9.34235E-01 -1.38345E+00 +5.70387E-01 -1.49365E+00 +1.48571E-01
 -1.47562E+00 -2.96033E-01 -1.32523E+00 -7.24517E-01 -1.05009E+00 -1.09760E+00 -6.69391E-01 -1.37917E+00
 -2.12679E-01 -1.53962E+00 +2.82363E-01 -1.55881E+00 +7.72903E-01 -1.42823E+00 +1.21454E+00 -1.15226E+00
 +1.56512E+00 -7.48275E-01 +1.78858E+00 -2.45724E-01 +1.85828E+00 +3.15993E-01 +1.75973E+00 +8.90517E-01
 +1.49231E+00 +1.42826E+00 +1.06993E+00 +1.88053E+00 +5.20342E-01 +2.20377E+00 -1.16634E-01 +2.36342E+00
 -7.92045E-01 +2.33723E+00 -1.45159E+00 +2.11760E+00 -2.03998E+00 +1.71275E+00 -2.50556E+00 +1.14664E+00
 -2.80469E+00 +4.57507E-01 -2.90574E+00 -3.04788E-01 -2.79202E+00 -1.08251E+00 -2.46374E+00 -1.81451E+00
 -1.93851E+00 -2.44120E+00 -1.25046E+00 -2.90940E+00 -4.47934E-01 -3.17696E+00 +4.09945E-01 -3.21648E+00
 +1.25783E+00 -3.01799E+00 +2.02921E+00 -2.59022E+00 +2.66183E+00 -1.96048E+00 +3.10273E+00 -1.17290E+00
 +3.31284E+00 -2.85343E-01 +3.27042E+00 +6.34900E-01 +2.97327E+00 +1.51627E+00 +2.43935E+00 +2.28859E+00
 +1.70584E+00 +2.88869E+00 +8.26591E-01 +3.26564E+00 -1.31802E-01 +3.38506E+00 -1.09503E+00 +3.23226E+00
 -1.98685E+00 +2.81378E+00 -2.73506E+00 +2.15734E+00 -3.27740E+00 +1.31005E+00 -3.56663E+00 +3.35008E-01
 -3.57457E+00 -6.93359E-01 -3.29472E+00 -1.69502E+00 -2.74311E+00 -2.59056E+00 -1.95746E+00 -3.30751E+00
 -9.94549E-01 -3.78617E+00 +7.39795E-02 -3.98453E+00 +1.16703E+00 -3.88192E+00 +2.20032E+00 -3.48089E+00
 +3.09298E+00 -2.80743E+00 +3.77401E+00 -1.90919E+00 +4.18798E+00 -8.52063E-01 +4.29965E+00 +2.84791E-01
 +4.09699E+00 +1.41502E+00 +3.59243E+00 +2.45180E+00 +2.82216E+00 +3.31469E+00 +1.84360E+00 +3.93606E+00
 +7.31024E-01 +4.26658E+00 -4.30036E-01 +4.27933E+00 -1.54949E+00 +3.97219E+00 -2.53976E+00 +3.36825E+00
 -3.32274E+00 +2.51430E+00 -3.83608E+00 +1.47731E+00 -4.03835E+00 +3.39385E-01 -3.91251E+00 -8.08589E-01
 -3.46753E+00 -1.87410E+00 -2.73801E+00 -2.77031E+00 -1.78169E+00 -3.42303E+00 -6.75111E-01 -3.77678E+00
 +4.92183E-01 -3.79938E+00 +1.62465E+00 -3.48482E+00 +2.62821E+00 -2.85401E+00 +3.41778E+00 -1.95354E+00
 +3.92405E+00 -8.52258E-01 +4.09919E+00 +3.63871E-01 +3.92093E+00 +1.59830E+00 +3.39460E+00 +2.75135E+00
 +2.55313E+00 +3.72806E+00 +1.45475E+00 +4.44559E+00 +1.78840E-01 +4.83992E+00 -1.18003E+00 +4.87105E+00
 -2.51924E+00 +4.52639E+00 -3.73603E+00 +3.82206E+00 -4.73536E+00 +2.80196E+00 -5.43738E+00 +1.53471E+00
 -5.78370E+00 +1.08531E-01 -5.74204E+00 -1.37526E+00 -5.30895E+00 -2.80996E+00 -4.51023E+00 -4.09158E+00
 -3.39920E+00 -5.12681E+00 -2.05270E+00 -5.84020E+00 -5.65393E-01 -6.17995E+00 +9.57437E-01 -6.12199E+00
 +2.40788E+00 -5.67182E+00 +3.68363E+00 -4.86416E+00 +4.69584E+00 -3.76030E+00 +5.37585E+00 -2.44336E+00
 +5.68049E+00 -1.01193E+00 +5.59533E+00 +4.27604E-01 +5.13570E+00 +1.76923E+00 +4.34543E+00 +2.91553E+00
 +3.29335E+00 +3.78525E+00 +2.06784E+00 +4.31952E+00 +7.69844E-01 +4.48642E+00 -4.95085E-01 +4.28337E+00
 -1.62511E+00 +3.73727E+00 -2.53016E+00 +2.90228E+00 -3.13902E+00 +1.85550E+00 -3.40502E+00 +6.90807E-01
 -3.30970E+00 -4.88637E-01 -2.86433E+00 -1.57859E+00 -2.10908E+00 -2.48206E+00 -1.10987E+00 -3.11711E+00
 +4.67857E-02 -3.42341E+00 +1.26057E+00 -3.36724E+00 +2.42529E+00 -2.94430E+00 +3.43730E+00 -2.18026E+00
 +4.20371E+00 -1.12899E+00 +4.64988E+00 +1.31486E-01 +4.72543E+00 +1.50490E+00 +4.40843E+00 +2.88414E+00
 +3.70740E+00 +4.15949E+00 +2.66091E+00 +5.22717E+00 +1.33493E+00 +5.99736E+00 -1.82056E-01 +6.40131E+00
 -1.78563E+00 +6.39674E+00 -3.36326E+00 +5.97124E+00 -4.80281E+00 +5.14346E+00 -6.00102E+00 +3.96183E+00
 -6.87128E+00 +2.50104E+00 -7.35023E+00 +8.56515E-01 -7.40250E+00 -8.62701E-01 -7.02337E+00 -2.54210E+00
 -6.23904E+00 -4.07024E+00 -5.10462E+00 -5.34710E+00 -3.69982E+00 -6.29141E+00 -2.12292E+00 -6.84667E+00
 -4.83225E-01 -6.98511E+00 +1.10723E+00 -6.70957E+00 +2.54209E+00 -6.05292E+00 +3.72867E+00 -5.07525E+00
 +4.59479E+00 -3.85897E+00 +5.09399E+00 -2.50223E+00 +5.20874E+00 -1.11120E+00 +4.95134E+00 +2.08252E-01
