 Created: 19-Jan-2021
 $NMID
 ID='D:\BASISSIMULATI'
 FMTDAT='(8E13.5)'
 VOLUME=   1.00000E+00
 TRAMP=   1.00000E+00
 $END
 +5.67400E+01 +5.01869E+00 +5.36231E+01 +1.90809E+01 +4.70825E+01 +3.19010E+01 +3.75417E+01 +4.26613E+01
 +2.56154E+01 +5.06768E+01 +1.20700E+01 +5.54396E+01 -2.22588E+00 +5.66500E+01 -1.63570E+01 +5.42363E+01
 -2.94201E+01 +4.83586E+01 -4.05816E+01 +3.93980E+01 -4.91307E+01 +2.79324E+01 -5.45250E+01 +1.46988E+01
 -5.64245E+01 +5.46088E-01 -5.47133E+01 -1.36193E+01 -4.95063E+01 -2.68916E+01 -4.11421E+01 -3.84237E+01
 -3.01604E+01 -4.74808E+01 -1.72675E+01 -5.34878E+01 -3.29074E+00 -5.60654E+01 +1.08745E+01 -5.50541E+01
 +2.43222E+01 -5.05242E+01 +3.61936E+01 -4.27709E+01 +4.57322E+01 -3.22950E+01 +5.23317E+01 -1.97706E+01
 +5.55747E+01 -6.00173E+00 +5.52592E+01 +8.12929E+00 +5.14109E+01 +2.17183E+01 +4.42815E+01 +3.38974E+01
 +3.43318E+01 +4.38899E+01 +2.22026E+01 +5.10605E+01 +8.67285E+00 +5.49549E+01 -5.39026E+00 +5.53295E+01
 -1.90866E+01 +5.21656E+01 -3.15411E+01 +4.56713E+01 -4.19593E+01 +3.62669E+01 -4.96783E+01 +2.45584E+01
 -5.42087E+01 +1.12980E+01 -5.52659E+01 -2.66395E+00 -5.27877E+01 -1.64337E+01 -4.69382E+01 -2.91310E+01
 -3.80966E+01 -3.99458E+01 -2.68330E+01 -4.81895E+01 -1.38714E+01 -5.33390E+01 -4.31987E-02 -5.50699E+01
 +1.37661E+01 -5.32769E+01 +2.66735E+01 -4.80802E+01 +3.78551E+01 -3.98175E+01 +4.65987E+01 -2.90217E+01
 +5.23491E+01 -1.63873E+01 +5.47432E+01 -2.72485E+00 +5.36333E+01 +1.10904E+01 +4.90959E+01 +2.41748E+01
 +4.14263E+01 +3.56929E+01 +3.11200E+01 +4.49107E+01 +1.88401E+01 +5.12425E+01 +5.37478E+00 +5.42879E+01
 -8.41306E+00 +5.38574E+01 -2.16413E+01 +4.99838E+01 -3.34651E+01 +4.29204E+01 -4.31305E+01 +3.31238E+01
 -5.00230E+01 +2.12246E+01 -5.37062E+01 +7.98692E+00 -5.39497E+01 -5.74062E+00 -5.07432E+01 -1.90796E+01
 -4.42972E+01 -3.11776E+01 -3.50290E+01 -4.12632E+01 -2.35356E+01 -4.86946E+01 -1.05553E+01 -5.30007E+01
 +3.07944E+00 -5.39113E+01 +1.64959E+01 -5.13733E+01 +2.88366E+01 -4.55545E+01 +3.93141E+01 -3.68321E+01
 +4.72614E+01 -2.57683E+01 +5.21743E+01 -1.30743E+01 +5.37435E+01 +4.35818E-01 +5.18739E+01 +1.38968E+01
 +4.66904E+01 +2.64482E+01 +3.85296E+01 +3.72887E+01 +2.79181E+01 +4.57280E+01 +1.55381E+01 +5.12301E+01
 +2.18406E+00 +5.34480E+01 -1.12887E+01 +5.22450E+01 -2.40185E+01 +4.77032E+01 -3.51925E+01 +4.01185E+01
 -4.40989E+01 +2.99805E+01 -5.01715E+01 +1.79414E+01 -5.30267E+01 +4.77410E+00 -5.24868E+01 -8.67782E+00
 -4.85918E+01 -2.15538E+01 -4.15959E+01 -3.30314E+01 -3.19514E+01 -4.23789E+01 -2.02790E+01 -4.90021E+01
 -7.32836E+00 -5.24817E+01 +6.07057E+00 -5.26001E+01 +1.90603E+01 -4.93551E+01 +3.08110E+01 -4.29594E+01
 +4.05731E+01 -3.38270E+01 +4.77257E+01 -2.25459E+01 +5.18155E+01 -9.84103E+00 +5.25857E+01 +3.47317E+00
 +4.99925E+01 +1.65444E+01 +4.42067E+01 +2.85373E+01 +3.56035E+01 +3.86866E+01 +2.47373E+01 +4.63464E+01
 +1.23064E+01 +5.10308E+01 -8.91782E-01 +5.24450E+01 -1.40123E+01 +5.05035E+01 -2.62162E+01 +4.53360E+01
 -3.67247E+01 +3.72777E+01 -4.48686E+01 +2.68486E+01 -5.01308E+01 +1.47191E+01 -5.21793E+01 +1.66754E+00
 -5.08883E+01 -1.14702E+01 -4.63455E+01 -2.38539E+01 -3.88465E+01 -3.46929E+01 -2.88754E+01 -4.32966E+01
 -1.70737E+01 -4.91185E+01 -4.19884E+00 -5.17906E+01 +8.92431E+00 -5.11470E+01 +2.14562E+01 -4.72341E+01
 +3.25966E+01 -4.03071E+01 +4.16352E+01 -3.08138E+01 +4.79975E+01 -1.93652E+01 +5.12809E+01 -6.69630E+00
 +5.12802E+01 +6.38086E+00 +4.80006E+01 +1.90295E+01 +4.16570E+01 +3.04415E+01 +3.26599E+01 +3.98892E+01
 +2.15885E+01 +4.67716E+01 +9.15421E+00 +5.06525E+01 -3.84591E+00 +5.12887E+01 -1.65797E+01 +4.86444E+01
 -2.82334E+01 +4.28940E+01 -3.80636E+01 +3.44100E+01 -4.54446E+01 +2.37391E+01 -4.99082E+01 +1.15670E+01
 -5.11737E+01 -1.32549E+00 -4.91652E+01 -1.41130E+01 -4.40162E+01 -2.59781E+01 -3.60609E+01 -3.61635E+01
 -2.58123E+01 -4.40207E+01 -1.39294E+01 -4.90508E+01 -1.17448E+00 -5.09367E+01 +1.16355E+01 -4.95627E+01
 +2.36814E+01 -4.50219E+01 +3.41942E+01 -3.76095E+01 +4.25042E+01 -2.78040E+01 +4.80833E+01 -1.62361E+01
 +5.05793E+01 -3.64817E+00 +4.98373E+01 +9.15323E+00 +4.59099E+01 +2.13493E+01 +3.90531E+01 +3.21611E+01
 +2.97101E+01 +4.08996E+01 +1.84820E+01 +4.70093E+01 +6.08988E+00 +5.01035E+01 -6.67222E+00 +4.99893E+01
 -1.89877E+01 +4.66790E+01 -3.00697E+01 +4.03892E+01 -3.92117E+01 +3.15268E+01 -4.58321E+01 +2.06625E+01
 -4.95117E+01 +8.49403E+00 -5.00197E+01 -4.19841E+00 -4.73286E+01 -1.66025E+01 -4.16156E+01 -2.79255E+01
 -3.32506E+01 -3.74452E+01 -2.27727E+01 -4.45558E+01 -1.08552E+01 -4.88062E+01 +1.73772E+00 -4.99293E+01
 +1.41997E+01 -4.78582E+01 +2.57343E+01 -4.27303E+01 +3.56053E+01 -3.48782E+01 +4.31841E+01 -2.48084E+01
 +4.79899E+01 -1.31681E+01 +4.97197E+01 -7.04083E-01 +4.82677E+01 +1.17854E+01 +4.37317E+01 +2.35017E+01
 +3.64066E+01 +3.36969E+01 +2.67652E+01 +4.17215E+01 +1.54276E+01 +4.70658E+01 +3.12128E+00 +4.93924E+01
 -9.36527E+00 +4.85572E+01 -2.12334E+01 +4.46185E+01 -3.17253E+01 +3.78331E+01 -4.01721E+01 +2.86393E+01
 -4.60371E+01 +1.76288E+01 -4.89493E+01 +5.50829E+00 -4.87271E+01 -6.94535E+00 -4.53896E+01 -1.89354E+01
 -3.91552E+01 -2.96958E+01 -3.04269E+01 -3.85406E+01 -1.97669E+01 -4.49073E+01 -7.85966E+00 -4.83926E+01
 +4.53141E+00 -4.87782E+01 +1.66133E+01 -4.60443E+01 +2.76140E+01 -4.03706E+01 +3.68317E+01 -3.21245E+01
 +4.36800E+01 -2.18374E+01 +4.77246E+01 -1.01701E+01 +4.87114E+01 +2.12921E+00 +4.65820E+01 +1.42730E+01
 +4.14775E+01 +2.54852E+01 +3.37289E+01 +3.50502E+01 +2.38359E+01 +4.23591E+01 +1.24343E+01 +4.69481E+01
 +2.55581E-01 +4.85280E+01 -1.19204E+01 +4.70025E+01 -2.33150E+01 +4.24742E+01 -3.32010E+01 +3.52371E+01
 -4.09486E+01 +2.57583E+01 -4.60658E+01 +1.46474E+01 -4.82295E+01 +2.61739E+00 -4.73061E+01 -9.56110E+00
 -4.33593E+01 -2.11091E+01 -3.66463E+01 -3.12893E+01 -2.76007E+01 -3.94529E+01 -1.68045E+01 -4.50810E+01
 -4.95074E+00 -4.78178E+01 +7.20095E+00 -4.74929E+01 +1.88731E+01 -4.41317E+01 +2.93202E+01 -3.79541E+01
 +3.78762E+01 -2.93594E+01 +4.39970E+01 -1.89009E+01 +4.72949E+01 -7.25029E+00 +4.75637E+01 +4.84561E+00
 +4.47908E+01 +1.66127E+01 +3.91583E+01 +2.72991E+01 +3.10309E+01 +3.62232E+01 +2.09321E+01 +4.28172E+01
 +9.51082E+00 +4.66631E+01 -2.50070E+00 +4.75193E+01 -1.43335E+01 +4.53358E+01 -2.52312E+01 +4.02570E+01
 -3.44985E+01 +3.26121E+01 -4.15455E+01 +2.28940E+01 -4.59249E+01 +1.17273E+01 -4.73611E+01 -1.71772E-01
 -4.57667E+01 -1.20411E+01 -4.12485E+01 -2.31220E+01 -3.41000E+01 -3.27070E+01 -2.47823E+01 -4.01857E+01
 -1.38947E+01 -4.50831E+01 -2.13572E+00 -4.70903E+01 +9.74134E+00 -4.60834E+01 +2.09769E+01 -4.21314E+01
 +3.08536E+01 -3.54918E+01 +3.87419E+01 -2.65933E+01 +4.41408E+01 -1.60083E+01 +4.67088E+01 -4.41643E+00
 +4.62862E+01 +7.43967E+00 +4.29047E+01 +1.88015E+01 +3.67852E+01 +2.89433E+01 +2.83233E+01 +3.72185E+01
 +1.80637E+01 +4.31010E+01 +6.66512E+00 +4.62184E+01 -5.14169E+00 +4.63757E+01 -1.66012E+01 +4.35675E+01
 -2.69813E+01 +3.79780E+01 -3.56198E+01 +2.99689E+01 -4.19673E+01 +2.00562E+01 -4.56214E+01 +8.87667E+00
 -4.63528E+01 -2.85289E+00 -4.41192E+01 -1.43816E+01 -3.90681E+01 -2.49727E+01 -3.15270E+01 -3.39504E+01
 -2.19818E+01 -4.07432E+01 -1.10461E+01 -4.49203E+01 +5.78701E-01 -4.62186E+01 +1.21483E+01 -4.45596E+01
 +2.29229E+01 -4.00541E+01 +3.22150E+01 -3.29946E+01 +3.94326E+01 -2.38365E+01 +4.41176E+01 -1.31686E+01
 +4.59744E+01 -1.67555E+00 +4.48886E+01 +9.90663E+00 +4.09344E+01 +2.08372E+01 +3.43690E+01 +3.04183E+01
 +2.56164E+01 +3.80394E+01 +1.52396E+01 +4.32163E+01 +3.90462E+00 +4.56218E+01 -7.66217E+00 +4.51065E+01
 -1.87209E+01 +4.17079E+01 -2.85653E+01 +3.56478E+01 -3.65677E+01 +2.73179E+01 -4.22194E+01 +1.72544E+01
 -4.51628E+01 +6.10339E+00 -4.52138E+01 -5.42033E+00 -4.23738E+01 -1.65794E+01 -3.68288E+01 -2.66609E+01
 -2.89377E+01 -3.50218E+01 -1.92088E+01 -4.11303E+01 -8.26685E+00 -4.45994E+01 +3.18648E+00 -4.52113E+01
 +1.44181E+01 -4.29315E+01 +2.47102E+01 -3.79102E+01 +3.34061E+01 -3.04728E+01 +3.99525E+01 -2.10986E+01
 +4.39339E+01 -1.03901E+01 +4.51000E+01 +9.65910E-01 +4.33806E+01 +1.22424E+01 +3.88901E+01 +2.27183E+01
 +3.19200E+01 +3.17252E+01 +2.29199E+01 +3.86895E+01 +1.24685E+01 +4.31690E+01 +1.23615E+00 +4.48813E+01
 -1.00576E+01 +4.37212E+01 -2.06905E+01 +3.97673E+01 -2.99838E+01 +3.32769E+01 -3.73453E+01 +2.46690E+01
 -4.23074E+01 +1.44973E+01 -4.45566E+01 +3.41458E+00 -4.39533E+01 -7.86908E+00 -4.05406E+01 -1.86319E+01
 -3.45410E+01 -2.81865E+01 -2.63424E+01 -3.59238E+01 -1.64722E+01 -4.13520E+01 -5.56436E+00 -4.41277E+01
 +5.68218E+00 -4.40775E+01 +1.65477E+01 -4.12090E+01 +2.63382E+01 -3.57102E+01 +3.44292E+01 -2.79366E+01
 +4.03061E+01 -1.83890E+01 +4.35966E+01 -7.68059E+00 +4.40944E+01 +3.50212E+00 +4.17720E+01 +1.44433E+01
 +3.67824E+01 +2.44439E+01 +2.94487E+01 +3.28658E+01 +2.02435E+01 +3.91730E+01 +9.75848E+00 +4.29657E+01
 -1.33408E+00 +4.40051E+01 -1.23239E+01 +4.22292E+01 -2.25085E+01 +3.77560E+01 -3.12380E+01 +3.08757E+01
 -3.79563E+01 +2.20320E+01 -4.22372E+01 +1.17934E+01 -4.38107E+01 +8.16826E-01 -4.25805E+01 -1.01947E+01
 -3.86297E+01 -2.05372E+01 -3.22150E+01 -2.95502E+01 -2.37506E+01 -3.66597E+01 -1.37808E+01 -4.14140E+01
 -2.94559E+00 -4.35128E+01 +8.06099E+00 -4.28261E+01 +1.85349E+01 -3.94022E+01 +2.78072E+01 -3.34642E+01
 +3.52870E+01 -2.53959E+01 +4.04988E+01 -1.57165E+01 +4.31129E+01 -5.04730E+00 +4.29662E+01 +5.92785E+00
 +4.00726E+01 +1.65068E+01 +3.46212E+01 +2.60136E+01 +2.69647E+01 +3.38422E+01 +1.75961E+01 +3.94947E+01
 +7.11715E+00 +4.26130E+01 -3.80046E+00 +4.30017E+01 -1.44579E+01 +4.06403E+01 -2.41742E+01 +3.56840E+01
 -3.23296E+01 +2.84539E+01 -3.84050E+01 +1.94158E+01 -4.20152E+01 +9.15046E+00 -4.29334E+01 -1.68388E+00
 -4.11049E+01 -1.23935E+01 -3.66510E+01 -2.22940E+01 -2.98607E+01 -3.07534E+01 -2.11717E+01 -3.72331E+01
 -1.11427E+01 -4.13220E+01 -4.16895E-01 -4.27623E+01 +1.03187E+01 -4.14662E+01 +2.03777E+01 -3.75207E+01
 +2.91179E+01 -3.11824E+01 +3.59826E+01 -2.28602E+01 +4.05358E+01 -1.30894E+01 +4.24900E+01 -2.49696E+00
 +4.17243E+01 +8.23849E+00 +3.82920E+01 +1.84303E+01 +3.24167E+01 +2.74277E+01 +2.44778E+01 +3.46573E+01
