 Created: 19-Jan-2021
 $NMID
 ID='D:\BASISSIMULATI'
 FMTDAT='(8E13.5)'
 VOLUME=   1.00000E+00
 TRAMP=   1.00000E+00
 $END
 +3.72423E+01 +3.27817E+00 +3.51505E+01 +1.25440E+01 +3.07868E+01 +2.09612E+01 +2.44462E+01 +2.79821E+01
 +1.65531E+01 +3.31536E+01 +7.63260E+00 +3.61471E+01 -1.72560E+00 +3.67799E+01 -1.09064E+01 +3.50263E+01
 -1.93107E+01 +3.10183E+01 -2.63951E+01 +2.50359E+01 -3.17080E+01 +1.74871E+01 -3.49184E+01 +8.87969E+00
 -3.58374E+01 -2.13523E-01 -3.44291E+01 -9.19339E+00 -3.08116E+01 -1.74747E+01 -2.52471E+01 -2.45250E+01
 -1.81235E+01 -2.98994E+01 -9.92618E+00 -3.32692E+01 -1.20507E+00 -3.44423E+01 +7.46316E+00 -3.33739E+01
 +1.55137E+01 -3.01679E+01 +2.24313E+01 -2.50674E+01 +2.77834E+01 -1.84365E+01 +3.12480E+01 -1.07342E+01
 +3.26331E+01 -2.48192E+00 +3.18873E+01 +5.77180E+00 +2.91005E+01 +1.34888E+01 +2.44955E+01 +2.01768E+01
 +1.84105E+01 +2.54211E+01 +1.12742E+01 +2.89110E+01 +3.57517E+00 +3.04583E+01 -4.17150E+00 +3.00069E+01
 -1.14597E+01 +2.76341E+01 -1.78256E+01 +2.35417E+01 -2.28776E+01 +1.80405E+01 -2.63207E+01 +1.15261E+01
 -2.79741E+01 +4.45062E+00 -2.77798E+01 -2.70881E+00 -2.58035E+01 -9.48285E+00 -2.22269E+01 -1.54410E+01
 -1.73321E+01 -2.02195E+01 -1.14797E+01 -2.35434E+01 -5.08273E+00 -2.52428E+01 +1.42326E+00 -2.52605E+01
 +7.60966E+00 -2.36529E+01 +1.30836E+01 -2.05819E+01 +1.75131E+01 -1.63010E+01 +2.06473E+01 -1.11349E+01
 +2.23306E+01 -5.45524E+00 +2.25098E+01 +3.46301E-01 +2.12337E+01 +5.88503E+00 +1.86462E+01 +1.08091E+01
 +1.49725E+01 +1.48218E+01 +1.05011E+01 +1.77000E+01 +5.56141E+00 +1.93057E+01 +4.99450E-01 +1.95922E+01
 -4.34615E+00 +1.86034E+01 -8.66707E+00 +1.64666E+01 -1.22050E+01 +1.33803E+01 -1.47670E+01 +9.59711E+00
 -1.62358E+01 +5.40395E+00 -1.65741E+01 +1.10059E+00 -1.58230E+01 -3.02169E+00 -1.40957E+01 -6.69983E+00
 -1.15653E+01 -9.71584E+00 -8.44985E+00 -1.19095E+01 -4.99453E+00 -1.31866E+01 -1.45294E+00 -1.35216E+01
 +1.93129E+00 -1.29557E+01 +4.94120E+00 -1.15898E+01 +7.40034E+00 -9.57395E+00 +9.18290E+00 -7.09341E+00
 +1.02196E+01 -4.35303E+00 +1.04989E+01 -1.56125E+00 +1.00643E+01 +1.08543E+00 +9.00712E+00 +3.41608E+00
 +7.45665E+00 +5.29622E+00 +5.56756E+00 +6.63532E+00 +3.50652E+00 +7.39045E+00 +1.43853E+00 +7.56601E+00
 -4.85639E-01 +7.20984E+00 -2.14018E+00 +6.40615E+00 -3.43225E+00 +5.26599E+00 -4.30680E+00 +3.91624E+00
 -4.74803E+00 +2.48796E+00 -4.77759E+00 +1.10517E+00 -4.44962E+00 -1.24985E-01 -3.84353E+00 -1.12015E+00
 -3.05495E+00 -1.82797E+00 -2.18586E+00 -2.22836E+00 -1.33478E+00 -2.33289E+00 -5.87770E-01 -2.18128E+00
 -1.10947E-02 -1.83556E+00 +3.53959E-01 -1.37254E+00 +4.93670E-01 -8.75142E-01 +4.21773E-01 -4.23623E-01
 +1.76735E-01 -8.73357E-02 -1.83250E-01 +8.21860E-02 -5.87058E-01 +5.62359E-02 -9.58537E-01 -1.68388E-01
 -1.22480E+00 -5.69237E-01 -1.32412E+00 -1.10058E+00 -1.21270E+00 -1.69804E+00 -8.69780E-01 -2.28507E+00
 -3.00456E-01 -2.78068E+00 +4.63872E-01 -3.10768E+00 +1.36760E+00 -3.20073E+00 +2.33536E+00 -3.01345E+00
 +3.27840E+00 -2.52394E+00 +4.10243E+00 -1.73819E+00 +4.71622E+00 -6.91066E-01 +5.04019E+00 +5.55314E-01
 +5.01427E+00 +1.91565E+00 +4.60437E+00 +3.28773E+00 +3.80680E+00 +4.56046E+00 +2.65023E+00 +5.62288E+00
 +1.19504E+00 +6.37352E+00 -4.70053E-01 +6.72942E+00 -2.23384E+00 +6.63379E+00 -3.97049E+00 +6.06195E+00
 -5.54894E+00 +5.02485E+00 -6.84301E+00 +3.56977E+00 -7.74145E+00 +1.77830E+00 -8.15723E+00 -2.38542E-01
 -8.03517E+00 -2.34763E+00 -7.35739E+00 -4.40299E+00 -6.14605E+00 -6.25630E+00 -4.46313E+00 -7.76795E+00
 -2.40714E+00 -8.81768E+00 -1.07089E-01 -9.31408E+00 +2.28610E+00 -9.20222E+00 +4.60991E+00 -8.46868E+00
 +6.70172E+00 -7.14373E+00 +8.41054E+00 -5.30025E+00 +9.60815E+00 -3.04958E+00 +1.01988E+01 -5.34438E-01
 +1.01267E+01 +2.08051E+00 +9.38105E+00 +4.61990E+00 +7.99724E+00 +6.90987E+00 +6.05562E+00 +8.79030E+00
 +3.67646E+00 +1.01263E+01 +1.01215E+00 +1.08181E+01 -1.76291E+00 +1.08084E+01 -4.46416E+00 +1.00871E+01
 -6.90955E+00 +8.69240E+00 -8.93219E+00 +6.70902E+00 -1.03920E+01 +4.26249E+00 -1.11857E+01 +1.51107E+00
 -1.12540E+01 -1.36485E+00 -1.05864E+01 -4.17503E+00 -9.22164E+00 -6.73228E+00 -7.24594E+00 -8.86530E+00
 -4.78693E+00 -1.04304E+01 -2.00528E+00 -1.13215E+01 +9.16154E-01 -1.14772E+01 +3.78471E+00 -1.08854E+01
 +6.41093E+00 -9.58383E+00 +8.62143E+00 -7.65776E+00 +1.02705E+01 -5.23409E+00 +1.12502E+01 -2.47280E+00
 +1.14969E+01 +4.43924E-01 +1.09964E+01 +3.32399E+00 +9.78386E+00 +5.97835E+00 +7.94165E+00 +8.23369E+00
 +5.59354E+00 +9.94397E+00 +2.89615E+00 +1.10000E+01 +2.82613E-02 +1.13367E+01 -2.82126E+00 +1.09368E+01
 -5.46617E+00 +9.83198E+00 -7.73523E+00 +8.10020E+00 -9.48349E+00 +5.86007E+00 -1.06017E+01 +3.26262E+00
 -1.10232E+01 +4.80918E-01 -1.07279E+01 -2.30167E+00 -9.74301E+00 -4.90375E+00 -8.14088E+00 -7.15794E+00
 -6.03342E+00 -8.92176E+00 -3.56430E+00 -1.00867E+01 -8.98990E-01 -1.05851E+01 +1.78650E+00 -1.03938E+01
 +4.31736E+00 -9.53530E+00 +6.53152E+00 -8.07526E+00 +8.29014E+00 -6.11780E+00 +9.48636E+00 -3.79789E+00
 +1.00518E+01 -1.27194E+00 +9.96053E+00 +1.29281E+00 +9.22975E+00 +3.72948E+00 +7.91816E+00 +5.88252E+00
 +6.12123E+00 +7.61768E+00 +3.96427E+00 +8.83043E+00 +1.59363E+00 +9.45221E+00 -8.33279E-01 +9.45425E+00
 -3.15848E+00 +8.84864E+00 -5.23380E+00 +7.68668E+00 -6.93032E+00 +6.05476E+00 -8.14637E+00 +4.06797E+00
 -8.81361E+00 +1.86196E+00 -8.90072E+00 -4.16302E-01 -8.41463E+00 -2.61839E+00 -7.39921E+00 -4.60406E+00
 -5.93162E+00 -6.25021E+00 -4.11647E+00 -7.45846E+00 -2.07845E+00 -8.16095E+00 +4.62398E-02 -8.32405E+00
 +2.11896E+00 -7.94971E+00 +4.00770E+00 -7.07447E+00 +5.59541E+00 -5.76629E+00 +6.78721E+00 -4.11939E+00
 +7.51597E+00 -2.24751E+00 +7.74595E+00 -2.76131E-01 +7.47432E+00 +1.66592E+00 +6.73054E+00 +3.45483E+00
 +5.57365E+00 +4.97963E+00 +4.08771E+00 +6.14902E+00 +2.37583E+00 +6.89669E+00 +5.53052E-01 +7.18499E+00
 -1.26133E+00 +7.00656E+00 -2.95147E+00 +6.38409E+00 -4.41231E+00 +5.36808E+00 -5.55601E+00 +4.03293E+00
 -6.31713E+00 +2.47157E+00 -6.65619E+00 +7.89120E-01 -6.56159E+00 -9.04159E-01 -6.04962E+00 -2.49997E+00
 -5.16274E+00 -3.89881E+00 -3.96626E+00 -5.01608E+00 -2.54359E+00 -5.78710E+00 -9.90572E-01 -6.17068E+00
 +5.90905E-01 -6.15120E+00 +2.09950E+00 -5.73895E+00 +3.44080E+00 -4.96891E+00 +4.53312E+00 -3.89794E+00
 +5.31236E+00 -2.60071E+00 +5.73564E+00 -1.16455E+00 +5.78353E+00 +3.16267E-01 +5.46077E+00 +1.74668E+00
 +4.79542E+00 +3.03678E+00 +3.83662E+00 +4.10738E+00 +2.65105E+00 +4.89476E+00 +1.31841E+00 +5.35433E+00
 -7.38699E-02 +5.46305E+00 -1.43623E+00 +5.22050E+00 -2.68267E+00 +4.64839E+00 -3.73604E+00 +3.78887E+00
 -4.53273E+00 +2.70145E+00 -5.02642E+00 +1.45903E+00 -5.19064E+00 +1.43049E-01 -5.02017E+00 -1.16171E+00
 -4.53097E+00 -2.37250E+00 -3.75886E+00 -3.41377E+00 -2.75700E+00 -4.22177E+00 -1.59229E+00 -4.74837E+00
 -3.40999E-01 -4.96387E+00 +9.16155E-01 -4.85861E+00 +2.09910E+00 -4.44332E+00 +3.13344E+00 -3.74818E+00
 +3.95505E+00 -2.82072E+00 +4.51398E+00 -1.72262E+00 +4.77746E+00 -5.25678E-01 +4.73174E+00 +6.92767E-01
 +4.38282E+00 +1.85481E+00 +3.75585E+00 +2.88684E+00 +2.89341E+00 +3.72418E+00 +1.85264E+00 +4.31507E+00
 +7.01526E-01 +4.62383E+00 -4.85451E-01 +4.63301E+00 -1.63210E+00 +4.34433E+00 -2.66536E+00 +3.77848E+00
 -3.51987E+00 +2.97367E+00 -4.14213E+00 +1.98307E+00 -4.49379E+00 +8.71407E-01 -4.55400E+00 -2.89274E-01
 -4.32070E+00 -1.42420E+00 -3.81059E+00 -2.46068E+00 -3.05802E+00 -3.33269E+00 -2.11270E+00 -3.98512E+00
 -1.03645E+00 -4.37720E+00 +1.00794E-01 -4.48509E+00 +1.22552E+00 -4.30332E+00 +2.26536E+00 -3.84507E+00
 +3.15374E+00 -3.14127E+00 +3.83417E+00 -2.23852E+00 +4.26379E+00 -1.19603E+00 +4.41613E+00 -8.17622E-02
 +4.28277E+00 +1.03198E+00 +3.87375E+00 +2.07328E+00 +3.21693E+00 +2.97523E+00 +2.35606E+00 +3.68026E+00
 +1.34790E+00 +4.14382E+00 +2.58470E-01 +4.33726E+00 -8.41266E-01 +4.24957E+00 -1.88005E+00 +3.88805E+00
 -2.79098E+00 +3.27777E+00 -3.51582E+00 +2.45981E+00 -4.00881E+00 +1.48850E+00 -4.23954E+00 +4.27830E-01
 -4.19485E+00 -6.52791E-01 -3.87966E+00 -1.68313E+00 -3.31644E+00 -2.59672E+00 -2.54370E+00 -3.33519E+00
 -1.61331E+00 -3.85205E+00 -5.87028E-01 -4.11563E+00 +4.67639E-01 -4.11107E+00 +1.48193E+00 -3.84119E+00
 +2.39034E+00 -3.32608E+00 +3.13493E+00 -2.60172E+00 +3.66904E+00 -1.71738E+00 +3.96029E+00 -7.32316E-01
 +3.99255E+00 +2.88286E-01 +3.76681E+00 +1.27765E+00 +3.30099E+00 +2.17184E+00 +2.62850E+00 +2.91396E+00
 +1.79586E+00 +3.45780E+00 +8.59476E-01 +3.77078E+00 -1.18234E-01 +3.83594E+00 -1.07305E+00 +3.65278E+00
 -1.94323E+00 +3.23715E+00 -2.67356E+00 +2.61988E+00 -3.21890E+00 +1.84454E+00 -3.54703E+00 +9.64337E-01
 -3.64056E+00 +3.84444E-02 -3.49782E+00 -8.72053E-01 -3.13269E+00 -1.70823E+00 -2.57341E+00 -2.41719E+00
 -1.86039E+00 -2.95546E+00 -1.04331E+00 -3.29171E+00 -1.77621E-01 -3.40853E+00 +6.79268E-01 -3.30335E+00
 +1.47184E+00 -2.98823E+00 +2.15011E+00 -2.48877E+00 +2.67284E+00 -1.84205E+00 +3.01004E+00 -1.09390E+00
 +3.14470E+00 -2.95638E-01 +3.07358E+00 +4.99477E-01 +2.80704E+00 +1.23986E+00 +2.36803E+00 +1.87896E+00
 +1.79014E+00 +2.37825E+00 +1.11511E+00 +2.70951E+00 +3.89805E-01 +2.85644E+00 -3.37088E-01 +2.81536E+00
 -1.01832E+00 +2.59503E+00 -1.61120E+00 +2.21575E+00 -2.08027E+00 +1.70753E+00 -2.39942E+00 +1.10785E+00
 -2.55329E+00 +4.58838E-01 -2.53793E+00 -1.95624E-01 -2.36061E+00 -8.12930E-01 -2.03899E+00 -1.35451E+00
 -1.59944E+00 -1.78822E+00 -1.07508E+00 -2.09026E+00 -5.03204E-01 -2.24638E+00 +7.72725E-02 -2.25246E+00
 +6.28506E-01 -2.11435E+00 +1.11616E+00 -1.84705E+00 +1.51151E+00 -1.47334E+00 +1.79313E+00 -1.02195E+00
 +1.94789E+00 -5.25340E-01 +1.97154E+00 -1.74771E-02 +1.86850E+00 +4.68522E-01 +1.65118E+00 +9.02492E-01
 +1.33877E+00 +1.25905E+00 +9.55706E-01 +1.51901E+00 +5.29749E-01 +1.67032E+00 +9.00708E-02 +1.70848E+00
 -3.34719E-01 +1.63645E+00 -7.18378E-01 +1.46405E+00 -1.03858E+00 +1.20698E+00 -1.27815E+00 +8.85506E-01
 -1.42581E+00 +5.22946E-01 -1.47666E+00 +1.44002E-01 -1.43206E+00 -2.26840E-01 -1.29922E+00 -5.66822E-01
 -1.09044E+00 -8.56223E-01 -8.22063E-01 -1.07940E+00 -5.13275E-01 -1.22549E+00 -1.84780E-01 -1.28883E+00
