 Created: 19-Jan-2021
 $NMID
 ID='D:\BASISSIMULATI'
 FMTDAT='(8E13.5)'
 VOLUME=   1.00000E+00
 TRAMP=   1.00000E+00
 $END
 +4.06406E+01 +2.14559E+00 +3.44630E+01 +1.99038E+01 +1.97399E+01 +3.09567E+01 +2.10914E+00 +3.16834E+01
 -1.17937E+01 +2.25550E+01 -1.69869E+01 +7.89476E+00 -1.21088E+01 -5.90332E+00 +8.67710E-02 -1.29690E+01
 +1.38915E+01 -1.03172E+01 +2.29833E+01 +9.71544E-01 +2.29959E+01 +1.62156E+01 +1.32845E+01 +2.90451E+01
 -2.81733E+00 +3.39836E+01 -1.93425E+01 +2.86565E+01 -3.00862E+01 +1.47437E+01 -3.10841E+01 -2.69985E+00
 -2.21793E+01 -1.72698E+01 -7.05452E+00 -2.37644E+01 +8.26968E+00 -2.02342E+01 +1.78584E+01 -8.71355E+00
 +1.82271E+01 +5.64961E+00 +9.70103E+00 +1.67021E+01 -3.76878E+00 +1.97762E+01 -1.62439E+01 +1.35591E+01
 -2.22229E+01 +5.96370E-01 -1.88702E+01 -1.37623E+01 -7.15710E+00 -2.35384E+01 +8.53658E+00 -2.45396E+01
 +2.21869E+01 -1.60428E+01 +2.85394E+01 -1.07511E+00 +2.51978E+01 +1.48084E+01 +1.35542E+01 +2.57487E+01
 -1.80273E+00 +2.79084E+01 -1.49510E+01 +2.09673E+01 -2.10111E+01 +8.19554E+00 -1.80781E+01 -4.91082E+00
 -7.93986E+00 -1.28705E+01 +4.69561E+00 -1.24278E+01 +1.41383E+01 -3.84567E+00 +1.60319E+01 +9.22881E+00
 +9.11341E+00 +2.12599E+01 -4.28472E+00 +2.70671E+01 -1.91806E+01 +2.39110E+01 -2.99449E+01 +1.25843E+01
 -3.25475E+01 -2.91857E+00 -2.61457E+01 -1.70102E+01 -1.33843E+01 -2.47391E+01 +6.99198E-01 -2.37422E+01
 +1.07125E+01 -1.51396E+01 +1.30634E+01 -3.02711E+00 +7.36630E+00 +7.21648E+00 -3.45384E+00 +1.11163E+01
 -1.43894E+01 +6.89883E+00 -2.04020E+01 -3.81563E+00 -1.84665E+01 -1.66936E+01 -8.78766E+00 -2.64536E+01
 +5.29127E+00 -2.89984E+01 +1.86385E+01 -2.30543E+01 +2.63882E+01 -1.06664E+01 +2.58701E+01 +3.63742E+00
 +1.76425E+01 +1.46655E+01 +5.22549E+00 +1.86248E+01 -6.34407E+00 +1.45996E+01 -1.25444E+01 +4.86145E+00
 -1.11659E+01 -6.10084E+00 -3.15688E+00 -1.34250E+01 +7.80874E+00 -1.38448E+01 +1.68543E+01 -6.99380E+00
 +1.98889E+01 +4.47257E+00 +1.52596E+01 +1.59708E+01 +4.40782E+00 +2.28473E+01 -8.72197E+00 +2.22472E+01
 -1.92700E+01 +1.42446E+01 -2.33989E+01 +1.79067E+00 -1.98009E+01 -1.04859E+01 -1.01784E+01 -1.81326E+01
 +1.48337E+00 -1.86309E+01 +1.05423E+01 -1.23563E+01 +1.35637E+01 -2.36806E+00 +9.67168E+00 +6.87173E+00
 +8.54764E-01 +1.13219E+01 -8.88274E+00 +8.99061E+00 -1.51683E+01 +7.18189E-01 -1.50362E+01 -1.01877E+01
 -8.11723E+00 -1.93043E+01 +3.22681E+00 -2.28781E+01 +1.48632E+01 -1.93223E+01 +2.25459E+01 -9.82995E+00
 +2.35968E+01 +2.12874E+00 +1.79403E+01 +1.22101E+01 +8.08446E+00 +1.69274E+01 -1.92597E+00 +1.50116E+01
 -8.15184E+00 +7.86423E+00 -8.33104E+00 -1.06407E+00 -2.75149E+00 -7.70507E+00 +5.91302E+00 -9.02797E+00
 +1.37224E+01 -4.25214E+00 +1.70823E+01 +4.86193E+00 +1.41957E+01 +1.47462E+01 +5.77464E+00 +2.14743E+01
 -5.26201E+00 +2.23363E+01 -1.49686E+01 +1.69064E+01 -1.99460E+01 +7.18485E+00 -1.86732E+01 -3.22837E+00
 -1.20700E+01 -1.05826E+01 -3.07734E+00 -1.24595E+01 +4.55795E+00 -8.69731E+00 +7.79729E+00 -1.39672E+00
 +5.51080E+00 +5.97801E+00 -1.10953E+00 +1.00264E+01 -9.07568E+00 +8.78760E+00 -1.48416E+01 +2.51466E+00
 -1.57452E+01 -6.45261E+00 -1.10746E+01 -1.46498E+01 -2.33631E+00 -1.88862E+01 +7.36551E+00 -1.75128E+01
 +1.45782E+01 -1.10553E+01 +1.68667E+01 -1.97103E+00 +1.37491E+01 +6.35736E+00 +6.83838E+00 +1.09760E+01
 -8.52869E-01 +1.05138E+01 -6.14923E+00 +5.68097E+00 -6.98605E+00 -1.07510E+00 -3.21058E+00 -6.59989E+00
 +3.40023E+00 -8.32369E+00 +9.89626E+00 -5.29226E+00 +1.33671E+01 +1.47037E+00 +1.21168E+01 +9.39907E+00
 +6.33206E+00 +1.54341E+01 -2.01401E+00 +1.72465E+01 -9.96799E+00 +1.41504E+01 -1.47764E+01 +7.34309E+00
 -1.49616E+01 -6.06862E-01 -1.08667E+01 -6.80420E+00 -4.46452E+00 -9.17547E+00 +1.47596E+00 -7.26146E+00
 +4.51846E+00 -2.34606E+00 +3.52573E+00 +3.11395E+00 -9.18427E-01 +6.51370E+00 -6.78705E+00 +6.15925E+00
 -1.14602E+01 +1.93683E+00 -1.27939E+01 -4.66613E+00 -9.97615E+00 -1.11813E+01 -3.83262E+00 -1.51587E+01
 +3.52678E+00 -1.51363E+01 +9.56316E+00 -1.11955E+01 +1.23131E+01 -4.89072E+00 +1.11383E+01 +1.40243E+00
 +6.92941E+00 +5.44575E+00 +1.69718E+00 +6.01345E+00 -2.26816E+00 +3.33793E+00 -3.32268E+00 -1.03911E+00
 -1.10777E+00 -4.93372E+00 +3.34432E+00 -6.42380E+00 +8.06516E+00 -4.62227E+00 +1.09674E+01 -1.45035E-02
 +1.06882E+01 +5.76240E+00 +7.12092E+00 +1.05944E+01 +1.43342E+00 +1.27371E+01 -4.42082E+00 +1.14925E+01
 -8.48751E+00 +7.45111E+00 -9.57180E+00 +2.21718E+00 -7.67247E+00 -2.25677E+00 -3.92852E+00 -4.44904E+00
 -1.16215E-01 -3.84760E+00 +2.08746E+00 -1.10552E+00 +1.77326E+00 +2.27370E+00 -8.63812E-01 +4.57854E+00
 -4.64220E+00 +4.59157E+00 -7.90237E+00 +2.06900E+00 -9.18917E+00 -2.18550E+00 -7.82978E+00 -6.66767E+00
 -4.18075E+00 -9.78627E+00 +5.41696E-01 -1.04897E+01 +4.76466E+00 -8.65578E+00 +7.18183E+00 -5.09962E+00
 +7.24472E+00 -1.21215E+00 +5.33287E+00 +1.61130E+00 +2.54946E+00 +2.51635E+00 +2.40967E-01 +1.49349E+00
 -5.55513E-01 -6.69147E-01 +4.86347E-01 -2.74854E+00 +2.88465E+00 -3.60552E+00 +5.58005E+00 -2.64511E+00
 +7.38687E+00 -3.75024E-02 +7.47376E+00 +3.37656E+00 +5.68106E+00 +6.44286E+00 +2.55679E+00 +8.15756E+00
 -8.88283E-01 +8.04811E+00 -3.59383E+00 +6.32433E+00 -4.85805E+00 +3.75297E+00 -4.57896E+00 +1.32196E+00
 -3.24372E+00 -1.59481E-01 -1.68611E+00 -3.61700E-01 -7.24439E-01 +4.76692E-01 -8.32264E-01 +1.69331E+00
 -1.97152E+00 +2.50569E+00 -3.64337E+00 +2.34117E+00 -5.12074E+00 +1.05883E+00 -5.75594E+00 -1.01777E+00
 -5.23416E+00 -3.25601E+00 -3.67533E+00 -4.98071E+00 -1.55592E+00 -5.73588E+00 +5.02834E-01 -5.43729E+00
 +1.98310E+00 -4.36425E+00 +2.65200E+00 -3.00948E+00 +2.60988E+00 -1.86159E+00 +2.19982E+00 -1.21581E+00
 +1.83084E+00 -1.08698E+00 +1.79750E+00 -1.24894E+00 +2.17162E+00 -1.36876E+00 +2.80249E+00 -1.16762E+00
 +3.41205E+00 -5.36612E-01 +3.73140E+00 +4.36679E-01 +3.61364E+00 +1.53026E+00 +3.07640E+00 +2.49871E+00
 +2.26494E+00 +3.17582E+00 +1.36485E+00 +3.52275E+00 +5.13837E-01 +3.60686E+00 -2.43294E-01 +3.53254E+00
 -9.38922E-01 +3.36714E+00 -1.62234E+00 +3.10407E+00 -2.29437E+00 +2.68184E+00 -2.87776E+00 +2.04558E+00
 -3.24361E+00 +1.21314E+00 -3.28198E+00 +3.03537E-01 -2.97821E+00 -4.94953E-01 -2.44963E+00 -1.00752E+00
 -1.91431E+00 -1.16663E+00 -1.59792E+00 -1.06608E+00 -1.61873E+00 -9.39214E-01 -1.90810E+00 -1.06028E+00
 -2.21305E+00 -1.60768E+00 -2.19240E+00 -2.55219E+00 -1.57270E+00 -3.62942E+00 -2.96909E-01 -4.42199E+00
 +1.40641E+00 -4.52739E+00 +3.07649E+00 -3.74409E+00 +4.18704E+00 -2.19180E+00 +4.36375E+00 -3.03261E-01
 +3.55995E+00 +1.32338E+00 +2.10769E+00 +2.16031E+00 +6.08985E-01 +1.97822E+00 -2.99812E-01 +9.65569E-01
 -2.18554E-01 -3.22923E-01 +8.26393E-01 -1.18073E+00 +2.36150E+00 -1.04693E+00 +3.63750E+00 +2.35936E-01
 +3.93361E+00 +2.31810E+00 +2.87327E+00 +4.44930E+00 +6.16698E-01 +5.76555E+00 -2.16105E+00 +5.64601E+00
 -4.51191E+00 +3.99261E+00 -5.58846E+00 +1.30849E+00 -4.99946E+00 -1.47087E+00 -2.99633E+00 -3.33763E+00
 -4.01702E-01 -3.62243E+00 +1.70409E+00 -2.28602E+00 +2.42043E+00 +3.70566E-02 +1.41058E+00 +2.27424E+00
 -9.31094E-01 +3.34562E+00 -3.60981E+00 +2.61885E+00 -5.41886E+00 +1.99160E-01 -5.43600E+00 -3.07493E+00
 -3.42551E+00 -5.94230E+00 +2.62060E-02 -7.22116E+00 +3.71012E+00 -6.30185E+00 +6.26122E+00 -3.42533E+00
 +6.71016E+00 +3.77633E-01 +4.89486E+00 +3.67565E+00 +1.55586E+00 +5.20643E+00 -1.93637E+00 +4.39863E+00
 -4.12377E+00 +1.62809E+00 -4.05838E+00 -1.90721E+00 -1.71064E+00 -4.65589E+00 +1.98734E+00 -5.34422E+00
 +5.49410E+00 -3.51460E+00 +7.27537E+00 +2.54016E-01 +6.43930E+00 +4.54580E+00 +3.12927E+00 +7.65967E+00
 -1.49594E+00 +8.29751E+00 -5.69984E+00 +6.11009E+00 -7.85739E+00 +1.87152E+00 -7.12026E+00 -2.80105E+00
 -3.78432E+00 -6.08154E+00 +8.00526E-01 -6.67297E+00 +4.75443E+00 -4.34984E+00 +6.42306E+00 -7.66032E-02
 +5.06109E+00 +4.35807E+00 +1.16140E+00 +7.05470E+00 -3.71460E+00 +6.78093E+00 -7.54942E+00 +3.49673E+00
 -8.68540E+00 -1.59507E+00 -6.51509E+00 -6.50626E+00 -1.76003E+00 -9.25438E+00 +3.78672E+00 -8.67246E+00
 +7.96258E+00 -4.90618E+00 +9.10585E+00 +6.12304E-01 +6.74288E+00 +5.71618E+00 +1.80680E+00 +8.36824E+00
 -3.71238E+00 +7.49202E+00 -7.55643E+00 +3.42952E+00 -8.11407E+00 -2.16976E+00 -5.09181E+00 -6.99559E+00
 +3.38778E-01 -9.00733E+00 +5.98874E+00 -7.27393E+00 +9.52425E+00 -2.37894E+00 +9.41688E+00 +3.78412E+00
 +5.58537E+00 +8.75513E+00 -5.39131E-01 +1.04975E+01 -6.56289E+00 +8.23600E+00 -1.00826E+01 +2.79846E+00
 -9.66131E+00 -3.68897E+00 -5.42990E+00 -8.64020E+00 +9.37713E-01 -1.00508E+01 +6.87751E+00 -7.32181E+00
 +9.96214E+00 -1.52732E+00 +8.89026E+00 +4.99456E+00 +4.03500E+00 +9.57170E+00 -2.67939E+00 +1.02802E+01
 -8.53439E+00 +6.74103E+00 -1.11103E+01 +3.01174E-01 -9.27667E+00 -6.48372E+00 -3.67512E+00 -1.08679E+01
 +3.51031E+00 -1.10285E+01 +9.41375E+00 -6.82205E+00 +1.16395E+01 +1.28993E-01 +9.24155E+00 +7.06566E+00
 +3.13042E+00 +1.11935E+01 -4.26813E+00 +1.08154E+01 -9.97427E+00 +6.03548E+00 -1.16548E+01 -1.25663E+00
 -8.57880E+00 -8.12775E+00 -1.93686E+00 -1.17769E+01 +5.61575E+00 -1.06742E+01 +1.10169E+01 -5.20049E+00
 +1.20356E+01 +2.48115E+00 +8.19029E+00 +9.27820E+00 +9.69348E-01 +1.24117E+01 -6.74504E+00 +1.05492E+01
 -1.18267E+01 +4.36602E+00 -1.21701E+01 -3.69992E+00 -7.55828E+00 -1.04122E+01 +2.23602E-01 -1.30365E+01
 +8.08511E+00 -1.04543E+01 +1.28652E+01 -3.63654E+00 +1.26110E+01 +4.72441E+00 +7.38272E+00 +1.12844E+01
 -7.48166E-01 +1.33945E+01 -8.51540E+00 +1.01819E+01 -1.27689E+01 +2.92370E+00 -1.17538E+01 -5.44704E+00
 -5.83835E+00 -1.15124E+01 +2.61023E+00 -1.27508E+01 +1.01623E+01 -8.57134E+00 +1.37037E+01 -5.77221E-01
 +1.17024E+01 +8.05712E+00 +4.84800E+00 +1.38525E+01 -4.20099E+00 +1.44292E+01 -1.18697E+01 +9.48193E+00
 -1.51022E+01 +9.25081E-01 -1.26013E+01 -7.85866E+00 -5.36931E+00 -1.33716E+01 +3.67638E+00 -1.34143E+01
 +1.08674E+01 -7.98706E+00 +1.32633E+01 +6.90576E-01 +9.85020E+00 +9.05935E+00 +1.97073E+00 +1.36508E+01
 -7.19686E+00 +1.24954E+01 -1.39082E+01 +5.93708E+00 -1.53641E+01 -3.48075E+00 -1.08549E+01 -1.20212E+01
 -2.06927E+00 -1.62526E+01 +7.56314E+00 -1.44384E+01 +1.42403E+01 -7.25440E+00 +1.53185E+01 +2.46332E+00
