 Created: 19-Jan-2021
 $NMID
 ID='D:\BASISSIMULATI'
 FMTDAT='(8E13.5)'
 VOLUME=   1.00000E+00
 TRAMP=   1.00000E+00
 $END
 +6.04366E+01 +9.52888E+00 +5.77860E+01 -5.38777E+00 +4.43473E+01 -1.71247E+01 +2.35054E+01 -2.14186E+01
 +5.13561E-01 -1.62978E+01 -1.89915E+01 -2.66095E+00 -3.05580E+01 +1.59920E+01 -3.21144E+01 +3.45884E+01
 -2.44547E+01 +4.79568E+01 -1.08899E+01 +5.23099E+01 +3.80819E+00 +4.63033E+01 +1.48432E+01 +3.13737E+01
 +1.87798E+01 +1.12788E+01 +1.44791E+01 -9.00230E+00 +3.33001E+00 -2.46717E+01 -1.12601E+01 -3.24028E+01
 -2.49345E+01 -3.11560E+01 -3.36804E+01 -2.23123E+01 -3.49604E+01 -9.12422E+00 -2.83674E+01 +4.31749E+00
 -1.56402E+01 +1.42761E+01 -7.67622E-02 +1.83694E+01 +1.44493E+01 +1.61091E+01 +2.45614E+01 +8.86132E+00
 +2.82331E+01 -7.11504E-01 +2.52011E+01 -9.52168E+00 +1.68620E+01 -1.49643E+01 +5.73431E+00 -1.56001E+01
 -5.31923E+00 -1.14425E+01 -1.38652E+01 -3.81220E+00 -1.84552E+01 +5.15079E+00 -1.88390E+01 +1.31370E+01
 -1.58278E+01 +1.82778E+01 -1.08990E+01 +1.95530E+01 -5.69690E+00 +1.69161E+01 -1.58721E+00 +1.11520E+01
 +6.23151E-01 +3.55816E+00 +7.58733E-01 -4.42884E+00 -8.28279E-01 -1.15476E+01 -3.46162E+00 -1.69012E+01
 -6.35668E+00 -2.00104E+01 -8.78365E+00 -2.07707E+01 -1.01551E+01 -1.93676E+01 -1.00542E+01 -1.62028E+01
 -8.24283E+00 -1.18478E+01 -4.68382E+00 -7.01420E+00 +4.12614E-01 -2.50440E+00 +6.53922E+00 +8.86245E-01
 +1.28835E+01 +2.52316E+00 +1.84043E+01 +2.11157E+00 +2.20123E+01 -1.58956E-01 +2.28295E+01 -3.57271E+00
 +2.04627E+01 -6.99644E+00 +1.51983E+01 -9.13981E+00 +8.03635E+00 -8.91317E+00 +5.19158E-01 -5.78270E+00
 -5.62429E+00 -6.72157E-03 -8.93375E+00 +7.33970E+00 -8.64315E+00 +1.45865E+01 -4.94170E+00 +1.98946E+01
 +1.02466E+00 +2.17738E+01 +7.43256E+00 +1.95406E+01 +1.22761E+01 +1.35716E+01 +1.39405E+01 +5.26116E+00
 +1.16858E+01 -3.31979E+00 +5.89163E+00 -9.97799E+00 -2.01946E+00 -1.30073E+01 -9.96636E+00 -1.16752E+01
 -1.57953E+01 -6.44044E+00 -1.78970E+01 +1.16871E+00 -1.56744E+01 +8.98215E+00 -9.72104E+00 +1.47999E+01
 -1.65795E+00 +1.70094E+01 +6.32242E+00 +1.50304E+01 +1.20717E+01 +9.45854E+00 +1.40799E+01 +1.87354E+00
 +1.18791E+01 -5.62726E+00 +6.14465E+00 -1.10288E+01 -1.52494E+00 -1.29558E+01 -9.07673E+00 -1.10314E+01
 -1.45780E+01 -5.94253E+00 -1.67309E+01 +7.92054E-01 -1.51866E+01 +7.27215E+00 -1.05831E+01 +1.17466E+01
 -4.31332E+00 +1.30720E+01 +1.89348E+00 +1.09796E+01 +6.45011E+00 +6.08911E+00 +8.31456E+00 -3.11346E-01
 +7.21678E+00 -6.64299E+00 +3.66521E+00 -1.14557E+01 -1.24665E+00 -1.37760E+01 -6.16235E+00 -1.33016E+01
 -9.81688E+00 -1.04103E+01 -1.13311E+01 -6.00456E+00 -1.03825E+01 -1.24977E+00 -7.22814E+00 +2.71685E+00
 -2.59655E+00 +5.03622E+00 +2.50951E+00 +5.28771E+00 +7.04418E+00 +3.53988E+00 +1.01334E+01 +2.98391E-01
 +1.12370E+01 -3.62456E+00 +1.02369E+01 -7.28707E+00 +7.44604E+00 -9.80811E+00 +3.54082E+00 -1.05426E+01
 -5.71472E-01 -9.21527E+00 -3.93236E+00 -5.99055E+00 -5.73284E+00 -1.46153E+00 -5.49987E+00 +3.45100E+00
 -3.22762E+00 +7.68144E+00 +5.84879E-01 +1.02563E+01 +5.01416E+00 +1.05367E+01 +8.90923E+00 +8.40615E+00
 +1.11705E+01 +4.34477E+00 +1.10468E+01 -6.45562E-01 +8.36955E+00 -5.26556E+00 +3.64974E+00 -8.24709E+00
 -2.00661E+00 -8.70401E+00 -7.16022E+00 -6.40565E+00 -1.04187E+01 -1.88506E+00 -1.08344E+01 +3.66552E+00
 -8.20263E+00 +8.69888E+00 -3.16420E+00 +1.17421E+01 +2.93347E+00 +1.18309E+01 +8.39152E+00 +8.81919E+00
 +1.16376E+01 +3.46162E+00 +1.16897E+01 -2.76802E+00 +8.46494E+00 -8.08262E+00 +2.83222E+00 -1.08993E+01
 -3.61767E+00 -1.03165E+01 -9.02661E+00 -6.40434E+00 -1.18175E+01 -2.12443E-01 -1.11724E+01 +6.51655E+00
 -7.29309E+00 +1.18491E+01 -1.35754E+00 +1.42320E+01 +4.81987E+00 +1.29590E+01 +9.32782E+00 +8.39075E+00
 +1.07351E+01 +1.85398E+00 +8.52945E+00 -4.75144E+00 +3.28153E+00 -9.52191E+00 -3.51819E+00 -1.11231E+01
 -9.90318E+00 -9.19105E+00 -1.40204E+01 -4.43812E+00 -1.46862E+01 +1.56968E+00 -1.17377E+01 +6.89515E+00
 -6.07398E+00 +9.82384E+00 +6.26148E-01 +9.38657E+00 +6.41901E+00 +5.65049E+00 +9.68567E+00 -3.08935E-01
 +9.61376E+00 -6.74347E+00 +6.42569E+00 -1.17688E+01 +1.28697E+00 -1.39351E+01 -4.07179E+00 -1.26564E+01
 -7.89790E+00 -8.36920E+00 -8.95446E+00 -2.37751E+00 -6.88801E+00 +3.56129E+00 -2.31694E+00 +7.77730E+00
 +3.37949E+00 +9.18645E+00 +8.49899E+00 +7.59499E+00 +1.15402E+01 +3.72299E+00 +1.16497E+01 -1.05142E+00
 +8.85762E+00 -5.13914E+00 +4.03770E+00 -7.23457E+00 -1.38683E+00 -6.70411E+00 -5.89070E+00 -3.75368E+00
 -8.30513E+00 +6.66929E-01 -8.14677E+00 +5.18257E+00 -5.72287E+00 +8.42650E+00 -1.99164E+00 +9.45169E+00
 +1.76691E+00 +7.99518E+00 +4.35884E+00 +4.52255E+00 +5.03397E+00 +5.11248E-02 +3.68688E+00 -4.18168E+00
 +8.49480E-01 -7.09468E+00 -2.50951E+00 -8.06679E+00 -5.30438E+00 -7.08142E+00 -6.66598E+00 -4.67897E+00
 -6.18661E+00 -1.74642E+00 -4.00863E+00 +7.79008E-01 -7.42434E-01 +2.19494E+00 +2.74725E+00 +2.22177E+00
 +5.61027E+00 +1.04502E+00 +7.24893E+00 -7.87234E-01 +7.45639E+00 -2.56623E+00 +6.42437E+00 -3.65185E+00
 +4.63309E+00 -3.65668E+00 +2.67121E+00 -2.53369E+00 +1.04976E+00 -5.52620E-01 +6.79797E-02 +1.81333E+00
 -2.35052E-01 +4.04368E+00 -4.13115E-02 +5.71567E+00 +3.46153E-01 +6.59547E+00 +6.21592E-01 +6.65739E+00
 +5.71699E-01 +6.03922E+00 +1.20926E-01 +4.96197E+00 -6.77506E-01 +3.64916E+00 -1.68910E+00 +2.27368E+00
 -2.75710E+00 +9.44073E-01 -3.74697E+00 -2.76605E-01 -4.56210E+00 -1.33885E+00 -5.13197E+00 -2.18410E+00
 -5.38822E+00 -2.74603E+00 -5.24898E+00 -2.97616E+00 -4.62696E+00 -2.88017E+00 -3.46422E+00 -2.54353E+00
 -1.78141E+00 -2.12774E+00 +2.81422E-01 -1.82955E+00 +2.45600E+00 -1.81254E+00 +4.38352E+00 -2.13446E+00
 +5.69581E+00 -2.69993E+00 +6.11884E+00 -3.26289E+00 +5.56500E+00 -3.48703E+00 +4.17981E+00 -3.05147E+00
 +2.32066E+00 -1.77026E+00 +4.66497E-01 +3.14854E-01 -9.18536E-01 +2.90409E+00 -1.52685E+00 +5.48975E+00
 -1.30848E+00 +7.47903E+00 -4.95714E-01 +8.35682E+00 +4.61812E-01 +7.84011E+00 +1.03590E+00 +5.97476E+00
 +7.92103E-01 +3.14115E+00 -4.57789E-01 -3.79403E-02 -2.57252E+00 -2.86343E+00 -5.09694E+00 -4.75232E+00
 -7.37605E+00 -5.39925E+00 -8.73641E+00 -4.85808E+00 -8.68232E+00 -3.51807E+00 -7.04816E+00 -1.98080E+00
 -4.06080E+00 -8.74062E-01 -2.91861E-01 -6.58381E-01 +3.48747E+00 -1.48366E+00 +6.50802E+00 -3.13883E+00
 +8.20308E+00 -5.10937E+00 +8.35112E+00 -6.72555E+00 +7.12151E+00 -7.35815E+00 +5.01250E+00 -6.60480E+00
 +2.70143E+00 -4.41377E+00 +8.51326E-01 -1.11083E+00 -7.11009E-02 +2.67740E+00 +8.38684E-02 +6.18102E+00
 +1.12062E+00 +8.68135E+00 +2.56671E+00 +9.68968E+00 +3.81621E+00 +9.06359E+00 +4.30633E+00 +7.03269E+00
 +3.67912E+00 +4.13038E+00 +1.88542E+00 +1.05256E+00 -7.94385E-01 -1.51804E+00 -3.81638E+00 -3.07659E+00
 -6.50687E+00 -3.40971E+00 -8.22925E+00 -2.63180E+00 -8.54210E+00 -1.13864E+00 -7.31009E+00 +5.07567E-01
 -4.74189E+00 +1.73149E+00 -1.34642E+00 +2.09795E+00 +2.18176E+00 +1.42786E+00 +5.12105E+00 -1.51197E-01
 +6.88848E+00 -2.23239E+00 +7.17389E+00 -4.22923E+00 +6.01048E+00 -5.52443E+00 +3.76411E+00 -5.63279E+00
 +1.04213E+00 -4.33800E+00 -1.45813E+00 -1.76796E+00 -3.12548E+00 +1.61366E+00 -3.59233E+00 +5.10219E+00
 -2.83234E+00 +7.91389E+00 -1.17067E+00 +9.37763E+00 +7.99822E-01 +9.10829E+00 +2.37852E+00 +7.11590E+00
 +2.95332E+00 +3.81801E+00 +2.18145E+00 -5.28532E-02 +1.03965E-01 -3.62739E+00 -2.84173E+00 -6.11945E+00
 -5.92029E+00 -7.02996E+00 -8.28621E+00 -6.27853E+00 -9.21284E+00 -4.22417E+00 -8.30029E+00 -1.56571E+00
 -5.60263E+00 +8.53527E-01 -1.63530E+00 +2.28443E+00 +2.74414E+00 +2.28738E+00 +6.55264E+00 +8.62153E-01
 +8.93790E+00 -1.54663E+00 +9.40339E+00 -4.17266E+00 +7.93853E+00 -6.14642E+00 +5.01672E+00 -6.74775E+00
 +1.46086E+00 -5.61989E+00 -1.78588E+00 -2.88309E+00 -3.91903E+00 +8.86018E-01 -4.48819E+00 +4.80422E+00
 -3.50838E+00 +7.91837E+00 -1.43759E+00 +9.46186E+00 +9.70293E-01 +9.05837E+00 +2.89242E+00 +6.81684E+00
 +3.67680E+00 +3.29310E+00 +3.02634E+00 -6.67359E-01 +1.07644E+00 -4.15831E+00 -1.65204E+00 -6.44735E+00
 -4.40642E+00 -7.15173E+00 -6.41483E+00 -6.31044E+00 -7.09580E+00 -4.33975E+00 -6.20736E+00 -1.89223E+00
 -3.89864E+00 +3.34896E-01 -6.56655E-01 +1.78607E+00 +2.82956E+00 +2.17874E+00 +5.84493E+00 +1.55008E+00
 +7.81541E+00 +2.15792E-01 +8.42500E+00 -1.33832E+00 +7.66005E+00 -2.59577E+00 +5.78005E+00 -3.14061E+00
 +3.23285E+00 -2.74971E+00 +5.42624E-01 -1.43015E+00 -1.80063E+00 +5.97369E-01 -3.42799E+00 +2.95611E+00
 -4.14401E+00 +5.19337E+00 -3.94342E+00 +6.86523E+00 -2.99699E+00 +7.61329E+00 -1.61314E+00 +7.22603E+00
 -1.80766E-01 +5.68020E+00 +9.02266E-01 +3.15803E+00 +1.30906E+00 +3.47769E-02 +8.61569E-01 -3.16910E+00
 -4.09415E-01 -5.87208E+00 -2.24128E+00 -7.54470E+00 -4.16999E+00 -7.83231E+00 -5.61976E+00 -6.65823E+00
 -6.04129E+00 -4.27488E+00 -5.06931E+00 -1.23714E+00 -2.65675E+00 +1.70947E+00 +8.59103E-01 +3.80872E+00
 +4.79094E+00 +4.49966E+00 +8.24256E+00 +3.59152E+00 +1.03308E+01 +1.35064E+00 +1.04328E+01 -1.53803E+00
 +8.38678E+00 -4.13804E+00 +4.58146E+00 -5.52068E+00 -1.06504E-01 -5.04680E+00 -4.52248E+00 -2.58708E+00
 -7.54207E+00 +1.39261E+00 -8.39296E+00 +5.91864E+00 -6.89443E+00 +9.75776E+00 -3.53642E+00 +1.17626E+01
 +6.36300E-01 +1.12166E+01 +4.31160E+00 +8.07244E+00 +6.29148E+00 +3.00700E+00 +5.85673E+00 -2.73725E+00
 +3.00316E+00 -7.68550E+00 -1.52844E+00 -1.05475E+01 -6.44624E+00 -1.05960E+01 -1.02752E+01 -7.89080E+00
 -1.17931E+01 -3.27636E+00 -1.04052E+01 +1.85344E+00 -6.34170E+00 +5.95886E+00 -6.13128E-01 +7.80795E+00
 +5.26756E+00 +6.84497E+00 +9.71832E+00 +3.36077E+00 +1.15483E+01 -1.58895E+00 +1.03070E+01 -6.49548E+00
 +6.41733E+00 -9.84702E+00 +1.04938E+00 -1.05816E+01 -4.22582E+00 -8.40648E+00 -7.90005E+00 -3.88708E+00
 -8.96916E+00 +1.72022E+00 -7.21964E+00 +6.84096E+00 -3.27605E+00 +1.00471E+01 +1.60181E+00 +1.04728E+01
 +5.90747E+00 +8.05830E+00 +8.34185E+00 +3.55005E+00 +8.19521E+00 -1.73632E+00 +5.54397E+00 -6.31527E+00
 +1.20774E+00 -8.96847E+00 -3.51346E+00 -9.08831E+00 -7.23642E+00 -6.82805E+00 -8.90284E+00 -3.02079E+00
 -8.07561E+00 +1.09939E+00 -5.03951E+00 +4.28219E+00 -6.84767E-01 +5.63159E+00 +3.78119E+00 +4.85187E+00
