 Created: 19-Jan-2021
 $NMID
 ID='D:\BASISSIMULATI'
 FMTDAT='(8E13.5)'
 VOLUME=   1.00000E+00
 TRAMP=   1.00000E+00
 $END
 +5.41930E+01 +7.67022E+00 +5.21407E+01 -6.13304E-01 +4.23831E+01 -7.64963E+00 +2.66574E+01 -1.12484E+01
 +7.79500E+00 -1.00943E+01 -1.08513E+01 -4.06249E+00 -2.60801E+01 +5.74028E+00 -3.54694E+01 +1.72170E+01
 -3.78298E+01 +2.77502E+01 -3.33901E+01 +3.47930E+01 -2.36844E+01 +3.64502E+01 -1.11709E+01 +3.19182E+01
 +1.32478E+00 +2.16877E+01 +1.12202E+01 +7.46365E+00 +1.67047E+01 -8.17872E+00 +1.70760E+01 -2.23254E+01
 +1.28195E+01 -3.23261E+01 +5.42340E+00 -3.63378E+01 -3.01914E+00 -3.36934E+01 -1.03224E+01 -2.50194E+01
 -1.47172E+01 -1.20845E+01 -1.52411E+01 +2.58356E+00 -1.19278E+01 +1.62242E+01 -5.75935E+00 +2.63981E+01
 +1.59832E+00 +3.14519E+01 +8.20932E+00 +3.07984E+01 +1.23312E+01 +2.49635E+01 +1.28211E+01 +1.54026E+01
 +9.39357E+00 +4.13653E+00 +2.67718E+00 -6.70122E+00 -5.93735E+00 -1.53052E+01 -1.46158E+01 -2.05316E+01
 -2.14891E+01 -2.20597E+01 -2.50573E+01 -2.03603E+01 -2.44995E+01 -1.64920E+01 -1.98257E+01 -1.17875E+01
 -1.18433E+01 -7.50976E+00 -1.95658E+00 -4.56088E+00 +8.14843E+00 -3.30751E+00 +1.68577E+01 -3.55517E+00
 +2.29406E+01 -4.66535E+00 +2.57546E+01 -5.77552E+00 +2.53060E+01 -6.05958E+00 +2.21660E+01 -4.96051E+00
 +1.72760E+01 -2.33769E+00 +1.16956E+01 +1.50345E+00 +6.36148E+00 +5.90080E+00 +1.91043E+00 +1.00147E+01
 -1.39537E+00 +1.30463E+01 -3.63537E+00 +1.44372E+01 -5.11125E+00 +1.39993E+01 -6.18379E+00 +1.19441E+01
 -7.11732E+00 +8.80956E+00 -7.97758E+00 +5.30593E+00 -8.61085E+00 +2.12717E+00 -8.70768E+00 -2.22230E-01
 -7.92953E+00 -1.53805E+00 -6.05795E+00 -1.93736E+00 -3.11925E+00 -1.78681E+00 +5.56629E-01 -1.56104E+00
 +4.36602E+00 -1.67309E+00 +7.54886E+00 -2.32650E+00 +9.36685E+00 -3.43296E+00 +9.29723E+00 -4.62160E+00
 +7.19024E+00 -5.34063E+00 +3.34466E+00 -5.02636E+00 -1.52463E+00 -3.29409E+00 -6.42657E+00 -9.75495E-02
 -1.03126E+01 +4.19130E+00 -1.23237E+01 +8.81121E+00 -1.20053E+01 +1.27513E+01 -9.43487E+00 +1.49745E+01
 -5.22581E+00 +1.46730E+01 -4.00918E-01 +1.14945E+01 +3.84040E+00 +5.67861E+00 +6.40856E+00 -1.93662E+00
 +6.59664E+00 -1.00487E+01 +4.27274E+00 -1.71439E+01 -5.84606E-02 -2.18156E+01 -5.34545E+00 -2.30786E+01
 -1.02161E+01 -2.06048E+01 -1.32919E+01 -1.48229E+01 -1.35197E+01 -6.85340E+00 -1.04430E+01 +1.71322E+00
 -4.34583E+00 +9.14962E+00 +3.76781E+00 +1.39646E+01 +1.23624E+01 +1.52323E+01 +1.96885E+01 +1.28033E+01
 +2.41624E+01 +7.34562E+00 +2.47226E+01 +2.05130E-01 +2.10817E+01 -6.88863E+00 +1.38155E+01 -1.22063E+01
 +4.26357E+00 -1.44078E+01 -5.73958E+00 -1.28499E+01 -1.42461E+01 -7.74086E+00 -1.96072E+01 -1.07145E-01
 -2.08254E+01 +8.42343E+00 -1.77684E+01 +1.59753E+01 -1.11972E+01 +2.08379E+01 -2.60010E+00 +2.18462E+01
 +6.12989E+00 +1.86447E+01 +1.31051E+01 +1.17757E+01 +1.68500E+01 +2.57113E+00 +1.66154E+01 -7.12734E+00
 +1.25328E+01 -1.53602E+01 +5.57442E+00 -2.04669E+01 -2.66947E+00 -2.14379E+01 -1.03459E+01 -1.81239E+01
 -1.57485E+01 -1.12598E+01 -1.76894E+01 -2.29919E+00 -1.57539E+01 +6.90262E+00 -1.03826E+01 +1.44857E+01
 -2.76557E+00 +1.89760E+01 +5.42492E+00 +1.95843E+01 +1.24029E+01 +1.63525E+01 +1.66563E+01 +1.01171E+01
 +1.72685E+01 +2.30447E+00 +1.41059E+01 -5.39431E+00 +7.83368E+00 -1.13946E+01 -2.40205E-01 -1.45533E+01
 -8.45412E+00 -1.43965E+01 -1.51496E+01 -1.11930E+01 -1.90170E+01 -5.86342E+00 -1.93563E+01 +2.48954E-01
 -1.61999E+01 +5.69168E+00 -1.02768E+01 +9.22782E+00 -2.83167E+00 +1.01009E+01 +4.65643E+00 +8.18369E+00
 +1.07897E+01 +3.98353E+00 +1.45338E+01 -1.49267E+00 +1.54067E+01 -6.97710E+00 +1.35394E+01 -1.12277E+01
 +9.60203E+00 -1.32974E+01 +4.62066E+00 -1.27287E+01 -2.70085E-01 -9.63339E+00 -4.07892E+00 -4.64676E+00
 -6.15949E+00 +1.22831E+00 -6.32030E+00 +6.84745E+00 -4.82496E+00 +1.11683E+01 -2.29041E+00 +1.34582E+01
 +4.86570E-01 +1.34226E+01 +2.73025E+00 +1.12334E+01 +3.86642E+00 +7.45661E+00 +3.64264E+00 +2.90394E+00
 +2.16483E+00 -1.55427E+00 -1.52385E-01 -5.17017E+00 -2.70388E+00 -7.45477E+00 -4.84872E+00 -8.24380E+00
 -6.06276E+00 -7.68551E+00 -6.05378E+00 -6.16149E+00 -4.81509E+00 -4.16602E+00 -2.60972E+00 -2.17670E+00
 +1.06071E-01 -5.48044E-01 +2.79720E+00 +5.49055E-01 +4.97245E+00 +1.13242E+00 +6.28601E+00 +1.36354E+00
 +6.59592E+00 +1.46987E+00 +5.96974E+00 +1.65874E+00 +4.64141E+00 +2.04737E+00 +2.93501E+00 +2.62722E+00
 +1.17766E+00 +3.27027E+00 -3.75070E-01 +3.77298E+00 -1.58362E+00 +3.92348E+00 -2.43043E+00 +3.57173E+00
 -2.99028E+00 +2.68228E+00 -3.37730E+00 +1.35469E+00 -3.68683E+00 -1.94073E-01 -3.95036E+00 -1.68057E+00
 -4.11752E+00 -2.82506E+00 -4.07027E+00 -3.42209E+00 -3.66493E+00 -3.39231E+00 -2.78940E+00 -2.80176E+00
 -1.41791E+00 -1.84321E+00 +3.53804E-01 -7.84609E-01 +2.30530E+00 +1.01891E-01 +4.12400E+00 +6.11478E-01
 +5.46754E+00 +6.59986E-01 +6.04161E+00 +3.04677E-01 +5.67396E+00 -2.73198E-01 +4.36544E+00 -8.19796E-01
 +2.30389E+00 -1.08086E+00 -1.64620E-01 -8.75920E-01 -2.60223E+00 -1.54873E-01 -4.56916E+00 +9.78277E-01
 -5.71663E+00 +2.28182E+00 -5.86138E+00 +3.42991E+00 -5.02417E+00 +4.09079E+00 -3.42328E+00 +4.01100E+00
 -1.42402E+00 +3.08451E+00 +5.43881E-01 +1.38943E+00 +2.08210E+00 -8.17695E-01 +2.91066E+00 -3.14986E+00
 +2.92610E+00 -5.16951E+00 +2.21809E+00 -6.48239E+00 +1.04135E+00 -6.82379E+00 -2.49614E-01 -6.11736E+00
 -1.28717E+00 -4.49286E+00 -1.77783E+00 -2.25891E+00 -1.56993E+00 +1.63034E-01 -6.86481E-01 +2.32839E+00
 +6.83610E-01 +3.86245E+00 +2.23281E+00 +4.53608E+00 +3.60858E+00 +4.30764E+00 +4.49557E+00 +3.32291E+00
 +4.68697E+00 +1.87441E+00 +4.12890E+00 +3.30619E-01 +2.92847E+00 -9.47977E-01 +1.32489E+00 -1.68666E+00
 -3.68204E-01 -1.75116E+00 -1.83482E+00 -1.16816E+00 -2.82576E+00 -1.08960E-01 -3.20919E+00 +1.15791E+00
 -2.99178E+00 +2.33260E+00 -2.30715E+00 +3.15226E+00 -1.37612E+00 +3.44617E+00 -4.49645E-01 +3.16625E+00
 +2.51234E-01 +2.38771E+00 +5.84119E-01 +1.28221E+00 +5.11986E-01 +7.19113E-02 +1.03016E-01 -1.02321E+00
 -4.94577E-01 -1.83204E+00 -1.09504E+00 -2.26256E+00 -1.52346E+00 -2.31028E+00 -1.65807E+00 -2.04527E+00
 -1.45666E+00 -1.58330E+00 -9.61906E-01 -1.05038E+00 -2.85996E-01 -5.50400E-01 +4.20265E-01 -1.44019E-01
 +1.00502E+00 +1.56711E-01 +1.35003E+00 +3.78432E-01 +1.39429E+00 +5.65715E-01 +1.14199E+00 +7.56684E-01
 +6.54475E-01 +9.62841E-01 +3.01184E-02 +1.15926E+00 -6.21518E-01 +1.28802E+00 -1.20381E+00 +1.27384E+00
 -1.64949E+00 +1.04728E+00 -1.92619E+00 +5.68793E-01 -2.03121E+00 -1.53406E-01 -1.97907E+00 -1.05681E+00
 -1.78697E+00 -2.03168E+00 -1.46376E+00 -2.94000E+00 -1.00627E+00 -3.64195E+00 -4.04433E-01 -4.02300E+00
 +3.46638E-01 -4.01539E+00 +1.23185E+00 -3.60899E+00 +2.20400E+00 -2.84961E+00 +3.17926E+00 -1.82621E+00
 +4.04327E+00 -6.51043E-01 +4.66763E+00 +5.61462E-01 +4.93369E+00 +1.71186E+00 +4.75805E+00 +2.72494E+00
 +4.11334E+00 +3.55020E+00 +3.03884E+00 +4.15528E+00 +1.63772E+00 +4.51636E+00 +6.12888E-02 +4.61034E+00
 -1.51630E+00 +4.41278E+00 -2.92692E+00 +3.90334E+00 -4.03416E+00 +3.07772E+00 -4.75023E+00 +1.96228E+00
 -5.04090E+00 +6.25918E-01 -4.91886E+00 -8.16118E-01 -4.42893E+00 -2.21028E+00 -3.63080E+00 -3.38499E+00
 -2.58538E+00 -4.18010E+00 -1.34908E+00 -4.47906E+00 +2.22877E-02 -4.23595E+00 +1.46221E+00 -3.48977E+00
 +2.88002E+00 -2.36101E+00 +4.15206E+00 -1.02991E+00 +5.12381E+00 +2.99653E-01 +5.62664E+00 +1.44235E+00
 +5.50840E+00 +2.26939E+00 +4.67243E+00 +2.73243E+00 +3.11569E+00 +2.86676E+00 +9.54834E-01 +2.77211E+00
 -1.56942E+00 +2.57588E+00 -4.11549E+00 +2.38819E+00 -6.29113E+00 +2.26149E+00 -7.72290E+00 +2.16705E+00
 -8.13161E+00 +1.99669E+00 -7.39679E+00 +1.59195E+00 -5.59430E+00 +7.95213E-01 -2.99559E+00 -4.89508E-01
 -2.52455E-02 -2.24251E+00 +2.81696E+00 -4.29760E+00 +5.05466E+00 -6.34680E+00 +6.33304E+00 -7.98486E+00
 +6.49431E+00 -8.78798E+00 +5.61212E+00 -8.41158E+00 +3.97497E+00 -6.68534E+00 +2.02037E+00 -3.68187E+00
 +2.32912E-01 +2.60871E-01 -9.70933E-01 +4.57414E+00 -1.34459E+00 +8.54834E+00 -8.74589E-01 +1.14635E+01
 +2.11772E-01 +1.27350E+01 +1.49867E+00 +1.20425E+01 +2.48417E+00 +9.41404E+00 +2.71031E+00 +5.24181E+00
 +1.89030E+00 +2.22814E-01 +1.49282E-03 -4.76703E+00 -2.68100E+00 -8.84187E+00 -5.62226E+00 -1.12831E+01
 -8.13292E+00 -1.16871E+01 -9.52133E+00 -1.00499E+01 -9.25969E+00 -6.76975E+00 -7.12594E+00 -2.56363E+00
 -3.28664E+00 +1.68483E+00 +1.70241E+00 +5.11449E+00 +6.98320E+00 +7.07161E+00 +1.15562E+01 +7.24950E+00
 +1.44825E+01 +5.75113E+00 +1.50858E+01 +3.05995E+00 +1.31088E+01 -7.56089E-02 +8.78774E+00 -2.81865E+00
 +2.82689E+00 -4.44166E+00 -3.72718E+00 -4.50057E+00 -9.68624E+00 -2.94462E+00 -1.39559E+01 -1.35476E-01
 -1.57564E+01 +3.23043E+00 -1.47813E+01 +6.28030E+00 -1.12604E+01 +8.16919E+00 -5.91094E+00 +8.28388E+00
 +2.10609E-01 +6.39938E+00 +5.92724E+00 +2.75080E+00 +1.01821E+01 -1.99797E+00 +1.22506E+01 -6.88447E+00
 +1.18786E+01 -1.08499E+01 +9.31753E+00 -1.29698E+01 +5.25195E+00 -1.26624E+01 +6.35148E-01 -9.82749E+00
 -3.52744E+00 -4.88549E+00 -6.39941E+00 +1.29576E+00 -7.48965E+00 +7.57003E+00 -6.74568E+00 +1.27433E+01
 -4.54492E+00 +1.58161E+01 -1.58856E+00 +1.61867E+01 +1.27605E+00 +1.37711E+01 +3.26190E+00 +9.01585E+00
 +3.83018E+00 +2.80167E+00 +2.81613E+00 -3.73937E+00 +4.65127E-01 -9.45371E+00 -2.62824E+00 -1.33930E+01
 -5.66277E+00 -1.49900E+01 -7.82100E+00 -1.41496E+01 -8.46301E+00 -1.12369E+01 -7.27910E+00 -6.97313E+00
 -4.36672E+00 -2.26260E+00 -2.14932E-01 +2.00497E+00 +4.39909E+00 +5.13463E+00 +8.57724E+00 +6.74953E+00
 +1.14930E+01 +6.83443E+00 +1.25658E+01 +5.69521E+00 +1.15803E+01 +3.85002E+00 +8.72346E+00 +1.88223E+00
 +4.53715E+00 +2.92762E-01 -2.03281E-01 -6.12913E-01 -4.65301E+00 -7.78169E-01 -8.06757E+00 -3.80092E-01
 -9.94102E+00 +2.45823E-01 -1.00847E+01 +7.18158E-01 -8.63349E+00 +7.28023E-01 -5.98447E+00 +1.32094E-01
 -2.68724E+00 -1.00342E+00 +6.84335E-01 -2.41806E+00 +3.64746E+00 -3.72630E+00 +5.88748E+00 -4.52122E+00
 +7.28258E+00 -4.48501E+00 +7.87691E+00 -3.47711E+00 +7.81627E+00 -1.57719E+00 +7.26939E+00 +9.27763E-01
 +6.36008E+00 +3.60855E+00 +5.13076E+00 +5.99362E+00 +3.54740E+00 +7.67779E+00 +1.54277E+00 +8.41169E+00
