 Created: 19-Jan-2021
 $NMID
 ID='D:\BASISSIMULATI'
 FMTDAT='(8E13.5)'
 VOLUME=   1.00000E+00
 TRAMP=   1.00000E+00
 $END
 +6.49887E+01 +1.46704E+00 +5.17415E+01 +3.83634E+01 +1.89142E+01 +5.89331E+01 -1.86425E+01 +5.47013E+01
 -4.42305E+01 +2.86634E+01 -4.70905E+01 -6.29182E+00 -2.72928E+01 -3.35795E+01 +4.53836E+00 -4.07505E+01
 +3.24618E+01 -2.52378E+01 +4.28687E+01 +4.66784E+00 +3.08813E+01 +3.40018E+01 +2.48345E+00 +4.83984E+01
 -2.85612E+01 +4.09446E+01 -4.74538E+01 +1.53537E+01 -4.54908E+01 -1.60026E+01 -2.41627E+01 -3.81896E+01
 +5.70620E+00 -4.09582E+01 +2.93049E+01 -2.36529E+01 +3.50566E+01 +4.55348E+00 +2.02255E+01 +2.91713E+01
 -7.77193E+00 +3.74460E+01 -3.49538E+01 +2.45499E+01 -4.75103E+01 -4.05264E+00 -3.84495E+01 -3.51794E+01
 -1.09786E+01 -5.41903E+01 +2.29769E+01 -5.19316E+01 +4.83834E+01 -2.90586E+01 +5.41502E+01 +4.29637E+00
 +3.82744E+01 +3.33155E+01 +8.66591E+00 +4.54418E+01 -2.06868E+01 +3.61782E+01 -3.63441E+01 +1.10220E+01
 -3.16714E+01 -1.73222E+01 -9.78240E+00 -3.50607E+01 +1.81639E+01 -3.38187E+01 +3.84226E+01 -1.44568E+01
 +4.12276E+01 +1.35587E+01 +2.53316E+01 +3.68480E+01 -1.59664E+00 +4.45691E+01 -2.68255E+01 +3.35275E+01
 -3.87533E+01 +9.53556E+00 -3.24427E+01 -1.55609E+01 -1.18644E+01 -2.96936E+01 +1.21719E+01 -2.63975E+01
 +2.73438E+01 -7.85861E+00 +2.58072E+01 +1.62362E+01 +7.97005E+00 +3.34473E+01 -1.77307E+01 +3.46137E+01
 -3.89023E+01 +1.82694E+01 -4.51368E+01 -8.64805E+00 -3.29695E+01 -3.40987E+01 -7.50751E+00 -4.66432E+01
 +2.00108E+01 -4.08157E+01 +3.75223E+01 -1.96272E+01 +3.77700E+01 +6.94623E+00 +2.15969E+01 +2.67227E+01
 -2.61116E+00 +3.10275E+01 -2.30080E+01 +1.86549E+01 -2.99062E+01 -3.75247E+00 -2.02606E+01 -2.50160E+01
 +1.07363E+00 -3.47873E+01 +2.38296E+01 -2.83959E+01 +3.73069E+01 -8.90214E+00 +3.54306E+01 +1.45503E+01
 +1.94961E+01 +3.12171E+01 -2.64654E+00 +3.38821E+01 -2.05013E+01 +2.21838E+01 -2.59987E+01 +2.59924E+00
 -1.72935E+01 -1.48343E+01 +4.95386E-01 -2.14277E+01 +1.78949E+01 -1.40053E+01 +2.57280E+01 +3.64772E+00
 +1.95479E+01 +2.26978E+01 +1.74439E+00 +3.35660E+01 -1.96451E+01 +3.05322E+01 -3.48010E+01 +1.44444E+01
 -3.67866E+01 -7.72513E+00 -2.47886E+01 -2.62165E+01 -4.42220E+00 -3.30856E+01 +1.49912E+01 -2.58794E+01
 +2.48364E+01 -8.66844E+00 +2.11964E+01 +9.99830E+00 +6.55761E+00 +2.11891E+01 -1.15231E+01 +1.97674E+01
 -2.40901E+01 +6.68786E+00 -2.50196E+01 -1.16204E+01 -1.38077E+01 -2.64185E+01 +4.35548E+00 -3.08159E+01
 +2.11851E+01 -2.29399E+01 +2.92756E+01 -6.65447E+00 +2.55402E+01 +1.04416E+01 +1.25074E+01 +2.07115E+01
 -3.07300E+00 +2.00797E+01 -1.35772E+01 +9.83251E+00 -1.41677E+01 -4.17879E+00 -5.02156E+00 -1.44831E+01
 +8.89202E+00 -1.56250E+01 +2.03136E+01 -6.74678E+00 +2.32292E+01 +8.08349E+00 +1.57356E+01 +2.18975E+01
 +8.92085E-01 +2.81891E+01 -1.47978E+01 +2.39898E+01 -2.44998E+01 +1.12087E+01 -2.42514E+01 -4.35207E+00
 -1.47425E+01 -1.57878E+01 -8.72827E-01 -1.83284E+01 +1.06462E+01 -1.14920E+01 +1.44687E+01 +8.24027E-01
 +9.05975E+00 +1.22986E+01 -2.71193E+00 +1.72124E+01 -1.50535E+01 +1.30957E+01 -2.20416E+01 +1.77478E+00
 -2.03808E+01 -1.16194E+01 -1.08412E+01 -2.11451E+01 +2.24988E+00 -2.28301E+01 +1.31528E+01 -1.64268E+01
 +1.74323E+01 -5.36271E+00 +1.39533E+01 +5.02235E+00 +5.24999E+00 +1.00589E+01 -3.84181E+00 +7.90725E+00
 -8.57791E+00 +2.95745E-01 -6.55866E+00 -8.45330E+00 +1.21307E+00 -1.35859E+01 +1.09222E+01 -1.22031E+01
 +1.78407E+01 -4.59096E+00 +1.85940E+01 +5.99802E+00 +1.27155E+01 +1.49529E+01 +2.78480E+00 +1.84965E+01
 -6.86311E+00 +1.54136E+01 -1.22021E+01 +7.52380E+00 -1.13591E+01 -1.27422E+00 -5.38816E+00 -6.88669E+00
 +2.34327E+00 -6.92338E+00 +7.81359E+00 -1.72896E+00 +8.23854E+00 +5.89443E+00 +3.30891E+00 +1.20881E+01
 -4.76852E+00 +1.37629E+01 -1.23902E+01 +9.98776E+00 -1.62636E+01 +2.32093E+00 -1.48882E+01 -6.01566E+00
 -9.13884E+00 -1.16802E+01 -1.73220E+00 -1.27247E+01 +4.11757E+00 -9.38379E+00 +6.18978E+00 -3.81788E+00
 +4.19990E+00 +1.01080E+00 -2.07468E-01 +2.76018E+00 -4.35507E+00 +7.54717E-01 -5.85161E+00 -3.80382E+00
 -3.69813E+00 -8.50791E+00 +1.31556E+00 -1.09348E+01 +7.06436E+00 -9.77537E+00 +1.11307E+01 -5.38575E+00
 +1.19215E+01 +4.57094E-01 +9.34346E+00 +5.43369E+00 +4.75531E+00 +7.75351E+00 +2.66383E-01 +6.91904E+00
 -2.25688E+00 +3.85633E+00 -2.00736E+00 +3.96326E-01 +4.79017E-01 -1.61342E+00 +3.66124E+00 -1.14100E+00
 +5.75511E+00 +1.62193E+00 +5.54731E+00 +5.42589E+00 +2.89638E+00 +8.58393E+00 -1.27463E+00 +9.73603E+00
 -5.44735E+00 +8.40993E+00 -8.19386E+00 +5.15234E+00 -8.76177E+00 +1.21353E+00 -7.31718E+00 -2.03538E+00
 -4.77639E+00 -3.67610E+00 -2.34211E+00 -3.56524E+00 -9.72698E-01 -2.29690E+00 -1.01474E+00 -8.63063E-01
 -2.13236E+00 -1.89115E-01 -3.52623E+00 -7.51409E-01 -4.31683E+00 -2.42269E+00 -3.91691E+00 -4.57899E+00
 -2.24706E+00 -6.39240E+00 +2.69626E-01 -7.17253E+00 +2.90369E+00 -6.62059E+00 +4.91020E+00 -4.91322E+00
 +5.79841E+00 -2.60592E+00 +5.48811E+00 -4.10083E-01 +4.31086E+00 +1.06791E+00 +2.86824E+00 +1.53553E+00
 +1.80244E+00 +1.10513E+00 +1.55732E+00 +2.41308E-01 +2.20976E+00 -4.17697E-01 +3.43055E+00 -3.06745E-01
 +4.59595E+00 +8.34655E-01 +5.02068E+00 +2.83230E+00 +4.23507E+00 +5.10811E+00 +2.20173E+00 +6.87711E+00
 -6.23460E-01 +7.44940E+00 -3.42984E+00 +6.52363E+00 -5.35416E+00 +4.34570E+00 -5.83410E+00 +1.64872E+00
 -4.86306E+00 -6.23174E-01 -3.02250E+00 -1.70649E+00 -1.25541E+00 -1.36002E+00 -4.60140E-01 +3.85689E-03
 -1.07579E+00 +1.47728E+00 -2.85099E+00 +2.05543E+00 -4.91923E+00 +1.10851E+00 -6.16936E+00 -1.28931E+00
 -5.75843E+00 -4.34065E+00 -3.53363E+00 -6.84734E+00 -1.56052E-01 -7.74525E+00 +3.15335E+00 -6.61097E+00
 +5.14884E+00 -3.89639E+00 +5.13786E+00 -7.62130E-01 +3.32764E+00 +1.43427E+00 +7.61620E-01 +1.76976E+00
 -1.14605E+00 +2.10335E-01 -1.27512E+00 -2.33843E+00 +6.46559E-01 -4.42908E+00 +3.87058E+00 -4.74853E+00
 +6.93782E+00 -2.76049E+00 +8.34291E+00 +9.95762E-01 +7.24925E+00 +5.10812E+00 +3.91425E+00 +7.91861E+00
 -3.89913E-01 +8.29027E+00 -3.93918E+00 +6.15206E+00 -5.35081E+00 +2.55429E+00 -4.23437E+00 -8.06237E-01
 -1.38535E+00 -2.37858E+00 +1.58259E+00 -1.49608E+00 +3.00382E+00 +1.29439E+00 +1.96629E+00 +4.47973E+00
 -1.23009E+00 +6.29815E+00 -5.19046E+00 +5.59140E+00 -8.07319E+00 +2.38391E+00 -8.46782E+00 -2.09630E+00
 -6.08401E+00 -5.97631E+00 -1.91564E+00 -7.61891E+00 +2.20907E+00 -6.40687E+00 +4.48613E+00 -3.05137E+00
 +3.99665E+00 +7.32283E-01 +1.15575E+00 +3.03597E+00 -2.47285E+00 +2.67444E+00 -4.91681E+00 -2.33461E-01
 -4.74187E+00 -4.30187E+00 -1.75347E+00 -7.52374E+00 +2.88622E+00 -8.22292E+00 +7.18826E+00 -5.85982E+00
 +9.26651E+00 -1.30397E+00 +8.22587E+00 +3.56088E+00 +4.58524E+00 +6.71474E+00 +3.16357E-02 +6.94564E+00
 -3.37875E+00 +4.41034E+00 -4.19168E+00 +5.44080E-01 -2.23473E+00 -2.63692E+00 +1.31825E+00 -3.50531E+00
 +4.52696E+00 -1.60017E+00 +5.62852E+00 +2.15983E+00 +3.89108E+00 +5.92754E+00 -3.26260E-02 +7.82376E+00
 -4.42003E+00 +6.84592E+00 -7.30785E+00 +3.35199E+00 -7.43481E+00 -1.11198E+00 -4.84377E+00 -4.55523E+00
 -8.54746E-01 -5.49673E+00 +2.57549E+00 -3.67068E+00 +3.79673E+00 -1.44961E-01 +2.25662E+00 +3.20154E+00
 -1.23913E+00 +4.58820E+00 -4.91933E+00 +3.18999E+00 -6.90001E+00 -4.67504E-01 -6.08578E+00 -4.76093E+00
 -2.68876E+00 -7.74310E+00 +1.87837E+00 -8.06348E+00 +5.67652E+00 -5.59520E+00 +7.15268E+00 -1.47450E+00
 +5.85349E+00 +2.45601E+00 +2.60464E+00 +4.52492E+00 -9.17586E-01 +4.00656E+00 -3.00505E+00 +1.42695E+00
 -2.72729E+00 -1.73284E+00 -3.46110E-01 -3.77883E+00 +2.85201E+00 -3.62488E+00 +5.20954E+00 -1.29721E+00
 +5.51023E+00 +2.11085E+00 +3.55531E+00 +4.99634E+00 +2.32843E-01 +6.03406E+00 -2.93902E+00 +4.80767E+00
 -4.55984E+00 +1.98466E+00 -4.01664E+00 -1.03651E+00 -1.75457E+00 -2.82171E+00 +9.70799E-01 -2.59344E+00
 +2.72481E+00 -5.85998E-01 +2.59256E+00 +2.09766E+00 +6.06436E-01 +4.04313E+00 -2.29501E+00 +4.21414E+00
 -4.74124E+00 +2.43863E+00 -5.59393E+00 -5.34980E-01 -4.47563E+00 -3.42188E+00 -1.91523E+00 -5.02348E+00
 +9.42202E-01 -4.78021E+00 +2.90180E+00 -2.99356E+00 +3.27623E+00 -6.28329E-01 +2.16741E+00 +1.18702E+00
 +3.53698E-01 +1.70391E+00 -1.13851E+00 +8.76393E-01 -1.55067E+00 -6.78956E-01 -7.38188E-01 -2.04190E+00
 +8.11088E-01 -2.46828E+00 +2.27221E+00 -1.74547E+00 +2.92333E+00 -2.55698E-01 +2.50025E+00 +1.26361E+00
 +1.29302E+00 +2.12039E+00 -4.64368E-02 +2.01485E+00 -8.66979E-01 +1.15949E+00 -8.53049E-01 +1.26167E-01
 -1.60066E-01 -4.81726E-01 +7.06600E-01 -3.49059E-01 +1.18827E+00 +4.06783E-01 +9.76410E-01 +1.33212E+00
 +1.60158E-01 +1.90662E+00 -8.51758E-01 +1.82985E+00 -1.57833E+00 +1.16731E+00 -1.73623E+00 +2.83567E-01
 -1.37988E+00 -3.88390E-01 -8.38374E-01 -6.02264E-01 -4.93797E-01 -4.29158E-01 -5.36614E-01 -1.90259E-01
 -8.45340E-01 -2.34591E-01 -1.06479E+00 -6.96777E-01 -8.39677E-01 -1.38407E+00 -6.56668E-02 -1.86905E+00
 +9.97284E-01 -1.74414E+00 +1.83082E+00 -8.94017E-01 +1.93970E+00 +3.79117E-01 +1.15736E+00 +1.46851E+00
 -2.03711E-01 +1.77307E+00 -1.46219E+00 +1.04501E+00 -1.90411E+00 -4.21518E-01 -1.17842E+00 -1.88586E+00
 +4.64313E-01 -2.51707E+00 +2.23952E+00 -1.83999E+00 +3.19629E+00 -3.42786E-02 +2.71379E+00 +2.09178E+00
 +8.69344E-01 +3.46967E+00 -1.53257E+00 +3.31468E+00 -3.31669E+00 +1.56981E+00 -3.52317E+00 -9.96064E-01
 -1.93228E+00 -3.11810E+00 +7.54847E-01 -3.65552E+00 +3.20314E+00 -2.19969E+00 +4.08630E+00 +6.49239E-01
 +2.77820E+00 +3.50838E+00 -2.62498E-01 +4.86267E+00 -3.63750E+00 +3.83592E+00 -5.64868E+00 +6.93813E-01
 -5.14043E+00 -3.19946E+00 -2.12780E+00 -5.98762E+00 +2.12457E+00 -6.22174E+00 +5.64983E+00 -3.61537E+00
 +6.71582E+00 +7.36614E-01 +4.70256E+00 +4.81956E+00 +4.74281E-01 +6.64928E+00 -3.97052E+00 +5.26146E+00
 -6.43626E+00 +1.24504E+00 -5.61621E+00 -3.47317E+00 -1.79062E+00 -6.52483E+00 +3.23351E+00 -6.26410E+00
 +6.95020E+00 -2.62980E+00 +7.37484E+00 +2.74132E+00 +4.06639E+00 +7.24515E+00 -1.56964E+00 +8.56191E+00
 -6.88458E+00 +5.83003E+00 -9.24063E+00 +1.52806E-01 -7.32265E+00 -5.84727E+00 -1.85829E+00 -9.25101E+00
 +4.63944E+00 -8.27199E+00 +9.02528E+00 -3.19408E+00 +9.04118E+00 +3.66936E+00 +4.46777E+00 +9.01844E+00
