 Created: 19-Jan-2021
 $NMID
 ID='D:\BASISSIMULATI'
 FMTDAT='(8E13.5)'
 VOLUME=   1.00000E+00
 TRAMP=   1.00000E+00
 $END
 +2.52826E+01 +1.80846E+00 +2.18810E+01 +1.14006E+01 +1.45356E+01 +1.81718E+01 +5.15310E+00 +2.06001E+01
 -3.87481E+00 +1.83149E+01 -1.03121E+01 +1.21756E+01 -1.26658E+01 +4.01874E+00 -1.05631E+01 -3.85045E+00
 -4.81968E+00 -9.28030E+00 +2.81016E+00 -1.08370E+01 +1.01266E+01 -8.16117E+00 +1.50799E+01 -2.02684E+00
 +1.63044E+01 +5.90269E+00 +1.34516E+01 +1.35453E+01 +7.23901E+00 +1.89616E+01 -7.83266E-01 +2.08540E+01
 -8.67497E+00 +1.88717E+01 -1.46270E+01 +1.36519E+01 -1.74194E+01 +6.59927E+00 -1.66975E+01 -5.22403E-01
 -1.30050E+01 -6.06568E+00 -7.57971E+00 -8.91274E+00 -1.98397E+00 -8.72057E+00 +2.32148E+00 -5.94600E+00
 +4.34267E+00 -1.66073E+00 +3.76536E+00 +2.77738E+00 +9.72752E-01 +6.09781E+00 -3.11892E+00 +7.43307E+00
 -7.34620E+00 +6.49910E+00 -1.06181E+01 +3.60649E+00 -1.21819E+01 -4.82283E-01 -1.17718E+01 -4.79474E+00
 -9.61414E+00 -8.41406E+00 -6.30763E+00 -1.06957E+01 -2.62537E+00 -1.13849E+01 +6.97508E-01 -1.06176E+01
 +3.13244E+00 -8.82311E+00 +4.44504E+00 -6.56966E+00 +4.69243E+00 -4.40365E+00 +4.14782E+00 -2.72695E+00
 +3.18746E+00 -1.73742E+00 +2.17879E+00 -1.43516E+00 +1.40064E+00 -1.67692E+00 +1.00977E+00 -2.25075E+00
 +1.05006E+00 -2.94276E+00 +1.48771E+00 -3.57789E+00 +2.25070E+00 -4.03002E+00 +3.25509E+00 -4.21041E+00
 +4.41088E+00 -4.05007E+00 +5.61171E+00 -3.49170E+00 +6.72138E+00 -2.49925E+00 +7.57197E+00 -1.08260E+00
 +7.98310E+00 +6.74490E-01 +7.80248E+00 +2.59927E+00 +6.95668E+00 +4.44140E+00 +5.49414E+00 +5.91527E+00
 +3.60185E+00 +6.76616E+00 +1.58337E+00 +6.84251E+00 -2.01761E-01 +6.15127E+00 -1.42435E+00 +4.87608E+00
 -1.87441E+00 +3.34749E+00 -1.52602E+00 +1.96877E+00 -5.56838E-01 +1.11477E+00 +6.87109E-01 +1.03128E+00
 +1.77496E+00 +1.76338E+00 +2.30183E+00 +3.13502E+00 +1.99714E+00 +4.78744E+00 +8.00296E-01 +6.26808E+00
 -1.11788E+00 +7.14669E+00 -3.39488E+00 +7.12744E+00 -5.56711E+00 +6.12656E+00 -7.18708E+00 +4.29466E+00
 -7.93582E+00 +1.97783E+00 -7.70050E+00 -3.71170E-01 -6.59756E+00 -2.30738E+00 -4.93656E+00 -3.50297E+00
 -3.13603E+00 -3.82294E+00 -1.61524E+00 -3.34875E+00 -6.90909E-01 -2.34614E+00 -5.05347E-01 -1.18810E+00
 -1.00276E+00 -2.55559E-01 -1.95678E+00 +1.57455E-01 -3.03859E+00 -8.97544E-02 -3.90538E+00 -9.61297E-01
 -4.28495E+00 -2.26699E+00 -4.03560E+00 -3.72054E+00 -3.16853E+00 -5.01558E+00 -1.83115E+00 -5.89883E+00
 -2.59737E-01 -6.22246E+00 +1.28319E+00 -5.96537E+00 +2.56943E+00 -5.22217E+00 +3.44924E+00 -4.16718E+00
 +3.87082E+00 -3.00596E+00 +3.87483E+00 -1.92807E+00 +3.56963E+00 -1.07200E+00 +3.09716E+00 -5.08069E-01
 +2.59938E+00 -2.39201E-01 +2.19272E+00 -2.14830E-01 +1.95419E+00 -3.51196E-01 +1.91810E+00 -5.51449E-01
 +2.08025E+00 -7.21440E-01 +2.40518E+00 -7.80056E-01 +2.83342E+00 -6.65460E-01 +3.28769E+00 -3.39666E-01
 +3.67922E+00 +2.06759E-01 +3.91615E+00 +9.49804E-01 +3.91567E+00 +1.82890E+00 +3.61956E+00 +2.74875E+00
 +3.01035E+00 +3.58897E+00 +2.12360E+00 +4.22247E+00 +1.05090E+00 +4.54046E+00 -6.98216E-02 +4.47888E+00
 -1.07736E+00 +4.03940E+00 -1.82004E+00 +3.29771E+00 -2.19116E+00 +2.39493E+00 -2.15789E+00 +1.51154E+00
 -1.77524E+00 +8.28663E-01 -1.17947E+00 +4.85216E-01 -5.60759E-01 +5.41801E-01 -1.20312E-01 +9.61284E-01
 -2.16328E-02 +1.61236E+00 -3.48178E-01 +2.29681E+00 -1.07850E+00 +2.79500E+00 -2.08620E+00 +2.91895E+00
 -3.16578E+00 +2.56015E+00 -4.07921E+00 +1.71964E+00 -4.61203E+00 +5.12421E-01 -4.62562E+00 -8.55869E-01
 -4.09248E+00 -2.13486E+00 -3.10553E+00 -3.08725E+00 -1.85870E+00 -3.54459E+00 -6.03000E-01 -3.44741E+00
 +4.11378E-01 -2.85994E+00 +9.93354E-01 -1.95550E+00 +1.05551E+00 -9.76044E-01 +6.34305E-01 -1.75311E-01
 -1.18950E-01 +2.40840E-01 -9.74163E-01 +1.62833E-01 -1.67707E+00 -3.96955E-01 -2.00941E+00 -1.30723E+00
 -1.84058E+00 -2.34870E+00 -1.15859E+00 -3.26556E+00 -7.33844E-02 -3.82536E+00 +1.20836E+00 -3.87334E+00
 +2.43078E+00 -3.36864E+00 +3.34765E+00 -2.39405E+00 +3.77892E+00 -1.13711E+00 +3.65180E+00 +1.52789E-01
 +3.01702E+00 +1.22158E+00 +2.03659E+00 +1.86846E+00 +9.45954E-01 +1.99146E+00 -6.78039E-04 +1.60998E+00
 -5.89102E-01 +8.59196E-01 -6.94435E-01 -4.23344E-02 -3.09512E-01 -8.44301E-01 +4.54216E-01 -1.32356E+00
 +1.39349E+00 -1.33657E+00 +2.26154E+00 -8.53071E-01 +2.82652E+00 +3.67959E-02 +2.92645E+00 +1.14381E+00
 +2.50769E+00 +2.22431E+00 +1.63772E+00 +3.03770E+00 +4.89355E-01 +3.40325E+00 -7.00086E-01 +3.24264E+00
 -1.68481E+00 +2.59806E+00 -2.26845E+00 +1.62173E+00 -2.34996E+00 +5.39062E-01 -1.94650E+00 -4.05240E-01
 -1.18784E+00 -1.00548E+00 -2.83871E-01 -1.14332E+00 +5.26854E-01 -8.14706E-01 +1.03490E+00 -1.28875E-01
 +1.10995E+00 +7.19912E-01 +7.30914E-01 +1.50085E+00 -1.08479E-02 +2.00318E+00 -9.35659E-01 +2.08687E+00
 -1.82063E+00 +1.71531E+00 -2.45430E+00 +9.62216E-01 -2.68735E+00 -8.39834E-03 -2.46701E+00 -9.83481E-01
 -1.84728E+00 -1.75302E+00 -9.73201E-01 -2.15985E+00 -4.37165E-02 -2.13522E+00 +7.37016E-01 -1.71198E+00
 +1.20777E+00 -1.01310E+00 +1.28626E+00 -2.19237E-01 +9.84973E-01 +4.75911E-01 +4.03958E-01 +9.11263E-01
 -2.96441E-01 +9.94176E-01 -9.35500E-01 +7.18568E-01 -1.35458E+00 +1.62122E-01 -1.45224E+00 -5.35472E-01
 -1.20440E+00 -1.20707E+00 -6.66089E-01 -1.69676E+00 +4.43899E-02 -1.89385E+00 +7.74117E-01 -1.75497E+00
 +1.36999E+00 -1.31057E+00 +1.71126E+00 -6.55396E-01 +1.73357E+00 +7.37900E-02 +1.44039E+00 +7.27921E-01
 +9.00231E-01 +1.17649E+00 +2.31252E-01 +1.33356E+00 -4.23445E-01 +1.17431E+00 -9.24806E-01 +7.39440E-01
 -1.16582E+00 +1.26910E-01 -1.09345E+00 -5.27420E-01 -7.20353E-01 -1.07687E+00 -1.24091E-01 -1.39397E+00
 +5.66870E-01 -1.39784E+00 +1.19826E+00 -1.07345E+00 +1.62210E+00 -4.78260E-01 +1.72963E+00 +2.66309E-01
 +1.47808E+00 +9.98064E-01 +9.04749E-01 +1.54820E+00 +1.23865E-01 +1.77973E+00 -6.94665E-01 +1.62170E+00
 -1.36145E+00 +1.09059E+00 -1.71143E+00 +2.92479E-01 -1.64520E+00 -5.96284E-01 -1.15757E+00 -1.36709E+00
 -3.44905E-01 -1.82788E+00 +6.12161E-01 -1.85129E+00 +1.48824E+00 -1.40985E+00 +2.06641E+00 -5.88455E-01
 +2.19245E+00 +4.30699E-01 +1.81641E+00 +1.40853E+00 +1.00998E+00 +2.10591E+00 -4.59655E-02 +2.34337E+00
 -1.10196E+00 +2.04834E+00 -1.89953E+00 +1.27751E+00 -2.23535E+00 +2.07357E-01 -2.01384E+00 -9.05675E-01
 -1.27429E+00 -1.78646E+00 -1.85177E-01 -2.20888E+00 +9.93990E-01 -2.05302E+00 +1.97426E+00 -1.33743E+00
 +2.50737E+00 -2.17760E-01 +2.44714E+00 +1.04825E+00 +1.78691E+00 +2.16132E+00 +6.63643E-01 +2.85205E+00
 -6.72629E-01 +2.94597E+00 -1.91669E+00 +2.40662E+00 -2.77976E+00 +1.34605E+00 -3.05784E+00 +3.83423E-04
 -2.68065E+00 -1.32399E+00 -1.72987E+00 -2.32111E+00 -4.22145E-01 -2.75660E+00 +9.39053E-01 -2.52312E+00
 +2.03215E+00 -1.66720E+00 +2.59120E+00 -3.81440E-01 +2.46820E+00 +1.03669E+00 +1.66984E+00 +2.25061E+00
 +3.60189E-01 +2.96065E+00 -1.17214E+00 +2.97387E+00 -2.57599E+00 +2.25181E+00 -3.51590E+00 +9.24933E-01
 -3.74988E+00 -7.30663E-01 -3.18910E+00 -2.35083E+00 -1.92527E+00 -3.56373E+00 -2.17651E-01 -4.07593E+00
 +1.55946E+00 -3.74476E+00 +2.99911E+00 -2.61930E+00 +3.75632E+00 -9.38481E-01 +3.63346E+00 +9.16103E-01
 +2.63541E+00 +2.50433E+00 +9.78945E-01 +3.43079E+00 -9.48766E-01 +3.44336E+00 -2.67596E+00 +2.50246E+00
 -3.75800E+00 +8.01922E-01 -3.88880E+00 -1.26682E+00 -2.98404E+00 -3.20202E+00 -1.21316E+00 -4.51135E+00
 +1.03081E+00 -4.83563E+00 +3.21966E+00 -4.04515E+00 +4.81703E+00 -2.28238E+00 +5.41330E+00 +6.27385E-02
 +4.83401E+00 +2.44184E+00 +3.19231E+00 +4.28129E+00 +8.69586E-01 +5.12682E+00 -1.57351E+00 +4.76234E+00
 -3.53501E+00 +3.27116E+00 -4.52396E+00 +1.02166E+00 -4.28783E+00 -1.42091E+00 -2.88104E+00 -3.43535E+00
 -6.55385E-01 -4.50229E+00 +1.82646E+00 -4.33792E+00 +3.93283E+00 -2.96829E+00 +5.12365E+00 -7.24178E-01
 +5.08800E+00 +1.84263E+00 +3.82248E+00 +4.09983E+00 +1.63030E+00 +5.49511E+00 -9.58388E-01 +5.69473E+00
 -3.32297E+00 +4.66429E+00 -4.90965E+00 +2.67170E+00 -5.36807E+00 +2.13217E-01 -4.63265E+00 -2.11643E+00
 -2.92938E+00 -3.77455E+00 -7.08950E-01 -4.40218E+00 +1.47344E+00 -3.90421E+00 +3.09846E+00 -2.45973E+00
 +3.80640E+00 -4.64042E-01 +3.47416E+00 +1.57899E+00 +2.22932E+00 +3.18374E+00 +4.02581E-01 +3.99572E+00
 -1.56439E+00 +3.86383E+00 -3.22889E+00 +2.85812E+00 -4.24638E+00 +1.23444E+00 -4.43658E+00 -6.39321E-01
 -3.80510E+00 -2.37314E+00 -2.52202E+00 -3.63788E+00 -8.69213E-01 -4.22382E+00 +8.26592E-01 -4.06640E+00
 +2.25827E+00 -3.24049E+00 +3.18827E+00 -1.93122E+00 +3.47879E+00 -3.92570E-01 +3.10315E+00 +1.09661E+00
 +2.14233E+00 +2.27315E+00 +7.71134E-01 +2.92463E+00 -7.63885E-01 +2.91900E+00 -2.17502E+00 +2.22855E+00
 -3.17366E+00 +9.45220E-01 -3.51932E+00 -7.18632E-01 -3.07218E+00 -2.45057E+00 -1.83856E+00 -3.88393E+00
 +4.90641E-03 -4.66706E+00 +2.12143E+00 -4.54516E+00 +4.06597E+00 -3.43628E+00 +5.37494E+00 -1.47899E+00
 +5.67768E+00 +9.67947E-01 +4.80270E+00 +3.38380E+00 +2.84827E+00 +5.19612E+00 +1.91376E-01 +5.92119E+00
 -2.57686E+00 +5.29973E+00 -4.78163E+00 +3.38927E+00 -5.83258E+00 +5.81707E-01 -5.38743E+00 -2.46772E+00
 -3.46456E+00 -4.98993E+00 -4.68297E-01 -6.29625E+00 +2.88836E+00 -5.96752E+00 +5.75091E+00 -3.98508E+00
 +7.34126E+00 -7.62703E-01 +7.16956E+00 +2.93647E+00 +5.18129E+00 +6.18296E+00 +1.79481E+00 +8.11939E+00
 -2.18690E+00 +8.19195E+00 -5.77263E+00 +6.31085E+00 -8.03849E+00 +2.89251E+00 -8.37517E+00 -1.23291E+00
 -6.65900E+00 -5.02848E+00 -3.29777E+00 -7.51900E+00 +8.64699E-01 -8.05003E+00 +4.76270E+00 -6.46662E+00
 +7.38589E+00 -3.16188E+00 +8.04563E+00 +1.01986E+00 +6.55844E+00 +5.00092E+00 +3.29656E+00 +7.75146E+00
 -9.08518E-01 +8.55875E+00 -4.98380E+00 +7.21246E+00 -7.89516E+00 +4.05668E+00 -8.91520E+00 -1.04264E-01
 -7.80751E+00 -4.21943E+00 -4.87979E+00 -7.26604E+00 -8.94199E-01 -8.51159E+00 +3.13828E+00 -7.69456E+00
 +6.22219E+00 -5.07840E+00 +7.62994E+00 -1.36861E+00 +7.07649E+00 +2.48084E+00 +4.77431E+00 +5.51706E+00
 +1.35935E+00 +7.02677E+00 -2.28667E+00 +6.70315E+00 -5.26672E+00 +4.70168E+00 -6.88996E+00 +1.57734E+00
 -6.82877E+00 -1.87374E+00 -5.17597E+00 -4.82199E+00 -2.39518E+00 -6.60587E+00 +8.15109E-01 -6.87770E+00
