 Created: 19-Jan-2021
 $NMID
 ID='D:\BASISSIMULATI'
 FMTDAT='(8E13.5)'
 VOLUME=   1.00000E+00
 TRAMP=   1.00000E+00
 $END
 +2.69915E+01 +1.68243E-01 +2.20503E+01 +1.41556E+01 +1.01205E+01 +2.25562E+01 -4.11350E+00 +2.23906E+01
 -1.51441E+01 +1.40525E+01 -1.88087E+01 +1.11990E+00 -1.39100E+01 -1.10836E+01 -2.65625E+00 -1.76009E+01
 +1.02414E+01 -1.57920E+01 +1.94494E+01 -6.35475E+00 +2.11214E+01 +6.97490E+00 +1.44058E+01 +1.89171E+01
 +1.76323E+00 +2.47377E+01 -1.20215E+01 +2.21068E+01 -2.17328E+01 +1.19985E+01 -2.37722E+01 -1.71609E+00
 -1.75539E+01 -1.38093E+01 -5.70440E+00 -1.97570E+01 +7.00050E+00 -1.75029E+01 +1.55331E+01 -8.23750E+00
 +1.65915E+01 +4.10678E+00 +9.87974E+00 +1.44333E+01 -1.80689E+00 +1.85007E+01 -1.37127E+01 +1.45875E+01
 -2.10133E+01 +4.14911E+00 -2.07170E+01 -8.78032E+00 -1.28276E+01 -1.91944E+01 -3.20762E-01 -2.30891E+01
 +1.20487E+01 -1.90243E+01 +1.96255E+01 -8.66503E+00 +1.96754E+01 +3.90279E+00 +1.24344E+01 +1.37994E+01
 +9.80169E-01 +1.72727E+01 -1.00106E+01 +1.31561E+01 -1.61191E+01 +3.29451E+00 -1.49194E+01 -8.21699E+00
 -6.91142E+00 -1.66711E+01 +4.70673E+00 -1.86089E+01 +1.53243E+01 -1.31695E+01 +2.07452E+01 -2.40501E+00
 +1.88329E+01 +9.55313E+00 +1.03296E+01 +1.81349E+01 -1.46477E+00 +2.01275E+01 -1.20126E+01 +1.49180E+01
 -1.73299E+01 +4.70230E+00 -1.55395E+01 -6.41131E+00 -7.57751E+00 -1.40375E+01 +3.21162E+00 -1.52382E+01
 +1.24218E+01 -9.65697E+00 +1.63313E+01 +3.74760E-01 +1.33585E+01 +1.07882E+01 +4.65906E+00 +1.73988E+01
 -6.35983E+00 +1.75531E+01 -1.54030E+01 +1.11548E+01 -1.89832E+01 +6.73583E-01 -1.57786E+01 -9.85278E+00
 -7.12416E+00 -1.64190E+01 +3.54609E+00 -1.66199E+01 +1.20722E+01 -1.05690E+01 +1.52080E+01 -8.17842E-01
 +1.18788E+01 +8.68085E+00 +3.57093E+00 +1.41446E+01 -6.29083E+00 +1.34438E+01 -1.37165E+01 +6.91409E+00
 -1.57272E+01 -2.80964E+00 -1.15122E+01 -1.18603E+01 -2.71837E+00 -1.66738E+01 +7.22819E+00 -1.53835E+01
 +1.44897E+01 -8.52977E+00 +1.63254E+01 +1.18571E+00 +1.21485E+01 +9.98867E+00 +3.72269E+00 +1.45257E+01
 -5.56567E+00 +1.31697E+01 -1.20602E+01 +6.62824E+00 -1.32713E+01 -2.37278E+00 -8.83280E+00 -1.01922E+01
 -6.09959E-01 -1.37173E+01 +8.06927E+00 -1.15773E+01 +1.37442E+01 -4.65320E+00 +1.41819E+01 +4.30309E+00
 +9.23390E+00 +1.17778E+01 +8.61575E-01 +1.48846E+01 -7.66581E+00 +1.24848E+01 -1.30724E+01 +5.60445E+00
 -1.33574E+01 -3.00467E+00 -8.55487E+00 -9.97190E+00 -6.82882E-01 -1.26379E+01 +7.08371E+00 -1.00818E+01
 +1.16786E+01 -3.44871E+00 +1.13434E+01 +4.53849E+00 +6.29217E+00 +1.06768E+01 -1.40996E+00 +1.25479E+01
 -8.69077E+00 +9.45198E+00 -1.26941E+01 +2.65005E+00 -1.18947E+01 -5.16640E+00 -6.67062E+00 -1.09561E+01
 +8.81221E-01 -1.25248E+01 +7.79908E+00 -9.36649E+00 +1.14318E+01 -2.82739E+00 +1.04688E+01 +4.45944E+00
 +5.42365E+00 +9.63103E+00 -1.60628E+00 +1.07194E+01 -7.79584E+00 +7.40188E+00 -1.07140E+01 +1.09108E+00
 -9.26729E+00 -5.65679E+00 -4.09837E+00 -1.01683E+01 +2.70376E+00 -1.07022E+01 +8.45357E+00 -7.11081E+00
 +1.09332E+01 -8.61984E-01 +9.24913E+00 +5.57120E+00 +4.15130E+00 +9.70046E+00 -2.29909E+00 +9.99502E+00
 -7.56643E+00 +6.45645E+00 -9.64311E+00 +5.80039E-01 -7.82061E+00 -5.26729E+00 -2.93297E+00 -8.79454E+00
 +3.00945E+00 -8.68038E+00 +7.63709E+00 -5.06446E+00 +9.15749E+00 +5.45704E-01 +7.04118E+00 +5.90066E+00
 +2.19515E+00 +8.90846E+00 -3.43028E+00 +8.44843E+00 -7.63206E+00 +4.78273E+00 -8.82207E+00 -5.84173E-01
 -6.62995E+00 -5.52812E+00 -2.01262E+00 -8.15237E+00 +3.15842E+00 -7.52133E+00 +6.85526E+00 -3.99678E+00
 +7.69014E+00 +9.43280E-01 +5.43733E+00 +5.31675E+00 +1.08445E+00 +7.42761E+00 -3.59233E+00 +6.51934E+00
 -6.74775E+00 +3.04007E+00 -7.19072E+00 -1.57191E+00 -4.82796E+00 -5.48279E+00 -6.63631E-01 -7.19261E+00
 +3.63013E+00 -6.10953E+00 +6.38897E+00 -2.74925E+00 +6.60549E+00 +1.50558E+00 +4.29826E+00 +4.97624E+00
 +4.66395E-01 +6.35380E+00 -3.33760E+00 +5.19564E+00 -5.63510E+00 +2.06437E+00 -5.59551E+00 -1.73161E+00
 -3.33426E+00 -4.67900E+00 +1.71063E-01 -5.65887E+00 +3.49840E+00 -4.36710E+00 +5.35527E+00 -1.39864E+00
 +5.07788E+00 +2.02346E+00 +2.86255E+00 +4.55311E+00 -3.49420E-01 +5.25201E+00 -3.27338E+00 +3.93699E+00
 -4.79869E+00 +1.21588E+00 -4.41363E+00 -1.78812E+00 -2.37517E+00 -3.90040E+00 +4.30747E-01 -4.35606E+00
 +2.86827E+00 -3.07713E+00 +4.00891E+00 -6.65920E-01 +3.48309E+00 +1.86792E+00 +1.59314E+00 +3.52533E+00
 -8.43796E-01 +3.70808E+00 -2.84599E+00 +2.42933E+00 -3.66151E+00 +2.71330E-01 -3.04836E+00 -1.87806E+00
 -1.33648E+00 -3.19286E+00 +7.39613E-01 -3.22855E+00 +2.35676E+00 -2.07019E+00 +2.93267E+00 -2.61190E-01
 +2.33704E+00 +1.44425E+00 +9.08210E-01 +2.39435E+00 -7.17562E-01 +2.28888E+00 -1.88228E+00 +1.26906E+00
 -2.16907E+00 -1.75884E-01 -1.54682E+00 -1.43385E+00 -3.47660E-01 -2.02523E+00 +9.00226E-01 -1.78246E+00
 +1.70397E+00 -8.86865E-01 +1.80143E+00 +2.40066E-01 +1.24306E+00 +1.13333E+00 +3.36538E-01 +1.47934E+00
 -5.10034E-01 +1.22770E+00 -9.70566E-01 +5.80270E-01 -9.28507E-01 -1.26049E-01 -4.99636E-01 -5.81777E-01
 +4.97849E-02 -6.36996E-01 +4.42993E-01 -3.47109E-01 +5.21942E-01 +8.04111E-02 +3.07032E-01 +4.04808E-01
 -3.49735E-02 +4.74943E-01 -2.92545E-01 +2.96859E-01 -3.26172E-01 +1.63596E-02 -1.41071E-01 -1.70498E-01
 +1.19870E-01 -1.30977E-01 +2.58161E-01 +1.25852E-01 +1.34315E-01 +4.47032E-01 -2.44509E-01 +6.13146E-01
 -7.11228E-01 +4.58031E-01 -1.01146E+00 -2.94511E-02 -9.30728E-01 -6.75929E-01 -4.15379E-01 -1.18768E+00
 +3.74675E-01 -1.28465E+00 +1.11463E+00 -8.44075E-01 +1.45113E+00 +1.60498E-02 +1.16906E+00 +9.60488E-01
 +3.12091E-01 +1.56700E+00 -8.04878E-01 +1.51262E+00 -1.70790E+00 +7.34688E-01 -1.96140E+00 -5.10293E-01
 -1.36889E+00 -1.72657E+00 -8.62535E-02 -2.37480E+00 +1.41085E+00 -2.10623E+00 +2.50420E+00 -9.34503E-01
 +2.68878E+00 +7.35991E-01 +1.80141E+00 +2.24969E+00 +1.20490E-01 +2.95995E+00 -1.71650E+00 +2.50620E+00
 -2.95579E+00 +9.90078E-01 -3.03791E+00 -1.03254E+00 -1.84812E+00 -2.75305E+00 +2.03947E-01 -3.43268E+00
 +2.32051E+00 -2.71737E+00 +3.62403E+00 -8.11414E-01 +3.51863E+00 +1.57207E+00 +1.95593E+00 +3.47657E+00
 -5.11673E-01 +4.08507E+00 -2.92471E+00 +3.06710E+00 -4.29035E+00 +7.43290E-01 -3.99047E+00 -2.01079E+00
 -2.05649E+00 -4.09554E+00 +8.09640E-01 -4.62781E+00 +3.48973E+00 -3.31435E+00 +4.88728E+00 -6.00976E-01
 +4.37743E+00 +2.47488E+00 +2.08425E+00 +4.68102E+00 -1.13620E+00 +5.08520E+00 -4.01321E+00 +3.44892E+00
 -5.36193E+00 +3.54528E-01 -4.57000E+00 -2.99745E+00 -1.87070E+00 -5.25168E+00 +1.71757E+00 -5.44323E+00
 +4.77382E+00 -3.40539E+00 +6.03573E+00 +1.31334E-01 +4.91766E+00 +3.80118E+00 +1.77317E+00 +6.13264E+00
 -2.21391E+00 +6.14008E+00 -5.47877E+00 +3.73950E+00 -6.69475E+00 -1.86597E-01 -5.31716E+00 -4.11324E+00
 -1.82866E+00 -6.46770E+00 +2.42262E+00 -6.26285E+00 +5.74004E+00 -3.51407E+00 +6.75229E+00 +7.35725E-01
 +4.97681E+00 +4.80523E+00 +1.04159E+00 +7.03330E+00 -3.53433E+00 +6.44916E+00 -6.92596E+00 +3.18398E+00
 -7.72767E+00 -1.54950E+00 -5.53026E+00 -5.91334E+00 -1.11315E+00 -8.16507E+00 +3.83614E+00 -7.35957E+00
 +7.37510E+00 -3.74914E+00 +8.07875E+00 +1.28714E+00 +5.62413E+00 +5.76846E+00 +9.46798E-01 +7.89234E+00
 -4.10416E+00 +6.76229E+00 -7.48634E+00 +2.76958E+00 -7.77931E+00 -2.53275E+00 -4.76970E+00 -7.02504E+00
 +4.33944E-01 -8.85759E+00 +5.81378E+00 -7.19855E+00 +9.22910E+00 -2.59102E+00 +9.26984E+00 +3.23240E+00
 +5.83638E+00 +8.01552E+00 +2.07561E-01 +9.86839E+00 -5.44143E+00 +8.02949E+00 -8.88973E+00 +3.19237E+00
 -8.75711E+00 -2.74311E+00 -5.07174E+00 -7.40705E+00 +7.14069E-01 -8.89833E+00 +6.27748E+00 -6.55444E+00
 +9.33774E+00 -1.24090E+00 +8.56959E+00 +4.96468E+00 +4.15237E+00 +9.57910E+00 -2.27155E+00 +1.06976E+01
 -8.22357E+00 +7.76521E+00 -1.13608E+01 +1.82373E+00 -1.04118E+01 -4.87418E+00 -5.70088E+00 -9.74059E+00
 +9.54509E-01 -1.08768E+01 +6.94384E+00 -7.83992E+00 +9.89138E+00 -1.84201E+00 +8.60719E+00 +4.70830E+00
 +3.58030E+00 +9.14849E+00 -3.18988E+00 +9.62146E+00 -8.96747E+00 +5.83050E+00 -1.13602E+01 -8.15969E-01
 -9.27990E+00 -7.73727E+00 -3.39789E+00 -1.21890E+01 +4.09259E+00 -1.23526E+01 +1.03244E+01 -8.07273E+00
 +1.28848E+01 -9.43996E-01 +1.07798E+01 +6.29790E+00 +4.84729E+00 +1.08473E+01 -2.55336E+00 +1.09424E+01
 -8.46091E+00 +6.57860E+00 -1.04841E+01 -4.67950E-01 -7.76208E+00 -7.32602E+00 -1.32809E+00 -1.11597E+01
 +6.27605E+00 -1.03004E+01 +1.19914E+01 -4.92864E+00 +1.34525E+01 +2.97003E+00 +9.93796E+00 +1.03684E+01
 +2.68050E+00 +1.43850E+01 -5.59651E+00 +1.34283E+01 -1.17398E+01 +7.84348E+00 -1.34105E+01 -2.03353E-01
 -1.00197E+01 -7.56485E+00 -2.97864E+00 -1.13517E+01 +4.84263E+00 -1.00830E+01 +1.02427E+01 -4.28943E+00
 +1.09604E+01 +3.67697E+00 +6.58680E+00 +1.05591E+01 -1.24924E+00 +1.34818E+01 -9.50335E+00 +1.11012E+01
 -1.49076E+01 +4.15921E+00 -1.52646E+01 -4.78467E+00 -1.03312E+01 -1.23456E+01 -1.93565E+00 -1.56440E+01
 +6.72506E+00 -1.34490E+01 +1.23382E+01 -6.67971E+00 +1.27854E+01 +1.94247E+00 +7.99165E+00 +8.95904E+00
 -3.02678E-02 +1.15423E+01 -7.96285E+00 +8.62481E+00 -1.24931E+01 +1.34059E+00 -1.16322E+01 -7.40481E+00
 -5.52133E+00 -1.40714E+01 +3.59950E+00 -1.58851E+01 +1.22568E+01 -1.19475E+01 +1.71060E+01 -3.61267E+00
 +1.62552E+01 +6.02622E+00 +1.00255E+01 +1.33432E+01 +8.40111E-01 +1.56073E+01 -7.71912E+00 +1.20671E+01
 -1.23224E+01 +4.25885E+00 -1.12126E+01 -4.58975E+00 -4.91204E+00 -1.08311E+01 +3.97013E+00 -1.18454E+01
 +1.17598E+01 -7.09118E+00 +1.51708E+01 +1.66008E+00 +1.26159E+01 +1.10059E+01 +4.85441E+00 +1.72470E+01
 -5.28506E+00 +1.78500E+01 -1.40036E+01 +1.24602E+01 -1.80238E+01 +3.05910E+00 -1.58858E+01 -6.80110E+00
 -8.53244E+00 -1.33903E+01 +1.05233E+00 -1.42719E+01 +9.01591E+00 -9.27116E+00 +1.21601E+01 -5.53144E-01
 +9.21380E+00 +8.22639E+00 +1.34947E+00 +1.33661E+01 -8.26639E+00 +1.25916E+01 -1.57165E+01 +5.97186E+00
 -1.78821E+01 -4.08698E+00 -1.36874E+01 -1.37742E+01 -4.54217E+00 -1.93697E+01 +6.19477E+00 -1.87127E+01
 +1.45274E+01 -1.20634E+01 +1.73933E+01 -2.01201E+00 +1.38735E+01 +7.53419E+00 +5.55998E+00 +1.28892E+01
 -4.06769E+00 +1.20463E+01 -1.10169E+01 +5.47742E+00 -1.23657E+01 -4.04514E+00 -7.42980E+00 -1.25399E+01
