 Created: 19-Jan-2021
 $NMID
 ID='D:\BASISSIMULATI'
 FMTDAT='(8E13.5)'
 VOLUME=   1.00000E+00
 TRAMP=   1.00000E+00
 $END
 +3.29452E+01 -1.92137E-01 +3.26169E+01 +4.06725E+00 +3.16057E+01 +8.20915E+00 +2.99433E+01 +1.21177E+01
 +2.76815E+01 +1.56846E+01 +2.48901E+01 +1.88128E+01 +2.16550E+01 +2.14193E+01 +1.80749E+01 +2.34380E+01
 +1.42584E+01 +2.48214E+01 +1.03204E+01 +2.55422E+01 +6.37807E+00 +2.55939E+01 +2.54744E+00 +2.49910E+01
 -1.06052E+00 +2.37681E+01 -4.34338E+00 +2.19788E+01 -7.21044E+00 +1.96935E+01 -9.58556E+00 +1.69972E+01
 -1.14094E+01 +1.39865E+01 -1.26411E+01 +1.07662E+01 -1.32594E+01 +7.44585E+00 -1.32632E+01 +4.13631E+00
 -1.26709E+01 +9.45814E-01 -1.15199E+01 -2.02333E+00 -9.86502E+00 -4.67804E+00 -7.77607E+00 -6.93738E+00
 -5.33576E+00 -8.73501E+00 -2.63647E+00 -1.00211E+01 +2.22874E-01 -1.07637E+01 +3.14024E+00 -1.09496E+01
 +6.01391E+00 -1.05841E+01 +8.74590E+00 -9.69084E+00 +1.12452E+01 -8.31052E+00 +1.34305E+01 -6.49914E+00
 +1.52330E+01 -4.32587E+00 +1.65985E+01 -1.87047E+00 +1.74886E+01 +7.79693E-01 +1.78819E+01 +3.53272E+00
 +1.77746E+01 +6.29544E+00 +1.71798E+01 +8.97663E+00 +1.61272E+01 +1.14901E+01 +1.46611E+01 +1.37576E+01
 +1.28393E+01 +1.57113E+01 +1.07301E+01 +1.72960E+01 +8.41024E+00 +1.84707E+01 +5.96167E+00 +1.92099E+01
 +3.46871E+00 +1.95040E+01 +1.01500E+00 +1.93594E+01 -1.31947E+00 +1.87979E+01 -3.46113E+00 +1.78556E+01
 -5.34535E+00 +1.65813E+01 -6.91855E+00 +1.50347E+01 -8.13994E+00 +1.32837E+01 -8.98273E+00 +1.14020E+01
 -9.43487E+00 +9.46633E+00 -9.49921E+00 +7.55341E+00 -9.19312E+00 +5.73735E+00 -8.54762E+00 +4.08690E+00
 -7.60604E+00 +2.66298E+00 -6.42218E+00 +1.51659E+00 -5.05823E+00 +6.87072E-01 -3.58232E+00 +2.00799E-01
 -2.06591E+00 +7.03759E-02 -5.81132E-01 +2.94339E-01 +8.01912E-01 +8.57367E-01 +2.01773E+00 +1.73099E+00
 +3.00784E+00 +2.87477E+00 +3.72284E+00 +4.23792E+00 +4.12420E+00 +5.76123E+00 +4.18562E+00 +7.37935E+00
 +3.89389E+00 +9.02323E+00 +3.24932E+00 +1.06227E+01 +2.26569E+00 +1.21089E+01 +9.69653E-01 +1.34171E+01
 -6.00257E-01 +1.44889E+01 -2.39508E+00 +1.52741E+01 -4.35721E+00 +1.57330E+01 -6.42253E+00 +1.58372E+01
 -8.52269E+00 +1.55712E+01 -1.05876E+01 +1.49326E+01 -1.25479E+01 +1.39322E+01 -1.43375E+01 +1.25936E+01
 -1.58957E+01 +1.09525E+01 -1.71697E+01 +9.05506E+00 -1.81161E+01 +6.95681E+00 -1.87025E+01 +4.72021E+00
 -1.89086E+01 +2.41272E+00 -1.87271E+01 +1.04370E-01 -1.81636E+01 -2.13466E+00 -1.72366E+01 -4.23643E+00
 -1.59766E+01 -6.13759E+00 -1.44254E+01 -7.78153E+00 -1.26343E+01 -9.12027E+00 -1.06623E+01 -1.01161E+01
 -8.57452E+00 -1.07427E+01 -6.43934E+00 -1.09862E+01 -4.32660E+00 -1.08454E+01 -2.30495E+00 -1.03316E+01
 -4.39680E-01 -9.46867E+00 +1.20948E+00 -8.29162E+00 +2.59034E+00 -6.84565E+00 +3.65987E+00 -5.18449E+00
 +4.38564E+00 -3.36855E+00 +4.74676E+00 -1.46289E+00 +4.73447E+00 +4.65016E-01 +4.35237E+00 +2.34752E+00
 +3.61612E+00 +4.11902E+00 +2.55285E+00 +5.71813E+00 +1.20012E+00 +7.08964E+00 -3.95425E-01 +8.18627E+00
 -2.17969E+00 +8.97014E+00 -4.09298E+00 +9.41388E+00 -6.07209E+00 +9.50143E+00 -8.05232E+00 +9.22837E+00
 -9.96972E+00 +8.60194E+00 -1.17631E+01 +7.64063E+00 -1.33760E+01 +6.37339E+00 -1.47585E+01 +4.83855E+00
 -1.58687E+01 +3.08239E+00 -1.66739E+01 +1.15751E+00 -1.71518E+01 -8.78999E-01 -1.72905E+01 -2.96749E+00
 -1.70893E+01 -5.04779E+00 -1.65580E+01 -7.06113E+00 -1.57167E+01 -8.95208E+00 -1.45949E+01 -1.06703E+01
 -1.32300E+01 -1.21719E+01 -1.16663E+01 -1.34212E+01 -9.95328E+00 -1.43911E+01 -8.14372E+00 -1.50642E+01
 -6.29198E+00 -1.54331E+01 -4.45214E+00 -1.55002E+01 -2.67624E+00 -1.52776E+01 -1.01257E+00 -1.47863E+01
 +4.95830E-01 -1.40552E+01 +1.81246E+00 -1.31202E+01 +2.90841E+00 -1.20225E+01 +3.76313E+00 -1.08073E+01
 +4.36489E+00 -9.52191E+00 +4.71091E+00 -8.21441E+00 +4.80719E+00 -6.93168E+00 +4.66809E+00 -5.71801E+00
 +4.31554E+00 -4.61359E+00 +3.77810E+00 -3.65328E+00 +3.08975E+00 -2.86552E+00 +2.28854E+00 -2.27157E+00
 +1.41519E+00 -1.88499E+00 +5.11513E-01 -1.71134E+00 -3.81030E-01 -1.74828E+00 -1.22281E+00 -1.98587E+00
 -1.97737E+00 -2.40712E+00 -2.61263E+00 -2.98884E+00 -3.10190E+00 -3.70263E+00 -3.42469E+00 -4.51603E+00
 -3.56723E+00 -5.39383E+00 -3.52283E+00 -6.29939E+00 -3.29187E+00 -7.19602E+00 -2.88161E+00 -8.04826E+00
 -2.30574E+00 -8.82320E+00 -1.58369E+00 -9.49153E+00 -7.39818E-01 -1.00285E+01 +1.97683E-01 -1.04149E+01
 +1.19785E+00 -1.06372E+01 +2.22816E+00 -1.06883E+01 +3.25580E+00 -1.05674E+01 +4.24879E+00 -1.02799E+01
 +5.17721E+00 -9.83698E+00 +6.01417E+00 -9.25532E+00 +6.73677E+00 -8.55599E+00 +7.32679E+00 -7.76375E+00
 +7.77125E+00 -6.90605E+00 +8.06277E+00 -6.01190E+00 +8.19965E+00 -5.11083E+00 +8.18584E+00 -4.23173E+00
 +8.03061E+00 -3.40188E+00 +7.74811E+00 -2.64593E+00 +7.35668E+00 -1.98510E+00 +6.87810E+00 -1.43647E+00
 +6.33673E+00 -1.01247E+00 +5.75850E+00 -7.20554E-01 +5.16992E+00 -5.63013E-01 +4.59714E+00 -5.37066E-01
 +4.06496E+00 -6.35069E-01 +3.59597E+00 -8.44926E-01 +3.20977E+00 -1.15064E+00 +2.92233E+00 -1.53302E+00
 +2.74550E+00 -1.97042E+00 +2.68669E+00 -2.43965E+00 +2.74870E+00 -2.91683E+00 +2.92974E+00 -3.37829E+00
 +3.22366E+00 -3.80140E+00 +3.62020E+00 -4.16543E+00 +4.10557E+00 -4.45217E+00 +4.66298E+00 -4.64659E+00
 +5.27337E+00 -4.73723E+00 +5.91616E+00 -4.71659E+00 +6.57001E+00 -4.58118E+00 +7.21363E+00 -4.33164E+00
 +7.82654E+00 -3.97247E+00 +8.38980E+00 -3.51184E+00 +8.88659E+00 -2.96112E+00 +9.30276E+00 -2.33437E+00
 +9.62727E+00 -1.64776E+00 +9.85240E+00 -9.18880E-01 +9.97397E+00 -1.66083E-01 +9.99129E+00 +5.92213E-01
 +9.90704E+00 +1.33819E+00 +9.72707E+00 +2.05525E+00 +9.45998E+00 +2.72854E+00 +9.11672E+00 +3.34542E+00
 +8.71004E+00 +3.89580E+00 +8.25395E+00 +4.37239E+00 +7.76313E+00 +4.77080E+00 +7.25234E+00 +5.08953E+00
 +6.73584E+00 +5.32987E+00 +6.22692E+00 +5.49568E+00 +5.73744E+00 +5.59306E+00 +5.27743E+00 +5.62995E+00
 +4.85488E+00 +5.61572E+00 +4.47550E+00 +5.56066E+00 +4.14271E+00 +5.47551E+00 +3.85765E+00 +5.37096E+00
 +3.61931E+00 +5.25719E+00 +3.42476E+00 +5.14351E+00 +3.26943E+00 +5.03793E+00 +3.14749E+00 +4.94700E+00
 +3.05218E+00 +4.87553E+00 +2.97630E+00 +4.82656E+00 +2.91257E+00 +4.80135E+00 +2.85400E+00 +4.79946E+00
 +2.79434E+00 +4.81892E+00 +2.72826E+00 +4.85647E+00 +2.65170E+00 +4.90788E+00 +2.56195E+00 +4.96825E+00
 +2.45778E+00 +5.03238E+00 +2.33940E+00 +5.09515E+00 +2.20840E+00 +5.15186E+00 +2.06759E+00 +5.19854E+00
 +1.92075E+00 +5.23223E+00 +1.77235E+00 +5.25118E+00 +1.62724E+00 +5.25500E+00 +1.49028E+00 +5.24468E+00
 +1.36600E+00 +5.22262E+00 +1.25825E+00 +5.19249E+00 +1.16992E+00 +5.15907E+00 +1.10261E+00 +5.12795E+00
 +1.05652E+00 +5.10528E+00 +1.03023E+00 +5.09738E+00 +1.02071E+00 +5.11038E+00 +1.02337E+00 +5.14983E+00
 +1.03211E+00 +5.22032E+00 +1.03963E+00 +5.32514E+00 +1.03764E+00 +5.46599E+00 +1.01725E+00 +5.64273E+00
 +9.69348E-01 +5.85324E+00 +8.85064E-01 +6.09335E+00 +7.56191E-01 +6.35687E+00 +5.75651E-01 +6.63569E+00
 +3.37903E-01 +6.92004E+00 +3.93200E-02 +7.19877E+00 -3.21503E-01 +7.45975E+00 -7.43522E-01 +7.69032E+00
 -1.22311E+00 +7.87780E+00 -1.75405E+00 +8.01002E+00 -2.32756E+00 +8.07584E+00 -2.93256E+00 +8.06571E+00
 -3.55592E+00 +7.97211E+00 -4.18288E+00 +7.79002E+00 -4.79754E+00 +7.51721E+00 -5.38340E+00 +7.15454E+00
 -5.92398E+00 +6.70604E+00 -6.40345E+00 +6.17897E+00 -6.80727E+00 +5.58367E+00 -7.12279E+00 +4.93331E+00
 -7.33983E+00 +4.24356E+00 -7.45116E+00 +3.53211E+00 -7.45290E+00 +2.81803E+00 -7.34479E+00 +2.12122E+00
 -7.13039E+00 +1.46162E+00 -6.81702E+00 +8.58520E-01 -6.41569E+00 +3.29799E-01 -5.94081E+00 -1.08768E-01
 -5.40976E+00 -4.44174E-01 -4.84237E+00 -6.66748E-01 -4.26025E+00 -7.70621E-01 -3.68609E+00 -7.54061E-01
 -3.14281E+00 -6.19663E-01 -2.65276E+00 -3.74390E-01 -2.23688E+00 -2.94391E-02 -1.91388E+00 +4.00044E-01
 -1.69948E+00 +8.95408E-01 -1.60579E+00 +1.43509E+00 -1.64074E+00 +1.99531E+00 -1.80765E+00 +2.55092E+00
 -2.10506E+00 +3.07623E+00 -2.52660E+00 +3.54599E+00 -3.06110E+00 +3.93632E+00 -3.69293E+00 +4.22556E+00
 -4.40239E+00 +4.39520E+00 -5.16641E+00 +4.43057E+00 -5.95922E+00 +4.32148E+00 -6.75332E+00 +4.06271E+00
 -7.52038E+00 +3.65430E+00 -8.23225E+00 +3.10169E+00 -8.86203E+00 +2.41560E+00 -9.38505E+00 +1.61179E+00
 -9.77979E+00 +7.10576E-01 -1.00288E+01 -2.63805E-01 -1.01192E+01 -1.28400E+00 -1.00436E+01 -2.32045E+00
 -9.80027E+00 -3.34247E+00 -9.39308E+00 -4.31927E+00 -8.83188E+00 -5.22112E+00 -8.13200E+00 -6.02042E+00
 -7.31386E+00 -6.69275E+00 -6.40228E+00 -7.21780E+00 -5.42570E+00 -7.58017E+00 -4.41516E+00 -7.77003E+00
 -3.40323E+00 -7.78353E+00 -2.42286E+00 -7.62307E+00 -1.50617E+00 -7.29727E+00 -6.83272E-01 -6.82079E+00
 +1.88504E-02 -6.21384E+00 +5.77393E-01 -5.50155E+00 +9.74613E-01 -4.71311E+00 +1.19856E+00 -3.88077E+00
 +1.24358E+00 -3.03867E+00 +1.11065E+00 -2.22166E+00 +8.07401E-01 -1.46398E+00 +3.47954E-01 -7.98023E-01
 -2.47508E-01 -2.53096E-01 -9.53400E-01 +1.45705E-01 -1.73959E+00 +3.78480E-01 -2.57246E+00 +4.31345E-01
 -3.41606E+00 +2.97034E-01 -4.23345E+00 -2.47253E-02 -4.98799E+00 -5.27092E-01 -5.64477E+00 -1.19625E+00
 -6.17184E+00 -2.01180E+00 -6.54152E+00 -2.94742E+00 -6.73145E+00 -3.97171E+00 -6.72550E+00 -5.04926E+00
 -6.51448E+00 -6.14194E+00 -6.09660E+00 -7.21018E+00 -5.47766E+00 -8.21443E+00 -4.67099E+00 -9.11663E+00
 -3.69704E+00 -9.88156E+00 -2.58282E+00 -1.04783E+01 -1.36101E+00 -1.08812E+01 -6.88562E-02 -1.10712E+01
 +1.25308E+00 -1.10365E+01 +2.56235E+00 -1.07730E+01 +3.81609E+00 -1.02848E+01 +4.97260E+00 -9.58401E+00
 +5.99283E+00 -8.69059E+00 +6.84187E+00 -7.63170E+00 +7.49023E+00 -6.44087E+00 +7.91503E+00 -5.15688E+00
 +8.10092E+00 -3.82252E+00 +8.04075E+00 -2.48308E+00 +7.73596E+00 -1.18479E+00 +7.19670E+00 +2.67923E-02
 +6.44159E+00 +1.10843E+00 +5.49722E+00 +2.02079E+00 +4.39731E+00 +2.72984E+00 +3.18170E+00 +3.20823E+00
 +1.89498E+00 +3.43630E+00 +5.85023E-01 +3.40292E+00 -6.98637E-01 +3.10602E+00 -1.90652E+00 +2.55281E+00
 -2.99094E+00 +1.75967E+00 -3.90769E+00 +7.51737E-01 -4.61764E+00 -4.37850E-01 -5.08818E+00 -1.76896E+00
 -5.29446E+00 -3.19578E+00 -5.22034E+00 -4.66827E+00 -4.85910E+00 -6.13388E+00 -4.21384E+00 -7.53929E+00
