 Created: 19-Jan-2021
 $NMID
 ID='D:\BASISSIMULATI'
 FMTDAT='(8E13.5)'
 VOLUME=   1.00000E+00
 TRAMP=   1.00000E+00
 $END
 +1.73502E+01 +1.19092E+00 +1.59447E+01 +6.24375E+00 +1.29467E+01 +1.04451E+01 +8.79219E+00 +1.32905E+01
 +4.06889E+00 +1.44802E+01 -5.74421E-01 +1.39587E+01 -4.52524E+00 +1.19171E+01 -7.29754E+00 +8.75846E+00
 -8.60079E+00 +5.03072E+00 -8.37766E+00 +1.34025E+00 -6.80530E+00 -1.74204E+00 -4.26076E+00 -3.76652E+00
 -1.25680E+00 -4.47007E+00 +1.64153E+00 -3.81076E+00 +3.90605E+00 -1.96786E+00 +5.12662E+00 +6.92424E-01
 +5.07188E+00 +3.67891E+00 +3.72091E+00 +6.45516E+00 +1.26157E+00 +8.52393E+00 -1.94324E+00 +9.50341E+00
 -5.41530E+00 +9.18365E+00 -8.63682E+00 +7.55501E+00 -1.11301E+01 +4.80530E+00 -1.25289E+01 +1.28677E+00
 -1.26303E+01 -2.54086E+00 -1.14206E+01 -6.18183E+00 -9.07152E+00 -9.17891E+00 -5.90830E+00 -1.11794E+01
 -2.35632E+00 -1.19828E+01 +1.12565E+00 -1.15642E+01 +4.11415E+00 -1.00692E+01 +6.28154E+00 -7.78439E+00
 +7.43915E+00 -5.08745E+00 +7.55729E+00 -2.38578E+00 +6.76022E+00 -5.39296E-02 +5.29792E+00 +1.62082E+00
 +3.50003E+00 +2.47670E+00 +1.72022E+00 +2.49433E+00 +2.79702E-01 +1.79076E+00 -5.81091E-01 +5.92719E-01
 -7.35654E-01 -8.05682E-01 -1.85076E-01 -2.09353E+00 +9.48963E-01 -2.99357E+00 +2.44965E+00 -3.30475E+00
 +4.04405E+00 -2.93071E+00 +5.44889E+00 -1.89036E+00 +6.41556E+00 -3.10072E-01 +6.76751E+00 +1.60054E+00
 +6.42453E+00 +3.58443E+00 +5.41089E+00 +5.37841E+00 +3.84701E+00 +6.75319E+00 +1.92684E+00 +7.54608E+00
 -1.14685E-01 +7.68169E+00 -2.03857E+00 +7.17808E+00 -3.63704E+00 +6.13844E+00 -4.76185E+00 +4.73032E+00
 -5.34180E+00 +3.15647E+00 -5.38726E+00 +1.62232E+00 -4.98204E+00 +3.05332E-01 -4.26460E+00 -6.69247E-01
 -3.40226E+00 -1.24278E+00 -2.56287E+00 -1.42635E+00 -1.88846E+00 -1.29285E+00 -1.47488E+00 -9.59942E-01
 -1.36015E+00 -5.67382E-01 -1.52268E+00 -2.52328E-01 -1.88908E+00 -1.26826E-01 -2.34955E+00 -2.60704E-01
 -2.77814E+00 -6.72191E-01 -3.05430E+00 -1.32720E+00 -3.08238E+00 -2.14682E+00 -2.80629E+00 -3.02141E+00
 -2.21731E+00 -3.82863E+00 -1.35430E+00 -4.45265E+00 -2.96763E-01 -4.80133E+00 +8.47723E-01 -4.81925E+00
 +1.95971E+00 -4.49464E+00 +2.92496E+00 -3.85983E+00 +3.65006E+00 -2.98528E+00 +4.07431E+00 -1.96862E+00
 +4.17656E+00 -9.20385E-01 +3.97619E+00 +5.13222E-02 +3.52860E+00 +8.55080E-01 +2.91598E+00 +1.42746E+00
 +2.23488E+00 +1.74004E+00 +1.58249E+00 +1.80135E+00 +1.04339E+00 +1.65381E+00 +6.78528E-01 +1.36627E+00
 +5.17771E-01 +1.02324E+00 +5.56840E-01 +7.12433E-01 +7.58896E-01 +5.12105E-01 +1.06047E+00 +4.80002E-01
 +1.38088E+00 +6.45129E-01 +1.63394E+00 +1.00344E+00 +1.74041E+00 +1.51797E+00 +1.63970E+00 +2.12338E+00
 +1.29920E+00 +2.73445E+00 +7.20093E-01 +3.25741E+00 -6.11808E-02 +3.60281E+00 -9.76232E-01 +3.69823E+00
 -1.93243E+00 +3.49927E+00 -2.82426E+00 +2.99714E+00 -3.54692E+00 +2.22188E+00 -4.01052E+00 +1.24039E+00
 -4.15294E+00 +1.49357E-01 -3.94952E+00 -9.36143E-01 -3.41817E+00 -1.89726E+00 -2.61882E+00 -2.62714E+00
 -1.64709E+00 -3.04585E+00 -6.22622E-01 -3.11221E+00 +3.26352E-01 -2.83089E+00 +1.08048E+00 -2.25321E+00
 +1.54619E+00 -1.47150E+00 +1.66966E+00 -6.07344E-01 +1.44563E+00 +2.04890E-01 +9.19633E-01 +8.36995E-01
 +1.82838E-01 +1.18573E+00 -6.39900E-01 +1.18871E+00 -1.40743E+00 +8.34874E-01 -1.98272E+00 +1.67818E-01
 -2.25347E+00 -7.18919E-01 -2.14970E+00 -1.69410E+00 -1.65570E+00 -2.60712E+00 -8.14342E-01 -3.30983E+00
 +2.77304E-01 -3.67875E+00 +1.48054E+00 -3.63428E+00 +2.63421E+00 -3.15401E+00 +3.57784E+00 -2.27782E+00
 +4.17526E+00 -1.10389E+00 +4.33525E+00 +2.24141E-01 +4.02602E+00 +1.53703E+00 +3.28111E+00 +2.66406E+00
 +2.19576E+00 +3.45785E+00 +9.14060E-01 +3.81619E+00 -3.91372E-01 +3.69738E+00 -1.54415E+00 +3.12697E+00
 -2.38973E+00 +2.19451E+00 -2.81798E+00 +1.04084E+00 -2.77930E+00 -1.62315E-01 -2.29192E+00 -1.23731E+00
 -1.43910E+00 -2.02654E+00 -3.56803E-01 -2.41541E+00 +7.86474E-01 -2.34887E+00 +1.81448E+00 -1.83909E+00
 +2.56903E+00 -9.63208E-01 +2.93296E+00 +1.48506E-01 +2.84670E+00 +1.33218E+00 +2.31635E+00 +2.41453E+00
 +1.41180E+00 +3.23808E+00 +2.55719E-01 +3.68367E+00 -9.95024E-01 +3.68686E+00 -2.17252E+00 +3.24604E+00
 -3.12196E+00 +2.42126E+00 -3.72326E+00 +1.32406E+00 -3.90700E+00 +1.00249E-01 -3.66252E+00 -1.09169E+00
 -3.03729E+00 -2.10324E+00 -2.12803E+00 -2.81616E+00 -1.06513E+00 -3.15759E+00 +6.95588E-03 -3.10803E+00
 +9.50301E-01 -2.70132E+00 +1.65213E+00 -2.01721E+00 +2.03881E+00 -1.16776E+00 +2.08351E+00 -2.80214E-01
 +1.80690E+00 +5.21201E-01 +1.27128E+00 +1.13178E+00 +5.69352E-01 +1.47897E+00 -1.90097E-01 +1.52962E+00
 -8.97616E-01 +1.29146E+00 -1.45716E+00 +8.08934E-01 -1.79717E+00 +1.54712E-01 -1.87735E+00 -5.81558E-01
 -1.69096E+00 -1.30547E+00 -1.26264E+00 -1.92929E+00 -6.42888E-01 -2.38126E+00 +9.97508E-02 -2.61194E+00
 +8.87421E-01 -2.59732E+00 +1.64146E+00 -2.33891E+00 +2.28982E+00 -1.86136E+00 +2.77281E+00 -1.20846E+00
 +3.04722E+00 -4.38181E-01 +3.08869E+00 +3.82734E-01 +2.89282E+00 +1.18404E+00 +2.47512E+00 +1.89721E+00
 +1.87000E+00 +2.46040E+00 +1.12880E+00 +2.82334E+00 +3.16637E-01 +2.95189E+00 -4.92103E-01 +2.83218E+00
 -1.21969E+00 +2.47366E+00 -1.79235E+00 +1.91053E+00 -2.14841E+00 +1.20083E+00 -2.24654E+00 +4.22625E-01
 -2.07290E+00 -3.32870E-01 -1.64594E+00 -9.71053E-01 -1.01764E+00 -1.40562E+00 -2.70295E-01 -1.57090E+00
 +4.91370E-01 -1.43295E+00 +1.15245E+00 -9.97626E-01 +1.60309E+00 -3.13850E-01 +1.75480E+00 +5.29146E-01
 +1.55549E+00 +1.41086E+00 +1.00056E+00 +2.19427E+00 +1.38063E-01 +2.74458E+00 -9.33700E-01 +2.94953E+00
 -2.07644E+00 +2.73808E+00 -3.12918E+00 +2.09455E+00 -3.93043E+00 +1.06547E+00 -4.34231E+00 -2.42591E-01
 -4.27283E+00 -1.67442E+00 -3.69284E+00 -3.04598E+00 -2.64439E+00 -4.16983E+00 -1.23891E+00 -4.88287E+00
 +3.55455E-01 -5.07187E+00 +1.93588E+00 -4.69300E+00 +3.29334E+00 -3.78163E+00 +4.24353E+00 -2.45058E+00
 +4.65536E+00 -8.76410E-01 +4.47261E+00 +7.24729E-01 +3.72493E+00 +2.12826E+00 +2.52601E+00 +3.13488E+00
 +1.05876E+00 +3.60153E+00 -4.50739E-01 +3.46480E+00 -1.76679E+00 +2.75262E+00 -2.68016E+00 +1.58226E+00
 -3.04105E+00 +1.44293E-01 -2.78374E+00 -1.32529E+00 -1.93877E+00 -2.58071E+00 -6.30336E-01 -3.40450E+00
 +9.40907E-01 -3.64208E+00 +2.52744E+00 -3.22726E+00 +3.87240E+00 -2.19452E+00 +4.74932E+00 -6.75811E-01
 +4.99790E+00 +1.11793E+00 +4.55008E+00 +2.92784E+00 +3.44220E+00 +4.48623E+00 +1.81107E+00 +5.55758E+00
 -1.25563E-01 +5.97510E+00 -2.10141E+00 +5.66704E+00 -3.84178E+00 +4.66854E+00 -5.10544E+00 +3.11691E+00
 -5.72146E+00 +1.23122E+00 -5.61541E+00 -7.21040E-01 -4.82053E+00 -2.46482E+00 -3.47238E+00 -3.75954E+00
 -1.78741E+00 -4.43583E+00 -2.91557E-02 -4.42103E+00 +1.53292E+00 -3.74961E+00 +2.66522E+00 -2.55674E+00
 +3.20606E+00 -1.05620E+00 +3.09011E+00 +4.93849E-01 +2.35766E+00 +1.83192E+00 +1.14712E+00 +2.73436E+00
 -3.27800E-01 +3.05023E+00 -1.81256E+00 +2.72452E+00 -3.05243E+00 +1.80591E+00 -3.83272E+00 +4.38205E-01
 -4.01230E+00 -1.16313E+00 -3.54521E+00 -2.74549E+00 -2.48703E+00 -4.05911E+00 -9.85239E-01 -4.89604E+00
 +7.44732E-01 -5.12214E+00 +2.45373E+00 -4.69696E+00 +3.89785E+00 -3.67874E+00 +4.87599E+00 -2.21384E+00
 +5.25989E+00 -5.12654E-01 +5.01241E+00 +1.18402E+00 +4.19102E+00 +2.64260E+00 +2.93657E+00 +3.67235E+00
 +1.44931E+00 +4.15345E+00 -4.37159E-02 +4.05329E+00 -1.32463E+00 +3.42863E+00 -2.21809E+00 +2.41380E+00
 -2.61713E+00 +1.19702E+00 -2.49734E+00 -1.08998E-02 -1.91774E+00 -1.01052E+00 -1.00841E+00 -1.64476E+00
 +5.25842E-02 -1.82221E+00 +1.06916E+00 -1.52937E+00 +1.85893E+00 -8.30087E-01 +2.28169E+00 +1.47121E-01
 +2.26035E+00 +1.23150E+00 +1.79110E+00 +2.23837E+00 +9.41805E-01 +2.99865E+00 -1.60852E-01 +3.38484E+00
 -1.35289E+00 +3.32958E+00 -2.45956E+00 +2.83411E+00 -3.32252E+00 +1.96579E+00 -3.82330E+00 +8.45492E-01
 -3.89976E+00 -3.72706E-01 -3.55300E+00 -1.52600E+00 -2.84444E+00 -2.46753E+00 -1.88383E+00 -3.08740E+00
 -8.10479E-01 -3.32698E+00 +2.28834E-01 -3.18473E+00 +1.10189E+00 -2.71303E+00 +1.70952E+00 -2.00716E+00
 +1.99797E+00 -1.18848E+00 +1.96373E+00 -3.84860E-01 +1.65043E+00 +2.88543E-01 +1.13910E+00 +7.45284E-01
 +5.33473E-01 +9.38200E-01 -5.69096E-02 +8.63416E-01 -5.33138E-01 +5.57678E-01 -8.20556E-01 +8.99908E-02
 -8.77770E-01 -4.50739E-01 -7.00151E-01 -9.69885E-01 -3.17851E-01 -1.38089E+00 +2.10864E-01 -1.61674E+00
 +8.09534E-01 -1.63775E+00 +1.39496E+00 -1.43495E+00 +1.88850E+00 -1.02917E+00 +2.22567E+00 -4.66339E-01
 +2.36310E+00 +1.89744E-01 +2.28224E+00 +8.66180E-01 +1.98995E+00 +1.48984E+00 +1.51616E+00 +1.99541E+00
 +9.09417E-01 +2.33188E+00 +2.30979E-01 +2.46704E+00 -4.51771E-01 +2.38985E+00 -1.07205E+00 +2.11087E+00
 -1.56999E+00 +1.66080E+00 -1.89829E+00 +1.08743E+00 -2.02675E+00 +4.51209E-01 -1.94559E+00 -1.80295E-01
 -1.66717E+00 -7.38920E-01 -1.22570E+00 -1.16290E+00 -6.74911E-01 -1.40389E+00 -8.32795E-02 -1.43329E+00
 +4.72859E-01 -1.24707E+00 +9.18000E-01 -8.68217E-01 +1.18710E+00 -3.46114E-01 +1.23500E+00 +2.47646E-01
 +1.04431E+00 +8.26939E-01 +6.30300E-01 +1.30175E+00 +4.17426E-02 +1.59058E+00 -6.43112E-01 +1.63302E+00
 -1.32535E+00 +1.40056E+00 -1.89827E+00 +9.03728E-01 -2.26277E+00 +1.93994E-01 -2.34309E+00 -6.40437E-01
 -2.10046E+00 -1.48494E+00 -1.54217E+00 -2.21388E+00 -7.24309E-01 -2.70913E+00 +2.53049E-01 -2.87899E+00
 +1.25794E+00 -2.67450E+00 +2.14471E+00 -2.10035E+00 +2.77569E+00 -1.21798E+00 +3.04338E+00 -1.39945E-01
 +2.88919E+00 +9.84227E-01 +2.31585E+00 +1.98916E+00 +1.39070E+00 +2.71859E+00 +2.38940E-01 +3.05050E+00
 -9.72876E-01 +2.91822E+00 -2.06086E+00 +2.32395E+00 -2.85198E+00 +1.34196E+00 -3.21195E+00 +1.10353E-01
 -3.06842E+00 -1.18784E+00 -2.42518E+00 -2.35167E+00 -1.36492E+00 -3.19353E+00 -3.92497E-02 -3.56960E+00
 +1.35271E+00 -3.40458E+00 +2.59445E+00 -2.70634E+00 +3.48607E+00 -1.56774E+00 +3.87704E+00 -1.54722E-01
 +3.69206E+00 +1.31790E+00 +2.94570E+00 +2.61942E+00 +1.74290E+00 +3.54001E+00 +2.64827E-01 +3.92526E+00
 -1.25818E+00 +3.70285E+00 -2.58254E+00 +2.89671E+00 -3.49055E+00 +1.62585E+00 -3.82653E+00 +8.77011E-02
 -3.52386E+00 -1.47187E+00 -2.61819E+00 -2.79729E+00 -1.24431E+00 -3.66465E+00 +3.83204E-01 -3.91900E+00
