 Created: 19-Jan-2021
 $NMID
 ID='D:\BASISSIMULATI'
 FMTDAT='(8E13.5)'
 VOLUME=   1.00000E+00
 TRAMP=   1.00000E+00
 $END
 +4.73473E+01 +2.69110E-01 +3.96086E+01 +2.38567E+01 +2.01668E+01 +3.85119E+01 -3.30613E+00 +3.92860E+01
 -2.18730E+01 +2.69029E+01 -2.90673E+01 +7.24094E+00 -2.34466E+01 -1.13683E+01 -8.88062E+00 -2.17797E+01
 +7.47698E+00 -2.09785E+01 +1.85446E+01 -1.10489E+01 +2.04384E+01 +2.18460E+00 +1.39602E+01 +1.21319E+01
 +3.83177E+00 +1.45946E+01 -3.88422E+00 +9.62948E+00 -4.90235E+00 +1.28133E+00 +1.13115E+00 -4.63687E+00
 +1.04719E+01 -3.61533E+00 +1.71696E+01 +5.12511E+00 +1.61087E+01 +1.80359E+01 +5.73243E+00 +2.87914E+01
 -1.08761E+01 +3.12851E+01 -2.71236E+01 +2.26694E+01 -3.57792E+01 +4.99583E+00 -3.22974E+01 -1.53656E+01
 -1.70603E+01 -3.03270E+01 +4.51961E+00 -3.35713E+01 +2.41365E+01 -2.33680E+01 +3.40528E+01 -3.44260E+00
 +3.03648E+01 +1.85122E+01 +1.46324E+01 +3.40395E+01 -6.83786E+00 +3.74299E+01 -2.57220E+01 +2.80049E+01
 -3.51961E+01 +1.01977E+01 -3.26893E+01 -8.55241E+00 -2.06891E+01 -2.11046E+01 -5.31397E+00 -2.36248E+01
 +6.62744E+00 -1.69730E+01 +1.07095E+01 -5.91790E+00 +6.69708E+00 +3.37544E+00 -1.68988E+00 +6.35844E+00
 -8.86808E+00 +2.19354E+00 -1.02927E+01 -6.02748E+00 -4.76559E+00 -1.29982E+01 +4.95120E+00 -1.39886E+01
 +1.35036E+01 -7.35372E+00 +1.56365E+01 +4.46107E+00 +8.91709E+00 +1.59230E+01 -4.82381E+00 +2.09799E+01
 -2.00580E+01 +1.59993E+01 -2.99213E+01 +1.69512E+00 -2.93158E+01 -1.68950E+01 -1.73330E+01 -3.24271E+01
 +2.12857E+00 -3.83890E+01 +2.18724E+01 -3.19631E+01 +3.43965E+01 -1.53231E+01 +3.50541E+01 +5.22467E+00
 +2.39884E+01 +2.18858E+01 +5.99696E+00 +2.86382E+01 -1.15906E+01 +2.36763E+01 -2.20603E+01 +9.98611E+00
 -2.20838E+01 -6.15491E+00 -1.29065E+01 -1.80322E+01 +5.14186E-01 -2.13949E+01 +1.19585E+01 -1.61121E+01
 +1.68164E+01 -5.89124E+00 +1.40616E+01 +3.73162E+00 +6.45695E+00 +8.13808E+00 -1.03956E+00 +5.80540E+00
 -3.85967E+00 -1.09034E+00 -1.48132E-01 -7.89402E+00 +8.28629E+00 -9.89909E+00 +1.68407E+01 -4.80334E+00
 +2.03912E+01 +5.99493E+00 +1.58847E+01 +1.78978E+01 +4.00825E+00 +2.51944E+01 -1.08808E+01 +2.37714E+01
 -2.25746E+01 +1.31794E+01 -2.57750E+01 -2.92749E+00 -1.85404E+01 -1.82231E+01 -3.29298E+00 -2.63946E+01
 +1.40961E+01 -2.38899E+01 +2.67551E+01 -1.14934E+01 +2.97154E+01 +5.97611E+00 +2.19859E+01 +2.17125E+01
 +6.89357E+00 +2.98019E+01 -9.43745E+00 +2.76598E+01 -2.07625E+01 +1.69678E+01 -2.33448E+01 +2.73722E+00
 -1.73800E+01 -9.02789E+00 -6.62836E+00 -1.39837E+01 +3.50893E+00 -1.12201E+01 +8.54188E+00 -3.39165E+00
 +6.88358E+00 +4.78498E+00 +3.88329E-01 +8.91218E+00 -6.76259E+00 +7.03012E+00 -1.02519E+01 +4.84346E-01
 -7.82736E+00 -6.84028E+00 -4.58152E-01 -1.05262E+01 +8.10080E+00 -7.89562E+00 +1.31286E+01 +5.46393E-01
 +1.12773E+01 +1.11984E+01 +2.31813E+00 +1.89598E+01 -1.05471E+01 +1.96071E+01 -2.19855E+01 +1.18458E+01
 -2.68726E+01 -1.92532E+00 -2.26137E+01 -1.65166E+01 -1.03865E+01 -2.61336E+01 +5.26914E+00 -2.68758E+01
 +1.83456E+01 -1.84316E+01 +2.39051E+01 -4.21554E+00 +2.01395E+01 +1.01062E+01 +9.05045E+00 +1.90357E+01
 -4.52257E+00 +1.95312E+01 -1.50619E+01 +1.21630E+01 -1.87343E+01 +6.63077E-01 -1.49081E+01 -9.87615E+00
 -6.18495E+00 -1.53030E+01 +3.00595E+00 -1.41570E+01 +8.55313E+00 -8.10243E+00 +8.53725E+00 -9.05211E-01
 +3.98016E+00 +3.51530E+00 -1.83891E+00 +3.01452E+00 -5.13188E+00 -1.77900E+00 -3.55558E+00 -7.84825E+00
 +2.57061E+00 -1.13487E+01 +1.03649E+01 -9.58429E+00 +1.57542E+01 -2.44597E+00 +1.54675E+01 +7.38537E+00
 +8.70569E+00 +1.55855E+01 -2.31027E+00 +1.81640E+01 -1.31942E+01 +1.33599E+01 -1.92831E+01 +2.57210E+00
 -1.77111E+01 -1.01208E+01 -8.72836E+00 -1.96533E+01 +4.33443E+00 -2.21320E+01 +1.64482E+01 -1.64984E+01
 +2.29994E+01 -4.96458E+00 +2.17017E+01 +7.96106E+00 +1.34720E+01 +1.74083E+01 +1.91322E+00 +2.01731E+01
 -8.32963E+00 +1.59521E+01 -1.35784E+01 +7.27133E+00 -1.25987E+01 -1.80380E+00 -6.91464E+00 -7.54953E+00
 +1.20696E-01 -8.18634E+00 +5.01566E+00 -4.49281E+00 +5.77922E+00 +7.99994E-01 +2.75063E+00 +4.49407E+00
 -1.73577E+00 +4.55342E+00 -4.64904E+00 +1.09510E+00 -3.87229E+00 -3.71758E+00 +6.61559E-01 -6.80946E+00
 +6.85921E+00 -5.79629E+00 +1.14393E+01 -2.76699E-01 +1.15290E+01 +7.81741E+00 +6.12817E+00 +1.49984E+01
 -3.26019E+00 +1.77841E+01 -1.31497E+01 +1.43263E+01 -1.95270E+01 +5.35378E+00 -1.95971E+01 -6.01760E+00
 -1.30341E+01 -1.55393E+01 -2.17455E+00 -1.95995E+01 +8.93461E+00 -1.67289E+01 +1.62112E+01 -8.18493E+00
 +1.71978E+01 +2.62601E+00 +1.19905E+01 +1.16116E+01 +3.05805E+00 +1.56847E+01 -5.92666E+00 +1.39419E+01
 -1.16890E+01 +7.84602E+00 -1.26683E+01 +3.84359E-01 -9.48479E+00 -5.36286E+00 -4.40498E+00 -7.57052E+00
 -1.12684E-01 -6.32905E+00 +1.60355E+00 -3.35896E+00 +6.27723E-01 -9.71659E-01 -1.58304E+00 -8.13113E-01
 -2.88709E+00 -3.00951E+00 -1.67366E+00 -6.12231E+00 +2.20440E+00 -7.92096E+00 +7.24541E+00 -6.58542E+00
 +1.09612E+01 -1.74414E+00 +1.10782E+01 +5.16912E+00 +6.70670E+00 +1.14338E+01 -1.08459E+00 +1.42170E+01
 -9.58038E+00 +1.18709E+01 -1.55000E+01 +4.75714E+00 -1.63765E+01 -4.79006E+00 -1.16230E+01 -1.33614E+01
 -2.81368E+00 -1.78442E+01 +6.94335E+00 -1.66732E+01 +1.42610E+01 -1.04235E+01 +1.68088E+01 -1.50813E+00
 +1.41596E+01 +6.86243E+00 +7.81172E+00 +1.19856E+01 +4.21953E-01 +1.26692E+01 -5.37101E+00 +9.52505E+00
 -7.99723E+00 +4.48021E+00 -7.43321E+00 -2.15897E-01 -4.94614E+00 -3.00359E+00 -2.28791E+00 -3.58466E+00
 -7.63267E-01 -2.82809E+00 -6.27740E-01 -2.11147E+00 -1.08676E+00 -2.46344E+00 -8.62106E-01 -3.95065E+00
 +9.86131E-01 -5.61611E+00 +4.41326E+00 -5.99401E+00 +8.25845E+00 -3.93875E+00 +1.07114E+01 +6.51751E-01
 +1.01661E+01 +6.59110E+00 +6.05626E+00 +1.17843E+01 -7.32776E-01 +1.40813E+01 -8.09124E+00 +1.22255E+01
 -1.34738E+01 +6.46530E+00 -1.49142E+01 -1.45625E+00 -1.18263E+01 -8.94000E+00 -5.24525E+00 -1.35282E+01
 +2.58825E+00 -1.38352E+01 +9.11065E+00 -1.00242E+01 +1.24026E+01 -3.64983E+00 +1.18361E+01 +3.03270E+00
 +8.15810E+00 +7.97176E+00 +3.02352E+00 +1.00429E+01 -1.77223E+00 +9.30839E+00 -5.00098E+00 +6.75448E+00
 -6.35030E+00 +3.68663E+00 -6.30450E+00 +1.09820E+00 -5.67763E+00 -6.89539E-01 -5.07175E+00 -1.97706E+00
 -4.54679E+00 -3.30015E+00 -3.65980E+00 -4.94577E+00 -1.83204E+00 -6.64628E+00 +1.16909E+00 -7.62556E+00
 +4.90584E+00 -6.98258E+00 +8.29663E+00 -4.21961E+00 +1.00096E+01 +3.59656E-01 +9.05279E+00 +5.60157E+00
 +5.28380E+00 +9.85918E+00 -4.09385E-01 +1.16153E+01 -6.36084E+00 +1.01031E+01 -1.07188E+01 +5.64822E+00
 -1.21306E+01 -4.20970E-01 -1.02321E+01 -6.25871E+00 -5.74383E+00 -1.01755E+01 -1.48794E-01 -1.12174E+01
 +4.89074E+00 -9.42329E+00 +8.12164E+00 -5.68285E+00 +9.05470E+00 -1.29509E+00 +7.97107E+00 +2.55348E+00
 +5.63035E+00 +5.16176E+00 +2.85740E+00 +6.40322E+00 +2.17339E-01 +6.54565E+00 -2.08297E+00 +5.94297E+00
 -4.06123E+00 +4.78656E+00 -5.71228E+00 +3.04950E+00 -6.81859E+00 +6.37752E-01 -6.94909E+00 -2.35984E+00
 -5.66386E+00 -5.49019E+00 -2.82000E+00 -7.95816E+00 +1.19425E+00 -8.87885E+00 +5.44731E+00 -7.65918E+00
 +8.71986E+00 -4.32736E+00 +9.93998E+00 +3.62647E-01 +8.61292E+00 +5.12742E+00 +5.04999E+00 +8.58799E+00
 +2.85264E-01 +9.76448E+00 -4.29282E+00 +8.42174E+00 -7.43985E+00 +5.12078E+00 -8.47293E+00 +9.63054E-01
 -7.43833E+00 -2.84989E+00 -4.97943E+00 -5.44286E+00 -1.99183E+00 -6.50042E+00 +7.57142E-01 -6.23031E+00
 +2.86725E+00 -5.11314E+00 +4.31093E+00 -3.59242E+00 +5.24047E+00 -1.87447E+00 +5.73421E+00 +6.45872E-02
 +5.64486E+00 +2.28883E+00 +4.65020E+00 +4.65933E+00 +2.48769E+00 +6.70245E+00 -7.57688E-01 +7.69812E+00
 -4.48804E+00 +6.97689E+00 -7.67674E+00 +4.29243E+00 -9.20727E+00 +7.57930E-02 -8.33619E+00 -4.58435E+00
 -5.06950E+00 -8.27004E+00 -2.61455E-01 -9.75535E+00 +4.63930E+00 -8.50125E+00 +8.11085E+00 -4.89980E+00
 +9.13208E+00 -1.45772E-01 +7.56172E+00 +4.22109E+00 +4.15578E+00 +6.90990E+00 +2.17573E-01 +7.35074E+00
 -2.95892E+00 +5.84226E+00 -4.59938E+00 +3.32171E+00 -4.68622E+00 +8.79166E-01 -3.82848E+00 -7.45816E-01
 -2.84848E+00 -1.44482E+00 -2.30412E+00 -1.67272E+00 -2.19411E+00 -2.08120E+00 -1.99799E+00 -3.05483E+00
 -1.03038E+00 -4.40248E+00 +1.07615E+00 -5.38131E+00 +4.02124E+00 -5.06175E+00 +6.82574E+00 -2.86246E+00
 +8.20240E+00 +1.01698E+00 +7.15670E+00 +5.50664E+00 +3.53637E+00 +9.00637E+00 -1.75010E+00 +1.00341E+01
 -6.98562E+00 +7.90027E+00 -1.02914E+01 +3.09199E+00 -1.04000E+01 -2.83311E+00 -7.21070E+00 -7.82635E+00
 -1.86885E+00 -1.01643E+01 +3.68508E+00 -9.14766E+00 +7.50768E+00 -5.37107E+00 +8.44068E+00 -4.40455E-01
 +6.54586E+00 +3.73693E+00 +2.99666E+00 +5.76895E+00 -5.15332E-01 +5.33253E+00 -2.57721E+00 +3.21827E+00
 -2.68072E+00 +8.57949E-01 -1.38580E+00 -4.29732E-01 +4.78491E-02 -1.06540E-01 +3.74509E-01 +1.33120E+00
 -9.34940E-01 +2.63853E+00 -3.35672E+00 +2.51054E+00 -5.52605E+00 +3.34116E-01 -5.91219E+00 -3.37855E+00
 -3.63832E+00 -7.11282E+00 +9.58144E-01 -9.00428E+00 +6.32207E+00 -7.73289E+00 +1.02754E+01 -3.23719E+00
 +1.09656E+01 +3.10893E+00 +7.74000E+00 +8.97665E+00 +1.53437E+00 +1.20352E+01 -5.43152E+00 +1.09632E+01
 -1.05424E+01 +6.05969E+00 -1.18809E+01 -8.34889E-01 -9.04081E+00 -7.09222E+00 -3.29236E+00 -1.03996E+01
 +2.98183E+00 -9.72495E+00 +7.32909E+00 -5.71325E+00 +8.27940E+00 -3.37404E-01 +5.93320E+00 +4.03030E+00
 +1.82361E+00 +5.69747E+00 -1.87284E+00 +4.38283E+00 -3.39979E+00 +1.26508E+00 -2.25460E+00 -1.66503E+00
 +6.03606E-01 -2.63401E+00 +3.27062E+00 -9.99127E-01 +3.89076E+00 +2.40007E+00 +1.64704E+00 +5.63295E+00
 -2.74029E+00 +6.63703E+00 -7.26840E+00 +4.29104E+00 -9.56529E+00 -9.20468E-01 -8.04595E+00 -6.99443E+00
 -2.76396E+00 -1.12430E+01 +4.46491E+00 -1.15120E+01 +1.07618E+01 -7.22690E+00 +1.34177E+01 +2.33444E-01
 +1.11128E+01 +8.03555E+00 +4.56075E+00 +1.30684E+01 -3.73257E+00 +1.32846E+01 -1.05104E+01 +8.60292E+00
 -1.31534E+01 +9.59483E-01 -1.07969E+01 -6.52852E+00 -4.67458E+00 -1.09160E+01 +2.46640E+00 -1.06945E+01
 +7.61162E+00 -6.39968E+00 +8.81891E+00 -2.91939E-01 +6.04062E+00 +4.73403E+00 +1.05792E+00 +6.50183E+00
 -3.43169E+00 +4.53884E+00 -5.13856E+00 +2.38530E-01 -3.28948E+00 -3.87114E+00 +1.00586E+00 -5.40258E+00
