 Created: 19-Jan-2021
 $NMID
 ID='D:\BASISSIMULATI'
 FMTDAT='(8E13.5)'
 VOLUME=   1.00000E+00
 TRAMP=   1.00000E+00
 $END
 +1.08210E+02 +4.99591E-01 +1.03860E+02 +2.90308E+01 +9.18415E+01 +5.51845E+01 +7.31477E+01 +7.69073E+01
 +4.93128E+01 +9.25160E+01 +2.22823E+01 +1.00836E+02 -5.75009E+00 +1.01299E+02 -3.25264E+01 +9.39812E+01
 -5.59124E+01 +7.96015E+01 -7.40744E+01 +5.94515E+01 -8.56307E+01 +3.52861E+01 -8.97636E+01 +9.17360E+00
 -8.62834E+01 -1.66806E+01 -7.56396E+01 -4.01197E+01 -5.88777E+01 -5.92166E+01 -3.75459E+01 -7.24347E+01
 -1.35604E+01 -7.87538E+01 +1.09604E+01 -7.77525E+01 +3.38769E+01 -6.96386E+01 +5.32106E+01 -5.52264E+01
 +6.73114E+01 -3.58620E+01 +7.49952E+01 -1.33043E+01 +7.56421E+01 +1.04284E+01 +6.92445E+01 +3.32331E+01
 +5.64040E+01 +5.31031E+01 +3.82747E+01 +6.82993E+01 +1.64612E+01 +7.74974E+01 -7.12259E+00 +7.98994E+01
 -3.04199E+01 +7.52988E+01 -5.14085E+01 +6.40945E+01 -6.82747E+01 +4.72533E+01 -7.95680E+01 +2.62236E+01
 -8.43240E+01 +2.80759E+00 -8.21448E+01 -2.09952E+01 -7.32301E+01 -4.31613E+01 -5.83568E+01 -6.18178E+01
 -3.88091E+01 -7.54025E+01 -1.62652E+01 -8.27970E+01 +7.34946E+00 -8.34209E+01 +3.00299E+01 -7.72787E+01
 +4.98645E+01 -6.49562E+01 +6.51999E+01 -4.75672E+01 +7.47828E+01 -2.66539E+01 +7.78658E+01 -4.05157E+00
 +7.42696E+01 +1.82722E+01 +6.43961E+01 +3.83887E+01 +4.91903E+01 +5.45756E+01 +3.00557E+01 +6.54655E+01
 +8.73006E+00 +7.01637E+01 -1.28673E+01 +6.83240E+01 -3.28037E+01 +6.01773E+01 -4.93022E+01 +4.65093E+01
 -6.08961E+01 +2.85907E+01 -6.65572E+01 +8.06424E+00 -6.57847E+01 -1.31988E+01 -5.86487E+01 -3.32636E+01
 -4.57840E+01 -5.03007E+01 -2.83341E+01 -6.27466E+01 -7.85203E+00 -6.94410E+01 +1.38357E+01 -6.97286E+01
 +3.47878E+01 -6.35173E+01 +5.31179E+01 -5.12878E+01 +6.71592E+01 -3.40528E+01 +7.56104E+01 -1.32709E+01
 +7.76502E+01 +9.27937E+00 +7.30102E+01 +3.16526E+01 +6.20006E+01 +5.19047E+01 +4.54854E+01 +6.82608E+01
 +2.48097E+01 +7.92700E+01 +1.68611E+00 +8.39311E+01 -2.19516E+01 +8.17809E+01 -4.41139E+01 +7.29359E+01
 -6.29259E+01 +5.80844E+01 -7.67883E+01 +3.84294E+01 -8.45154E+01 +1.55873E+01 -8.54370E+01 -8.54924E+00
 -7.94573E+01 -3.19718E+01 -6.70642E+01 -5.27274E+01 -4.92887E+01 -6.90851E+01 -2.76179E+01 -7.96833E+01
 -3.86918E+00 -8.36464E+01 +1.99642E+01 -8.06596E+01 +4.18827E+01 -7.09956E+01 +6.00500E+01 -5.54920E+01
 +7.29497E+01 -3.54798E+01 +7.95139E+01 -1.26702E+01 +7.92134E+01 +1.09910E+01 +7.21032E+01 +3.34895E+01
 +5.88164E+01 +5.29133E+01 +4.05105E+01 +6.76156E+01 +1.87678E+01 +7.63550E+01 -4.53974E+00 +7.83999E+01
 -2.74099E+01 +7.35909E+01 -4.78815E+01 +6.23533E+01 -6.42009E+01 +4.56602E+01 -7.49716E+01 +2.49484E+01
 -7.92723E+01 +1.99588E+00 -7.67352E+01 -2.12307E+01 -6.75760E+01 -4.27437E+01 -5.25749E+01 -6.07039E+01
 -3.30091E+01 -7.35772E+01 -1.05433E+01 -8.02647E+01 +1.29130E+01 -8.01957E+01 +3.53685E+01 -7.33751E+01
 +5.49200E+01 -6.03823E+01 +6.99144E+01 -4.23206E+01 +7.90888E+01 -2.07220E+01 +8.16774E+01 +2.58427E+00
 +7.74755E+01 +2.56280E+01 +6.68556E+01 +4.64663E+01 +5.07342E+01 +6.33491E+01 +3.04921E+01 +7.48679E+01
 +7.85538E+00 +8.00742E+01 -1.52524E+01 +7.85598E+01 -3.68754E+01 +7.04894E+01 -5.51919E+01 +5.65846E+01
 -6.86700E+01 +3.80611E+01 -7.61966E+01 +1.65223E+01 -7.71719E+01 -6.17826E+00 -7.15582E+01 -2.80968E+01
 -5.98815E+01 -4.73656E+01 -4.31841E+01 -6.23529E+01 -2.29338E+01 -7.18014E+01 -8.96349E-01 -7.49354E+01
 +2.10170E+01 -7.15251E+01 +4.09141E+01 -6.19045E+01 +5.70845E+01 -4.69412E+01 +6.81458E+01 -2.79600E+01
 +7.31616E+01 -6.62733E+00 +7.17207E+01 +1.51929E+01 +6.39713E+01 +3.56005E+01 +5.06070E+01 +5.28225E+01
 +3.28052E+01 +6.53660E+01 +1.21252E+01 +7.21461E+01 -9.62719E+00 +7.25785E+01 -3.05557E+01 +6.66296E+01
 -4.88374E+01 +5.48180E+01 -6.28795E+01 +3.81696E+01 -7.14566E+01 +1.81282E+01 -7.38159E+01 -3.56886E+00
 -6.97421E+01 -2.50407E+01 -5.95751E+01 -4.44251E+01 -4.41811E+01 -6.00388E+01 -2.48776E+01 -7.05220E+01
 -3.32022E+00 -7.49556E+01 +1.86396E+01 -7.29402E+01 +3.91136E+01 -6.46301E+01 +5.63391E+01 -5.07204E+01
 +6.88297E+01 -3.23873E+01 +7.55029E+01 -1.11873E+01 +7.57731E+01 +1.10762E+01 +6.96014E+01 +3.25070E+01
 +5.74990E+01 +5.12784E+01 +4.04833E+01 +6.57897E+01 +1.99910E+01 +7.48024E+01 -2.24486E+00 +7.75461E+01
 -2.43431E+01 +7.37840E+01 -4.44349E+01 +6.38324E+01 -6.08229E+01 +4.85335E+01 -7.21261E+01 +2.91832E+01
 -7.73972E+01 +7.41937E+00 -7.62021E+01 -1.49173E+01 -6.86568E+01 -3.59409E+01 -5.54159E+01 -5.38814E+01
 -3.76163E+01 -6.72345E+01 -1.67787E+01 -7.48896E+01 +5.32230E+00 -7.62237E+01 +2.68103E+01 -7.11528E+01
 +4.58675E+01 -6.01384E+01 +6.08892E+01 -4.41457E+01 +7.06206E+01 -2.45609E+01 +7.42622E+01 -3.07083E+00
 +7.15372E+01 +1.84816E+01 +6.27135E+01 +3.82551E+01 +4.85788E+01 +5.45678E+01 +3.03721E+01 +6.60399E+01
 +9.67587E+00 +7.17112E+01 -1.17200E+01 +7.11216E+01 -3.19722E+01 +6.43493E+01 -4.93420E+01 +5.20017E+01
 -6.23436E+01 +3.51626E+01 -6.98708E+01 +1.52972E+01 -7.12906E+01 -5.87405E+00 -6.64959E+01 -2.65242E+01
 -5.59131E+01 -4.48763E+01 -4.04639E+01 -5.93555E+01 -2.14849E+01 -6.87240E+01 -6.11756E-01 -7.21856E+01
 +2.03622E+01 -6.94529E+01 +3.96400E+01 -6.07704E+01 +5.55754E+01 -4.68917E+01 +6.68135E+01 -2.90137E+01
 +7.24061E+01 -8.67209E+00 +7.18919E+01 +1.23914E+01 +6.53347E+01 +3.23790E+01 +5.33156E+01 +4.95920E+01
 +3.68822E+01 +6.25758E+01 +1.74562E+01 +7.02444E+01 -3.28951E+00 +7.19725E+01 -2.35760E+01 +6.76480E+01
 -4.16715E+01 +5.76794E+01 -5.60410E+01 +4.29594E+01 -6.54775E+01 +2.47860E+01 -6.92049E+01 +4.74955E+00
 -6.69446E+01 -1.54060E+01 -5.89371E+01 -3.39337E+01 -4.59203E+01 -4.92353E+01 -2.90644E+01 -5.99987E+01
 -9.86899E+00 -6.53112E+01 +9.96696E+00 -6.47377E+01 +2.86933E+01 -5.83578E+01 +4.46606E+01 -4.67577E+01
 +5.64630E+01 -3.09791E+01 +6.30603E+01 -1.24282E+01 +6.38682E+01 +7.24662E+00 +5.88090E+01 +2.62980E+01
 +4.83183E+01 +4.30313E+01 +3.33078E+01 +5.59517E+01 +1.50864E+01 +6.38945E+01 -4.75269E+00 +6.61262E+01
 -2.44696E+01 +6.24091E+01 -4.23282E+01 +5.30227E+01 -5.67466E+01 +3.87404E+01 -6.64340E+01 +2.07645E+01
 -7.05030E+01 +6.22631E-01 -6.85471E+01 -1.99625E+01 -6.06774E+01 -3.92213E+01 -4.75138E+01 -5.54895E+01
 -3.01341E+01 -6.73509E+01 -9.98161E+00 -7.37603E+01 +1.12565E+01 -7.41336E+01 +3.17939E+01 -6.83989E+01
 +4.98969E+01 -5.70043E+01 +6.40331E+01 -4.08801E+01 +7.30026E+01 -2.13612E+01 +7.60404E+01 -7.31073E-02
 +7.28827E+01 +2.12055E+01 +6.37900E+01 +4.06941E+01 +4.95252E+01 +5.67621E+01 +3.12892E+01 +6.80674E+01
 +1.06192E+01 +7.36707E+01 -1.07417E+01 +7.31155E+01 -3.09932E+01 +6.64671E+01 -4.84301E+01 +5.43068E+01
 -6.15875E+01 +3.76828E+01 -6.93652E+01 +1.80205E+01 -7.11208E+01 -2.99853E+00 -6.67242E+01 -2.35794E+01
 -5.65684E+01 -4.19669E+01 -4.15352E+01 -5.65942E+01 -2.29205E+01 -6.62159E+01 -2.32356E+00 -7.00139E+01
 +1.84894E+01 -6.76657E+01 +3.77347E+01 -5.93722E+01 +5.37636E+01 -4.58393E+01 +6.52010E+01 -2.82179E+01
 +7.10627E+01 -8.00528E+00 +7.08379E+01 +1.30820E+01 +6.45316E+01 +3.32541E+01 +5.26641E+01 +5.07999E+01
 +3.62251E+01 +6.42315E+01 +1.65895E+01 +7.24098E+01 -4.59976E+00 +7.46405E+01 -2.55718E+01 +7.07310E+01
 -4.45774E+01 +6.10062E+01 -6.00371E+01 +4.62788E+01 -7.06742E+01 +2.77793E+01 -7.56212E+01 +7.05020E+00
 -7.44920E+01 -1.41852E+01 -6.74119E+01 -3.41696E+01 -5.50050E+01 -5.12605E+01 -3.83388E+01 -6.40684E+01
 -1.88312E+01 -7.15730E+01 +1.87146E+00 -7.32078E+01 +2.20353E+01 -6.89051E+01 +3.99866E+01 -5.90986E+01
 +5.42540E+01 -4.46837E+01 +6.36917E+01 -2.69375E+01 +6.75756E+01 -7.40803E+00 +6.56613E+01 +1.22204E+01
 +5.82024E+01 +3.02718E+01 +4.59247E+01 +4.52217E+01 +2.99605E+01 +5.58274E+01 +1.17492E+01 +6.12322E+01
 -7.08933E+00 +6.10369E+01 -2.48953E+01 +5.53308E+01 -4.01124E+01 +4.46811E+01 -5.14220E+01 +3.00809E+01
 -5.78555E+01 +1.28607E+01 -5.88766E+01 -5.42854E+00 -5.44256E+01 -2.31514E+01 -4.49223E+01 -3.87299E+01
 -3.12277E+01 -5.07809E+01 -1.45669E+01 -5.82351E+01 +3.57812E+00 -6.04292E+01 +2.15986E+01 -5.71624E+01
 +3.78991E+01 -4.87123E+01 +5.10364E+01 -3.58102E+01 +5.98448E+01 -1.95759E+01 +6.35369E+01 -1.42003E+00
 +6.17715E+01 +1.70791E+01 +5.46830E+01 +3.43131E+01 +4.28688E+01 +4.87830E+01 +2.73373E+01 +5.92295E+01
 +9.42019E+00 +6.47424E+01 -9.34373E+00 +6.48388E+01 -2.73418E+01 +5.95055E+01 -4.30276E+01 +4.91994E+01
 -5.50548E+01 +3.48084E+01 -6.23941E+01 +1.75736E+01 -6.44225E+01 -1.01763E+00 -6.09768E+01 -1.93610E+01
 -5.23685E+01 -3.58742E+01 -3.93562E+01 -4.91338E+01 -2.30808E+01 -5.79990E+01 -4.96600E+00 -6.17105E+01
 +1.34042E+01 -5.99567E+01 +3.04230E+01 -5.29006E+01 +4.45999E+01 -4.11669E+01 +5.46901E+01 -2.57879E+01
 +5.98025E+01 -8.11479E+00 +5.94775E+01 +1.02985E+01 +5.37280E+01 +2.78298E+01 +4.30387E+01 +4.29286E+01
 +2.83259E+01 +5.42507E+01 +1.08593E+01 +6.07743E+01 -7.84682E+00 +6.18898E+01 -2.61631E+01 +5.74532E+01
 -4.24854E+01 +4.78001E+01 -5.53727E+01 +3.37187E+01 -6.36718E+01 +1.63831E+01 -6.66171E+01 -2.74561E+00
 -6.38974E+01 -2.20440E+01 -5.56846E+01 -3.98644E+01 -4.26202E+01 -5.46758E+01 -2.57623E+01 -6.51948E+01
 -6.49667E+00 -7.04958E+01 +1.35804E+01 -7.00907E+01 +3.27969E+01 -6.39715E+01 +4.95471E+01 -5.26124E+01
 +6.24279E+01 -3.69301E+01 +7.03575E+01 -1.82072E+01 +7.26678E+01 +2.01605E+00 +6.91612E+01 +2.20714E+01
 +6.01273E+01 +4.03040E+01 +4.63187E+01 +5.52116E+01 +2.88872E+01 +6.55716E+01 +9.28651E+00 +7.05441E+01
 -1.08510E+01 +6.97420E+01 -2.98522E+01 +6.32636E+01 -4.61442E+01 +5.16828E+01 -5.83874E+01 +3.60000E+01
 -6.55879E+01 +1.75565E+01 -6.71801E+01 -2.07965E+00 -6.30741E+01 -2.12471E+01 -5.36611E+01 -3.83317E+01
 -3.97788E+01 -5.19034E+01 -2.26394E+01 -6.08362E+01 -3.72465E+00 -6.44029E+01 +1.53400E+01 -6.23351E+01
 +3.29243E+01 -5.48443E+01 +4.75317E+01 -4.26019E+01 +5.79258E+01 -2.66805E+01 +6.32342E+01 -8.46120E+00
 +6.30219E+01 +1.04852E+01 +5.73258E+01 +2.85326E+01 +4.66503E+01 +4.41383E+01 +3.19220E+01 +5.59738E+01
 +1.44093E+01 +6.30372E+01 -4.38723E+00 +6.47374E+01 -2.28636E+01 +6.09425E+01 -3.94494E+01 +5.19892E+01
 -5.27421E+01 +3.86521E+01 -6.16252E+01 +2.20759E+01 -6.53628E+01 +3.67577E+00 -6.36604E+01 -1.49844E+01
