 Created: 19-Jan-2021
 $NMID
 ID='D:\BASISSIMULATI'
 FMTDAT='(8E13.5)'
 VOLUME=   1.00000E+00
 TRAMP=   1.00000E+00
 $END
 +5.62463E+01 +2.59995E-01 +5.37410E+01 +8.35323E+00 +4.66747E+01 +1.59867E+01 +3.58564E+01 +2.27484E+01
 +2.25106E+01 +2.82509E+01 +8.12354E+00 +3.21507E+01 -5.74216E+00 +3.41743E+01 -1.76390E+01 +3.41508E+01
 -2.64083E+01 +3.20446E+01 -3.13132E+01 +2.79836E+01 -3.21151E+01 +2.22745E+01 -2.90849E+01 +1.53991E+01
 -2.29488E+01 +7.98778E+00 -1.47795E+01 +7.67569E-01 -5.84593E+00 -5.51010E+00 +2.55422E+00 -1.01564E+01
 +9.25987E+00 -1.26355E+01 +1.33862E+01 -1.26456E+01 +1.44229E+01 -1.01786E+01 +1.22802E+01 -5.54556E+00
 +7.27857E+00 +6.36967E-01 +8.87322E-02 +7.50413E+00 -8.36998E+00 +1.40376E+01 -1.70550E+01 +1.91891E+01
 -2.49328E+01 +2.20170E+01 -3.11006E+01 +2.18187E+01 -3.48829E+01 +1.82399E+01 -3.58916E+01 +1.13440E+01
 -3.40478E+01 +1.63031E+00 -2.95632E+01 -1.00044E+01 -2.28912E+01 -2.23591E+01 -1.46547E+01 -3.40656E+01
 -5.56455E+00 -4.37547E+01 +3.66059E+00 -5.02273E+01 +1.23627E+01 -5.26117E+01 +1.99945E+01 -5.04821E+01
 +2.61484E+01 -4.39241E+01 +3.05653E+01 -3.35360E+01 +3.31264E+01 -2.03643E+01 +3.38350E+01 -5.78160E+00
 +3.27938E+01 +8.67869E+00 +3.01830E+01 +2.15091E+01 +2.62437E+01 +3.14124E+01 +2.12666E+01 +3.74594E+01
 +1.55856E+01 +3.91988E+01 +9.57300E+00 +3.67068E+01 +3.63067E+00 +3.05673E+01 -1.82441E+00 +2.17895E+01
 -6.38474E+00 +1.16712E+01 -9.68625E+00 +1.62817E+00 -1.14492E+01 -6.98798E+00 -1.15212E+01 -1.30600E+01
 -9.91414E+00 -1.58405E+01 -6.82850E+00 -1.50367E+01 -2.65683E+00 -1.08342E+01 +2.03822E+00 -3.85922E+00
 +6.57260E+00 +4.91458E+00 +1.02137E+01 +1.43001E+01 +1.22698E+01 +2.30528E+01 +1.21858E+01 +3.00275E+01
 +9.63185E+00 +3.43163E+01 +4.57068E+00 +3.53497E+01 -2.70706E+00 +3.29508E+01 -1.15888E+01 +2.73382E+01
 -2.11897E+01 +1.90799E+01 -3.04438E+01 +9.00754E+00 -3.82255E+01 -1.89475E+00 -4.34893E+01 -1.26117E+01
 -4.54078E+01 -2.22115E+01 -4.34907E+01 -2.99401E+01 -3.76661E+01 -3.52852E+01 -2.83120E+01 -3.80054E+01
 -1.62315E+01 -3.81239E+01 -2.57166E+00 -3.58938E+01 +1.13052E+01 -3.17412E+01 +2.39817E+01 -2.61985E+01
 +3.41573E+01 -1.98371E+01 +4.08103E+01 -1.32088E+01 +4.33271E+01 -6.80087E+00 +4.15810E+01 -1.00953E+00
 +3.59508E+01 +3.87174E+00 +2.72737E+01 +7.65003E+00 +1.67406E+01 +1.02233E+01 +5.74410E+00 +1.15681E+01
 -4.29844E+00 +1.17289E+01 -1.21249E+01 +1.08121E+01 -1.67877E+01 +8.98446E+00 -1.77714E+01 +6.47409E+00
 -1.50532E+01 +3.57032E+00 -9.09993E+00 +6.18024E-01 -8.00514E-01 -1.99762E+00 +8.65376E+00 -3.87825E+00
 +1.79268E+01 -4.65102E+00 +2.57108E+01 -4.01591E+00 +3.08923E+01 -1.79567E+00 +3.26897E+01 +2.01944E+00
 +3.07447E+01 +7.24059E+00 +2.51584E+01 +1.34711E+01 +1.64678E+01 +2.01243E+01 +5.56817E+00 +2.64704E+01
 -6.40568E+00 +3.17099E+01 -1.82235E+01 +3.50668E+01 -2.87085E+01 +3.58899E+01 -3.68725E+01 +3.37496E+01
 -4.20198E+01 +2.85153E+01 -4.38103E+01 +2.04008E+01 -4.22741E+01 +9.96844E+00 -3.77812E+01 -1.91210E+00
 -3.09730E+01 -1.41481E+01 -2.26665E+01 -2.55431E+01 -1.37472E+01 -3.49372E+01 -5.06475E+00 -4.13503E+01
 +2.65609E+00 -4.41099E+01 +8.87874E+00 -4.29450E+01 +1.32880E+01 -3.80322E+01 +1.57929E+01 -2.99857E+01
 +1.65024E+01 -1.97909E+01 +1.56826E+01 -8.68851E+00 +1.37034E+01 +1.97747E+00 +1.09835E+01 +1.09277E+01
 +7.94178E+00 +1.71101E+01 +4.96072E+00 +1.98357E+01 +2.36259E+00 +1.88680E+01 +3.98846E-01 +1.44553E+01
 -7.50813E-01 +7.29962E+00 -9.74171E-01 -1.53327E+00 -2.21420E-01 -1.07518E+01 +1.49715E+00 -1.90060E+01
 +4.10904E+00 -2.50622E+01 +7.47366E+00 -2.79626E+01 +1.13753E+01 -2.71486E+01 +1.55193E+01 -2.25313E+01
 +1.95360E+01 -1.45018E+01 +2.29969E+01 -3.87910E+00 +2.54445E+01 +8.19489E+00 +2.64364E+01 +2.04005E+01
 +2.55990E+01 +3.14044E+01 +2.26856E+01 +4.00222E+01 +1.76290E+01 +4.53575E+01 +1.05803E+01 +4.69012E+01
 +1.92607E+00 +4.45792E+01 -7.72531E+00 +3.87446E+01 -1.75868E+01 +3.01170E+01 -2.67663E+01 +1.96807E+01
 -3.43622E+01 +8.55504E+00 -3.95708E+01 -2.14375E+00 -4.17916E+01 -1.14315E+01 -4.07151E+01 -1.85604E+01
 -3.63807E+01 -2.30860E+01 -2.91930E+01 -2.48927E+01 -1.98926E+01 -2.41764E+01 -9.48085E+00 -2.13907E+01
 +8.92007E-01 -1.71680E+01 +1.00648E+01 -1.22257E+01 +1.70100E+01 -7.27373E+00 +2.09671E+01 -2.93354E+00
 +2.15456E+01 +3.21960E-01 +1.87839E+01 +2.20242E+00 +1.31528E+01 +2.60747E+00 +5.50320E+00 +1.61068E+00
 -3.03762E+00 -5.73683E-01 -1.12079E+01 -3.63361E+00 -1.77743E+01 -7.20408E+00 -2.16934E+01 -1.09071E+01
 -2.22514E+01 -1.43828E+01 -1.91622E+01 -1.73095E+01 -1.26113E+01 -1.94149E+01 -3.23839E+00 -2.04790E+01
 +7.93879E+00 -2.03360E+01 +1.96501E+01 -1.88759E+01 +3.05313E+01 -1.60500E+01 +3.92942E+01 -1.18819E+01
 +4.48869E+01 -6.48084E+00 +4.66227E+01 -5.50845E-02 +4.42616E+01 +7.07946E+00 +3.80348E+01 +1.45010E+01
 +2.86089E+01 +2.16980E+01 +1.69971E+01 +2.81018E+01 +4.42910E+00 +3.31357E+01 -7.80257E+00 +3.62758E+01
 -1.84980E+01 +3.71178E+01 -2.66890E+01 +3.54395E+01 -3.17428E+01 +3.12498E+01 -3.34199E+01 +2.48151E+01
 -3.18803E+01 +1.66546E+01 -2.76397E+01 +7.50328E+00 -2.14838E+01 -1.75793E+00 -1.43550E+01 -1.01968E+01
 -7.22697E+00 -1.69400E+01 -9.84316E-01 -2.12837E+01 +3.67780E+00 -2.27909E+01 +6.32227E+00 -2.13589E+01
 +6.80093E+00 -1.72483E+01 +5.24697E+00 -1.10649E+01 +2.03328E+00 -3.69599E+00 -2.29446E+00 +3.79445E+00
 -7.09868E+00 +1.02978E+01 -1.17329E+01 +1.48047E+01 -1.56155E+01 +1.65413E+01 -1.82869E+01 +1.50792E+01
 -1.94436E+01 +1.04039E+01 -1.89503E+01 +2.93001E+00 -1.68305E+01 -6.53858E+00 -1.32427E+01 -1.69015E+01
 -8.44683E+00 -2.68953E+01 -2.76921E+00 -3.52511E+01 +3.42922E+00 -4.08562E+01 +9.77805E+00 -4.28974E+01
 +1.59144E+01 -4.09687E+01 +2.14932E+01 -3.51266E+01 +2.61938E+01 -2.58880E+01 +2.97262E+01 -1.41686E+01
 +3.18407E+01 -1.17131E+00 +3.23423E+01 +1.17613E+01 +3.11111E+01 +2.33108E+01 +2.81253E+01 +3.23416E+01
 +2.34836E+01 +3.80347E+01 +1.74212E+01 +3.99778E+01 +1.03132E+01 +3.82038E+01 +2.66191E+00 +3.31715E+01
 -4.93557E+00 +2.56937E+01 -1.18381E+01 +1.68236E+01 -1.74262E+01 +7.71466E+00 -2.11756E+01 -5.25172E-01
 -2.27280E+01 -6.96826E+00 -2.19503E+01 -1.09722E+01 -1.89698E+01 -1.22435E+01 -1.41799E+01 -1.08543E+01
 -8.21101E+00 -7.21131E+00 -1.86644E+00 -1.98500E+00 +3.96868E+00 +3.99008E+00 +8.43724E+00 +9.82908E+00
 +1.08239E+01 +1.47088E+01 +1.06577E+01 +1.79637E+01 +7.78812E+00 +1.91552E+01 +2.42365E+00 +1.81069E+01
 -4.87629E+00 +1.49051E+01 -1.32559E+01 +9.86755E+00 -2.16603E+01 +3.48809E+00 -2.89630E+01 -3.63341E+00
 -3.41092E+01 -1.08647E+01 -3.62554E+01 -1.76086E+01 -3.48859E+01 -2.33568E+01 -2.98913E+01 -2.77252E+01
 -2.15962E+01 -3.04697E+01 -1.07321E+01 -3.14846E+01 +1.64358E+00 -3.07880E+01 +1.42708E+01 -2.84994E+01
 +2.58387E+01 -2.48156E+01 +3.51457E+01 -1.99884E+01 +4.12463E+01 -1.43087E+01 +4.35667E+01 -8.09467E+00
 +4.19731E+01 -1.68494E+00 +3.67841E+01 +4.56772E+00 +2.87257E+01 +1.03054E+01 +1.88356E+01 +1.51796E+01
 +8.32956E+00 +1.88730E+01 -1.55339E+00 +2.11280E+01 -9.70422E+00 +2.17790E+01 -1.52779E+01 +2.07842E+01
 -1.77899E+01 +1.82494E+01 -1.71643E+01 +1.44394E+01 -1.37281E+01 +9.77022E+00 -8.15468E+00 +4.78065E+00
 -1.36448E+00 +8.18745E-02 +5.60110E+00 -3.70943E+00 +1.17166E+01 -6.04811E+00 +1.61016E+01 -6.53747E+00
 +1.81247E+01 -4.99505E+00 +1.74721E+01 -1.49645E+00 +1.41720E+01 +3.61143E+00 +8.57472E+00 +9.73265E+00
 +1.29470E+00 +1.60801E+01 -6.87738E+00 +2.17640E+01 -1.50775E+01 +2.59014E+01 -2.24730E+01 +2.77323E+01
 -2.83547E+01 +2.67281E+01 -3.22070E+01 +2.26757E+01 -3.37479E+01 +1.57257E+01 -3.29381E+01 +6.39448E+00
 -2.99605E+01 -4.48064E+00 -2.51773E+01 -1.58306E+01 -1.90722E+01 -2.64775E+01 -1.21873E+01 -3.52767E+01
 -5.06477E+00 -4.12587E+01 +1.80176E+00 -4.37536E+01 +8.00101E+00 -4.24797E+01 +1.32216E+01 -3.75846E+01
 +1.72557E+01 -2.96325E+01 +1.99921E+01 -1.95382E+01 +2.14034E+01 -8.45541E+00 +2.15326E+01 +2.36545E+00
 +2.04811E+01 +1.17320E+01 +1.84020E+01 +1.86573E+01 +1.54965E+01 +2.24801E+01 +1.20121E+01 +2.29429E+01
 +8.24005E+00 +2.02168E+01 +4.50627E+00 +1.48721E+01 +1.15567E+00 +7.79692E+00 -1.47372E+00 +7.73973E-02
 -3.08465E+00 -7.14593E+00 -3.45954E+00 -1.28255E+01 -2.49892E+00 -1.61388E+01 -2.52671E-01 -1.65881E+01
 +3.06272E+00 -1.40563E+01 +7.06674E+00 -8.81217E+00 +1.12404E+01 -1.46623E+00 +1.49748E+01 +7.11487E+00
 +1.76396E+01 +1.59233E+01 +1.86624E+01 +2.39384E+01 +1.76114E+01 +3.02505E+01 +1.42673E+01 +3.41653E+01
 +8.67518E+00 +3.52767E+01 +1.16484E+00 +3.34993E+01 -7.66396E+00 +2.90606E+01 -1.69942E+01 +2.24555E+01
 -2.58767E+01 +1.43722E+01 -3.33397E+01 +5.60034E+00 -3.85076E+01 -3.06346E+00 -4.07161E+01 -1.09033E+01
 -3.96049E+01 -1.73522E+01 -3.51768E+01 -2.20355E+01 -2.78126E+01 -2.47864E+01 -1.82379E+01 -2.56356E+01
 -7.44415E+00 -2.47800E+01 +3.42610E+00 -2.25374E+01 +1.32169E+01 -1.92955E+01 +2.09015E+01 -1.54633E+01
 +2.57103E+01 -1.14304E+01 +2.72288E+01 -7.53807E+00 +2.54500E+01 -4.06271E+00 +2.07754E+01 -1.21085E+00
 +1.39634E+01 +8.78513E-01 +6.03080E+00 +2.12754E+00 -1.87828E+00 +2.51340E+00 -8.64071E+00 +2.06498E+00
 -1.32988E+01 +8.63284E-01 -1.51830E+01 -9.55171E-01 -1.39960E+01 -3.19485E+00 -9.84835E+00 -5.60108E+00
 -3.24084E+00 -7.86715E+00 +5.00341E+00 -9.65150E+00 +1.38470E+01 -1.06060E+01 +2.21722E+01 -1.04144E+01
 +2.89225E+01 -8.83632E+00 +3.32332E+01 -5.75196E+00 +3.45349E+01 -1.19950E+00 +3.26161E+01 +4.60213E+00
 +2.76403E+01 +1.12512E+01 +2.01143E+01 +1.81860E+01 +1.08165E+01 +2.47322E+01 +6.94126E-01 +3.01727E+01
 -9.25537E+00 +3.38310E+01 -1.81021E+01 +3.51596E+01 -2.50868E+01 +3.38196E+01 -2.96965E+01 +2.97417E+01
 -3.17047E+01 +2.31563E+01 -3.11745E+01 +1.45880E+01 -2.84260E+01 +4.81031E+00 -2.39761E+01 -5.23337E+00
 -1.84604E+01 -1.45366E+01 -1.25490E+01 -2.21498E+01 -6.86762E+00 -2.72990E+01 -1.93357E+00 -2.94870E+01
 +1.88715E+00 -2.85623E+01 +4.39891E+00 -2.47459E+01 +5.57247E+00 -1.86112E+01 +5.52234E+00 -1.10169E+01
 +4.47144E+00 -3.00167E+00 +2.71028E+00 +4.34622E+00 +5.57268E-01 +1.00289E+01 -1.67473E+00 +1.32684E+01
 -3.70249E+00 +1.36098E+01 -5.28658E+00 +1.09825E+01 -6.23714E+00 +5.71284E+00 -6.41414E+00 -1.51590E+00
