 Created: 19-Jan-2021
 $NMID
 ID='D:\BASISSIMULATI'
 FMTDAT='(8E13.5)'
 VOLUME=   1.00000E+00
 TRAMP=   1.00000E+00
 $END
 +3.74912E+01 +1.73458E-01 +3.52178E+01 +5.50659E+00 +2.87871E+01 +1.04464E+01 +1.89936E+01 +1.46395E+01
 +7.03871E+00 +1.77543E+01 -5.62221E+00 +1.94989E+01 -1.74646E+01 +1.96468E+01 -2.70857E+01 +1.80674E+01
 -3.33768E+01 +1.47584E+01 -3.56554E+01 +9.87360E+00 -3.37405E+01 +3.73692E+00 -2.79621E+01 -3.16100E+00
 -1.91068E+01 -1.01901E+01 -8.30621E+00 -1.66322E+01 +3.11321E+00 -2.17535E+01 +1.38000E+01 -2.48909E+01
 +2.25434E+01 -2.55421E+01 +2.84145E+01 -2.34458E+01 +3.08656E+01 -1.86401E+01 +2.97763E+01 -1.14875E+01
 +2.54449E+01 -2.65976E+00 +1.85281E+01 +6.92037E+00 +9.93974E+00 +1.61753E+01 +7.26008E-01 +2.39973E+01
 -8.06750E+00 +2.93867E+01 -1.55175E+01 +3.15852E+01 -2.09197E+01 +3.01864E+01 -2.38504E+01 +2.52064E+01
 -2.41881E+01 +1.71034E+01 -2.20967E+01 +6.73931E+00 -1.79770E+01 -4.71187E+00 -1.23960E+01 -1.59013E+01
 -6.00635E+00 -2.54701E+01 +5.32132E-01 -3.22215E+01 +6.62002E+00 -3.52769E+01 +1.17669E+01 -3.41954E+01
 +1.56194E+01 -2.90391E+01 +1.79680E+01 -2.03751E+01 +1.87388E+01 -9.21182E+00 +1.79737E+01 +3.12241E+00
 +1.58071E+01 +1.51435E+01 +1.24432E+01 +2.53976E+01 +8.13873E+00 +3.26438E+01 +3.19195E+00 +3.60110E+01
 -2.06446E+00 +3.51065E+01 -7.26829E+00 +3.00638E+01 -1.20358E+01 +2.15226E+01 -1.59762E+01 +1.05441E+01
 -1.87155E+01 -1.52612E+00 -1.99300E+01 -1.32302E+01 -1.93858E+01 -2.31807E+01 -1.69812E+01 -3.02318E+01
 -1.27822E+01 -3.36154E+01 -7.04626E+00 -3.30260E+01 -2.23665E-01 -2.86453E+01 +7.06508E+00 -2.11039E+01
 +1.40794E+01 -1.13885E+01 +2.00329E+01 -7.07255E-01 +2.41835E+01 +9.66643E+00 +2.59311E+01 +1.85516E+01
 +2.49059E+01 +2.49981E+01 +2.10380E+01 +2.83890E+01 +1.45925E+01 +2.84958E+01 +6.16441E+00 +2.54821E+01
 -3.37084E+00 +1.98591E+01 -1.29479E+01 +1.24009E+01 -2.14337E+01 +4.03468E+00 -2.77667E+01 -4.27951E+00
 -3.10957E+01 -1.16620E+01 -3.08990E+01 -1.74069E+01 -2.70667E+01 -2.10448E+01 -1.99329E+01 -2.23710E+01
 -1.02521E+01 -2.14388E+01 +8.81529E-01 -1.85234E+01 +1.21608E+01 -1.40655E+01 +2.22250E+01 -8.60343E+00
 +2.98308E+01 -2.70637E+00 +3.40125E+01 +3.08481E+00 +3.42101E+01 +8.30145E+00 +3.03472E+01 +1.25741E+01
 +2.28485E+01 +1.56427E+01 +1.25917E+01 +1.73545E+01 +8.01566E-01 +1.76528E+01 -1.11024E+01 +1.65642E+01
 -2.16835E+01 +1.41865E+01 -2.96686E+01 +1.06816E+01 -3.41071E+01 +6.27272E+00 -3.44891E+01 +1.24430E+00
 -3.08056E+01 -4.05950E+00 -2.35449E+01 -9.24165E+00 -1.36251E+01 -1.38686E+01 -2.27327E+00 -1.74985E+01
 +9.13267E+00 -1.97207E+01 +1.92380E+01 -2.02041E+01 +2.68784E+01 -1.87475E+01 +3.12183E+01 -1.53252E+01
 +3.18440E+01 -1.01179E+01 +2.88004E+01 -3.52260E+00 +2.25690E+01 +3.86544E+00 +1.39916E+01 +1.12998E+01
 +4.15271E+00 +1.79567E+01 -5.76380E+00 +2.30287E+01 -1.46223E+01 +2.58268E+01 -2.14694E+01 +2.58780E+01
 -2.56380E+01 +2.30033E+01 -2.68085E+01 +1.73650E+01 -2.50240E+01 +9.47110E+00 -2.06596E+01 +1.35913E-01
 -1.43531E+01 -9.60340E+00 -6.90990E+00 -1.86048E+01 +8.03729E-01 -2.57603E+01 +7.96508E+00 -3.01385E+01
 +1.38830E+01 -3.11109E+01 +1.80607E+01 -2.84452E+01 +2.02281E+01 -2.23502E+01 +2.03431E+01 -1.34652E+01
 +1.85672E+01 -2.79370E+00 +1.52210E+01 +8.41400E+00 +1.07294E+01 +1.88121E+01 +5.56587E+00 +2.71277E+01
 +2.02553E-01 +3.23232E+01 -4.92768E+00 +3.37316E+01 -9.45595E+00 +3.11457E+01 -1.30890E+01 +2.48495E+01
 -1.56113E+01 +1.55867E+01 -1.68809E+01 +4.46916E+00 -1.68259E+01 -7.16134E+00 -1.54418E+01 -1.79020E+01
 -1.27944E+01 -2.64648E+01 -9.02572E+00 -3.18373E+01 -4.36078E+00 -3.34071E+01 +8.88513E-01 -3.10333E+01
 +6.32790E+00 -2.50583E+01 +1.14973E+01 -1.62567E+01 +1.59015E+01 -5.73092E+00 +1.90551E+01 +5.23256E+00
 +2.05371E+01 +1.53271E+01 +2.00498E+01 +2.33877E+01 +1.74728E+01 +2.85293E+01 +1.29034E+01 +3.02468E+01
 +6.67385E+00 +2.84615E+01 -6.60198E-01 +2.35143E+01 -8.36210E+00 +1.61048E+01 -1.55866E+01 +7.19038E+00
 -2.14743E+01 -2.14342E+00 -2.52586E+01 -1.08198E+01 -2.63694E+01 -1.78991E+01 -2.45211E+01 -2.26820E+01
 -1.97692E+01 -2.47753E+01 -1.25270E+01 -2.41168E+01 -3.53556E+00 -2.09559E+01 +6.21082E+00 -1.57999E+01
 +1.55772E+01 -9.33240E+00 +2.34247E+01 -2.31975E+00 +2.87554E+01 +4.48325E+00 +3.08443E+01 +1.04152E+01
 +2.93422E+01 +1.49687E+01 +2.43331E+01 +1.78258E+01 +1.63371E+01 +1.88651E+01 +6.25681E+00 +1.81471E+01
 -4.72729E+00 +1.58804E+01 -1.53002E+01 +1.23793E+01 -2.41761E+01 +8.01923E+00 -3.02616E+01 +3.19577E+00
 -3.27956E+01 -1.70616E+00 -3.14493E+01 -6.33341E+00 -2.63707E+01 -1.03759E+01 -1.81677E+01 -1.35714E+01
 -7.83292E+00 -1.57071E+01 +3.38132E+00 -1.66229E+01 +1.41210E+01 -1.62184E+01 +2.31006E+01 -1.44643E+01
 +2.92627E+01 -1.14171E+01 +3.19078E+01 -7.23377E+00 +3.07756E+01 -2.18162E+00 +2.60698E+01 +3.36280E+00
 +1.84236E+01 +8.92852E+00 +8.81079E+00 +1.39821E+01 -1.58288E+00 +1.79759E+01 -1.15125E+01 +2.04082E+01
 -1.98285E+01 +2.08895E+01 -2.56149E+01 +1.92050E+01 -2.82911E+01 +1.53632E+01 -2.76698E+01 +9.62239E+00
 -2.39608E+01 +2.48603E+00 -1.77269E+01 -5.33380E+00 -9.79695E+00 -1.29856E+01 -1.15183E+00 -1.95727E+01
 +7.20213E+00 -2.42625E+01 +1.43541E+01 -2.63964E+01 +1.95896E+01 -2.55858E+01 +2.24595E+01 -2.17786E+01
 +2.28113E+01 -1.52873E+01 +2.07815E+01 -6.76983E+00 +1.67539E+01 +2.83588E+00 +1.12925E+01 +1.24171E+01
 +5.06001E+00 +2.08199E+01 -1.26536E+00 +2.69938E+01 -7.06484E+00 +3.01289E+01 -1.18365E+01 +2.97668E+01
 -1.52309E+01 +2.58694E+01 -1.70637E+01 +1.88349E+01 -1.73075E+01 +9.45818E+00 -1.60691E+01 -1.16196E+00
 -1.35574E+01 -1.17559E+01 -1.00488E+01 -2.10411E+01 -5.85728E+00 -2.78839E+01 -1.30966E+00 -3.14439E+01
 +3.27010E+00 -3.12814E+01 +7.57054E+00 -2.74140E+01 +1.12985E+01 -2.03152E+01 +1.41846E+01 -1.08539E+01
 +1.59928E+01 -1.83345E-01 +1.65342E+01 +1.04046E+01 +1.56875E+01 +1.96427E+01 +1.34220E+01 +2.64458E+01
 +9.82026E+00 +3.00432E+01 +5.09407E+00 +3.00682E+01 -4.10951E-01 +2.65952E+01 -6.22791E+00 +2.01199E+01
 -1.18000E+01 +1.14859E+01 -1.65306E+01 +1.77123E+00 -1.98479E+01 -7.85254E+00 -2.12772E+01 -1.62669E+01
 -2.05110E+01 -2.25409E+01 -1.74665E+01 -2.60364E+01 -1.23207E+01 -2.64716E+01 -5.51396E+00 -2.39372E+01
 +2.27971E+00 -1.88654E+01 +1.02174E+01 -1.19585E+01 +1.73795E+01 -4.08783E+00 +2.28805E+01 +3.81992E+00
 +2.59830E+01 +1.08962E+01 +2.62008E+01 +1.64274E+01 +2.33758E+01 +1.99251E+01 +1.77157E+01 +2.11626E+01
 +9.78719E+00 +2.01763E+01 +4.60090E-01 +1.72359E+01 -9.18936E+00 +1.27896E+01 -1.80072E+01 +7.39532E+00
 -2.49052E+01 +1.64801E+00 -2.90011E+01 -3.88717E+00 -2.97364E+01 -8.72781E+00 -2.69556E+01 -1.25091E+01
 -2.09350E+01 -1.49993E+01 -1.23561E+01 -1.60976E+01 -2.22671E+00 -1.58200E+01 +8.24214E+00 -1.42762E+01
 +1.77866E+01 -1.16462E+01 +2.52490E+01 -8.15838E+00 +2.97237E+01 -4.07393E+00 +3.06720E+01 +3.24128E-01
 +2.79898E+01 +4.73709E+00 +2.20187E+01 +8.85606E+00 +1.35016E+01 +1.23699E+01 +3.48560E+00 +1.49787E+01
 -6.81146E+00 +1.64146E+01 -1.61555E+01 +1.64693E+01 -2.34498E+01 +1.50251E+01 -2.78684E+01 +1.20856E+01
 -2.89526E+01 +7.79892E+00 -2.66581E+01 +2.46766E+00 -2.13485E+01 -3.45920E+00 -1.37383E+01 -9.41598E+00
 -4.79284E+00 -1.47708E+01 +4.39941E+00 -1.88932E+01 +1.27643E+01 -2.12313E+01 +1.93723E+01 -2.13889E+01
 +2.35436E+01 -1.91914E+01 +2.49176E+01 -1.47291E+01 +2.34785E+01 -8.37039E+00 +1.95365E+01 -7.39010E-01
 +1.36699E+01 +7.34461E+00 +6.63920E+00 +1.49525E+01 -7.16184E-01 +2.11594E+01 -7.58142E+00 +2.51600E+01
 -1.32585E+01 +2.63782E+01 -1.72357E+01 +2.45524E+01 -1.92279E+01 +1.97845E+01 -1.91854E+01 +1.25434E+01
 -1.72738E+01 +3.62106E+00 -1.38317E+01 -5.95587E+00 -9.31288E+00 -1.50479E+01 -4.22472E+00 -2.25440E+01
 +9.30187E-01 -2.75026E+01 +5.70148E+00 -2.92757E+01 +9.72373E+00 -2.75969E+01 +1.27332E+01 -2.26222E+01
 +1.45702E+01 -1.49170E+01 +1.51716E+01 -5.39005E+00 +1.45564E+01 +4.81772E+00 +1.28115E+01 +1.44754E+01
 +1.00792E+01 +2.24165E+01 +6.54873E+00 +2.76855E+01 +2.45264E+00 +2.96578E+01 -1.93589E+00 +2.81163E+01
 -6.30657E+00 +2.32764E+01 -1.03207E+01 +1.57544E+01 -1.36279E+01 +6.48606E+00 -1.58915E+01 -3.39455E+00
 -1.68227E+01 -1.26999E+01 -1.62194E+01 -2.03370E+01 -1.40038E+01 -2.54410E+01 -1.02536E+01 -2.74753E+01
 -5.21847E+00 -2.62886E+01 +6.83165E-01 -2.21206E+01 +6.89067E+00 -1.55588E+01 +1.27507E+01 -7.45336E+00
 +1.75862E+01 +1.19798E+00 +2.07774E+01 +9.37735E+00 +2.18454E+01 +1.61710E+01 +2.05246E+01 +2.08737E+01
 +1.68161E+01 +2.30616E+01 +1.10088E+01 +2.26255E+01 +3.66578E+00 +1.97632E+01 -4.42809E+00 +1.49348E+01
 -1.23503E+01 +8.78925E+00 -1.91495E+01 +2.07404E+00 -2.39642E+01 -4.45948E+00 -2.61372E+01 -1.01419E+01
 -2.53085E+01 -1.44535E+01 -2.14743E+01 -1.70659E+01 -1.50019E+01 -1.78576E+01 -6.59695E+00 -1.69018E+01
 +2.77494E+00 -1.44346E+01 +1.20027E+01 -1.08085E+01 +1.99666E+01 -6.44107E+00 +2.56798E+01 -1.76547E+00
 +2.84162E+01 +2.81075E+00 +2.78065E+01 +6.93499E+00 +2.38902E+01 +1.03262E+01 +1.71155E+01 +1.27802E+01
 +8.28650E+00 +1.41672E+01 -1.53604E+00 +1.44252E+01 -1.11671E+01 +1.35533E+01 -1.94462E+01 +1.16083E+01
 -2.53830E+01 +8.70429E+00 -2.82803E+01 +5.01516E+00 -2.78191E+01 +7.77522E-01 -2.40947E+01 -3.71016E+00
 -1.75990E+01 -8.09567E+00 -9.15327E+00 -1.19911E+01 +2.00257E-01 -1.50025E+01 +9.33223E+00 -1.67685E+01
 +1.71681E+01 -1.70064E+01 +2.28190E+01 -1.55570E+01 +2.56859E+01 -1.24231E+01 +2.55229E+01 -7.79303E+00
 +2.24547E+01 -2.04329E+00 +1.69466E+01 +4.28347E+00 +9.73258E+00 +1.05259E+01 +1.71429E+00 +1.59728E+01
 -6.15665E+00 +1.99474E+01 -1.29957E+01 +2.18944E+01 -1.80872E+01 +2.14612E+01 -2.09593E+01 +1.85583E+01
 -2.14232E+01 +1.33899E+01 -1.95754E+01 +6.44936E+00 -1.57644E+01 -1.52556E+00 -1.05297E+01 -9.63114E+00
 -4.52378E+00 -1.69034E+01 +1.57315E+00 -2.24372E+01 +7.13176E+00 -2.55040E+01 +1.16379E+01 -2.56520E+01
 +1.47354E+01 -2.27741E+01 +1.62448E+01 -1.71339E+01 +1.61593E+01 -9.34425E+00 +1.46211E+01 -2.99649E-01
 +1.18861E+01 +8.92976E+00 +8.28172E+00 +1.72297E+01 +4.16688E+00 +2.35820E+01 -1.02601E-01 +2.71945E+01
 -4.19892E+00 +2.76046E+01 -7.83751E+00 +2.47406E+01 -1.07837E+01 +1.89346E+01 -1.28540E+01 +1.08819E+01
