 Created: 19-Jan-2021
 $NMID
 ID='D:\BASISSIMULATI'
 FMTDAT='(8E13.5)'
 VOLUME=   1.00000E+00
 TRAMP=   1.00000E+00
 $END
 +4.46595E+01 +4.61250E-01 +4.21391E+01 +1.33357E+01 +3.55597E+01 +2.44119E+01 +2.59456E+01 +3.23898E+01
 +1.47127E+01 +3.64998E+01 +3.40941E+00 +3.65985E+01 -6.54827E+00 +3.31447E+01 -1.40991E+01 +2.70701E+01
 -1.86748E+01 +1.95747E+01 -2.02351E+01 +1.18950E+01 -1.92028E+01 +5.09160E+00 -1.63217E+01 -1.03922E-01
 -1.24742E+01 -3.35909E+00 -8.50198E+00 -4.72449E+00 -5.06353E+00 -4.54628E+00 -2.55491E+00 -3.33610E+00
 -1.09990E+00 -1.63298E+00 -6.00520E-01 +1.11029E-01 -8.25960E-01 +1.59915E+00 -1.51187E+00 +2.70399E+00
 -2.44308E+00 +3.43340E+00 -3.50071E+00 +3.86543E+00 -4.66594E+00 +4.07579E+00 -5.98548E+00 +4.08012E+00
 -7.51336E+00 +3.80762E+00 -9.24940E+00 +3.11214E+00 -1.10939E+01 +1.81617E+00 -1.28333E+01 -2.26019E-01
 -1.41615E+01 -3.06449E+00 -1.47330E+01 -6.60743E+00 -1.42346E+01 -1.06061E+01 -1.24583E+01 -1.46765E+01
 -9.35727E+00 -1.83531E+01 -5.07230E+00 -2.11644E+01 +7.84907E-02 -2.27126E+01 +5.64360E+00 -2.27410E+01
 +1.11062E+01 -2.11750E+01 +1.59619E+01 -1.81301E+01 +1.97895E+01 -1.38868E+01 +2.23031E+01 -8.84030E+00
 +2.33761E+01 -3.43626E+00 +2.30363E+01 +1.89241E+00 +2.14374E+01 +6.77657E+00 +1.88169E+01 +1.09416E+01
 +1.54495E+01 +1.42159E+01 +1.16092E+01 +1.65201E+01 +7.54417E+00 +1.78450E+01 +3.46753E+00 +1.82258E+01
 -4.38552E-01 +1.77227E+01 -4.01180E+00 +1.64103E+01 -7.09886E+00 +1.43793E+01 -9.55091E+00 +1.17464E+01
 -1.12298E+01 +8.66723E+00 -1.20246E+01 +5.34457E+00 -1.18755E+01 +2.02735E+00 -1.07985E+01 -1.00417E+00
 -8.90376E+00 -3.46628E+00 -6.40135E+00 -5.10914E+00 -3.59019E+00 -5.75710E+00 -8.29398E-01 -5.34379E+00
 +1.50455E+00 -3.93475E+00 +3.06903E+00 -1.73172E+00 +3.60639E+00 +9.43913E-01 +2.98661E+00 +3.68720E+00
 +1.23398E+00 +6.06089E+00 -1.46727E+00 +7.65441E+00 -4.78997E+00 +8.14217E+00 -8.30219E+00 +7.33222E+00
 -1.15213E+01 +5.19816E+00 -1.39771E+01 +1.88917E+00 -1.52745E+01 -2.28363E+00 -1.51486E+01 -6.88318E+00
 -1.35021E+01 -1.14001E+01 -1.04220E+01 -1.53173E+01 -6.17138E+00 -1.81759E+01 -1.15754E+00 -1.96349E+01
 +4.11935E+00 -1.95148E+01 +9.13016E+00 -1.78195E+01 +1.33842E+01 -1.47334E+01 +1.64906E+01 -1.05938E+01
 +1.82042E+01 -5.84254E+00 +1.84505E+01 -9.65051E-01 +1.73243E+01 +3.57472E+00 +1.50649E+01 +7.39243E+00
 +1.20118E+01 +1.02261E+01 +8.54904E+00 +1.19571E+01 +5.04782E+00 +1.26075E+01 +1.81830E+00 +1.23153E+01
 -9.22654E-01 +1.12949E+01 -3.06295E+00 +9.78981E+00 -4.58605E+00 +8.02977E+00 -5.54548E+00 +6.19825E+00
 -6.03072E+00 +4.41749E+00 -6.13333E+00 +2.75160E+00 -5.92205E+00 +1.22461E+00 -5.43235E+00 -1.53080E-01
 -4.67240E+00 -1.35869E+00 -3.64265E+00 -2.33956E+00 -2.36257E+00 -3.01025E+00 -8.95950E-01 -3.26616E+00
 +6.33999E-01 -3.01092E+00 +2.04601E+00 -2.19096E+00 +3.12096E+00 -8.27848E-01 +3.63833E+00 +9.60983E-01
 +3.42189E+00 +2.96068E+00 +2.38455E+00 +4.87974E+00 +5.61495E-01 +6.39130E+00 -1.87729E+00 +7.18793E+00
 -4.64009E+00 +7.03927E+00 -7.35151E+00 +5.84070E+00 -9.60953E+00 +3.64206E+00 -1.10511E+01 +6.49755E-01
 -1.14138E+01 -2.79945E+00 -1.05808E+01 -6.28849E+00 -8.60216E+00 -9.38464E+00 -5.68566E+00 -1.17065E+01
 -2.16261E+00 -1.29807E+01 +1.56645E+00 -1.30784E+01 +5.09404E+00 -1.20256E+01 +8.06430E+00 -9.98735E+00
 +1.02175E+01 -7.23141E+00 +1.14137E+01 -4.07925E+00 +1.16338E+01 -8.56047E-01 +1.09617E+01 +2.15128E+00
 +9.55310E+00 +4.72137E+00 +7.60125E+00 +6.70841E+00 +5.30681E+00 +8.03718E+00 +2.85743E+00 +8.68815E+00
 +4.19358E-01 +8.67990E+00 -1.86106E+00 +8.05515E+00 -3.85071E+00 +6.87459E+00 -5.42392E+00 +5.21925E+00
 -6.46286E+00 +3.19867E+00 -6.86677E+00 +9.59565E-01 -6.56957E+00 -1.31102E+00 -5.56161E+00 -3.39316E+00
 -3.90913E+00 -5.05411E+00 -1.76438E+00 -6.07937E+00 +6.39324E-01 -6.30944E+00 +3.00983E+00 -5.67434E+00
 +5.03411E+00 -4.21735E+00 +6.42580E+00 -2.10092E+00 +6.97344E+00 +4.08809E-01 +6.57944E+00 +2.97786E+00
 +5.28103E+00 +5.25501E+00 +3.24800E+00 +6.92776E+00 +7.56727E-01 +7.77299E+00 -1.85508E+00 +7.69207E+00
 -4.24401E+00 +6.72357E+00 -6.11620E+00 +5.03132E+00 -7.27144E+00 +2.87069E+00 -7.62791E+00 +5.40478E-01
 -7.22377E+00 -1.66930E+00 -6.19674E+00 -3.52319E+00 -4.74759E+00 -4.87088E+00 -3.09644E+00 -5.65781E+00
 -1.44181E+00 -5.91554E+00 +6.90435E-02 -5.73636E+00 +1.35334E+00 -5.23981E+00 +2.38854E+00 -4.53988E+00
 +3.19403E+00 -3.72085E+00 +3.80530E+00 -2.82704E+00 +4.24857E+00 -1.86739E+00 +4.52316E+00 -8.32364E-01
 +4.59639E+00 +2.82982E-01 +4.41229E+00 +1.45702E+00 +3.91137E+00 +2.62757E+00 +3.05597E+00 +3.69064E+00
 +1.85391E+00 +4.51296E+00 +3.73641E-01 +4.95609E+00 -1.25386E+00 +4.90642E+00 -2.84812E+00 +4.30412E+00
 -4.20500E+00 +3.16393E+00 -5.13031E+00 +1.58255E+00 -5.47430E+00 -2.69535E-01 -5.15983E+00 -2.17076E+00
 -4.19845E+00 -3.88131E+00 -2.69138E+00 -5.17980E+00 -8.15247E-01 -5.89690E+00 +1.20428E+00 -5.93980E+00
 +3.12567E+00 -5.30378E+00 +4.72560E+00 -4.06950E+00 +5.82785E+00 -2.38783E+00 +6.32310E+00 -4.55703E-01
 +6.17734E+00 +1.51199E+00 +5.42928E+00 +3.30965E+00 +4.17886E+00 +4.76347E+00 +2.56997E+00 +5.74687E+00
 +7.71062E-01 +6.18820E+00 -1.04355E+00 +6.07147E+00 -2.70974E+00 +5.43191E+00 -4.08617E+00 +4.34815E+00
 -5.06341E+00 +2.93261E+00 -5.57024E+00 +1.32104E+00 -5.57751E+00 -3.38475E-01 -5.09977E+00 -1.89698E+00
 -4.19424E+00 -3.21669E+00 -2.95661E+00 -4.18311E+00 -1.51314E+00 -4.71616E+00 -8.90303E-03 -4.77902E+00
 +1.40706E+00 -4.38281E+00 +2.59806E+00 -3.58590E+00 +3.45527E+00 -2.48718E+00 +3.91007E+00 -1.21376E+00
 +3.94078E+00 +9.51717E-02 +3.57280E+00 +1.30582E+00 +2.87201E+00 +2.30567E+00 +1.93278E+00 +3.01508E+00
 +8.63063E-01 +3.39278E+00 -2.30440E-01 +3.43490E+00 -1.25433E+00 +3.16845E+00 -2.13576E+00 +2.64141E+00
 -2.82435E+00 +1.91217E+00 -3.28937E+00 +1.04079E+00 -3.51427E+00 +8.41420E-02 -3.49088E+00 -9.04872E-01
 -3.21580E+00 -1.87461E+00 -2.69021E+00 -2.77053E+00 -1.92359E+00 -3.53202E+00 -9.40063E-01 -4.09231E+00
 +2.14808E-01 -4.38298E+00 +1.46938E+00 -4.34282E+00 +2.72587E+00 -3.92978E+00 +3.86631E+00 -3.13334E+00
 +4.76442E+00 -1.98436E+00 +5.30211E+00 -5.59505E-01 +5.38765E+00 +1.02154E+00 +4.97234E+00 +2.60654E+00
 +4.06227E+00 +4.02773E+00 +2.72281E+00 +5.12286E+00 +1.07456E+00 +5.75705E+00 -7.18783E-01 +5.84186E+00
 -2.46909E+00 +5.34871E+00 -3.98610E+00 +4.31464E+00 -5.10041E+00 +2.83974E+00 -5.68397E+00 +1.07676E+00
 -5.66583E+00 -7.85630E-01 -5.04125E+00 -2.54368E+00 -3.87358E+00 -4.00128E+00 -2.28872E+00 -4.99208E+00
 -4.62712E-01 -5.39890E+00 +1.39637E+00 -5.16856E+00 +3.07090E+00 -4.32043E+00 +4.35852E+00 -2.94739E+00
 +5.09692E+00 -1.20851E+00 +5.18582E+00 +6.86822E-01 +4.60302E+00 +2.50234E+00 +3.41170E+00 +4.00385E+00
 +1.75697E+00 +4.99043E+00 -1.49491E-01 +5.32364E+00 -2.05550E+00 +4.95015E+00 -3.70250E+00 +3.91338E+00
 -4.86302E+00 +2.35133E+00 -5.37566E+00 +4.79633E-01 -5.17153E+00 -1.43872E+00 -4.28716E+00 -3.13254E+00
 -2.86072E+00 -4.36455E+00 -1.11134E+00 -4.96918E+00 +6.95459E-01 -4.87939E+00 +2.29068E+00 -4.13724E+00
 +3.44577E+00 -2.88620E+00 +4.00963E+00 -1.34608E+00 +3.93217E+00 +2.24938E-01 +3.27017E+00 +1.57446E+00
 +2.17458E+00 +2.49819E+00 +8.61827E-01 +2.87287E+00 -4.25357E-01 +2.67429E+00 -1.46028E+00 +1.97751E+00
 -2.07020E+00 +9.40013E-01 -2.16335E+00 -2.28506E-01 -1.74091E+00 -1.30367E+00 -8.92919E-01 -2.08448E+00
 +2.20258E-01 -2.42539E+00 +1.39657E+00 -2.25763E+00 +2.42572E+00 -1.59718E+00 +3.12174E+00 -5.39541E-01
 +3.34998E+00 +7.56755E-01 +3.04544E+00 +2.09433E+00 +2.22089E+00 +3.26494E+00 +9.64995E-01 +4.07746E+00
 -5.68341E-01 +4.38311E+00 -2.17787E+00 +4.09556E+00 -3.63825E+00 +3.20469E+00 -4.72687E+00 +1.78269E+00
 -5.25254E+00 -1.82759E-02 -5.08354E+00 -1.97794E+00 -4.17222E+00 -3.82966E+00 -2.57235E+00 -5.29153E+00
 -4.45207E-01 -6.10491E+00 +1.94916E+00 -6.07611E+00 +4.27750E+00 -5.11538E+00 +6.17519E+00 -3.26598E+00
 +7.30030E+00 -7.15953E-01 +7.39262E+00 +2.21275E+00 +6.32746E+00 +5.10005E+00 +4.15353E+00 +7.48590E+00
 +1.10511E+00 +8.94347E+00 -2.41748E+00 +9.15542E+00 -5.89949E+00 +7.97941E+00 -8.78945E+00 +5.48885E+00
 -1.05910E+01 +1.97854E+00 -1.09526E+01 -2.06933E+00 -9.73797E+00 -6.05581E+00 -7.06184E+00 -9.36171E+00
 -3.28272E+00 -1.14534E+01 +1.04927E+00 -1.19781E+01 +5.28124E+00 -1.08305E+01 +8.76767E+00 -8.17595E+00
 +1.09816E+01 -4.42576E+00 +1.16055E+01 -1.67208E-01 +1.05853E+01 +3.93828E+00 +8.13501E+00 +7.26989E+00
 +4.69450E+00 +9.35306E+00 +8.46111E-01 +9.93629E+00 -2.79109E+00 +9.02491E+00 -5.66939E+00 +6.86710E+00
 -7.40195E+00 +3.89662E+00 -7.81763E+00 +6.45605E-01 -6.97290E+00 -2.35413E+00 -5.12150E+00 -4.66147E+00
 -2.65145E+00 -5.99134E+00 -4.52552E-03 -6.24482E+00 +2.40406E+00 -5.50193E+00 +4.25010E+00 -3.98327E+00
 +5.33854E+00 -1.99224E+00 +5.61159E+00 +1.47334E-01 +5.13076E+00 +2.14478E+00 +4.04172E+00 +3.77787E+00
 +2.53361E+00 +4.90650E+00 +8.03486E-01 +5.46743E+00 -9.66793E-01 +5.45744E+00 -2.61963E+00 +4.91382E+00
 -4.01976E+00 +3.90030E+00 -5.04821E+00 +2.50254E+00 -5.59985E+00 +8.32668E-01 -5.59021E+00 -9.62508E-01
 -4.97296E+00 -2.69735E+00 -3.76429E+00 -4.15499E+00 -2.06605E+00 -5.11125E+00 -7.72291E-02 -5.37389E+00
 +1.91517E+00 -4.83043E+00 +3.57077E+00 -3.49275E+00 +4.55371E+00 -1.52453E+00 +4.60452E+00 +7.60323E-01
 +3.61036E+00 +2.93488E+00 +1.65573E+00 +4.53003E+00 -9.62423E-01 +5.12799E+00 -3.76516E+00 +4.46000E+00
 -6.16721E+00 +2.48571E+00 -7.58698E+00 -5.66672E-01 -7.57019E+00 -4.21378E+00 -5.90084E+00 -7.78754E+00
 -2.67345E+00 -1.05532E+01 +1.69347E+00 -1.18540E+01 +6.51091E+00 -1.12525E+01 +1.09341E+01 -8.63927E+00
 +1.41186E+01 -4.28148E+00 +1.53875E+01 +1.20207E+00 +1.43748E+01 +6.93913E+00 +1.11144E+01 +1.19588E+01
 +6.05264E+00 +1.53737E+01 -1.98420E-02 +1.65524E+01 -6.10755E+00 +1.52472E+01 -1.11925E+01 +1.16499E+01
 -1.44243E+01 +6.36196E+00 -1.52796E+01 +2.85541E-01 -1.36582E+01 -5.54410E+00 -9.89717E+00 -1.01507E+01
 -4.70145E+00 -1.27948E+01 +9.95119E-01 -1.31024E+01 +6.20723E+00 -1.11203E+01 +1.00785E+01 -7.28853E+00
 +1.20285E+01 -2.34070E+00 +1.18391E+01 +2.84576E+00 +9.66618E+00 +7.41589E+00 +5.98063E+00 +1.06859E+01
