 Created: 19-Jan-2021
 $NMID
 ID='D:\BASISSIMULATI'
 FMTDAT='(8E13.5)'
 VOLUME=   1.00000E+00
 TRAMP=   1.00000E+00
 $END
 +2.61325E+01 +1.20645E-01 +2.52484E+01 +6.14812E+00 +2.29010E+01 +1.17223E+01 +1.92739E+01 +1.64775E+01
 +1.46423E+01 +2.01153E+01 +9.34987E+00 +2.24279E+01 +3.77979E+00 +2.33125E+01 -1.67723E+00 +2.27771E+01
 -6.65454E+00 +2.09366E+01 -1.08386E+01 +1.80004E+01 -1.39930E+01 +1.42520E+01 -1.59745E+01 +1.00224E+01
 -1.67418E+01 +5.66135E+00 -1.63547E+01 +1.50627E+00 -1.49638E+01 -2.14541E+00 -1.27940E+01 -5.06041E+00
 -1.01207E+01 -7.08701E+00 -7.24304E+00 -8.16468E+00 -4.45554E+00 -8.32519E+00 -2.02096E+00 -7.68531E+00
 -1.47163E-01 -6.43197E+00 +1.03044E+00 -4.80133E+00 +1.45913E+00 -3.05385E+00 +1.17117E+00 -1.44771E+00
 +2.77885E-01 -2.13101E-01 -1.04356E+00 +4.70327E-01 -2.56948E+00 +4.90796E-01 -4.05318E+00 -1.85072E-01
 -5.25035E+00 -1.50935E+00 -5.94410E+00 -3.35775E+00 -5.96712E+00 -5.54184E+00 -5.21914E+00 -7.82742E+00
 -3.67790E+00 -9.95717E+00 -1.40285E+00 -1.16756E+01 +1.46889E+00 -1.27538E+01 +4.73380E+00 -1.30122E+01
 +8.13947E+00 -1.23383E+01 +1.14067E+01 -1.06990E+01 +1.42543E+01 -8.14540E+00 +1.64239E+01 -4.81018E+00
 +1.77037E+01 -8.97726E-01 +1.79470E+01 +3.33218E+00 +1.70863E+01 +7.58565E+00 +1.51401E+01 +1.15589E+01
 +1.22121E+01 +1.49637E+01 +8.48328E+00 +1.75506E+01 +4.19774E+00 +1.91304E+01 -3.57323E-01 +1.95887E+01
 -4.87470E+00 +1.88950E+01 -9.05190E+00 +1.71052E+01 -1.26152E+01 +1.43552E+01 -1.53410E+01 +1.08500E+01
 -1.70725E+01 +6.84541E+00 -1.77309E+01 +2.62700E+00 -1.73196E+01 -1.51337E+00 -1.59213E+01 -5.30100E+00
 -1.36891E+01 -8.49974E+00 -1.08316E+01 -1.09296E+01 -7.59344E+00 -1.24791E+01 -4.23448E+00 -1.31114E+01
 -1.00714E+00 -1.28640E+01 +1.86403E+00 -1.18420E+01 +4.19991E+00 -1.02061E+01 +5.87978E+00 -8.15546E+00
 +6.84867E+00 -5.90889E+00 +7.11866E+00 -3.68421E+00 +6.76408E+00 -1.67887E+00 +5.91143E+00 -5.30331E-02
 +4.72485E+00 +1.08329E+00 +3.38874E+00 +1.67806E+00 +2.08907E+00 +1.73945E+00 +9.95183E-01 +1.33234E+00
 +2.43769E-01 +5.69645E-01 -7.37137E-02 -4.00637E-01 +8.10661E-02 -1.41137E+00 +6.90619E-01 -2.29368E+00
 +1.68433E+00 -2.89422E+00 +2.94616E+00 -3.09056E+00 +4.32662E+00 -2.80356E+00 +5.65773E+00 -2.00536E+00
 +6.76969E+00 -7.22541E-01 +7.50756E+00 +9.65931E-01 +7.74652E+00 +2.93560E+00 +7.40434E+00 +5.02771E+00
 +6.44985E+00 +7.06344E+00 +4.90679E+00 +8.86015E+00 +2.85272E+00 +1.02478E+01 +4.12995E-01 +1.10844E+01
 -2.24935E+00 +1.12691E+01 -4.94717E+00 +1.07510E+01 -7.48482E+00 +9.53485E+00 -9.67443E+00 +7.68064E+00
 -1.13516E+01 +5.29929E+00 -1.23888E+01 +2.54372E+00 -1.27058E+01 -4.03452E-01 -1.22761E+01 -3.34465E+00
 -1.11284E+01 -6.08310E+00 -9.34419E+00 -8.43838E+00 -7.05020E+00 -1.02603E+01 -4.40809E+00 -1.14403E+01
 -1.60096E+00 -1.19186E+01 +1.18137E+00 -1.16881E+01 +3.75725E+00 -1.07932E+01 +5.96709E+00 -9.32483E+00
 +7.68493E+00 -7.41140E+00 +8.82697E+00 -5.20771E+00 +9.35634E+00 -2.88143E+00 +9.28376E+00 -5.99429E-01
 +8.66443E+00 +1.48550E+00 +7.59120E+00 +3.24605E+00 +6.18503E+00 +4.58931E+00 +4.58348E+00 +5.46230E+00
 +2.92836E+00 +5.85397E+00 +1.35356E+00 +5.79347E+00 -2.57374E-02 +5.34516E+00 -1.12184E+00 +4.60071E+00
 -1.88036E+00 +3.66931E+00 -2.28295E+00 +2.66679E+00 -2.34657E+00 +1.70470E+00 -2.11974E+00 +8.80259E-01
 -1.67606E+00 +2.68141E-01 -1.10576E+00 -8.53807E-02 -5.06081E-01 -1.65382E-01 +2.85764E-02 +1.17557E-02
 +4.15883E-01 +4.01304E-01 +5.93347E-01 +9.35682E-01 +5.23976E-01 +1.53191E+00 +1.99390E-01 +2.10028E+00
 -3.59829E-01 +2.55344E+00 -1.10649E+00 +2.81505E+00 -1.97159E+00 +2.82723E+00 -2.87100E+00 +2.55620E+00
 -3.71354E+00 +1.99557E+00 -4.40945E+00 +1.16719E+00 -4.87878E+00 +1.19301E-01 -5.05877E+00 -1.07749E+00
 -4.90960E+00 -2.33631E+00 -4.41818E+00 -3.56146E+00 -3.59952E+00 -4.65649E+00 -2.49578E+00 -5.53239E+00
 -1.17292E+00 -6.11497E+00 +2.84496E-01 -6.35105E+00 +1.78003E+00 -6.21274E+00 +3.21299E+00 -5.69971E+00
 +4.48628E+00 -4.83913E+00 +5.51383E+00 -3.68342E+00 +6.22707E+00 -2.30613E+00 +6.57989E+00 -7.96134E-01
 +6.55172E+00 +7.49219E-01 +6.14860E+00 +2.23140E+00 +5.40220E+00 +3.55793E+00 +4.36691E+00 +4.64899E+00
 +3.11522E+00 +5.44277E+00 +1.73204E+00 +5.89943E+00 +3.08174E-01 +6.00311E+00 -1.06637E+00 +5.76225E+00
 -2.30874E+00 +5.20795E+00 -3.34878E+00 +4.39081E+00 -4.13344E+00 +3.37643E+00 -4.62963E+00 +2.24000E+00
 -4.82559E+00 +1.06052E+00 -4.73048E+00 -8.50758E-02 -4.37254E+00 -1.12723E+00 -3.79589E+00 -2.00830E+00
 -3.05639E+00 -2.68594E+00 -2.21682E+00 -3.13515E+00 -1.34184E+00 -3.34888E+00 -4.93147E-01 -3.33734E+00
 +2.74877E-01 -3.12596E+00 +9.18686E-01 -2.75240E+00 +1.40804E+00 -2.26279E+00 +1.72731E+00 -1.70756E+00
 +1.87558E+00 -1.13724E+00 +1.86561E+00 -5.98449E-01 +1.72175E+00 -1.30490E-01 +1.47719E+00 +2.37292E-01
 +1.17050E+00 +4.87215E-01 +8.42097E-01 +6.13941E-01 +5.30638E-01 +6.24121E-01 +2.69799E-01 +5.35095E-01
 +8.55837E-02 +3.72781E-01 -5.62788E-03 +1.68948E-01 +1.84228E-03 -4.18904E-02 +1.02805E-01 -2.25705E-01
 +2.81944E-01 -3.52059E-01 +5.15380E-01 -3.96847E-01 +7.72923E-01 -3.44470E-01 +1.02082E+00 -1.89278E-01
 +1.22478E+00 +6.38073E-02 +1.35306E+00 +3.99546E-01 +1.37937E+00 +7.93476E-01 +1.28532E+00 +1.21377E+00
 +1.06231E+00 +1.62372E+00 +7.12678E-01 +1.98467E+00 +2.49965E-01 +2.25915E+00 -3.01663E-01 +2.41401E+00
 -9.08858E-01 +2.42336E+00 -1.53128E+00 +2.27091E+00 -2.12443E+00 +1.95182E+00 -2.64285E+00 +1.47360E+00
 -3.04356E+00 +8.56181E-01 -3.28941E+00 +1.31021E-01 -3.35214E+00 -6.60669E-01 -3.21489E+00 -1.47050E+00
 -2.87395E+00 -2.24612E+00 -2.33959E+00 -2.93483E+00 -1.63594E+00 -3.48733E+00 -7.99842E-01 -3.86144E+00
 +1.21346E-01 -4.02533E+00 +1.07267E+00 -3.96015E+00 +1.99524E+00 -3.66182E+00 +2.83022E+00 -3.14173E+00
 +3.52302E+00 -2.42645E+00 +4.02717E+00 -1.55618E+00 +4.30784E+00 -5.82307E-01 +4.34446E+00 +4.36027E-01
 +4.13246E+00 +1.43591E+00 +3.68384E+00 +2.35507E+00 +3.02645E+00 +3.13626E+00 +2.20222E+00 +3.73137E+00
 +1.26425E+00 +4.10491E+00 +2.72989E-01 +4.23660E+00 -7.08047E-01 +4.12281E+00 -1.61695E+00 +3.77679E+00
 -2.39789E+00 +3.22758E+00 -3.00522E+00 +2.51778E+00 -3.40671E+00 +1.70014E+00 -3.58583E+00 +8.33523E-01
 -3.54268E+00 -2.17114E-02 -3.29370E+00 -8.08391E-01 -2.87001E+00 -1.47692E+00 -2.31461E+00 -1.98904E+00
 -1.67860E+00 -2.32062E+00 -1.01675E+00 -2.46323E+00 -3.82847E-01 -2.42445E+00 +1.74838E-01 -2.22673E+00
 +6.17611E-01 -1.90504E+00 +9.19502E-01 -1.50341E+00 +1.06928E+00 -1.07074E+00 +1.07112E+00 -6.56160E-01
 +9.43933E-01 -3.04421E-01 +7.19267E-01 -5.16733E-02 +4.38109E-01 +7.79438E-02 +1.46773E-01 +7.46109E-02
 -1.07732E-01 -5.61908E-02 -2.82435E-01 -2.94133E-01 -3.42824E-01 -6.05905E-01 -2.66521E-01 -9.48339E-01
 -4.58795E-02 -1.27253E+00 +3.10755E-01 -1.52860E+00 +7.79273E-01 -1.67065E+00 +1.32153E+00 -1.66152E+00
 +1.88841E+00 -1.47680E+00 +2.42406E+00 -1.10787E+00 +2.87087E+00 -5.63469E-01 +3.17476E+00 +1.30152E-01
 +3.29032E+00 +9.30781E-01 +3.18546E+00 +1.78321E+00 +2.84487E+00 +2.62353E+00 +2.27221E+00 +3.38425E+00
 +1.49071E+00 +4.00004E+00 +5.42026E-01 +4.41331E+00 -5.16465E-01 +4.57945E+00 -1.61583E+00 +4.47098E+00
 -2.68085E+00 +4.08042E+00 -3.63588E+00 +3.42155E+00 -4.41098E+00 +2.52890E+00 -4.94764E+00 +1.45548E+00
 -5.20361E+00 +2.68971E-01 -5.15657E+00 -9.53358E-01 -4.80611E+00 -2.13062E+00 -4.17397E+00 -3.18458E+00
 -3.30248E+00 -4.04583E+00 -2.25126E+00 -4.65918E+00 -1.09251E+00 -4.98795E+00 +9.46728E-02 -5.01674E+00
 +1.23059E+00 -4.75241E+00 +2.24125E+00 -4.22327E+00 +3.06408E+00 -3.47641E+00 +3.65274E+00 -2.57364E+00
 +3.98039E+00 -1.58611E+00 +4.04142E+00 -5.88359E-01 +3.85120E+00 +3.47968E-01 +3.44420E+00 +1.15990E+00
 +2.87039E+00 +1.79817E+00 +2.19044E+00 +2.23087E+00 +1.47006E+00 +2.44559E+00 +7.74036E-01 +2.44975E+00
 +1.60469E-01 +2.26914E+00 -3.24252E-01 +1.94487E+00 -6.49307E-01 +1.52901E+00 -8.01805E-01 +1.07926E+00
 -7.87426E-01 +6.53236E-01 -6.29325E-01 +3.02851E-01 -3.65410E-01 +6.93255E-02 -4.42461E-02 -2.07431E-02
 +2.80009E-01 +4.21307E-02 +5.53174E-01 +2.49486E-01 +7.26595E-01 +5.75806E-01 +7.62162E-01 +9.81050E-01
 +6.36323E-01 +1.41459E+00 +3.42719E-01 +1.82016E+00 -1.06797E-01 +2.14146E+00 -6.82874E-01 +2.32768E+00
 -1.34104E+00 +2.33875E+00 -2.02551E+00 +2.14951E+00 -2.67419E+00 +1.75259E+00 -3.22420E+00 +1.15977E+00
 -3.61773E+00 +4.01488E-01 -3.80740E+00 -4.75277E-01 -3.76084E+00 -1.41068E+00 -3.46397E+00 -2.33686E+00
 -2.92275E+00 -3.18361E+00 -2.16316E+00 -3.88432E+00 -1.22945E+00 -4.38160E+00 -1.80789E-01 -4.63231E+00
 +9.13326E-01 -4.61129E+00 +1.97866E+00 -4.31363E+00 +2.94221E+00 -3.75524E+00 +3.73802E+00 -2.97166E+00
 +4.31251E+00 -2.01524E+00 +4.62868E+00 -9.50900E-01 +4.66891E+00 +1.49071E-01 +4.43612E+00 +1.21084E+00
 +3.95327E+00 +2.16488E+00 +3.26114E+00 +2.95138E+00 +2.41471E+00 +3.52476E+00 +1.47838E+00 +3.85692E+00
 +5.20591E-01 +3.93894E+00 -3.91821E-01 +3.78116E+00 -1.19896E+00 +3.41160E+00 -1.85248E+00 +2.87302E+00
 -2.31901E+00 +2.21869E+00 -2.58232E+00 +1.50753E+00 -2.64375E+00 +7.98840E-01 -2.52127E+00 +1.47255E-01
 -2.24701E+00 -4.01761E-01 -1.86369E+00 -8.15402E-01 -1.42024E+00 -1.07577E+00 -9.66952E-01 -1.18066E+00
 -5.50836E-01 -1.14296E+00 -2.11312E-01 -9.88609E-01 +2.31600E-02 -7.53455E-01 +1.37328E-01 -4.79329E-01
 +1.30086E-01 -2.09631E-01 +1.40338E-02 +1.50552E-02 -1.86255E-01 +1.60976E-01 -4.37064E-01 +2.04451E-01
 -6.99184E-01 +1.34076E-01 -9.32007E-01 -4.82961E-02 -1.09770E+00 -3.27877E-01 -1.16502E+00 -6.78494E-01
 -1.11249E+00 -1.06522E+00 -9.30595E-01 -1.44781E+00 -6.22788E-01 -1.78462E+00 -2.05335E-01 -2.03663E+00
 +2.94091E-01 -2.17117E+00 +8.38843E-01 -2.16514E+00 +1.38656E+00 -2.00719E+00 +1.89293E+00 -1.69896E+00
 +2.31562E+00 -1.25506E+00 +2.61799E+00 -7.01921E-01 +2.77230E+00 -7.56076E-02 +2.76214E+00 +5.81206E-01
 +2.58376E+00 +1.22280E+00 +2.24643E+00 +1.80418E+00 +1.77157E+00 +2.28479E+00 +1.19091E+00 +2.63170E+00
 +5.43834E-01 +2.82218E+00 -1.25886E-01 +2.84533E+00 -7.73632E-01 +2.70267E+00 -1.35745E+00 +2.40772E+00
 -1.84125E+00 +1.98458E+00 -2.19738E+00 +1.46574E+00 -2.40847E+00 +8.89178E-01 -2.46828E+00 +2.95278E-01
