 Created: 19-Jan-2021
 $NMID
 ID='D:\BASISSIMULATI'
 FMTDAT='(8E13.5)'
 VOLUME=   1.00000E+00
 TRAMP=   1.00000E+00
 $END
 +2.90733E+01 +2.49281E+00 +2.50513E+01 +1.43127E+01 +1.63824E+01 +2.30268E+01 +5.04971E+00 +2.69462E+01
 -6.45307E+00 +2.55291E+01 -1.57388E+01 +1.94591E+01 -2.10904E+01 +1.04120E+01 -2.18259E+01 +5.87664E-01
 -1.83801E+01 -7.86242E+00 -1.20970E+01 -1.33531E+01 -4.80728E+00 -1.51988E+01 +1.68444E+00 -1.36845E+01
 +6.05698E+00 -9.87719E+00 +7.75686E+00 -5.24703E+00 +7.04581E+00 -1.21891E+00 +4.81886E+00 +1.21696E+00
 +2.26351E+00 +1.73150E+00 +4.70377E-01 +6.70687E-01 +1.10627E-01 -1.12866E+00 +1.26754E+00 -2.65108E+00
 +3.45844E+00 -3.04123E+00 +5.82522E+00 -1.86794E+00 +7.42428E+00 +7.58019E-01 +7.52339E+00 +4.23595E+00
 +5.81797E+00 +7.66892E+00 +2.51000E+00 +1.01321E+01 -1.76252E+00 +1.09326E+01 -6.11299E+00 +9.78629E+00
 -9.64706E+00 +6.87039E+00 -1.16839E+01 +2.74738E+00 -1.18982E+01 -1.80319E+00 -1.03532E+01 -5.98758E+00
 -7.43085E+00 -9.17393E+00 -3.69441E+00 -1.09966E+01 +2.64618E-01 -1.13722E+01 +3.94778E+00 -1.04402E+01
 +7.00935E+00 -8.46494E+00 +9.25085E+00 -5.73998E+00 +1.05714E+01 -2.53092E+00 +1.09082E+01 +9.31364E-01
 +1.02029E+01 +4.41596E+00 +8.41054E+00 +7.64449E+00 +5.55341E+00 +1.02650E+01 +1.79186E+00 +1.18735E+01
 -2.52052E+00 +1.20892E+01 -6.83333E+00 +1.06666E+01 -1.04657E+01 +7.60858E+00 -1.27371E+01 +3.23648E+00
 -1.31330E+01 -1.81665E+00 -1.14563E+01 -6.70311E+00 -7.91750E+00 -1.05327E+01 -3.12631E+00 -1.25781E+01
 +2.02221E+00 -1.24586E+01 +6.54478E+00 -1.02462E+01 +9.60020E+00 -6.46079E+00 +1.06908E+01 -1.94906E+00
 +9.77829E+00 +2.32337E+00 +7.28011E+00 +5.51146E+00 +3.94587E+00 +7.09592E+00 +6.47962E-01 +6.99739E+00
 -1.85492E+00 +5.56809E+00 -3.11426E+00 +3.46501E+00 -3.09319E+00 +1.44250E+00 -2.14565E+00 +1.25695E-01
 -8.81897E-01 -1.69283E-01 +3.78080E-02 +4.83781E-01 +1.18837E-01 +1.66112E+00 -8.07499E-01 +2.73607E+00
 -2.52645E+00 +3.08778E+00 -4.50176E+00 +2.30828E+00 -6.03796E+00 +3.45552E-01 -6.49444E+00 -2.46036E+00
 -5.48756E+00 -5.45929E+00 -3.02121E+00 -7.86716E+00 +4.92922E-01 -8.98540E+00 +4.33107E+00 -8.40030E+00
 +7.64207E+00 -6.10536E+00 +9.66813E+00 -2.51268E+00 +9.94016E+00 +1.64849E+00 +8.39400E+00 +5.51622E+00
 +5.37815E+00 +8.31084E+00 +1.55432E+00 +9.52112E+00 -2.27765E+00 +9.01293E+00 -5.37979E+00 +7.03507E+00
 -7.24572E+00 +4.12710E+00 -7.69661E+00 +9.60849E-01 -6.88345E+00 -1.83643E+00 -5.20323E+00 -3.82726E+00
 -3.16070E+00 -4.84063E+00 -1.22011E+00 -4.96592E+00 +3.09431E-01 -4.47492E+00 +1.32517E+00 -3.70336E+00
 +1.91062E+00 -2.93236E+00 +2.25855E+00 -2.30705E+00 +2.56833E+00 -1.81432E+00 +2.95436E+00 -1.32153E+00
 +3.39622E+00 -6.57649E-01 +3.74551E+00 +2.94349E-01 +3.78466E+00 +1.52726E+00 +3.31568E+00 +2.88640E+00
 +2.24747E+00 +4.10163E+00 +6.51061E-01 +4.86442E+00 -1.23685E+00 +4.92477E+00 -3.06472E+00 +4.17635E+00
 -4.45658E+00 +2.70215E+00 -5.11451E+00 +7.65032E-01 -4.90192E+00 -1.25472E+00 -3.88231E+00 -2.95665E+00
 -2.30195E+00 -4.02345E+00 -5.21990E-01 -4.29994E+00 +1.07936E+00 -3.82523E+00 +2.20562E+00 -2.80988E+00
 +2.71297E+00 -1.56652E+00 +2.63404E+00 -4.16058E-01 +2.14955E+00 +4.02232E-01 +1.51884E+00 +7.90109E-01
 +9.92053E-01 +8.03278E-01 +7.31421E-01 +6.16158E-01 +7.65327E-01 +4.51595E-01 +9.87885E-01 +4.98784E-01
 +1.20251E+00 +8.45436E-01 +1.19446E+00 +1.44504E+00 +8.09021E-01 +2.12874E+00 +1.05736E-02 +2.65745E+00
 -1.09541E+00 +2.79767E+00 -2.28425E+00 +2.39763E+00 -3.27108E+00 +1.44072E+00 -3.78940E+00 +6.03107E-02
 -3.66619E+00 -1.48819E+00 -2.87212E+00 -2.88984E+00 -1.53302E+00 -3.84914E+00 +9.96920E-02 -4.16342E+00
 +1.71058E+00 -3.77093E+00 +2.99593E+00 -2.76160E+00 +3.73307E+00 -1.34965E+00 +3.82561E+00 +1.82699E-01
 +3.31448E+00 +1.55367E+00 +2.35496E+00 +2.54388E+00 +1.16881E+00 +3.03658E+00 -1.34194E-02 +3.02821E+00
 -1.00374E+00 +2.61017E+00 -1.68928E+00 +1.93076E+00 -2.04028E+00 +1.15008E+00 -2.09555E+00 +4.01614E-01
 -1.93348E+00 -2.30420E-01 -1.63982E+00 -7.14257E-01 -1.28265E+00 -1.05757E+00 -9.00857E-01 -1.28585E+00
 -5.07294E-01 -1.42142E+00 -1.02265E-01 -1.47081E+00 +3.09866E-01 -1.42396E+00 +7.08562E-01 -1.26405E+00
 +1.05464E+00 -9.82653E-01 +1.29847E+00 -5.93251E-01 +1.39550E+00 -1.36933E-01 +1.32314E+00 +3.22663E-01
 +1.09212E+00 +7.14064E-01 +7.47528E-01 +9.77441E-01 +3.58495E-01 +1.08208E+00 -7.31510E-04 +1.03550E+00
 -2.72086E-01 +8.80628E-01 -4.30260E-01 +6.81438E-01 -4.88720E-01 +5.01480E-01 -4.92733E-01 +3.82328E-01
 -5.01288E-01 +3.29261E-01 -5.63587E-01 +3.09374E-01 -6.97877E-01 +2.63396E-01 -8.79980E-01 +1.28003E-01
 -1.04608E+00 -1.38216E-01 -1.10997E+00 -5.33536E-01 -9.90298E-01 -1.00404E+00 -6.39980E-01 -1.45075E+00
 -6.86371E-02 -1.75217E+00 +6.49375E-01 -1.79688E+00 +1.38510E+00 -1.51715E+00 +1.98186E+00 -9.14178E-01
 +2.29260E+00 -6.68485E-02 +2.21818E+00 +8.79316E-01 +1.73633E+00 +1.74148E+00 +9.13055E-01 +2.34033E+00
 -1.07113E-01 +2.54232E+00 -1.13059E+00 +2.29280E+00 -1.95699E+00 +1.63133E+00 -2.42406E+00 +6.84985E-01
 -2.44443E+00 -3.58939E-01 -2.02509E+00 -1.29446E+00 -1.26504E+00 -1.94275E+00 -3.31648E-01 -2.19128E+00
 +5.78367E-01 -2.01705E+00 +1.28393E+00 -1.48866E+00 +1.65977E+00 -7.47046E-01 +1.66237E+00 +3.00998E-02
 +1.33576E+00 +6.71314E-01 +7.96312E-01 +1.05141E+00 +2.00665E-01 +1.11889E+00 -2.95072E-01 +9.04503E-01
 -5.74652E-01 +5.08988E-01 -5.89860E-01 +7.36784E-02 -3.70623E-01 -2.58707E-01 -1.46422E-02 -3.82991E-01
 +3.40772E-01 -2.60302E-01 +5.57512E-01 +7.07567E-02 +5.36222E-01 +5.03649E-01 +2.46310E-01 +8.92043E-01
 -2.61641E-01 +1.08971E+00 -8.64885E-01 +9.92119E-01 -1.39742E+00 +5.68998E-01 -1.69211E+00 -1.21083E-01
 -1.62581E+00 -9.38674E-01 -1.15600E+00 -1.69309E+00 -3.38975E-01 -2.18734E+00 +6.75746E-01 -2.26769E+00
 +1.67507E+00 -1.86574E+00 +2.42964E+00 -1.02196E+00 +2.74820E+00 +1.16199E-01 +2.52578E+00 +1.32228E+00
 +1.77369E+00 +2.33953E+00 +6.23139E-01 +2.93933E+00 -6.99703E-01 +2.97539E+00 -1.92199E+00 +2.42072E+00
 -2.78523E+00 +1.37757E+00 -3.10458E+00 +5.72359E-02 -2.81218E+00 -1.26616E+00 -1.97370E+00 -2.31736E+00
 -7.73747E-01 -2.88260E+00 +5.26751E-01 -2.85806E+00 +1.65108E+00 -2.27231E+00 +2.37061E+00 -1.27745E+00
 +2.55661E+00 -1.10912E-01 +2.20731E+00 +9.62429E-01 +1.44406E+00 +1.71371E+00 +4.77600E-01 +2.00341E+00
 -4.46627E-01 +1.81149E+00 -1.11043E+00 +1.23732E+00 -1.37645E+00 +4.69742E-01 -1.22003E+00 -2.64775E-01
 -7.31602E-01 -7.62452E-01 -8.93414E-02 -8.95619E-01 +4.90742E-01 -6.45586E-01 +8.14294E-01 -1.06661E-01
 +7.62368E-01 +5.39714E-01 +3.25548E-01 +1.07408E+00 -3.90477E-01 +1.29883E+00 -1.18961E+00 +1.09353E+00
 -1.83438E+00 +4.51465E-01 -2.10727E+00 -5.12165E-01 -1.86901E+00 -1.58301E+00 -1.09938E+00 -2.49615E+00
 +8.99361E-02 -2.99904E+00 +1.47410E+00 -2.91392E+00 +2.76143E+00 -2.18458E+00 +3.65692E+00 -8.96553E-01
 +3.92855E+00 +7.34460E-01 +3.46139E+00 +2.40354E+00 +2.28748E+00 +3.77796E+00 +5.84959E-01 +4.56584E+00
 -1.35341E+00 +4.57743E+00 -3.17564E+00 +3.76631E+00 -4.53836E+00 +2.24221E+00 -5.17355E+00 +2.53168E-01
 -4.94097E+00 -1.85923E+00 -3.85648E+00 -3.72256E+00 -2.09119E+00 -5.00235E+00 +5.82765E-02 -5.46393E+00
 +2.22259E+00 -5.01630E+00 +4.02612E+00 -3.72996E+00 +5.15495E+00 -1.82562E+00 +5.41434E+00 +3.64477E-01
 +4.76541E+00 +2.45603E+00 +3.33376E+00 +4.08276E+00 +1.38792E+00 +4.96455E+00 -7.09596E-01 +4.96116E+00
 -2.57068E+00 +4.10078E+00 -3.85716E+00 +2.57652E+00 -4.34914E+00 +7.09965E-01 -3.99171E+00 -1.11312E+00
 -2.90901E+00 -2.52330E+00 -1.38004E+00 -3.24804E+00 +2.21036E-01 -3.17467E+00 +1.50955E+00 -2.37998E+00
 +2.18214E+00 -1.11686E+00 +2.09443E+00 +2.42397E-01 +1.30439E+00 +1.29605E+00 +6.74752E-02 +1.71669E+00
 -1.21957E+00 +1.34379E+00 -2.11678E+00 +2.40130E-01 -2.25927E+00 -1.30611E+00 -1.46678E+00 -2.83961E+00
 +1.85443E-01 -3.84726E+00 +2.35752E+00 -3.89475E+00 +4.50622E+00 -2.75694E+00 +6.00800E+00 -5.06503E-01
 +6.31747E+00 +2.46715E+00 +5.12293E+00 +5.52095E+00 +2.45775E+00 +7.89510E+00 -1.26626E+00 +8.89529E+00
 -5.31977E+00 +8.07708E+00 -8.80405E+00 +5.38479E+00 -1.08562E+01 +1.20509E+00 -1.08633E+01 -3.68577E+00
 -8.63240E+00 -8.27600E+00 -4.46934E+00 -1.15423E+01 +8.59601E-01 -1.26919E+01 +6.28045E+00 -1.13636E+01
 +1.06476E+01 -7.73432E+00 +1.30081E+01 -2.50119E+00 +1.28302E+01 +3.26358E+00 +1.01376E+01 +8.35229E+00
 +5.51301E+00 +1.17004E+01 -3.29083E-02 +1.26359E+01 -5.29759E+00 +1.10359E+01 -9.17064E+00 +7.35202E+00
 -1.08950E+01 +2.49413E+00 -1.02398E+01 -2.39633E+00 -7.54072E+00 -6.22828E+00 -3.59919E+00 -8.22542E+00
 +5.34269E-01 -8.10617E+00 +3.83446E+00 -6.13356E+00 +5.56253E+00 -3.02390E+00 +5.44543E+00 +2.59974E-01
 +3.72813E+00 +2.77461E+00 +1.08661E+00 +3.84972E+00 -1.57272E+00 +3.26237E+00 -3.37155E+00 +1.28610E+00
 -3.70572E+00 -1.39617E+00 -2.41245E+00 -3.89004E+00 +1.85454E-01 -5.34317E+00 +3.36866E+00 -5.18510E+00
 +6.21797E+00 -3.28878E+00 +7.86401E+00 -1.13209E-02 +7.72249E+00 +3.89519E+00 +5.65238E+00 +7.47685E+00
 +1.99708E+00 +9.82207E+00 -2.49971E+00 +1.02914E+01 -6.87764E+00 +8.67418E+00 -1.01923E+01 +5.23367E+00
 -1.17352E+01 +6.35225E-01 -1.11870E+01 -4.21923E+00 -8.66873E+00 -8.40249E+00 -4.68819E+00 -1.11636E+01
 -1.94014E-03 -1.20710E+01 +4.56296E+00 -1.10689E+01 +8.27989E+00 -8.44316E+00 +1.06459E+01 -4.71949E+00
 +1.14353E+01 -5.28790E-01 +1.06848E+01 +3.52016E+00 +8.62974E+00 +6.93098E+00 +5.62127E+00 +9.36033E+00
 +2.05421E+00 +1.06148E+01 -1.67790E+00 +1.06238E+01 -5.19803E+00 +9.41122E+00 -8.14444E+00 +7.08531E+00
 -1.01732E+01 +3.84886E+00 -1.09825E+01 +2.03450E-02 -1.03647E+01 -3.95591E+00 -8.27751E+00 -7.53294E+00
 -4.90766E+00 -1.01306E+01 -6.99018E-01 -1.12472E+01 +3.68263E+00 -1.05887E+01 +7.45589E+00 -8.17837E+00
 +9.88695E+00 -4.40548E+00 +1.04722E+01 +1.55619E-02 +9.08895E+00 +4.18136E+00 +6.06399E+00 +7.20659E+00
 +2.12754E+00 +8.45175E+00 -1.74921E+00 +7.70773E+00 -4.59942E+00 +5.27812E+00 -5.72634E+00 +1.92416E+00
 -4.91351E+00 -1.32544E+00 -2.51282E+00 -3.45687E+00 +6.26711E-01 -3.77087E+00 +3.38220E+00 -2.11287E+00
 +4.67930E+00 +1.04037E+00 +3.82656E+00 +4.67548E+00 +7.63946E-01 +7.50581E+00 -3.85522E+00 +8.33970E+00
