 Created: 19-Jan-2021
 $NMID
 ID='D:\BASISSIMULATI'
 FMTDAT='(8E13.5)'
 VOLUME=   1.00000E+00
 TRAMP=   1.00000E+00
 $END
 +5.21195E+01 +7.95515E-01 +5.07990E+01 +9.88842E+00 +4.73990E+01 +1.84443E+01 +4.21057E+01 +2.60220E+01
 +3.52035E+01 +3.22385E+01 +2.70579E+01 +3.67895E+01 +1.80934E+01 +3.94663E+01 +8.76864E+00 +4.01657E+01
 -4.50163E-01 +3.88940E+01 -9.11572E+00 +3.57639E+01 -1.68242E+01 +3.09861E+01 -2.32368E+01 +2.48539E+01
 -2.80964E+01 +1.77246E+01 -3.12395E+01 +9.99706E+00 -3.26015E+01 +2.08726E+00 -3.22165E+01 -5.59562E+00
 -3.02109E+01 -1.26724E+01 -2.67918E+01 -1.88141E+01 -2.22312E+01 -2.37587E+01 -1.68470E+01 -2.73226E+01
 -1.09819E+01 -2.94072E+01 -4.98240E+00 -3.00004E+01 +8.22001E-01 -2.91720E+01 +6.13696E+00 -2.70652E+01
 +1.07185E+01 -2.38836E+01 +1.43843E+01 -1.98755E+01 +1.70205E+01 -1.53165E+01 +1.85835E+01 -1.04911E+01
 +1.90979E+01 -5.67515E+00 +1.86501E+01 -1.12001E+00 +1.73777E+01 +2.96090E+00 +1.54578E+01 +6.40221E+00
 +1.30920E+01 +9.09298E+00 +1.04919E+01 +1.09792E+01 +7.86444E+00 +1.20627E+01 +5.39894E+00 +1.23958E+01
 +3.25563E+00 +1.20742E+01 +1.55729E+00 +1.12268E+01 +3.83729E-01 +1.00042E+01 -2.30471E-01 +8.56631E+00
 -2.95100E-01 +7.07126E+00 +1.39444E-01 +5.66389E+00 +9.88375E-01 +4.46673E+00 +2.14063E+00 +3.57284E+00
 +3.46827E+00 +3.04111E+00 +4.83638E+00 +2.89420E+00 +6.11293E+00 +3.11899E+00 +7.17792E+00 +3.66951E+00
 +7.93114E+00 +4.47183E+00 +8.29840E+00 +5.43063E+00 +8.23562E+00 +6.43687E+00 +7.73094E+00 +7.37605E+00
 +6.80455E+00 +8.13641E+00 +5.50663E+00 +8.61676E+00 +3.91337E+00 +8.73330E+00 +2.12168E+00 +8.42517E+00
 +2.42661E-01 +7.65837E+00 -1.60545E+00 +6.42810E+00 -3.30463E+00 +4.75910E+00 -4.74418E+00 +2.70447E+00
 -5.82726E+00 +3.42724E-01 -6.47655E+00 -2.22646E+00 -6.63862E+00 -4.88764E+00 -6.28706E+00 -7.51576E+00
 -5.42402E+00 -9.98286E+00 -4.08023E+00 -1.21648E+01 -2.31357E+00 -1.39477E+01 -2.06162E-01 -1.52342E+01
 +2.13968E+00 -1.59483E+01 +4.60659E+00 -1.60398E+01 +7.06805E+00 -1.54869E+01 +9.39473E+00 -1.42980E+01
 +1.14611E+01 -1.25112E+01 +1.31518E+01 -1.01937E+01 +1.43676E+01 -7.43815E+00 +1.50311E+01 -4.35924E+00
 +1.50902E+01 -1.08809E+00 +1.45222E+01 +2.23361E+00 +1.33348E+01 +5.46040E+00 +1.15667E+01 +8.44994E+00
 +9.28600E+00 +1.10700E+01 +6.58791E+00 +1.32050E+01 +3.59001E+00 +1.47620E+01 +4.27067E-01 +1.56751E+01
 -2.75550E+00 +1.59096E+01 -5.80875E+00 +1.54635E+01 -8.58770E+00 +1.43683E+01 -1.09588E+01 +1.26872E+01
 -1.28067E+01 +1.05123E+01 -1.40408E+01 +7.96019E+00 -1.46000E+01 +5.16563E+00 -1.44561E+01 +2.27477E+00
 -1.36156E+01 -5.62635E-01 -1.21198E+01 -3.20117E+00 -1.00429E+01 -5.50758E+00 -7.48763E+00 -7.36799E+00
 -4.58074E+00 -8.69407E+00 -1.46558E+00 -9.42775E+00 +1.70525E+00 -9.54436E+00 +4.77830E+00 -9.05375E+00
 +7.60749E+00 -7.99949E+00 +1.00620E+01 -6.45614E+00 +1.20333E+01 -4.52465E+00 +1.34408E+01 -2.32633E+00
 +1.42360E+01 +4.47652E-03 +1.44043E+01 +2.32831E+00 +1.39655E+01 +4.50889E+00 +1.29717E+01 +6.42106E+00
 +1.15037E+01 +7.95803E+00 +9.66525E+00 +9.03744E+00 +7.57648E+00 +9.60578E+00 +5.36634E+00 +9.64114E+00
 +3.16451E+00 +9.15378E+00 +1.09356E+00 +8.18487E+00 -7.38317E-01 +6.80326E+00 -2.24350E+00 +5.10057E+00
 -3.35965E+00 +3.18494E+00 -4.05276E+00 +1.17391E+00 -4.31824E+00 -8.13174E-01 -4.18007E+00 -2.66274E+00
 -3.68819E+00 -4.27396E+00 -2.91414E+00 -5.56481E+00 -1.94548E+00 -6.47669E+00 -8.79210E-01 -6.97746E+00
 +1.85233E-01 -7.06264E+00 +1.15298E+00 -6.75478E+00 +1.94027E+00 -6.10105E+00 +2.48007E+00 -5.16920E+00
 +2.72640E+00 -4.04233E+00 +2.65720E+00 -2.81270E+00 +2.27539E+00 -1.57509E+00 +1.60826E+00 -4.20127E-01
 +7.05112E-01 +5.71910E-01 -3.66480E-01 +1.33647E+00 -1.52574E+00 +1.82891E+00 -2.68455E+00 +2.02722E+00
 -3.75374E+00 +1.93312E+00 -4.64943E+00 +1.57153E+00 -5.29896E+00 +9.88399E-01 -5.64596E+00 +2.47133E-01
 -5.65434E+00 -5.76151E-01 -5.31086E+00 -1.39821E+00 -4.62622E+00 -2.13469E+00 -3.63442E+00 -2.70624E+00
 -2.39072E+00 -3.04417E+00 -9.68129E-01 -3.09550E+00 +5.47267E-01 -2.82681E+00 +2.06177E+00 -2.22693E+00
 +3.48005E+00 -1.30807E+00 +4.71125E+00 -1.05465E-01 +5.67475E+00 +1.32451E+00 +6.30534E+00 +2.90752E+00
 +6.55740E+00 +4.55569E+00 +6.40786E+00 +6.17288E+00 +5.85780E+00 +7.66043E+00 +4.93256E+00 +8.92325E+00
 +3.68036E+00 +9.87555E+00 +2.16963E+00 +1.04462E+01 +4.84973E-01 +1.05832E+01 -1.27764E+00 +1.02568E+01
 -3.01647E+00 +9.46211E+00 -4.62992E+00 +8.21905E+00 -6.02239E+00 +6.57207E+00 -7.10983E+00 +4.58776E+00
 -7.82455E+00 +2.35150E+00 -8.11920E+00 -3.70609E-02 -7.96951E+00 -2.46926E+00 -7.37571E+00 -4.83319E+00
 -6.36264E+00 -7.01964E+00 -4.97842E+00 -8.92783E+00 -3.29189E+00 -1.04708E+01 -1.38884E+00 -1.15798E+01
 +6.32640E-01 -1.22079E+01 +2.66746E+00 -1.23324E+01 +4.60922E+00 -1.19555E+01 +6.35598E+00 -1.11045E+01
 +7.81563E+00 -9.82946E+00 +8.91089E+00 -8.20090E+00 +9.58329E+00 -6.30553E+00 +9.79624E+00 -4.24154E+00
 +9.53678E+00 -2.11327E+00 +8.81617E+00 -2.56054E-02 +7.66898E+00 +1.92158E+00 +6.15113E+00 +3.63860E+00
 +4.33658E+00 +5.05054E+00 +2.31326E+00 +6.10093E+00 +1.78152E-01 +6.75431E+00 -1.96801E+00 +6.99765E+00
 -4.02616E+00 +6.84044E+00 -5.90414E+00 +6.31354E+00 -7.52154E+00 +5.46680E+00 -8.81370E+00 +4.36572E+00
 -9.73484E+00 +3.08722E+00 -1.02600E+01 +1.71489E+00 -1.03857E+01 +3.33881E-01 -1.01297E+01 -9.74108E-01
 -9.52906E+00 -2.13556E+00 -8.63723E+00 -3.08926E+00 -7.52070E+00 -3.78962E+00 -6.25438E+00 -4.20894E+00
 -4.91696E+00 -4.33851E+00 -3.58601E+00 -4.18856E+00 -2.33338E+00 -3.78702E+00 -1.22101E+00 -3.17719E+00
 -2.97526E-01 -2.41445E+00 +4.04244E-01 -1.56238E+00 +8.68667E-01 -6.88303E-01 +1.09756E+00 +1.41208E-01
 +1.10932E+00 +8.64762E-01 +9.36936E-01 +1.43012E+00 +6.25123E-01 +1.79752E+00 +2.26737E-01 +1.94208E+00
 -2.01309E-01 +1.85521E+00 -6.02291E-01 +1.54493E+00 -9.23854E-01 +1.03502E+00 -1.12180E+00 +3.63183E-01
 -1.16328E+00 -4.21719E-01 -1.02911E+00 -1.26317E+00 -7.15231E-01 -2.10094E+00 -2.32932E-01 -2.87528E+00
 +3.91826E-01 -3.53098E+00 +1.12019E+00 -4.02119E+00 +1.90307E+00 -4.31053E+00 +2.68444E+00 -4.37753E+00
 +3.40522E+00 -4.21607E+00 +4.00726E+00 -3.83577E+00 +4.43736E+00 -3.26138E+00 +4.65091E+00 -2.53120E+00
 +4.61508E+00 -1.69451E+00 +4.31113E+00 -8.08431E-01 +3.73592E+00 +6.58002E-02 +2.90242E+00 +8.66793E-01
 +1.83914E+00 +1.53694E+00 +5.88669E-01 +2.02613E+00 -7.94705E-01 +2.29493E+00 -2.24807E+00 +2.31712E+00
 -3.70350E+00 +2.08141E+00 -5.09195E+00 +1.59217E+00 -6.34718E+00 +8.69259E-01 -7.40954E+00 -5.31485E-02
 -8.22931E+00 -1.12853E+00 -8.76943E+00 -2.30076E+00 -9.00751E+00 -3.50736E+00 -8.93694E+00 -4.68315E+00
 -8.56711E+00 -5.76402E+00 -7.92274E+00 -6.69052E+00 -7.04229E+00 -7.41131E+00 -5.97571E+00 -7.88597E+00
 -4.78153E+00 -8.08725E+00 -3.52352E+00 -8.00254E+00 -2.26718E+00 -7.63446E+00 -1.07611E+00 -7.00071E+00
 -8.57101E-03 -6.13295E+00 +8.85521E-01 -5.07503E+00 +1.56722E+00 -3.88058E+00 +2.01042E+00 -2.61000E+00
 +2.20310E+00 -1.32719E+00 +2.14764E+00 -9.61453E-02 +1.86049E+00 +1.02249E+00 +1.37099E+00 +1.97464E+00
 +7.19505E-01 +2.71556E+00 -4.50115E-02 +3.21223E+00 -8.67889E-01 +3.44494E+00 -1.69194E+00 +3.40829E+00
 -2.46078E+00 +3.11132E+00 -3.12205E+00 +2.57690E+00 -3.63049E+00 +1.84042E+00 -3.95052E+00 +9.47709E-01
 -4.05841E+00 -4.75582E-02 -3.94367E+00 -1.08690E+00 -3.60980E+00 -2.11034E+00 -3.07418E+00 -3.05985E+00
 -2.36719E+00 -3.88268E+00 -1.53060E+00 -4.53442E+00 -6.15201E-01 -4.98161E+00 +3.22063E-01 -5.20376E+00
 +1.22143E+00 -5.19466E+00 +2.02388E+00 -4.96282E+00 +2.67471E+00 -4.53108E+00 +3.12696E+00 -3.93533E+00
 +3.34448E+00 -3.22247E+00 +3.30438E+00 -2.44759E+00 +2.99877E+00 -1.67059E+00 +2.43563E+00 -9.52518E-01
 +1.63874E+00 -3.51621E-01 +6.46614E-01 +8.04366E-02 -4.89458E-01 +3.02077E-01 -1.70828E+00 +2.84753E-01
 -2.94226E+00 +1.51373E-02 -4.12144E+00 -5.03590E-01 -5.17778E+00 -1.25149E+00 -6.04941E+00 -2.19271E+00
 -6.68467E+00 -3.27733E+00 -7.04547E+00 -4.44422E+00 -7.10999E+00 -5.62472E+00 -6.87436E+00 -6.74688E+00
 -6.35311E+00 -7.74002E+00 -5.57863E+00 -8.53939E+00 -4.59927E+00 -9.09050E+00 -3.47644E+00 -9.35289E+00
 -2.28082E+00 -9.30312E+00 -1.08781E+00 -8.93658E+00 +2.73419E-02 -8.26824E+00 +9.94537E-01 -7.33200E+00
 +1.75350E+00 -6.17880E+00 +2.25789E+00 -4.87355E+00 +2.47852E+00 -3.49112E+00 +2.40543E+00 -2.11150E+00
 +2.04871E+00 -8.14644E-01 +1.43786E+00 +3.24814E-01 +6.19929E-01 +1.24252E+00 -3.43673E-01 +1.88871E+00
 -1.38139E+00 +2.23157E+00 -2.41646E+00 +2.25938E+00 -3.37226E+00 +1.98130E+00 -4.17773E+00 +1.42667E+00
 -4.77240E+00 +6.42985E-01 -5.11075E+00 -3.07528E-01 -5.16551E+00 -1.35227E+00 -4.92970E+00 -2.41347E+00
 -4.41724E+00 -3.41367E+00 -3.66202E+00 -4.28131E+00 -2.71562E+00 -4.95580E+00 -1.64367E+00 -5.39188E+00
 -5.21224E-01 -5.56284E+00 +5.72613E-01 -5.46241E+00 +1.56031E+00 -5.10519E+00 +2.37149E+00 -4.52550E+00
 +2.94799E+00 -3.77487E+00 +3.24809E+00 -2.91817E+00 +3.24948E+00 -2.02890E+00 +2.95095E+00 -1.18365E+00
 +2.37242E+00 -4.56528E-01 +1.55357E+00 +8.63773E-02 +5.50947E-01 +3.91877E-01 -5.66058E-01 +4.23638E-01
 -1.72022E+00 +1.64900E-01 -2.83200E+00 -3.80236E-01 -3.82517E+00 -1.18705E+00 -4.63223E+00 -2.21194E+00
 -5.19912E+00 -3.39552E+00 -5.48890E+00 -4.66685E+00 -5.48414E+00 -5.94852E+00 -5.18798E+00 -7.16204E+00
 -4.62353E+00 -8.23341E+00 -3.83191E+00 -9.09820E+00 -2.86907E+00 -9.70591E+00 -1.80143E+00 -1.00233E+01
 -7.01002E-01 -1.00362E+01 +3.59906E-01 -9.75037E+00 +1.31384E+00 -9.19042E+00 +2.10290E+00 -8.39759E+00
 +2.68257E+00 -7.42643E+00 +3.02452E+00 -6.34049E+00 +3.11806E+00 -5.20755E+00 +2.97025E+00 -4.09464E+00
 +2.60471E+00 -3.06333E+00 +2.05913E+00 -2.16556E+00 +1.38189E+00 -1.44036E+00 +6.27861E-01 -9.11696E-01
 -1.45997E-01 -5.87574E-01 -8.85180E-01 -4.60385E-01 -1.54173E+00 -5.08504E-01 -2.07766E+00 -6.98914E-01
 -2.46750E+00 -9.90643E-01 -2.69965E+00 -1.33871E+00 -2.77657E+00 -1.69822E+00 -2.71386E+00 -2.02831E+00
 -2.53819E+00 -2.29555E+00 -2.28443E+00 -2.47665E+00 -1.99215E+00 -2.56011E+00 -1.70181E+00 -2.54687E+00
 -1.45107E+00 -2.44977E+00 -1.27135E+00 -2.29201E+00 -1.18506E+00 -2.10474E+00 -1.20370E+00 -1.92394E+00
