 Created: 19-Jan-2021
 $NMID
 ID='D:\BASISSIMULATI'
 FMTDAT='(8E13.5)'
 VOLUME=   1.00000E+00
 TRAMP=   1.00000E+00
 $END
 +4.73016E+01 +8.13962E-01 +4.20810E+01 +2.85836E+00 +2.84535E+01 +4.83076E+00 +9.74512E+00 +6.77912E+00
 -9.56330E+00 +8.53810E+00 -2.49943E+01 +9.74211E+00 -3.32030E+01 +9.95979E+00 -3.27766E+01 +8.89974E+00
 -2.45010E+01 +6.60262E+00 -1.10449E+01 +3.53163E+00 +3.82892E+00 +5.05864E-01 +1.62895E+01 -1.52280E+00
 +2.34121E+01 -1.78652E+00 +2.38437E+01 -6.45188E-03 +1.80039E+01 +3.42842E+00 +7.80422E+00 +7.48999E+00
 -3.99594E+00 +1.07636E+01 -1.45849E+01 +1.18641E+01 -2.18122E+01 +9.89340E+00 -2.46317E+01 +4.78972E+00
 -2.31824E+01 -2.55556E+00 -1.85342E+01 -1.04738E+01 -1.22184E+01 -1.69558E+01 -5.71790E+00 -2.02304E+01
 -7.96152E-02 -1.93133E+01 +4.24762E+00 -1.43518E+01 +7.33379E+00 -6.64587E+00 +9.51728E+00 +1.67999E+00
 +1.11060E+01 +8.26943E+00 +1.21583E+01 +1.12240E+01 +1.24312E+01 +9.68256E+00 +1.15107E+01 +4.10997E+00
 +9.06611E+00 -3.80211E+00 +5.11789E+00 -1.16049E+01 +1.99394E-01 -1.68008E+01 -4.67056E+00 -1.75831E+01
 -8.21964E+00 -1.33858E+01 -9.29703E+00 -5.07468E+00 -7.27163E+00 +5.28170E+00 -2.31550E+00 +1.49980E+01
 +4.53665E+00 +2.15435E+01 +1.15930E+01 +2.32697E+01 +1.69314E+01 +1.98790E+01 +1.89285E+01 +1.24939E+01
 +1.67351E+01 +3.31151E+00 +1.05503E+01 -5.05343E+00 +1.60554E+00 -1.03354E+01 -8.14326E+00 -1.12660E+01
 -1.65296E+01 -7.91169E+00 -2.17476E+01 -1.60693E+00 -2.28147E+01 +5.48819E+00 -1.97947E+01 +1.10623E+01
 -1.37242E+01 +1.33496E+01 -6.27441E+00 +1.16382E+01 +7.38807E-01 +6.44015E+00 +5.84704E+00 -7.15445E-01
 +8.27765E+00 -7.79139E+00 +8.06687E+00 -1.28840E+01 +5.92417E+00 -1.47945E+01 +2.91385E+00 -1.33552E+01
 +7.33913E-02 -9.41646E+00 -1.90031E+00 -4.51446E+00 -2.79865E+00 -3.35414E-01 -2.84917E+00 +1.84229E+00
 -2.50329E+00 +1.54768E+00 -2.15993E+00 -7.66615E-01 -1.94094E+00 -3.92089E+00 -1.61173E+00 -6.44433E+00
 -6.82837E-01 -7.09983E+00 +1.34313E+00 -5.32076E+00 +4.67447E+00 -1.41437E+00 +9.00481E+00 +3.53449E+00
 +1.34623E+01 +8.02552E+00 +1.67799E+01 +1.06497E+01 +1.76537E+01 +1.05711E+01 +1.51854E+01 +7.82297E+00
 +9.26214E+00 +3.31827E+00 +7.34714E-01 -1.43202E+00 -8.68941E+00 -4.80302E+00 -1.68360E+01 -5.58673E+00
 -2.16409E+01 -3.39698E+00 -2.17498E+01 +1.18357E+00 -1.69592E+01 +6.76475E+00 -8.35279E+00 +1.15697E+01
 +1.92594E+00 +1.39838E+01 +1.12172E+01 +1.30586E+01 +1.70584E+01 +8.81356E+00 +1.78655E+01 +2.23982E+00
 +1.33848E+01 -4.99211E+00 +4.77786E+00 -1.10298E+01 -5.68780E+00 -1.43852E+01 -1.52578E+01 -1.43604E+01
 -2.14426E+01 -1.12269E+01 -2.26859E+01 -6.10704E+00 -1.87609E+01 -6.05035E-01 -1.07855E+01 +3.69182E+00
 -8.64227E-01 +5.68230E+00 +8.53145E+00 +5.04718E+00 +1.52528E+01 +2.28787E+00 +1.80332E+01 -1.49145E+00
 +1.67603E+01 -4.97563E+00 +1.23974E+01 -7.06946E+00 +6.59931E+00 -7.22652E+00 +1.15762E+00 -5.57418E+00
 -2.54266E+00 -2.80548E+00 -3.88927E+00 +1.12558E-01 -3.12867E+00 +2.30423E+00 -1.16537E+00 +3.29313E+00
 +8.38988E-01 +3.14597E+00 +1.91850E+00 +2.40609E+00 +1.64942E+00 +1.84568E+00 +2.73795E-01 +2.13086E+00
 -1.43496E+00 +3.52475E+00 -2.50954E+00 +5.74112E+00 -2.20311E+00 +8.00852E+00 -3.27864E-01 +9.33012E+00
 +2.60916E+00 +8.85321E+00 +5.53029E+00 +6.21942E+00 +7.13822E+00 +1.76765E+00 +6.37996E+00 -3.49319E+00
 +2.86614E+00 -8.14863E+00 -2.90311E+00 -1.08062E+01 -9.59570E+00 -1.05527E+01 -1.53877E+01 -7.28951E+00
 -1.84914E+01 -1.82995E+00 -1.77119E+01 +4.28949E+00 -1.28563E+01 +9.23665E+00 -4.85997E+00 +1.14270E+01
 +4.42094E+00 +1.00166E+01 +1.26989E+01 +5.18851E+00 +1.78876E+01 -1.86205E+00 +1.86911E+01 -9.24883E+00
 +1.49745E+01 -1.49304E+01 +7.80448E+00 -1.73022E+01 -8.51590E-01 -1.56656E+01 -8.67913E+00 -1.04321E+01
 -1.36584E+01 -3.00047E+00 -1.46070E+01 +4.65618E+00 -1.14693E+01 +1.05662E+01 -5.27625E+00 +1.33240E+01
 +2.19789E+00 +1.24734E+01 +8.96928E+00 +8.59776E+00 +1.34021E+01 +3.09784E+00 +1.46256E+01 -2.26644E+00
 +1.26970E+01 -5.92202E+00 +8.48101E+00 -6.94525E+00 +3.30544E+00 -5.30052E+00 -1.48220E+00 -1.78913E+00
 -4.90972E+00 +2.26340E+00 -6.60604E+00 +5.47116E+00 -6.80087E+00 +6.84656E+00 -6.12097E+00 +6.10427E+00
 -5.27349E+00 +3.71552E+00 -4.74014E+00 +7.02414E-01 -4.59574E+00 -1.75098E+00 -4.51415E+00 -2.73420E+00
 -3.95319E+00 -1.94179E+00 -2.44316E+00 +2.13536E-01 +1.36676E-01 +2.74554E+00 +3.40691E+00 +4.44870E+00
 +6.53218E+00 +4.34153E+00 +8.46077E+00 +2.04679E+00 +8.28689E+00 -2.02512E+00 +5.61309E+00 -6.75933E+00
 +7.81184E-01 -1.06678E+01 -5.12333E+00 -1.23667E+01 -1.05172E+01 -1.10464E+01 -1.37563E+01 -6.77803E+00
 -1.36359E+01 -5.49965E-01 -9.79897E+00 +5.98731E+00 -2.91557E+00 +1.09974E+01 +5.43626E+00 +1.30109E+01
 +1.31678E+01 +1.13832E+01 +1.82478E+01 +6.51295E+00 +1.92774E+01 -2.51567E-01 +1.58995E+01 -6.99445E+00
 +8.91975E+00 -1.17885E+01 +9.58975E-02 -1.32583E+01 -8.34316E+00 -1.09790E+01 -1.43110E+01 -5.59223E+00
 -1.64301E+01 +1.39514E+00 -1.43873E+01 +8.06272E+00 -8.97980E+00 +1.26401E+01 -1.84585E+00 +1.40095E+01
 +5.03103E+00 +1.19980E+01 +9.89078E+00 +7.37914E+00 +1.16686E+01 +1.59208E+00 +1.02352E+01 -3.72162E+00
 +6.34793E+00 -7.21584E+00 +1.34527E+00 -8.21562E+00 -3.30545E+00 -6.86053E+00 -6.45633E+00 -3.98315E+00
 -7.58384E+00 -7.76214E-01 -6.86383E+00 +1.63205E+00 -5.01026E+00 +2.54978E+00 -2.94934E+00 +1.91940E+00
 -1.45262E+00 +2.82777E-01 -8.60378E-01 -1.46459E+00 -9.90197E-01 -2.43698E+00 -1.25693E+00 -2.10797E+00
 -9.54213E-01 -5.20899E-01 +4.10637E-01 +1.71485E+00 +2.85625E+00 +3.64231E+00 +5.84419E+00 +4.31468E+00
 +8.41418E+00 +3.16729E+00 +9.50080E+00 +2.70654E-01 +8.32776E+00 -3.63033E+00 +4.74258E+00 -7.31541E+00
 -6.32215E-01 -9.46922E+00 -6.49957E+00 -9.12232E+00 -1.12262E+01 -6.00727E+00 -1.33246E+01 -7.06845E-01
 -1.19305E+01 +5.46465E+00 -7.12348E+00 +1.08208E+01 +2.33776E-02 +1.37986E+01 +7.69260E+00 +1.34377E+01
 +1.38102E+01 +9.69333E+00 +1.66323E+01 +3.48118E+00 +1.52577E+01 -3.56692E+00 +9.90957E+00 -9.56505E+00
 +1.89867E+00 -1.29159E+01 -6.72783E+00 -1.27700E+01 -1.37505E+01 -9.26262E+00 -1.73914E+01 -3.45907E+00
 -1.67982E+01 +2.97300E+00 -1.22594E+01 +8.26025E+00 -5.09278E+00 +1.10367E+01 +2.75318E+00 +1.07176E+01
 +9.26136E+00 +7.62613E+00 +1.29021E+01 +2.84238E+00 +1.30218E+01 -2.16654E+00 +9.95931E+00 -6.01225E+00
 +4.86913E+00 -7.79665E+00 -6.77021E-01 -7.34257E+00 -5.17777E+00 -5.17957E+00 -7.62492E+00 -2.30229E+00
 -7.73729E+00 +2.07404E-01 -5.94794E+00 +1.56175E+00 -3.16935E+00 +1.52232E+00 -4.30866E-01 +4.46011E-01
 +1.48120E+00 -8.87748E-01 +2.25942E+00 -1.60268E+00 +2.11452E+00 -1.08556E+00 +1.61739E+00 +7.49868E-01
 +1.41262E+00 +3.39235E+00 +1.91593E+00 +5.88657E+00 +3.11167E+00 +7.16326E+00 +4.52860E+00 +6.43539E+00
 +5.40722E+00 +3.52323E+00 +5.00113E+00 -1.00971E+00 +2.90391E+00 -5.96796E+00 -7.20759E-01 -9.85961E+00
 -5.09906E+00 -1.13570E+01 -9.02744E+00 -9.73782E+00 -1.12279E+01 -5.16176E+00 -1.07690E+01 +1.31378E+00
 -7.41440E+00 +7.99663E+00 -1.77653E+00 +1.30303E+01 +4.78941E+00 +1.49343E+01 +1.05341E+01 +1.30498E+01
 +1.38095E+01 +7.75457E+00 +1.35642E+01 +3.76681E-01 +9.68459E+00 -7.17078E+00 +3.07101E+00 -1.29264E+01
 -4.58294E+00 -1.54302E+01 -1.12508E+01 -1.41239E+01 -1.51406E+01 -9.48516E+00 -1.52022E+01 -2.86177E+00
 -1.14249E+01 +3.93785E+00 -4.83561E+00 +9.17026E+00 +2.79899E+00 +1.16385E+01 +9.47788E+00 +1.09890E+01
 +1.35267E+01 +7.74413E+00 +1.40498E+01 +3.07538E+00 +1.11431E+01 -1.59822E+00 +5.81521E+00 -5.05237E+00
 -3.50343E-01 -6.59962E+00 -5.67869E+00 -6.23047E+00 -8.88300E+00 -4.52267E+00 -9.39611E+00 -2.36547E+00
 -7.46362E+00 -6.04671E-01 -3.98598E+00 +2.63867E-01 -1.75802E-01 +2.46553E-01 +2.84854E+00 -1.98015E-01
 +4.39897E+00 -3.86913E-01 +4.37968E+00 +2.69483E-01 +3.23476E+00 +1.98048E+00 +1.71496E+00 +4.42918E+00
 +5.56752E-01 +6.82940E+00 +1.93119E-01 +8.17569E+00 +5.99662E-01 +7.60673E+00 +1.32848E+00 +4.75811E+00
 +1.71362E+00 -2.26417E-02 +1.16948E+00 -5.68585E+00 -5.30872E-01 -1.07295E+01 -3.10516E+00 -1.36251E+01
 -5.80294E+00 -1.32924E+01 -7.63463E+00 -9.47475E+00 -7.71690E+00 -2.88871E+00 -5.61704E+00 +4.91122E+00
 -1.57309E+00 +1.19265E+01 +3.49778E+00 +1.62593E+01 +8.22221E+00 +1.66509E+01 +1.11673E+01 +1.28543E+01
 +1.12917E+01 +5.72837E+00 +8.30696E+00 -2.97828E+00 +2.82701E+00 -1.10941E+01 -3.75478E+00 -1.66078E+01
 -9.63623E+00 -1.82018E+01 -1.31212E+01 -1.55852E+01 -1.31257E+01 -9.53693E+00 -9.51920E+00 -1.65704E+00
 -3.19276E+00 +6.09352E+00 +4.17399E+00 +1.19240E+01 +1.05835E+01 +1.46629E+01 +1.42906E+01 +1.40042E+01
 +1.43035E+01 +1.04959E+01 +1.06659E+01 +5.29771E+00 +4.43594E+00 -2.00628E-01 -2.63016E+00 -4.77439E+00
 -8.59403E+00 -7.65309E+00 -1.18942E+01 -8.63080E+00 -1.17819E+01 -7.98835E+00 -8.50695E+00 -6.28121E+00
 -3.20330E+00 -4.08602E+00 +2.48108E+00 -1.80350E+00 +6.89240E+00 +4.15354E-01 +8.85822E+00 +2.60573E+00
 +8.00722E+00 +4.83016E+00 +4.83084E+00 +7.00435E+00 +4.78888E-01 +8.79459E+00 -3.63585E+00 +9.64584E+00
 -6.29238E+00 +8.94793E+00 -6.83014E+00 +6.28929E+00 -5.31890E+00 +1.70587E+00 -2.48489E+00 -4.17781E+00
 +5.72156E-01 -1.01905E+01 +2.76993E+00 -1.48572E+01 +3.40983E+00 -1.67904E+01 +2.39822E+00 -1.51206E+01
 +2.53693E-01 -9.82969E+00 -2.09606E+00 -1.86877E+00 -3.65400E+00 +6.99950E+00 -3.71236E+00 +1.46129E+01
 -2.10765E+00 +1.89737E+01 +7.13875E-01 +1.88080E+01 +3.84188E+00 +1.39571E+01 +6.20935E+00 +5.47608E+00
 +6.95786E+00 -4.60004E+00 +5.73782E+00 -1.37705E+01 +2.84212E+00 -1.97241E+01 -8.73097E-01 -2.09534E+01
 -4.25642E+00 -1.71562E+01 -6.23104E+00 -9.30890E+00 -6.14600E+00 +6.07021E-01 -3.99355E+00 +1.01453E+01
 -4.21162E-01 +1.70480E+01 +3.46696E+00 +1.98256E+01 +6.45525E+00 +1.81060E+01 +7.59813E+00 +1.26628E+01
 +6.51512E+00 +5.13073E+00 +3.50569E+00 -2.49393E+00 -5.51335E-01 -8.41455E+00 -4.47936E+00 -1.14910E+01
 -7.17427E+00 -1.14691E+01 -7.94360E+00 -8.93348E+00 -6.70669E+00 -5.02348E+00 -3.99456E+00 -1.01958E+00
 -7.54533E-01 +2.05882E+00 +1.97218E+00 +3.71779E+00 +3.39120E+00 +4.04340E+00 +3.20167E+00 +3.54872E+00
 +1.66973E+00 +2.88590E+00 -4.91027E-01 +2.53837E+00 -2.38709E+00 +2.60971E+00 -3.26627E+00 +2.78659E+00
