 Created: 19-Jan-2021
 $NMID
 ID='D:\BASISSIMULATI'
 FMTDAT='(8E13.5)'
 VOLUME=   1.00000E+00
 TRAMP=   1.00000E+00
 $END
 +3.35288E+01 +1.11637E+00 +2.98366E+01 +1.45458E+01 +2.06518E+01 +2.48278E+01 +8.07645E+00 +2.98194E+01
 -5.04222E+00 +2.86222E+01 -1.57913E+01 +2.17805E+01 -2.18807E+01 +1.11322E+01 -2.21744E+01 -6.48349E-01
 -1.69382E+01 -1.07006E+01 -7.74736E+00 -1.66625E+01 +2.91696E+00 -1.72240E+01 +1.22815E+01 -1.24175E+01
 +1.79517E+01 -3.58090E+00 +1.84780E+01 +6.99098E+00 +1.36826E+01 +1.66171E+01 +4.67464E+00 +2.28789E+01
 -6.44228E+00 +2.41910E+01 -1.70920E+01 +2.01572E+01 -2.48453E+01 +1.16350E+01 -2.79852E+01 +4.99507E-01
 -2.58865E+01 -1.08247E+01 -1.91232E+01 -1.99450E+01 -9.29005E+00 -2.50530E+01 +1.40810E+00 -2.53162E+01
 +1.06929E+01 -2.10243E+01 +1.67407E+01 -1.34642E+01 +1.85771E+01 -4.56873E+00 +1.62526E+01 +3.56894E+00
 +1.07661E+01 +9.19033E+00 +3.77120E+00 +1.12597E+01 -2.85458E+00 +9.65793E+00 -7.46606E+00 +5.14850E+00
 -9.02212E+00 -8.63178E-01 -7.28997E+00 -6.70565E+00 -2.84425E+00 -1.08544E+01 +3.12434E+00 -1.22808E+01
 +9.13182E+00 -1.06588E+01 +1.37682E+01 -6.39015E+00 +1.60184E+01 -4.57121E-01 +1.54642E+01 +5.84879E+00
 +1.23292E+01 +1.12467E+01 +7.37023E+00 +1.47542E+01 +1.65532E+00 +1.58778E+01 -3.70706E+00 +1.46703E+01
 -7.81835E+00 +1.16544E+01 -1.01616E+01 +7.64742E+00 -1.06626E+01 +3.53854E+00 -9.63888E+00 +8.02968E-02
 -7.66450E+00 -2.25788E+00 -5.39392E+00 -3.34616E+00 -3.39621E+00 -3.35985E+00 -2.03878E+00 -2.67660E+00
 -1.44287E+00 -1.74257E+00 -1.51021E+00 -9.47856E-01 -2.00084E+00 -5.42812E-01 -2.63125E+00 -6.10718E-01
 -3.16057E+00 -1.09353E+00 -3.44154E+00 -1.85217E+00 -3.42738E+00 -2.73489E+00 -3.14155E+00 -3.62886E+00
 -2.62893E+00 -4.47912E+00 -1.91160E+00 -5.27269E+00 -9.68347E-01 -5.99937E+00 +2.53108E-01 -6.60865E+00
 +1.79562E+00 -6.98428E+00 +3.63977E+00 -6.95096E+00 +5.66067E+00 -6.31638E+00 +7.61513E+00 -4.93802E+00
 +9.17061E+00 -2.79384E+00 +9.97431E+00 -3.18479E-02 +9.74657E+00 +3.02264E+00 +8.37252E+00 +5.91188E+00
 +5.96361E+00 +8.13733E+00 +2.86619E+00 +9.27765E+00 -3.92156E-01 +9.10246E+00 -3.21095E+00 +7.64965E+00
 -5.05563E+00 +5.24094E+00 -5.59247E+00 +2.42586E+00 -4.78325E+00 -1.37158E-01 -2.91168E+00 -1.83605E+00
 -5.30182E-01 -2.25885E+00 +1.66453E+00 -1.30599E+00 +2.99889E+00 +7.69906E-01 +2.99257E+00 +3.41075E+00
 +1.48836E+00 +5.87844E+00 -1.29300E+00 +7.43076E+00 -4.78943E+00 +7.50574E+00 -8.21992E+00 +5.86853E+00
 -1.07651E+01 +2.68339E+00 -1.17630E+01 -1.50948E+00 -1.08723E+01 -5.90867E+00 -8.16286E+00 -9.63218E+00
 -4.10894E+00 -1.19209E+01 +5.12841E-01 -1.23162E+01 +4.79910E+00 -1.07686E+01 +7.92604E+00 -7.65011E+00
 +9.33777E+00 -3.66823E+00 +8.87125E+00 +2.99486E-01 +6.78837E+00 +3.40959E+00 +3.70774E+00 +5.04723E+00
 +4.53453E-01 +4.96458E+00 -2.14267E+00 +3.33086E+00 -3.43745E+00 +6.83151E-01 -3.12488E+00 -2.20900E+00
 -1.30213E+00 -4.53144E+00 +1.56100E+00 -5.62033E+00 +4.74020E+00 -5.11774E+00 +7.43240E+00 -3.05180E+00
 +8.94634E+00 +1.75644E-01 +8.86254E+00 +3.88890E+00 +7.12590E+00 +7.29977E+00 +4.05098E+00 +9.69080E+00
 +2.41561E-01 +1.05768E+01 -3.55398E+00 +9.80755E+00 -6.61534E+00 +7.58989E+00 -8.40977E+00 +4.42698E+00
 -8.70172E+00 +9.92571E-01 -7.58947E+00 -2.02792E+00 -5.46361E+00 -4.09089E+00 -2.90090E+00 -4.90722E+00
 -5.21604E-01 -4.49024E+00 +1.15459E+00 -3.13120E+00 +1.82040E+00 -1.31236E+00 +1.43643E+00 +4.18519E-01
 +2.20946E-01 +1.58044E+00 -1.41947E+00 +1.86704E+00 -2.99830E+00 +1.20647E+00 -4.06847E+00 -2.37464E-01
 -4.32406E+00 -2.11888E+00 -3.66195E+00 -4.00167E+00 -2.19212E+00 -5.46530E+00 -1.98155E-01 -6.19877E+00
 +1.93865E+00 -6.06192E+00 +3.83089E+00 -5.10262E+00 +5.16960E+00 -3.52984E+00 +5.78285E+00 -1.65311E+00
 +5.65745E+00 +1.94327E-01 +4.92242E+00 +1.72886E+00 +3.80271E+00 +2.76986E+00 +2.55722E+00 +3.26280E+00
 +1.41792E+00 +3.27055E+00 +5.44200E-01 +2.93912E+00 +1.35089E-03 +2.44970E+00 -2.35269E-01 +1.97062E+00
 -2.55397E-01 +1.62093E+00 -1.77943E-01 +1.45296E+00 -1.15043E-01 +1.45484E+00 -1.45417E-01 +1.56878E+00
 -3.02385E-01 +1.71720E+00 -5.76917E-01 +1.82799E+00 -9.31706E-01 +1.85173E+00 -1.31963E+00 +1.76750E+00
 -1.69965E+00 +1.57787E+00 -2.04525E+00 +1.29726E+00 -2.34357E+00 +9.39496E-01 -2.58737E+00 +5.09945E-01
 -2.76416E+00 +5.62483E-03 -2.84814E+00 -5.76940E-01 -2.79934E+00 -1.22926E+00 -2.57166E+00 -1.91915E+00
 -2.12820E+00 -2.58518E+00 -1.45931E+00 -3.14117E+00 -5.97116E-01 -3.49122E+00 +3.79334E-01 -3.55243E+00
 +1.35174E+00 -3.27930E+00 +2.18299E+00 -2.68257E+00 +2.74630E+00 -1.83615E+00 +2.95588E+00 -8.68491E-01
 +2.79097E+00 +6.11597E-02 +2.30609E+00 +7.96655E-01 +1.62331E+00 +1.22118E+00 +9.07390E-01 +1.28648E+00
 +3.28659E-01 +1.02713E+00 +2.24721E-02 +5.55173E-01 +5.52044E-02 +3.55451E-02 +4.05672E-01 -3.52750E-01
 +9.67310E-01 -4.60487E-01 +1.57141E+00 -2.06508E-01 +2.02646E+00 +3.99236E-01 +2.16448E+00 +1.25406E+00
 +1.88317E+00 +2.18335E+00 +1.17366E+00 +2.97939E+00 +1.26633E-01 +3.44923E+00 -1.08487E+00 +3.46019E+00
 -2.24239E+00 +2.97241E+00 -3.13014E+00 +2.05018E+00 -3.58309E+00 +8.49601E-01 -3.52385E+00 -4.14921E-01
 -2.97961E+00 -1.51743E+00 -2.07557E+00 -2.26964E+00 -1.00625E+00 -2.56126E+00 +8.24730E-03 -2.38233E+00
 +7.71003E-01 -1.82267E+00 +1.15086E+00 -1.04905E+00 +1.10924E+00 -2.65660E-01 +7.05537E-01 +3.32766E-01
 +8.04126E-02 +6.04464E-01 -5.78669E-01 +4.91011E-01 -1.08141E+00 +2.81692E-02 -1.27805E+00 -6.64645E-01
 -1.09243E+00 -1.41326E+00 -5.37890E-01 -2.02903E+00 +2.87124E-01 -2.35118E+00 +1.22192E+00 -2.28191E+00
 +2.07933E+00 -1.80691E+00 +2.68625E+00 -9.97229E-01 +2.91993E+00 +7.02155E-03 +2.73265E+00 +1.02711E+00
 +2.15984E+00 +1.88324E+00 +1.31080E+00 +2.43110E+00 +3.44459E-01 +2.58987E+00 -5.64062E-01 +2.35628E+00
 -1.25895E+00 +1.80238E+00 -1.63400E+00 +1.05821E+00 -1.65173E+00 +2.83529E-01 -1.34802E+00 -3.65507E-01
 -8.21875E-01 -7.67573E-01 -2.12908E-01 -8.59443E-01 +3.28642E-01 -6.46830E-01 +6.73118E-01 -2.01097E-01
 +7.37781E-01 +3.57138E-01 +5.03186E-01 +8.83990E-01 +1.65656E-02 +1.24258E+00 -6.18270E-01 +1.33166E+00
 -1.26242E+00 +1.10685E+00 -1.77049E+00 +5.90499E-01 -2.02073E+00 -1.31948E-01 -1.94066E+00 -9.28422E-01
 -1.52313E+00 -1.64638E+00 -8.29324E-01 -2.14361E+00 +2.20106E-02 -2.31759E+00 +8.77392E-01 -2.12736E+00
 +1.57911E+00 -1.60345E+00 +1.99737E+00 -8.43205E-01 +2.05756E+00 +7.74853E-03 +1.75674E+00 +7.84575E-01
 +1.16561E+00 +1.33716E+00 +4.15002E-01 +1.56184E+00 -3.30766E-01 +1.42423E+00 -9.08465E-01 +9.67763E-01
 -1.19131E+00 +3.05824E-01 -1.11744E+00 -4.01649E-01 -7.05053E-01 -9.82433E-01 -5.04123E-02 -1.29010E+00
 +6.91608E-01 -1.23763E+00 +1.34065E+00 -8.18894E-01 +1.73089E+00 -1.12826E-01 +1.74926E+00 +7.31468E-01
 +1.36317E+00 +1.52591E+00 +6.31020E-01 +2.08466E+00 -3.07356E-01 +2.26636E+00 -1.25918E+00 +2.00788E+00
 -2.02020E+00 +1.34162E+00 -2.42030E+00 +3.91774E-01 -2.36299E+00 -6.50379E-01 -1.84960E+00 -1.56721E+00
 -9.81986E-01 -2.16284E+00 +5.73742E-02 -2.30787E+00 +1.04437E+00 -1.97034E+00 +1.76279E+00 -1.22544E+00
 +2.05356E+00 -2.41043E-01 +1.85220E+00 +7.58305E-01 +1.20567E+00 +1.54141E+00 +2.64138E-01 +1.92323E+00
 -7.51309E-01 +1.80847E+00 -1.59801E+00 +1.21558E+00 -2.06730E+00 +2.75138E-01 -2.03364E+00 -7.97749E-01
 -1.48570E+00 -1.75117E+00 -5.31771E-01 -2.35385E+00 +6.22309E-01 -2.44915E+00 +1.71831E+00 -1.99309E+00
 +2.50383E+00 -1.06716E+00 +2.79051E+00 +1.37535E-01 +2.49854E+00 +1.36164E+00 +1.67716E+00 +2.33553E+00
 +4.95809E-01 +2.84057E+00 -7.92434E-01 +2.75978E+00 -1.90716E+00 +2.10588E+00 -2.60392E+00 +1.02003E+00
 -2.72999E+00 -2.58830E-01 -2.25981E+00 -1.44725E+00 -1.30160E+00 -2.28120E+00 -7.35580E-02 -2.57593E+00
 +1.14512E+00 -2.26810E+00 +2.07732E+00 -1.43039E+00 +2.51064E+00 -2.55226E-01 +2.34541E+00 +9.88673E-01
 +1.61706E+00 +2.01700E+00 +4.87887E-01 +2.59390E+00 -7.89769E-01 +2.58473E+00 -1.93036E+00 +1.98582E+00
 -2.67897E+00 +9.24513E-01 -2.86762E+00 -3.69968E-01 -2.45161E+00 -1.61801E+00 -1.51805E+00 -2.55150E+00
 -2.65225E-01 -2.97222E+00 +1.04208E+00 -2.79383E+00 +2.13071E+00 -2.05858E+00 +2.77784E+00 -9.25878E-01
 +2.85729E+00 +3.64151E-01 +2.36394E+00 +1.54323E+00 +1.41175E+00 +2.37194E+00 +2.06822E-01 +2.68879E+00
 -9.97851E-01 +2.44134E+00 -1.95558E+00 +1.69368E+00 -2.47592E+00 +6.09878E-01 -2.46119E+00 -5.82208E-01
 -1.92304E+00 -1.63826E+00 -9.76793E-01 -2.34616E+00 +1.84121E-01 -2.56632E+00 +1.32757E+00 -2.25649E+00
 +2.22786E+00 -1.47732E+00 +2.70796E+00 -3.78577E-01 +2.67144E+00 +8.30326E-01 +2.11901E+00 +1.91963E+00
 +1.14751E+00 +2.68121E+00 -6.78323E-02 +2.96603E+00 -1.30454E+00 +2.71117E+00 -2.33218E+00 +1.95210E+00
 -2.95355E+00 +8.18168E-01 -3.04103E+00 -4.88054E-01 -2.56225E+00 -1.72492E+00 -1.59004E+00 -2.65425E+00
 -2.94367E-01 -3.08567E+00 +1.08414E+00 -2.91511E+00 +2.27556E+00 -2.15014E+00 +3.03102E+00 -9.16187E-01
 +3.17324E+00 +5.59575E-01 +2.63745E+00 +1.98585E+00 +1.49348E+00 +3.06123E+00 -5.76689E-02 +3.53538E+00
 -1.71485E+00 +3.26533E+00 -3.13183E+00 +2.25459E+00 -3.98726E+00 +6.64522E-01 -4.05561E+00 -1.20724E+00
 -3.26386E+00 -2.98005E+00 -1.71953E+00 -4.26655E+00 +2.98682E-01 -4.75704E+00 +2.38935E+00 -4.29360E+00
 +4.10809E+00 -2.91635E+00 +5.06340E+00 -8.68633E-01 +5.00777E+00 +1.44332E+00 +3.90274E+00 +3.53065E+00
 +1.94097E+00 +4.92661E+00 -4.82999E-01 +5.29339E+00 -2.85015E+00 +4.50627E+00 -4.62776E+00 +2.69426E+00
 -5.39006E+00 +2.24709E-01 -4.92113E+00 -2.36775E+00 -3.27523E+00 -4.49482E+00 -7.77914E-01 -5.64665E+00
 +2.03538E+00 -5.51249E+00 +4.53230E+00 -4.06136E+00 +6.12419E+00 -1.56185E+00 +6.40296E+00 +1.46635E+00
 +5.24213E+00 +4.36099E+00 +2.83702E+00 +6.46310E+00 -3.27677E-01 +7.26770E+00 -3.57815E+00 +6.54456E+00
 -6.19870E+00 +4.39993E+00 -7.59333E+00 +1.26287E+00 -7.42477E+00 -2.20292E+00 -5.69808E+00 -5.24356E+00
 -2.76792E+00 -7.18399E+00 +7.33939E-01 -7.58294E+00 +4.03624E+00 -6.33799E+00 +6.40055E+00 -3.71534E+00
 +7.28946E+00 -2.95906E-01 +6.49182E+00 +3.15123E+00 +4.17572E+00 +5.84048E+00 +8.55885E-01 +7.14766E+00
 -2.71825E+00 +6.75370E+00 -5.72915E+00 +4.72082E+00 -7.47515E+00 +1.48319E+00 -7.53010E+00 -2.24678E+00
