 Created: 19-Jan-2021
 $NMID
 ID='D:\BASISSIMULATI'
 FMTDAT='(8E13.5)'
 VOLUME=   1.00000E+00
 TRAMP=   1.00000E+00
 $END
 +1.57528E+02 +6.37097E-01 +1.52757E+02 +3.59377E+01 +1.39415E+02 +6.88048E+01 +1.18470E+02 +9.70954E+01
 +9.14289E+01 +1.19014E+02 +6.02170E+01 +1.33247E+02 +2.70300E+01 +1.39056E+02 -5.83589E+00 +1.36326E+02
 -3.61603E+01 +1.25568E+02 -6.19669E+01 +1.07867E+02 -8.16702E+01 +8.47929E+01 -9.41903E+01 +5.82634E+01
 -9.90256E+01 +3.03929E+01 -9.62789E+01 +3.32106E+00 -8.66344E+01 -2.09560E+01 -7.12889E+01 -4.07402E+01
 -5.18429E+01 -5.47594E+01 -3.01606E+01 -6.22588E+01 -8.21134E+00 -6.30483E+01 +1.20948E+01 -5.75029E+01
 +2.90641E+01 -4.65168E+01 +4.13546E+01 -3.14152E+01 +4.80813E+01 -1.38315E+01 +4.88799E+01 +4.43918E+00
 +4.39268E+01 +2.15971E+01 +3.39124E+01 +3.59942E+01 +1.99718E+01 +4.62744E+01 +3.57774E+00 +5.14877E+01
 -1.35940E+01 +5.11679E+01 -2.98148E+01 +4.53684E+01 -4.34571E+01 +3.46524E+01 -5.31387E+01 +2.00393E+01
 -5.78443E+01 +2.91240E+00 -5.70153E+01 -1.51052E+01 -5.05998E+01 -3.22947E+01 -3.90582E+01 -4.69939E+01
 -2.33251E+01 -5.77445E+01 -4.72977E+00 -6.34223E+01 +1.51179E+01 -6.33385E+01 +3.44653E+01 -5.73039E+01
 +5.15686E+01 -4.56507E+01 +6.48439E+01 -2.92093E+01 +7.30054E+01 -9.24274E+00 +7.51798E+01 +1.26564E+01
 +7.09858E+01 +3.46977E+01 +6.05721E+01 +5.50427E+01 +4.46124E+01 +7.19590E+01 +2.42543E+01 +8.39678E+01
 +1.02963E+00 +8.99700E+01 -2.32694E+01 +8.93429E+01 -4.67358E+01 +8.19962E+01 -6.75042E+01 +6.83856E+01
 -8.39052E+01 +4.94802E+01 -9.46044E+01 +2.66876E+01 -9.87146E+01 +1.74196E+00 -9.58716E+01 -2.34355E+01
 -8.62676E+01 -4.68918E+01 -7.06392E+01 -6.68017E+01 -5.02100E+01 -8.16169E+01 -2.65940E+01 -9.01936E+01
 -1.66538E+00 -9.18874E+01 +2.25924E+01 -8.66073E+01 +4.42479E+01 -7.48256E+01 +6.15783E+01 -5.75408E+01
 +7.32107E+01 -3.61984E+01 +7.82343E+01 -1.25739E+01 +7.62752E+01 +1.13700E+01 +6.75286E+01 +3.36431E+01
 +5.27435E+01 +5.23888E+01 +3.31635E+01 +6.60359E+01 +1.04261E+01 +7.34256E+01 -1.35688E+01 +7.39072E+01
 -3.68128E+01 +6.73912E+01 -5.73515E+01 +5.43575E+01 -7.34424E+01 +3.58173E+01 -8.36961E+01 +1.32320E+01
 -8.71886E+01 -1.16041E+01 -8.35356E+01 -3.67080E+01 -7.29241E+01 -6.00680E+01 -5.60968E+01 -7.98041E+01
 -3.42921E+01 -9.43197E+01 -9.14418E+00 -1.02428E+02 +1.74480E+01 -1.03446E+02 +4.34735E+01 -9.72475E+01
 +6.69698E+01 -8.42718E+01 +8.61789E+01 -6.54843E+01 +9.96862E+01 -4.22978E+01 +1.06531E+02 -1.64568E+01
 +1.06277E+02 +1.01045E+01 +9.90475E+01 +3.54174E+01 +8.55041E+01 +5.76365E+01 +6.67917E+01 +7.51858E+01
 +4.44393E+01 +8.68815E+01 +2.02330E+01 +9.20219E+01 -3.93229E+00 +9.04374E+01 -2.62070E+01 +8.24963E+01
 -4.49367E+01 +6.90667E+01 -5.87941E+01 +5.14376E+01 -6.68824E+01 +3.12064E+01 -6.88018E+01 +1.01420E+01
 -6.46752E+01 -9.96433E+00 -5.51287E+01 -2.74490E+01 -4.12310E+01 -4.09134E+01 -2.43970E+01 -4.93377E+01
 -6.26226E+00 -5.21621E+01 +1.14597E+01 -4.93280E+01 +2.71250E+01 -4.12766E+01 +3.93004E+01 -2.89060E+01
 +4.68852E+01 -1.34880E+01 +4.92046E+01 +3.44416E+00 +4.60653E+01 +2.02321E+01 +3.77709E+01 +3.52369E+01
 +2.50937E+01 +4.69830E+01 +9.20704E+00 +5.42869E+01 -8.41670E+00 +5.63613E+01 -2.61341E+01 +5.28855E+01
 -4.22734E+01 +4.40354E+01 -5.52796E+01 +3.04718E+01 -6.38511E+01 +1.32869E+01 -6.70542E+01 -6.08644E+00
 -6.44077E+01 -2.59942E+01 -5.59293E+01 -4.47010E+01 -4.21404E+01 -6.05366E+01 -2.40281E+01 -7.20395E+01
 -2.96794E+00 -7.80824E+01 +1.93867E+01 -7.79716E+01 +4.12387E+01 -7.15107E+01 +6.07951E+01 -5.90235E+01
 +7.64151E+01 -4.13335E+01 +8.67469E+01 -1.97024E+01 +9.08416E+01 +4.26810E+00 +8.82351E+01 +2.87634E+01
 +7.89898E+01 +5.19007E+01 +6.36950E+01 +7.18810E+01 +4.34229E+01 +8.71341E+01 +1.96463E+01 +9.64465E+01
 -5.87763E+00 +9.90602E+01 -3.12458E+01 +9.47354E+01 -5.45608E+01 +8.37710E+01 -7.40818E+01 +6.69821E+01
 -8.83630E+01 +4.56353E+01 -9.63684E+01 +2.13481E+01 -9.75534E+01 -4.04040E+00 -9.19068E+01 -2.86162E+01
 -7.99495E+01 -5.05431E+01 -6.26906E+01 -6.82082E+01 -4.15436E+01 -8.03496E+01 -1.82113E+01 -8.61547E+01
 +5.45307E+00 -8.53218E+01 +2.75959E+01 -7.80806E+01 +4.65124E+01 -6.51684E+01 +6.07830E+01 -4.77663E+01
 +6.93854E+01 -2.73990E+01 +7.17741E+01 -5.80752E+00 +6.79197E+01 +1.51949E+01 +5.83065E+01 +3.38721E+01
 +4.38872E+01 +4.87068E+01 +2.60003E+01 +5.85232E+01 +6.25541E+00 +6.25813E+01 -1.36024E+01 +6.06341E+01
 -3.18391E+01 +5.29439E+01 -4.68756E+01 +4.02563E+01 -5.74193E+01 +2.37345E+01 -6.25693E+01 +4.85927E+00
 -6.18908E+01 -1.46976E+01 -5.54479E+01 -3.32141E+01 -4.37968E+01 -4.90633E+01 -2.79367E+01 -6.08494E+01
 -9.22451E+00 -6.75247E+01 +1.07401E+01 -6.84763E+01 +3.02499E+01 -6.35777E+01 +4.76333E+01 -5.31976E+01
 +6.13949E+01 -3.81697E+01 +7.03410E+01 -1.97216E+01 +7.36792E+01 +6.27472E-01 +7.10852E+01 +2.11939E+01
 +6.27300E+01 +4.02704E+01 +4.92659E+01 +5.62685E+01 +3.17728E+01 +6.78508E+01 +1.16683E+01 +7.40431E+01
 -9.40953E+00 +7.43153E+01 -2.97383E+01 +6.86259E+01 -4.76539E+01 +5.74260E+01 -6.16886E+01 +4.16223E+01
 -7.06927E+01 +2.25022E+01 -7.39297E+01 +1.62730E+00 -7.11376E+01 -1.92951E+01 -6.25503E+01 -3.85534E+01
 -4.88786E+01 -5.45731E+01 -3.12514E+01 -6.60466E+01 -1.11224E+01 -7.20411E+01 +9.85004E+00 -7.20752E+01
 +2.99395E+01 -6.61587E+01 +4.74944E+01 -5.47915E+01 +6.10736E+01 -3.89217E+01 +6.95656E+01 -1.98670E+01
 +7.22795E+01 +7.93693E-01 +6.90018E+01 +2.13516E+01 +6.00135E+01 +4.01085E+01 +4.60660E+01 +5.55171E+01
 +2.83193E+01 +6.63082E+01 +8.24516E+00 +7.15957E+01 -1.24943E+01 +7.09483E+01 -3.21841E+01 +6.44252E+01
 -4.91979E+01 +5.25706E+01 -6.21319E+01 +3.63678E+01 -6.99206E+01 +1.71580E+01 -7.19239E+01 -3.47138E+00
 -6.79799E+01 -2.38172E+01 -5.84169E+01 -4.22017E+01 -4.40262E+01 -5.71106E+01 -2.59960E+01 -6.73181E+01
 -5.81282E+00 -7.19868E+01 +1.48613E+01 -7.07368E+01 +3.43264E+01 -6.36760E+01 +5.09842E+01 -5.13906E+01
 +6.34703E+01 -3.48956E+01 +7.07659E+01 -1.55510E+01 +7.22810E+01 +5.05165E+00 +6.79025E+01 +2.52201E+01
 +5.80024E+01 +4.33017E+01 +4.34061E+01 +5.78192E+01 +2.53235E+01 +6.75922E+01 +5.24832E+00 +7.18341E+01
 -1.51657E+01 +7.02157E+01 -3.42417E+01 +6.28916E+01 -5.04181E+01 +5.04860E+01 -6.23772E+01 +3.40402E+01
 -6.91535E+01 +1.49257E+01 -7.02123E+01 -5.27016E+00 -6.54935E+01 -2.48758E+01 -5.54145E+01 -4.22739E+01
 -4.08355E+01 -5.60351E+01 -2.29864E+01 -6.50357E+01 -3.36469E+00 -6.85503E+01 +1.63896E+01 -6.63107E+01
 +3.46296E+01 -5.85274E+01 +4.98390E+01 -4.58713E+01 +6.07565E+01 -2.94169E+01 +6.64810E+01 -1.05526E+01
 +6.65455E+01 +9.13459E+00 +6.09550E+01 +2.79918E+01 +5.01860E+01 +4.44369E+01 +3.51462E+01 +5.70902E+01
 +1.70991E+01 +6.48886E+01 -2.44143E+00 +6.71740E+01 -2.18366E+01 +6.37471E+01 -3.94587E+01 +5.48846E+01
 -5.38263E+01 +4.13158E+01 -6.37267E+01 +2.41622E+01 -6.83170E+01 +4.84483E+00 -6.71934E+01 -1.50332E+01
 -6.04252E+01 -3.38196E+01 -4.85491E+01 -4.99490E+01 -3.25253E+01 -6.20728E+01 -1.36585E+01 -6.91701E+01
 +6.50981E+00 -7.06324E+01 +2.63277E+01 -6.63136E+01 +4.41693E+01 -5.65427E+01 +5.85680E+01 -4.20962E+01
 +6.83371E+01 -2.41350E+01 +7.26675E+01 -4.10872E+00 +7.11936E+01 +1.63631E+01 +6.40232E+01 +3.56239E+01
 +5.17282E+01 +5.21158E+01 +3.52976E+01 +6.45069E+01 +1.60559E+01 +7.18003E+01 -4.44597E+00 +7.34144E+01
 -2.45574E+01 +6.92306E+01 -4.26635E+01 +5.96010E+01 -5.73173E+01 +4.53193E+01 -6.73570E+01 +2.75540E+01
 -7.20003E+01 +7.75210E+00 -7.09072E+01 -1.24805E+01 -6.42059E+01 -3.15109E+01 -5.24806E+01 -4.78128E+01
 -3.67214E+01 -6.00914E+01 -1.82418E+01 -6.73884E+01 +1.43133E+00 -6.91588E+01 +2.06837E+01 -6.53140E+01
 +3.79472E+01 -5.62266E+01 +5.18283E+01 -4.26973E+01 +6.12226E+01 -2.58866E+01 +6.54039E+01 -7.21716E+00
 +6.40826E+01 +1.17452E+01 +5.74274E+01 +2.94219E+01 +4.60486E+01 +4.43525E+01 +3.09456E+01 +5.53153E+01
 +1.34216E+01 +6.14277E+01 -5.02578E+00 +6.22181E+01 -2.28307E+01 +5.76634E+01 -3.84897E+01 +4.81892E+01
 -5.06870E+01 +3.46322E+01 -5.84038E+01 +1.81694E+01 -6.10029E+01 +2.17937E-01 -5.82806E+01 -1.76836E+01
 -5.04833E+01 -3.40049E+01 -3.82854E+01 -4.73515E+01 -2.27329E+01 -5.65823E+01 -5.15444E+00 -6.09043E+01
 +1.29494E+01 -5.99394E+01 +3.00326E+01 -5.37556E+01 +4.46327E+01 -4.28618E+01 +5.54939E+01 -2.81654E+01
 +6.16720E+01 -1.08964E+01 +6.26141E+01 +7.49457E+00 +5.82052E+01 +2.54575E+01 +4.87789E+01 +4.14719E+01
 +3.50905E+01 +5.41743E+01 +1.82550E+01 +6.24714E+01 -3.44742E-01 +6.56323E+01 -1.91720E+01 +6.33502E+01
 -3.66634E+01 +5.57686E+01 -5.13587E+01 +4.34714E+01 -6.20213E+01 +2.74351E+01 -6.77415E+01 +8.94958E+00
 -6.80122E+01 -1.04875E+01 -6.27719E+01 -2.92936E+01 -5.24106E+01 -4.59313E+01 -3.77391E+01 -5.90346E+01
 -1.99228E+01 -6.75215E+01 -3.87494E-01 -7.06832E+01 +1.92977E+01 -6.82424E+01 +3.75480E+01 -6.03767E+01
 +5.28924E+01 -4.77045E+01 +6.40943E+01 -3.12346E+01 +7.02517E+01 -1.22840E+01 +7.08712E+01 +7.62966E+00
 +6.59077E+01 +2.69115E+01 +5.57676E+01 +4.40198E+01 +4.12752E+01 +5.75912E+01 +2.36047E+01 +6.65515E+01
 +4.18403E+00 +7.02024E+01 -1.54222E+01 +6.82776E+01 -3.36406E+01 +6.09629E+01 -4.90170E+01 +4.88800E+01
 -6.03346E+01 +3.30339E+01 -6.67125E+01 +1.47298E+01 -6.76760E+01 -4.53497E+00 -6.31937E+01 -2.31938E+01
 -5.36780E+01 -3.97395E+01 -3.99489E+01 -5.28471E+01 -2.31655E+01 -6.14815E+01 -4.72856E+00 -6.49809E+01
 +1.38355E+01 -6.31092E+01 +3.10007E+01 -5.60730E+01 +4.53671E+01 -4.45024E+01 +5.57752E+01 -2.93966E+01
 +6.14006E+01 -1.20396E+01 +6.18203E+01 +6.10731E+00 +5.70450E+01 +2.35272E+01 +4.75166E+01 +3.87735E+01
 +3.40690E+01 +5.05895E+01 +1.78572E+01 +5.80113E+01 +2.59988E-01 +6.04468E+01 -1.72360E+01 +5.77231E+01
 -3.31600E+01 +5.00990E+01 -4.61797E+01 +3.82417E+01 -5.52116E+01 +2.31697E+01 -5.95104E+01 +6.16671E+00
 -5.87301E+01 -1.13266E+01 -5.29517E+01 -2.78330E+01 -4.26751E+01 -4.19624E+01 -2.87763E+01 -5.25273E+01
 -1.24335E+01 -5.86422E+01 +4.97205E+00 -5.97964E+01 +2.19719E+01 -5.58964E+01 +3.71332E+01 -4.72730E+01
 +4.91783E+01 -3.46532E+01 +5.70916E+01 -1.90992E+01 +6.02042E+01 -1.91925E+00 +5.82498E+01 +1.54418E+01
 +5.13867E+01 +3.15229E+01 +4.01846E+01 +4.49690E+01 +2.55777E+01 +5.46443E+01 +8.78630E+00 +5.97271E+01
