 Created: 19-Jan-2021
 $NMID
 ID='D:\BASISSIMULATI'
 FMTDAT='(8E13.5)'
 VOLUME=   1.00000E+00
 TRAMP=   1.00000E+00
 $END
 +8.67076E+01 +8.91732E-01 +7.93201E+01 +8.85972E+00 +6.01559E+01 +1.83281E+01 +3.47000E+01 +2.97732E+01
 +9.77975E+00 +4.17089E+01 -8.79014E+00 +5.10597E+01 -1.80235E+01 +5.44439E+01 -1.83738E+01 +4.97801E+01
 -1.30043E+01 +3.74619E+01 -6.14190E+00 +2.05232E+01 -1.27957E+00 +3.67405E+00 +1.50382E-02 -8.40654E+00
 -1.73208E+00 -1.27954E+01 -4.67918E+00 -9.33915E+00 -6.90044E+00 -5.49647E-01 -7.42642E+00 +9.53274E+00
 -6.61201E+00 +1.69788E+01 -5.72978E+00 +1.93984E+01 -6.08481E+00 +1.65817E+01 -8.16931E+00 +1.01692E+01
 -1.13201E+01 +2.61167E+00 -1.40510E+01 -4.02387E+00 -1.48640E+01 -8.83405E+00 -1.30837E+01 -1.21362E+01
 -9.25118E+00 -1.48803E+01 -4.84516E+00 -1.78139E+01 -1.46205E+00 -2.08928E+01 +1.16761E-01 -2.32646E+01
 +4.60511E-01 -2.38153E+01 +1.30514E+00 -2.19479E+01 +4.69048E+00 -1.81206E+01 +1.18200E+01 -1.37900E+01
 +2.22164E+01 -1.07240E+01 +3.36362E+01 -1.00047E+01 +4.28528E+01 -1.12484E+01 +4.69955E+01 -1.25069E+01
 +4.48346E+01 -1.10037E+01 +3.73977E+01 -4.43756E+00 +2.75868E+01 +7.73055E+00 +1.89314E+01 +2.36446E+01
 +1.40230E+01 +3.94540E+01 +1.33509E+01 +5.06666E+01 +1.50924E+01 +5.39216E+01 +1.59833E+01 +4.84173E+01
 +1.28932E+01 +3.63439E+01 +4.39286E+00 +2.20865E+01 -8.41189E+00 +1.05006E+01 -2.21837E+01 +4.98233E+00
 -3.26851E+01 +6.15612E+00 -3.65591E+01 +1.17420E+01 -3.27700E+01 +1.76505E+01 -2.30644E+01 +1.98176E+01
 -1.12500E+01 +1.59759E+01 -1.61658E+00 +6.60037E+00 +2.80079E+00 -5.35699E+00 +1.35963E+00 -1.57884E+01
 -4.12081E+00 -2.11989E+01 -1.03410E+01 -2.01409E+01 -1.40690E+01 -1.37149E+01 -1.35386E+01 -4.97350E+00
 -9.08523E+00 +2.44304E+00 -2.78219E+00 +5.79772E+00 +2.69011E+00 +4.22407E+00 +5.37147E+00 -1.19569E+00
 +4.91521E+00 -8.17434E+00 +2.65625E+00 -1.43509E+01 +8.72336E-01 -1.82408E+01 +1.63730E+00 -1.95841E+01
 +5.83626E+00 -1.90110E+01 +1.28014E+01 -1.73021E+01 +2.06994E+01 -1.47074E+01 +2.74267E+01 -1.07292E+01
 +3.15342E+01 -4.49404E+00 +3.27150E+01 +4.50002E+00 +3.16456E+01 +1.57006E+01 +2.93161E+01 +2.73119E+01
 +2.62616E+01 +3.67834E+01 +2.21529E+01 +4.18007E+01 +1.60070E+01 +4.13209E+01 +6.93210E+00 +3.61264E+01
 -4.98900E+00 +2.85780E+01 -1.81912E+01 +2.16236E+01 -2.98531E+01 +1.74937E+01 -3.68601E+01 +1.66922E+01
 -3.71216E+01 +1.77820E+01 -3.06346E+01 +1.81035E+01 -1.97486E+01 +1.51232E+01 -8.42211E+00 +7.79009E+00
 -7.21461E-01 -2.75318E+00 +8.18874E-01 -1.34776E+01 -3.74760E+00 -2.07035E+01 -1.17967E+01 -2.17332E+01
 -1.92513E+01 -1.61427E+01 -2.23339E+01 -6.12785E+00 -1.91961E+01 +4.28837E+00 -1.07101E+01 +1.08686E+01
 -7.22846E-02 +1.09010E+01 +8.60595E+00 +4.30857E+00 +1.20964E+01 -6.35332E+00 +9.45115E+00 -1.70008E+01
 +2.39178E+00 -2.37328E+01 -5.46046E+00 -2.43982E+01 -1.01552E+01 -1.93482E+01 -9.08158E+00 -1.10860E+01
 -2.01403E+00 -3.01984E+00 +8.88759E+00 +2.08431E+00 +2.00677E+01 +3.24997E+00 +2.80704E+01 +1.55089E+00
 +3.08633E+01 -5.73694E-01 +2.84354E+01 -5.76797E-01 +2.24791E+01 +2.97799E+00 +1.53968E+01 +9.79413E+00
 +9.15617E+00 +1.80605E+01 +4.54058E+00 +2.53467E+01 +1.10318E+00 +2.97034E+01 -2.24159E+00 +3.04318E+01
 -6.36577E+00 +2.81847E+01 -1.12973E+01 +2.44115E+01 -1.61465E+01 +2.04897E+01 -1.96085E+01 +1.70197E+01
 -2.07465E+01 +1.36523E+01 -1.96039E+01 +9.51477E+00 -1.72843E+01 +3.97640E+00 -1.54204E+01 -2.69759E+00
 -1.52888E+01 -9.20028E+00 -1.70366E+01 -1.36768E+01 -1.94559E+01 -1.46410E+01 -2.04818E+01 -1.18496E+01
 -1.82210E+01 -6.65261E+00 -1.20245E+01 -1.57285E+00 -3.05617E+00 +7.55012E-01 +5.98268E+00 -1.18225E+00
 +1.19170E+01 -6.96220E+00 +1.25061E+01 -1.42625E+01 +7.55266E+00 -1.97946E+01 -8.31177E-01 -2.07574E+01
 -8.97870E+00 -1.61610E+01 -1.31596E+01 -7.39921E+00 -1.11692E+01 +2.23241E+00 -3.31096E+00 +8.90286E+00
 +7.68229E+00 +9.91352E+00 +1.77730E+01 +4.92917E+00 +2.33098E+01 -3.78925E+00 +2.25467E+01 -1.22761E+01
 +1.63258E+01 -1.65041E+01 +7.63461E+00 -1.40705E+01 +2.46441E-01 -5.19812E+00 -2.94123E+00 +7.37329E+00
 -1.13472E+00 +1.95390E+01 +4.08945E+00 +2.75070E+01 +9.56662E+00 +2.92684E+01 +1.19939E+01 +2.52448E+01
 +9.38409E+00 +1.78829E+01 +1.88485E+00 +1.04367E+01 -8.36442E+00 +5.52310E+00 -1.82201E+01 +4.09919E+00
 -2.48778E+01 +5.27804E+00 -2.69546E+01 +6.99085E+00 -2.48521E+01 +7.11785E+00 -2.03079E+01 +4.52241E+00
 -1.54207E+01 -4.87226E-01 -1.16609E+01 -6.43558E+00 -9.34063E+00 -1.14951E+01 -7.75249E+00 -1.43893E+01
 -5.83550E+00 -1.49248E+01 -2.96625E+00 -1.39094E+01 +5.71110E-01 -1.25498E+01 +3.69247E+00 -1.16879E+01
 +5.13504E+00 -1.13123E+01 +4.24544E+00 -1.06195E+01 +1.48794E+00 -8.59673E+00 -1.63632E+00 -4.79960E+00
 -3.26180E+00 +1.22576E-01 -2.10561E+00 +4.49330E+00 +1.79545E+00 +6.30380E+00 +6.96504E+00 +4.23476E+00
 +1.10998E+01 -1.50146E+00 +1.21611E+01 -8.96079E+00 +9.43115E+00 -1.50906E+01 +4.00152E+00 -1.69623E+01
 -1.59350E+00 -1.30838E+01 -4.48455E+00 -4.18227E+00 -2.83361E+00 +6.94193E+00 +3.17717E+00 +1.64840E+01
 +1.12285E+01 +2.11899E+01 +1.77298E+01 +1.97237E+01 +1.93259E+01 +1.32350E+01 +1.43940E+01 +4.85687E+00
 +3.85521E+00 -1.65845E+00 -9.08169E+00 -3.57136E+00 -2.01637E+01 -3.34206E-01 -2.57999E+01 +6.20125E+00
 -2.44993E+01 +1.26340E+01 -1.74224E+01 +1.55359E+01 -7.82279E+00 +1.29649E+01 +3.62970E-01 +5.30442E+00
 +4.14948E+00 -4.92792E+00 +2.65696E+00 -1.41880E+01 -2.68608E+00 -1.94174E+01 -8.92821E+00 -1.92826E+01
 -1.29709E+01 -1.46137E+01 -1.28991E+01 -7.89213E+00 -8.69057E+00 -2.07051E+00 -2.03938E+00 +7.11894E-01
 +4.55068E+00 -5.92364E-02 +8.93239E+00 -3.25858E+00 +1.01862E+01 -6.84049E+00 +8.82555E+00 -8.89481E+00
 +6.31076E+00 -8.51481E+00 +4.17948E+00 -6.08334E+00 +3.26470E+00 -2.89510E+00 +3.38999E+00 -3.65977E-01
 +3.65988E+00 +7.30110E-01 +3.14375E+00 +5.98602E-01 +1.54912E+00 +1.81613E-01 -5.04762E-01 +4.96963E-01
 -1.78006E+00 +1.94448E+00 -1.13445E+00 +3.98171E+00 +1.72914E+00 +5.37200E+00 +5.90297E+00 +4.89552E+00
 +9.54519E+00 +2.14977E+00 +1.06988E+01 -2.00914E+00 +8.27929E+00 -5.67357E+00 +2.73415E+00 -6.70625E+00
 -3.99483E+00 -3.81667E+00 -9.24892E+00 +2.63402E+00 -1.08479E+01 +1.05356E+01 -8.15244E+00 +1.67617E+01
 -2.47248E+00 +1.84618E+01 +3.41861E+00 +1.43502E+01 +6.48805E+00 +5.39651E+00 +4.84322E+00 -5.43583E+00
 -1.31437E+00 -1.43369E+01 -9.64286E+00 -1.82086E+01 -1.65834E+01 -1.59584E+01 -1.88733E+01 -8.95414E+00
 -1.49894E+01 -4.27753E-01 -5.87864E+00 +5.91708E+00 +5.36199E+00 +7.48505E+00 +1.47295E+01 +3.86552E+00
 +1.89486E+01 -3.05905E+00 +1.67893E+01 -1.00027E+01 +9.50969E+00 -1.37516E+01 +2.51927E-01 -1.25631E+01
 -7.31603E+00 -6.87509E+00 -1.05065E+01 +9.61767E-01 -8.61612E+00 +7.77390E+00 -3.02928E+00 +1.09620E+01
 +3.56305E+00 +9.57538E+00 +8.42383E+00 +4.60708E+00 +9.91990E+00 -1.57328E+00 +8.06394E+00 -6.34154E+00
 +4.26454E+00 -7.95577E+00 +4.78967E-01 -6.19837E+00 -1.77511E+00 -2.27677E+00 -2.06405E+00 +1.90190E+00
 -1.06047E+00 +4.68279E+00 +6.66565E-03 +5.36796E+00 +1.39045E-01 +4.35914E+00 -8.42829E-01 +2.72853E+00
 -2.22068E+00 +1.49844E+00 -2.83683E+00 +1.04369E+00 -1.82727E+00 +9.42720E-01 +7.82468E-01 +3.45596E-01
 +3.96197E+00 -1.36290E+00 +6.13260E+00 -3.99823E+00 +5.98086E+00 -6.46176E+00 +3.21025E+00 -7.19541E+00
 -1.17771E+00 -5.01307E+00 -5.26032E+00 +1.10478E-01 -7.08392E+00 +6.73218E+00 -5.64962E+00 +1.23456E+01
 -1.49940E+00 +1.43852E+01 +3.42309E+00 +1.14043E+01 +6.62186E+00 +3.87520E+00 +6.24008E+00 -5.80262E+00
 +2.03492E+00 -1.41567E+01 -4.35242E+00 -1.80297E+01 -1.00094E+01 -1.59095E+01 -1.20151E+01 -8.60537E+00
 -8.80225E+00 +1.04797E+00 -9.92956E-01 +9.35386E+00 +8.70211E+00 +1.32878E+01 +1.65195E+01 +1.17352E+01
 +1.91897E+01 +5.89355E+00 +1.53296E+01 -1.32942E+00 +6.07120E+00 -6.64239E+00 -5.35498E+00 -7.82440E+00
 -1.49065E+01 -4.66071E+00 -1.93344E+01 +1.04142E+00 -1.74248E+01 +6.33868E+00 -1.03660E+01 +8.51782E+00
 -1.12206E+00 +6.31647E+00 +6.87258E+00 +4.57700E-01 +1.11071E+01 -6.71624E+00 +1.08805E+01 -1.23127E+01
 +7.34310E+00 -1.41530E+01 +2.75200E+00 -1.16610E+01 -6.56968E-01 -6.00099E+00 -1.63999E+00 +5.48659E-01
 -3.35826E-01 +5.65252E+00 +2.03948E+00 +7.89642E+00 +3.97070E+00 +7.25054E+00 +4.46330E+00 +4.85329E+00
 +3.49021E+00 +2.28621E+00 +1.87085E+00 +7.41416E-01 +6.92942E-01 +5.04646E-01 +6.21718E-01 +9.86799E-01
 +1.48689E+00 +1.23910E+00 +2.37724E+00 +6.35146E-01 +2.19209E+00 -6.75432E-01 +3.45451E-01 -1.80508E+00
 -2.77490E+00 -1.64887E+00 -5.87368E+00 +3.92425E-01 -7.34761E+00 +3.89352E+00 -6.13712E+00 +7.41027E+00
 -2.39287E+00 +9.06716E+00 +2.41710E+00 +7.47622E+00 +6.07286E+00 +2.53937E+00 +6.61821E+00 -4.29302E+00
 +3.35861E+00 -1.04953E+01 -2.65453E+00 -1.35100E+01 -8.93403E+00 -1.19086E+01 -1.25775E+01 -6.12614E+00
 -1.15687E+01 +1.60200E+00 -5.77201E+00 +8.12149E+00 +2.85929E+00 +1.06951E+01 +1.09979E+01 +8.20539E+00
 +1.53047E+01 +1.67517E+00 +1.38565E+01 -6.14862E+00 +7.01423E+00 -1.19812E+01 -2.66140E+00 -1.34379E+01
 -1.14230E+01 -1.00835E+01 -1.58471E+01 -3.61833E+00 -1.41969E+01 +2.88537E+00 -7.06144E+00 +6.36172E+00
 +2.97713E+00 +5.13004E+00 +1.24706E+01 -3.36580E-01 +1.85087E+01 -7.59010E+00 +1.97873E+01 -1.32482E+01
 +1.69080E+01 -1.44337E+01 +1.18402E+01 -9.98544E+00 +6.85838E+00 -9.29664E-01 +3.48095E+00 +9.95879E+00
 +1.90095E+00 +1.92786E+01 +1.13480E+00 +2.42985E+01 -2.41317E-01 +2.38801E+01 -3.17446E+00 +1.86840E+01
 -7.51225E+00 +1.06580E+01 -1.19848E+01 +2.11930E+00 -1.47905E+01 -5.11243E+00 -1.44848E+01 -1.01619E+01
 -1.07244E+01 -1.30051E+01 -4.49995E+00 -1.40023E+01 +2.25438E+00 -1.33985E+01 +7.47956E+00 -1.11092E+01
 +9.83828E+00 -6.91588E+00 +9.18825E+00 -9.36034E-01 +6.47605E+00 +5.95143E+00 +3.13942E+00 +1.20491E+01
 +3.48232E-01 +1.52930E+01 -1.51511E+00 +1.40761E+01 -2.87229E+00 +8.07406E+00 -4.47242E+00 -1.35234E+00
 -6.70166E+00 -1.14473E+01 -9.08504E+00 -1.89989E+01 -1.02992E+01 -2.15683E+01 -8.75317E+00 -1.84831E+01
 -3.48496E+00 -1.11383E+01 +5.07660E+00 -2.44199E+00 +1.49157E+01 +4.38237E+00 +2.29887E+01 +7.12588E+00
 +2.63698E+01 +5.47669E+00 +2.35133E+01 +1.06682E+00 +1.50595E+01 -3.33264E+00 +3.77817E+00 -5.10130E+00
