 Created: 19-Jan-2021
 $NMID
 ID='D:\BASISSIMULATI'
 FMTDAT='(8E13.5)'
 VOLUME=   1.00000E+00
 TRAMP=   1.00000E+00
 $END
 +6.45144E+01 +1.92875E+00 +5.73925E+01 +6.84845E+00 +3.99641E+01 +1.24029E+01 +1.70166E+01 +1.89612E+01
 -5.47938E+00 +2.56471E+01 -2.23259E+01 +3.05503E+01 -3.06452E+01 +3.15396E+01 -3.04739E+01 +2.72993E+01
 -2.42628E+01 +1.80926E+01 -1.55818E+01 +5.86797E+00 -7.62186E+00 -6.37513E+00 -2.11383E+00 -1.57010E+01
 +9.51801E-01 -2.03447E+01 +2.80043E+00 -2.03148E+01 +4.89373E+00 -1.72229E+01 +8.01299E+00 -1.34175E+01
 +1.18438E+01 -1.08253E+01 +1.52224E+01 -1.00370E+01 +1.68650E+01 -1.00688E+01 +1.61677E+01 -8.91864E+00
 +1.36370E+01 -4.66691E+00 +1.07083E+01 +3.39154E+00 +9.02309E+00 +1.41275E+01 +9.52046E+00 +2.47932E+01
 +1.18087E+01 +3.20227E+01 +1.41693E+01 +3.32054E+01 +1.42510E+01 +2.76362E+01 +1.01762E+01 +1.69236E+01
 +1.56593E+00 +4.45365E+00 -1.00074E+01 -5.89086E+00 -2.13939E+01 -1.12230E+01 -2.89621E+01 -1.07320E+01
 -2.99837E+01 -5.89893E+00 -2.37307E+01 +2.32744E-01 -1.18171E+01 +4.40830E+00 +2.36862E+00 +4.54974E+00
 +1.49073E+01 +5.92310E-01 +2.27544E+01 -5.56945E+00 +2.47296E+01 -1.09727E+01 +2.17085E+01 -1.29026E+01
 +1.59842E+01 -1.00520E+01 +1.01287E+01 -3.03298E+00 +5.88165E+00 +5.95031E+00 +3.55772E+00 +1.40822E+01
 +2.20086E+00 +1.91059E+01 +3.59295E-01 +2.01602E+01 -2.93401E+00 +1.79357E+01 -7.47751E+00 +1.41316E+01
 -1.18645E+01 +1.05161E+01 -1.41260E+01 +8.06491E+00 -1.27496E+01 +6.59105E+00 -7.57608E+00 +5.02854E+00
 -1.15154E-01 +2.20325E+00 +6.91942E+00 -2.31696E+00 +1.06923E+01 -7.74525E+00 +9.48550E+00 -1.22465E+01
 +3.53735E+00 -1.37151E+01 -4.92054E+00 -1.08130E+01 -1.24848E+01 -3.77450E+00 -1.59393E+01 +5.43628E+00
 -1.35857E+01 +1.37459E+01 -5.97692E+00 +1.81470E+01 +4.26451E+00 +1.69396E+01 +1.34740E+01 +1.04951E+01
 +1.83895E+01 +1.19092E+00 +1.74099E+01 -7.48388E+00 +1.11516E+01 -1.22932E+01 +2.09568E+00 -1.15203E+01
 -6.49309E+00 -5.60752E+00 -1.18919E+01 +3.08969E+00 -1.29237E+01 +1.13139E+01 -1.02392E+01 +1.62367E+01
 -5.80890E+00 +1.65377E+01 -1.90763E+00 +1.27883E+01 -8.05846E-02 +7.01189E+00 -5.57236E-01 +1.66007E+00
 -2.34705E+00 -1.50735E+00 -3.91939E+00 -2.12873E+00 -4.09750E+00 -1.23129E+00 -2.70820E+00 -5.46081E-01
 -6.62267E-01 -1.50206E+00 +5.70619E-01 -4.39916E+00 -1.76374E-01 -8.16887E+00 -3.01259E+00 -1.08479E+01
 -6.74585E+00 -1.05474E+01 -9.31368E+00 -6.45760E+00 -8.72702E+00 +6.00679E-01 -4.10208E+00 +8.36763E+00
 +3.71393E+00 +1.40266E+01 +1.22570E+01 +1.54031E+01 +1.83097E+01 +1.19468E+01 +1.91812E+01 +5.04543E+00
 +1.38653E+01 -2.49367E+00 +3.56791E+00 -7.58870E+00 -8.64695E+00 -8.17090E+00 -1.89718E+01 -4.05889E+00
 -2.42800E+01 +2.95907E+00 -2.32762E+01 +9.87093E+00 -1.69024E+01 +1.36926E+01 -7.85151E+00 +1.26881E+01
 +5.85345E-01 +7.04350E+00 +5.83305E+00 -1.27551E+00 +6.95452E+00 -9.39117E+00 +4.81622E+00 -1.47068E+01
 +1.47634E+00 -1.58997E+01 -8.84853E-01 -1.32995E+01 -9.86581E-01 -8.52946E+00 +1.03823E+00 -3.62308E+00
 +3.84228E+00 -5.82278E-02 +5.64433E+00 +1.83621E+00 +5.19052E+00 +2.83916E+00 +2.42187E+00 +4.21507E+00
 -1.47659E+00 +6.84570E+00 -4.66777E+00 +1.05697E+01 -5.60649E+00 +1.40829E+01 -3.87205E+00 +1.54779E+01
 -4.71014E-01 +1.31877E+01 +2.56286E+00 +6.88324E+00 +3.11216E+00 -2.12183E+00 +3.73376E-02 -1.11991E+01
 -6.14257E+00 -1.73707E+01 -1.32926E+01 -1.85163E+01 -1.84513E+01 -1.42960E+01 -1.90511E+01 -6.36842E+00
 -1.40488E+01 +2.22112E+00 -4.46921E+00 +8.24387E+00 +6.89093E+00 +9.58273E+00 +1.64908E+01 +6.07172E+00
 +2.13821E+01 -4.75694E-01 +2.03001E+01 -7.05732E+00 +1.40631E+01 -1.07491E+01 +5.13640E+00 -9.90631E+00
 -3.42527E+00 -4.79387E+00 -9.18790E+00 +2.60086E+00 -1.11840E+01 +9.46402E+00 -1.00626E+01 +1.33470E+01
 -7.53243E+00 +1.31301E+01 -5.40377E+00 +9.35596E+00 -4.69669E+00 +3.82576E+00 -5.23060E+00 -1.31420E+00
 -5.86308E+00 -4.55072E+00 -5.22969E+00 -5.59274E+00 -2.59680E+00 -5.31825E+00 +1.61220E+00 -5.13929E+00
 +5.89619E+00 -6.12252E+00 +8.34424E+00 -8.31575E+00 +7.58342E+00 -1.06275E+01 +3.54870E+00 -1.13363E+01
 -2.31705E+00 -8.99558E+00 -7.56984E+00 -3.29920E+00 -9.78684E+00 +4.53024E+00 -7.66236E+00 +1.20558E+01
 -1.68049E+00 +1.65487E+01 +5.96172E+00 +1.61347E+01 +1.21830E+01 +1.06576E+01 +1.42664E+01 +1.86100E+00
 +1.10026E+01 -7.22355E+00 +3.23598E+00 -1.34432E+01 -6.42669E+00 -1.47630E+01 -1.46283E+01 -1.10541E+01
 -1.85706E+01 -4.09908E+00 -1.70736E+01 +3.18091E+00 -1.09547E+01 +7.94049E+00 -2.59354E+00 +8.54536E+00
 +5.09995E+00 +5.15352E+00 +9.85156E+00 -4.80691E-01 +1.08246E+01 -5.86017E+00 +8.74225E+00 -8.85483E+00
 +5.33042E+00 -8.57097E+00 +2.38541E+00 -5.61143E+00 +9.21303E-01 -1.64707E+00 +7.92185E-01 +1.46444E+00
 +9.40845E-01 +2.57831E+00 +1.19383E-01 +1.75480E+00 -2.29955E+00 +1.23496E-01 -5.84266E+00 -7.94987E-01
 -9.04587E+00 +3.63761E-02 -1.01232E+01 +2.54124E+00 -7.88479E+00 +5.46982E+00 -2.45785E+00 +6.96049E+00
 +4.56115E+00 +5.47269E+00 +1.06415E+01 +6.50914E-01 +1.33400E+01 -6.30679E+00 +1.13713E+01 -1.29871E+01
 +5.24625E+00 -1.66971E+01 -2.82978E+00 -1.56077E+01 -9.78675E+00 -9.60287E+00 -1.29145E+01 -4.46762E-01
 -1.09689E+01 +8.83086E+00 -4.68765E+00 +1.50901E+01 +3.50575E+00 +1.62984E+01 +1.04847E+01 +1.23010E+01
 +1.36721E+01 +4.82510E+00 +1.20360E+01 -3.27080E+00 +6.42157E+00 -9.17059E+00 -8.94735E-01 -1.11929E+01
 -7.20564E+00 -9.34800E+00 -1.04778E+01 -5.15108E+00 -1.00847E+01 -8.16892E-01 -6.87903E+00 +1.77681E+00
 -2.62130E+00 +1.88305E+00 +9.28920E-01 +9.52369E-02 +2.81764E+00 -2.08807E+00 +3.22523E+00 -3.10359E+00
 +3.18965E+00 -2.14856E+00 +3.89087E+00 +4.09762E-01 +5.87403E+00 +3.23379E+00 +8.61714E+00 +4.72079E+00
 +1.06801E+01 +3.86433E+00 +1.03868E+01 +8.43281E-01 +6.72459E+00 -2.96568E+00 +2.35145E-02 -5.58377E+00
 -7.94034E+00 -5.37307E+00 -1.45160E+01 -1.88896E+00 -1.72126E+01 +3.77107E+00 -1.47599E+01 +9.31721E+00
 -7.72521E+00 +1.21948E+01 +1.60734E+00 +1.06996E+01 +1.00715E+01 +4.78921E+00 +1.48346E+01 -3.77916E+00
 +1.44900E+01 -1.20706E+01 +9.57075E+00 -1.71073E+01 +2.27476E+00 -1.70442E+01 -4.47026E+00 -1.18920E+01
 -8.19748E+00 -3.48746E+00 -7.84243E+00 +5.26668E+00 -4.05270E+00 +1.15599E+01 +1.23172E+00 +1.37367E+01
 +5.70624E+00 +1.18268E+01 +7.70509E+00 +7.34964E+00 +6.83571E+00 +2.52111E+00 +3.98714E+00 -7.56401E-01
 +7.51573E-01 -1.66364E+00 -1.43276E+00 -6.69378E-01 -1.99213E+00 +8.81397E-01 -1.44001E+00 +1.56130E+00
 -1.01501E+00 +6.33790E-01 -1.92394E+00 -1.57162E+00 -4.57569E+00 -3.85695E+00 -8.20205E+00 -4.81809E+00
 -1.10820E+01 -3.63535E+00 -1.12975E+01 -5.89857E-01 -7.68772E+00 +2.96886E+00 -5.53924E-01 +5.21551E+00
 +8.23756E+00 +4.73863E+00 +1.58490E+01 +1.30719E+00 +1.95423E+01 -3.86741E+00 +1.77858E+01 -8.53562E+00
 +1.09215E+01 -1.03377E+01 +1.09774E+00 -7.86302E+00 -8.52076E+00 -1.36893E+00 -1.49438E+01 +7.17967E+00
 -1.64573E+01 +1.48012E+01 -1.31886E+01 +1.86498E+01 -6.92243E+00 +1.71537E+01 -2.76902E-01 +1.06602E+01
 +4.38664E+00 +1.31487E+00 +5.84877E+00 -7.77499E+00 +4.35490E+00 -1.37401E+01 +1.28342E+00 -1.50128E+01
 -1.63910E+00 -1.18235E+01 -3.18282E+00 -5.95456E+00 -3.12354E+00 +1.08017E-01 -2.19815E+00 +4.22895E+00
 -1.56421E+00 +5.42590E+00 -2.06019E+00 +4.09426E+00 -3.65525E+00 +1.60508E+00 -5.38022E+00 -4.89018E-01
 -5.79205E+00 -1.23995E+00 -3.75568E+00 -7.07772E-01 +8.40522E-01 +1.93268E-01 +6.80702E+00 +3.04383E-01
 +1.19908E+01 -1.03671E+00 +1.41208E+01 -3.51182E+00 +1.18058E+01 -5.85932E+00 +5.23715E+00 -6.44228E+00
 -3.73950E+00 -4.09304E+00 -1.22540E+01 +1.16918E+00 -1.75020E+01 +7.91244E+00 -1.78453E+01 +1.37099E+01
 -1.34577E+01 +1.60614E+01 -6.23499E+00 +1.34389E+01 +9.94140E-01 +6.00494E+00 +5.62416E+00 -4.32457E+00
 +6.30640E+00 -1.45224E+01 +3.42858E+00 -2.15465E+01 -1.14801E+00 -2.34451E+01 -4.96033E+00 -2.00198E+01
 -6.03224E+00 -1.27911E+01 -3.70563E+00 -4.30658E+00 +1.13444E+00 +2.89096E+00 +6.51337E+00 +7.18897E+00
 +1.02726E+01 +8.34788E+00 +1.10095E+01 +7.31612E+00 +8.63489E+00 +5.55945E+00 +4.31841E+00 +4.25654E+00
 -1.25213E-01 +3.75216E+00 -3.10261E+00 +3.51514E+00 -3.95212E+00 +2.59144E+00 -3.17366E+00 +2.95787E-01
 -2.08715E+00 -3.23337E+00 -2.09842E+00 -6.92567E+00 -3.93303E+00 -9.20741E+00 -7.20925E+00 -8.78569E+00
 -1.05574E+01 -5.41390E+00 -1.22333E+01 -2.44075E-01 -1.09387E+01 +4.45921E+00 -6.46248E+00 +6.18204E+00
 +1.61390E-01 +3.26434E+00 +7.05967E+00 -4.23149E+00 +1.23052E+01 -1.42921E+01 +1.47205E+01 -2.35175E+01
 +1.43270E+01 -2.83003E+01 +1.22332E+01 -2.61751E+01 +1.00156E+01 -1.68062E+01 +8.88895E+00 -2.21917E+00
 +9.06422E+00 +1.38231E+01 +9.61305E+00 +2.70591E+01 +8.92161E+00 +3.41073E+01 +5.53955E+00 +3.34726E+01
 -9.66388E-01 +2.58404E+01 -9.56474E+00 +1.36154E+01 -1.79584E+01 -4.33051E-02 -2.33856E+01 -1.22675E+01
 -2.37029E+01 -2.12070E+01 -1.82904E+01 -2.62238E+01 -8.38381E+00 -2.75973E+01 +3.32821E+00 -2.59925E+01
 +1.36844E+01 -2.20093E+01 +2.02074E+01 -1.60356E+01 +2.19582E+01 -8.42914E+00 +1.97414E+01 +1.46722E-01
 +1.55961E+01 +8.50132E+00 +1.18144E+01 +1.50246E+01 +9.92428E+00 +1.81586E+01 +1.00794E+01 +1.70546E+01
 +1.11070E+01 +1.20993E+01 +1.11676E+01 +5.00836E+00 +8.71392E+00 -1.64362E+00 +3.30483E+00 -5.33452E+00
 -4.08988E+00 -4.60106E+00 -1.14285E+01 +2.86867E-01 -1.64227E+01 +7.30504E+00 -1.74790E+01 +1.33692E+01
 -1.43410E+01 +1.55047E+01 -8.15941E+00 +1.20364E+01 -9.74256E-01 +3.31592E+00 +5.14387E+00 -8.32165E+00
 +8.90777E+00 -1.93679E+01 +1.02294E+01 -2.64027E+01 +1.00770E+01 -2.73067E+01 +9.87102E+00 -2.19515E+01
 +1.07209E+01 -1.21161E+01 +1.28629E+01 -7.00274E-01 +1.55538E+01 +9.40967E+00 +1.74497E+01 +1.63415E+01
 +1.72720E+01 +1.97084E+01 +1.44335E+01 +2.04037E+01 +9.32510E+00 +1.98745E+01 +3.13594E+00 +1.92503E+01
 -2.69071E+00 +1.87453E+01 -7.08860E+00 +1.76074E+01 -9.76923E+00 +1.46183E+01 -1.11935E+01 +8.88925E+00
 -1.21339E+01 +5.55347E-01 -1.30608E+01 -8.98029E+00 -1.36883E+01 -1.73972E+01 -1.29521E+01 -2.22727E+01
 -9.48898E+00 -2.20178E+01 -2.42988E+00 -1.65310E+01 +7.85998E+00 -7.28628E+00 +1.94832E+01 +3.18286E+00
 +2.93765E+01 +1.21843E+01 +3.42802E+01 +1.77784E+01 +3.19673E+01 +1.93347E+01 +2.22408E+01 +1.75401E+01
