 Created: 19-Jan-2021
 $NMID
 ID='D:\BASISSIMULATI'
 FMTDAT='(8E13.5)'
 VOLUME=   1.00000E+00
 TRAMP=   1.00000E+00
 $END
 +3.06254E+01 +3.00698E-02 +2.56419E+01 +1.58929E+01 +1.22454E+01 +2.54348E+01 -3.84761E+00 +2.48549E+01
 -1.58138E+01 +1.47152E+01 -1.86645E+01 -3.23261E-01 -1.13850E+01 -1.35282E+01 +2.64821E+00 -1.90075E+01
 +1.71435E+01 -1.42457E+01 +2.56192E+01 -1.17433E+00 +2.41991E+01 +1.46779E+01 +1.32728E+01 +2.65809E+01
 -2.68834E+00 +2.95056E+01 -1.70720E+01 +2.22813E+01 -2.39791E+01 +8.08030E+00 -2.07570E+01 -6.96817E+00
 -9.12184E+00 -1.64316E+01 +5.60495E+00 -1.63441E+01 +1.68095E+01 -6.90063E+00 +1.94426E+01 +7.64997E+00
 +1.21880E+01 +2.08569E+01 -1.98720E+00 +2.68579E+01 -1.71306E+01 +2.29025E+01 -2.68804E+01 +1.05218E+01
 -2.72041E+01 -5.15028E+00 -1.81206E+01 -1.76042E+01 -3.66834E+00 -2.17606E+01 +9.85639E+00 -1.61454E+01
 +1.66223E+01 -3.50080E+00 +1.37704E+01 +1.04233E+01 +2.62631E+00 +1.93641E+01 -1.18953E+01 +1.92476E+01
 -2.34283E+01 +9.93197E+00 -2.69050E+01 -4.75234E+00 -2.07304E+01 -1.86722E+01 -7.44964E+00 -2.60424E+01
 +7.37094E+00 -2.39109E+01 +1.75551E+01 -1.34089E+01 +1.89753E+01 +7.63147E-01 +1.13126E+01 +1.23828E+01
 -1.83393E+00 +1.63930E+01 -1.45248E+01 +1.10714E+01 -2.10537E+01 -1.25142E+00 -1.84037E+01 -1.52212E+01
 -7.53022E+00 -2.47843E+01 +7.07471E+00 -2.57975E+01 +1.93358E+01 -1.77976E+01 +2.42164E+01 -4.17635E+00
 +1.98745E+01 +9.30380E+00 +8.43034E+00 +1.70035E+01 -4.97674E+00 +1.58288E+01 -1.44223E+01 +6.54057E+00
 -1.57520E+01 -6.60355E+00 -8.35597E+00 -1.77090E+01 +4.59462E+00 -2.17942E+01 +1.75395E+01 -1.69283E+01
 +2.49379E+01 -5.04090E+00 +2.36512E+01 +8.93457E+00 +1.42736E+01 +1.92029E+01 +8.47822E-01 +2.16026E+01
 -1.08996E+01 +1.53796E+01 -1.60324E+01 +3.48094E+00 -1.25191E+01 -8.74439E+00 -2.08014E+00 -1.58670E+01
 +1.05849E+01 -1.47135E+01 +1.98444E+01 -5.71296E+00 +2.15655E+01 +7.31637E+00 +1.48800E+01 +1.88364E+01
 +2.53183E+00 +2.39830E+01 -1.03313E+01 +2.06506E+01 -1.83886E+01 +1.03718E+01 -1.84318E+01 -2.37320E+00
 -1.07222E+01 -1.21081E+01 +1.15561E+00 -1.47224E+01 +1.18672E+01 -9.22394E+00 +1.66384E+01 +1.86483E+00
 +1.33036E+01 +1.36248E+01 +3.21327E+00 +2.08778E+01 -9.37792E+00 +2.04154E+01 -1.91653E+01 +1.23601E+01
 -2.20818E+01 +8.24214E-02 -1.70318E+01 -1.12763E+01 -6.33178E+00 -1.70278E+01 +5.31956E+00 -1.49439E+01
 +1.28835E+01 -6.18576E+00 +1.31489E+01 +5.23098E+00 +6.09185E+00 +1.41930E+01 -5.14737E+00 +1.66985E+01
 -1.56469E+01 +1.15660E+01 -2.08366E+01 +9.14036E-01 -1.84573E+01 -1.07820E+01 -9.50799E+00 -1.86348E+01
 +2.21747E+00 -1.94466E+01 +1.17878E+01 -1.30620E+01 +1.52623E+01 -2.40004E+00 +1.13692E+01 +7.83448E+00
 +2.01969E+00 +1.31912E+01 -8.55103E+00 +1.13822E+01 -1.56302E+01 +3.23887E+00 -1.60577E+01 -7.68073E+00
 -9.56612E+00 -1.66513E+01 +1.13681E+00 -1.98223E+01 +1.15638E+01 -1.58604E+01 +1.73930E+01 -6.49237E+00
 +1.63191E+01 +4.27230E+00 +9.01569E+00 +1.18883E+01 -1.19165E+00 +1.32301E+01 -9.78670E+00 +7.91322E+00
 -1.30160E+01 -1.57667E+00 -9.48980E+00 -1.09888E+01 -7.48469E-01 -1.61548E+01 +9.43607E+00 -1.47772E+01
 +1.67070E+01 -7.39195E+00 +1.79989E+01 +2.89699E+00 +1.28352E+01 +1.17816E+01 +3.49767E+00 +1.56115E+01
 -5.98845E+00 +1.29487E+01 -1.16042E+01 +5.15209E+00 -1.10585E+01 -4.24558E+00 -4.74549E+00 -1.10840E+01
 +4.46427E+00 -1.23689E+01 +1.24907E+01 -7.53947E+00 +1.58117E+01 +1.32523E+00 +1.29664E+01 +1.04355E+01
 +5.15167E+00 +1.59396E+01 -4.32829E+00 +1.55751E+01 -1.15083E+01 +9.61408E+00 -1.34695E+01 +7.08165E-01
 -9.57279E+00 -7.28397E+00 -1.69529E+00 -1.09681E+01 +6.61423E+00 -8.86094E+00 +1.16834E+01 -1.99417E+00
 +1.12924E+01 +6.56803E+00 +5.60197E+00 +1.30752E+01 -2.95280E+00 +1.47088E+01 -1.07422E+01 +1.07749E+01
 -1.45151E+01 +2.96715E+00 -1.27839E+01 -5.39733E+00 -6.43133E+00 -1.08246E+01 +1.70883E+00 -1.11411E+01
 +8.09863E+00 -6.40035E+00 +1.00226E+01 +1.18098E+00 +6.73541E+00 +8.21089E+00 -2.55225E-01 +1.15961E+01
 -7.87452E+00 +9.86139E+00 -1.28256E+01 +3.75212E+00 -1.30047E+01 -4.12462E+00 -8.37942E+00 -1.04493E+01
 -9.64414E-01 -1.26225E+01 +6.07878E+00 -9.86223E+00 +9.81503E+00 -3.50269E+00 +8.78536E+00 +3.61832E+00
 +3.60052E+00 +8.40290E+00 -3.36261E+00 +8.82299E+00 -9.01405E+00 +4.76577E+00 -1.08871E+01 -1.95734E+00
 -8.18056E+00 -8.42490E+00 -2.06758E+00 -1.18774E+01 +4.84697E+00 -1.08933E+01 +9.66911E+00 -5.96824E+00
 +1.04577E+01 +7.37985E-01 +7.03179E+00 +6.35999E+00 +1.00831E+00 +8.56575E+00 -4.92984E+00 +6.53980E+00
 -8.20418E+00 +1.29606E+00 -7.43950E+00 -4.79818E+00 -3.02306E+00 -9.06541E+00 +3.10227E+00 -9.66887E+00
 +8.30447E+00 -6.37723E+00 +1.04023E+01 -6.25038E-01 +8.58490E+00 +5.13955E+00 +3.72391E+00 +8.52373E+00
 -2.04087E+00 +8.20862E+00 -6.24619E+00 +4.48350E+00 -7.16384E+00 -9.20015E-01 -4.51757E+00 -5.60496E+00
 +4.38432E-01 -7.54913E+00 +5.49628E+00 -5.95726E+00 +8.46206E+00 -1.56660E+00 +8.09090E+00 +3.70972E+00
 +4.59109E+00 +7.63071E+00 -5.05717E-01 +8.59138E+00 -5.03466E+00 +6.28760E+00 -7.13762E+00 +1.80717E+00
 -6.04434E+00 -2.87511E+00 -2.36646E+00 -5.76489E+00 +2.20626E+00 -5.69739E+00 +5.65939E+00 -2.80644E+00
 +6.52160E+00 +1.57433E+00 +4.47311E+00 +5.51814E+00 +4.43907E-01 +7.34431E+00 -3.82328E+00 +6.32483E+00
 -6.54119E+00 +2.96166E+00 -6.63874E+00 -1.26893E+00 -4.19047E+00 -4.57754E+00 -3.43389E-01 -5.63234E+00
 +3.20950E+00 -4.10716E+00 +4.96827E+00 -7.81779E-01 +4.25504E+00 +2.83178E+00 +1.46940E+00 +5.15962E+00
 -2.12406E+00 +5.23627E+00 -4.96710E+00 +3.08981E+00 -5.88067E+00 -3.10759E-01 -4.54874E+00 -3.50545E+00
 -1.61534E+00 -5.18251E+00 +1.63009E+00 -4.72710E+00 +3.82714E+00 -2.44995E+00 +4.12289E+00 +5.86874E-01
 +2.50835E+00 +3.05467E+00 -2.18871E-01 +3.93273E+00 -2.83187E+00 +2.92444E+00 -4.21483E+00 +5.45825E-01
 -3.82867E+00 -2.13459E+00 -1.90819E+00 -3.97631E+00 +6.79017E-01 -4.25206E+00 +2.83364E+00 -2.93139E+00
 +3.70108E+00 -6.53457E-01 +3.01663E+00 +1.58179E+00 +1.18054E+00 +2.85638E+00 -9.52514E-01 +2.71510E+00
 -2.46256E+00 +1.32634E+00 -2.75530E+00 -6.30886E-01 -1.78907E+00 -2.28800E+00 -5.23785E-02 -2.96524E+00
 +1.68053E+00 -2.44291E+00 +2.69638E+00 -1.01801E+00 +2.63675E+00 +6.61506E-01 +1.61840E+00 +1.89707E+00
 +1.43057E-01 +2.23581E+00 -1.14720E+00 +1.63714E+00 -1.75120E+00 +4.50064E-01 -1.50335E+00 -7.71558E-01
 -6.06995E-01 -1.52157E+00 +4.91494E-01 -1.54702E+00 +1.31732E+00 -9.23696E-01 +1.56850E+00 +1.64534E-02
 +1.21867E+00 +8.57357E-01 +4.89166E-01 +1.28383E+00 -2.80655E-01 +1.19740E+00 -7.93959E-01 +7.21703E-01
 -9.12537E-01 +1.11320E-01 -6.83490E-01 -3.80366E-01 -2.79191E-01 -6.07548E-01 +1.06465E-01 -5.68011E-01
 +3.48161E-01 -3.64826E-01 +4.24045E-01 -1.27151E-01 +3.88730E-01 +6.08354E-02 +3.11798E-01 +1.85726E-01
 +2.24690E-01 +2.78978E-01 +1.08771E-01 +3.64283E-01 -7.10686E-02 +4.17842E-01 -3.12917E-01 +3.71459E-01
 -5.44148E-01 +1.60199E-01 -6.37006E-01 -2.13829E-01 -4.73531E-01 -6.44533E-01 -2.75821E-02 -9.43960E-01
 +5.84863E-01 -9.24053E-01 +1.12559E+00 -5.02376E-01 +1.32851E+00 +2.24483E-01 +1.03126E+00 +9.87856E-01
 +2.79828E-01 +1.44620E+00 -6.53927E-01 +1.34089E+00 -1.36565E+00 +6.37576E-01 -1.49278E+00 -4.20799E-01
 -8.94618E-01 -1.38880E+00 +2.49806E-01 -1.80183E+00 +1.48424E+00 -1.39261E+00 +2.25475E+00 -2.40650E-01
 +2.15616E+00 +1.22469E+00 +1.13572E+00 +2.38471E+00 -4.46298E-01 +2.69677E+00 -1.94168E+00 +1.95057E+00
 -2.68389E+00 +3.94971E-01 -2.29031E+00 -1.33511E+00 -8.59996E-01 -2.47491E+00 +1.03240E+00 -2.46635E+00
 +2.55996E+00 -1.22677E+00 +2.99831E+00 +7.78222E-01 +2.05961E+00 +2.70510E+00 +5.24209E-02 +3.68572E+00
 -2.21681E+00 +3.21541E+00 -3.77303E+00 +1.40262E+00 -3.89832E+00 -1.04151E+00 -2.46799E+00 -3.08478E+00
 -4.05359E-02 -3.81599E+00 +2.35324E+00 -2.85805E+00 +3.64382E+00 -5.64964E-01 +3.19719E+00 +2.09712E+00
 +1.11933E+00 +3.94814E+00 -1.75353E+00 +4.10786E+00 -4.19030E+00 +2.40147E+00 -5.09209E+00 -5.29108E-01
 -3.98514E+00 -3.47150E+00 -1.25875E+00 -5.15361E+00 +1.96900E+00 -4.80350E+00 +4.31434E+00 -2.51177E+00
 +4.72804E+00 +7.72718E-01 +2.97228E+00 +3.62719E+00 -2.42166E-01 +4.76430E+00 -3.53273E+00 +3.60564E+00
 -5.42926E+00 +5.64082E-01 -5.01889E+00 -3.10098E+00 -2.36881E+00 -5.80712E+00 +1.46790E+00 -6.33384E+00
 +4.88079E+00 -4.37217E+00 +6.39081E+00 -6.91672E-01 +5.30464E+00 +3.16164E+00 +2.04478E+00 +5.51926E+00
 -2.00049E+00 +5.31920E+00 -5.05668E+00 +2.59144E+00 -5.73062E+00 -1.52152E+00 -3.63386E+00 -5.23239E+00
 +4.16491E-01 -6.87425E+00 +4.72038E+00 -5.63544E+00 +7.41439E+00 -1.94043E+00 +7.28357E+00 +2.70078E+00
 +4.31160E+00 +6.32370E+00 -2.79514E-01 +7.35699E+00 -4.53148E+00 +5.32065E+00 -6.58776E+00 +1.06444E+00
 -5.50884E+00 -3.57013E+00 -1.70671E+00 -6.53093E+00 +3.20163E+00 -6.44824E+00 +7.07192E+00 -3.25125E+00
 +8.15769E+00 +1.76895E+00 +5.88366E+00 +6.49083E+00 +1.12505E+00 +8.86969E+00 -4.14088E+00 +7.83260E+00
 -7.67314E+00 +3.76889E+00 -7.93950E+00 -1.60740E+00 -4.80078E+00 -5.97718E+00 +3.98734E-01 -7.41600E+00
 +5.38706E+00 -5.24282E+00 +7.93735E+00 -3.43547E-01 +6.84134E+00 +5.18315E+00 +2.45803E+00 +8.91680E+00
 -3.41065E+00 +9.16485E+00 -8.27655E+00 +5.71562E+00 -1.00364E+01 -3.99947E-02 -7.89567E+00 -5.68369E+00
 -2.73971E+00 -8.80412E+00 +3.22155E+00 -8.04767E+00 +7.39256E+00 -3.72741E+00 +7.91671E+00 +2.28364E+00
 +4.49890E+00 +7.34130E+00 -1.43810E+00 +9.16939E+00 -7.34323E+00 +6.85841E+00 -1.06288E+01 +1.28603E+00
 -9.79705E+00 -5.23393E+00 -5.11044E+00 -9.93418E+00 +1.49285E+00 -1.07906E+01 +7.21522E+00 -7.41461E+00
 +9.60305E+00 -1.24836E+00 +7.61968E+00 +5.03489E+00 +2.11810E+00 +8.67532E+00 -4.50164E+00 +8.02670E+00
 -9.31378E+00 +3.29008E+00 -1.01326E+01 -3.54543E+00 -6.47501E+00 -9.54107E+00 +2.03520E-01 -1.20725E+01
 +7.11284E+00 -9.97546E+00 +1.13215E+01 -4.07323E+00 +1.10285E+01 +3.15344E+00 +6.36113E+00 +8.62141E+00
 -6.54742E-01 +9.97698E+00 -6.95033E+00 +6.62847E+00 -9.73470E+00 +2.64911E-02 -7.71215E+00 -6.94018E+00
 -1.66548E+00 -1.11819E+01 +5.85678E+00 -1.07488E+01 +1.16247E+01 -5.69369E+00 +1.31211E+01 +1.92524E+00
 +9.64366E+00 +8.91223E+00 +2.63225E+00 +1.23073E+01 -4.93092E+00 +1.06737E+01 -9.79784E+00 +4.73917E+00
