 Created: 19-Jan-2021
 $NMID
 ID='D:\BASISSIMULATI'
 FMTDAT='(8E13.5)'
 VOLUME=   1.00000E+00
 TRAMP=   1.00000E+00
 $END
 +4.19816E+01 +6.81700E-01 +4.08061E+01 +9.15015E+00 +3.78615E+01 +1.71314E+01 +3.33097E+01 +2.42495E+01
 +2.73925E+01 +3.01781E+01 +2.04174E+01 +3.46564E+01 +1.27403E+01 +3.75028E+01 +4.74448E+00 +3.86225E+01
 -3.17948E+00 +3.80107E+01 -1.06553E+01 +3.57507E+01 -1.73406E+01 +3.20070E+01 -2.29438E+01 +2.70140E+01
 -2.72382E+01 +2.10617E+01 -3.00719E+01 +1.44780E+01 -3.13726E+01 +7.61039E+00 -3.11491E+01 +8.06809E-01
 -2.94869E+01 -5.60281E+00 -2.65410E+01 -1.13230E+01 -2.25248E+01 -1.61066E+01 -1.76957E+01 -1.97659E+01
 -1.23406E+01 -2.21790E+01 -6.75877E+00 -2.32934E+01 -1.24640E+00 -2.31255E+01 +3.91886E+00 -2.17556E+01
 +8.49092E+00 -1.93211E+01 +1.22662E+01 -1.60063E+01 +1.50917E+01 -1.20307E+01 +1.68698E+01 -7.63587E+00
 +1.75602E+01 -3.07257E+00 +1.71790E+01 +1.41233E+00 +1.57944E+01 +5.58761E+00 +1.35212E+01 +9.24803E+00
 +1.05121E+01 +1.22227E+01 +6.94905E+00 +1.43814E+01 +3.03310E+00 +1.56382E+01 -1.02584E+00 +1.59536E+01
 -5.01885E+00 +1.53336E+01 -8.74719E+00 +1.38273E+01 -1.20305E+01 +1.15229E+01 -1.47137E+01 +8.54212E+00
 -1.66725E+01 +5.03374E+00 -1.78173E+01 +1.16636E+00 -1.80956E+01 -2.87912E+00 -1.74930E+01 -6.91711E+00
 -1.60329E+01 -1.07648E+01 -1.37740E+01 -1.42493E+01 -1.08084E+01 -1.72140E+01 -7.25660E+00 -1.95242E+01
 -3.26326E+00 -2.10726E+01 +1.00877E+00 -2.17823E+01 +5.38458E+00 -2.16106E+01 +9.68382E+00 -2.05499E+01
 +1.37277E+01 -1.86291E+01 +1.73457E+01 -1.59119E+01 +2.03828E+01 -1.24953E+01 +2.27054E+01 -8.50640E+00
 +2.42073E+01 -4.09739E+00 +2.48144E+01 +5.59791E-01 +2.44887E+01 +5.28028E+00 +2.32306E+01 +9.87367E+00
 +2.10795E+01 +1.41520E+01 +1.81133E+01 +1.79380E+01 +1.44458E+01 +2.10728E+01 +1.02224E+01 +2.34236E+01
 +5.61431E+00 +2.48902E+01 +8.11085E-01 +2.54101E+01 -3.98741E+00 +2.49619E+01 -8.58034E+00 +2.35674E+01
 -1.27753E+01 +2.12909E+01 -1.63974E+01 +1.82370E+01 -1.92984E+01 +1.45457E+01 -2.13633E+01 +1.03861E+01
 -2.25170E+01 +5.94866E+00 -2.27280E+01 +1.43516E+00 -2.20099E+01 -2.95074E+00 -2.04210E+01 -7.01405E+00
 -1.80611E+01 -1.05783E+01 -1.50665E+01 -1.34947E+01 -1.16023E+01 -1.56495E+01 -7.85408E+00 -1.69699E+01
 -4.01732E+00 -1.74272E+01 -2.87292E-01 -1.70385E+01 +3.15159E+00 -1.58642E+01 +6.13566E+00 -1.40053E+01
 +8.53057E+00 -1.15960E+01 +1.02382E+01 -8.79674E+00 +1.12015E+01 -5.78413E+00 +1.14069E+01 -2.74106E+00
 +1.08840E+01 +1.53839E-01 +9.70321E+00 +2.73628E+00 +7.97063E+00 +4.86536E+00 +5.82129E+00 +6.43115E+00
 +3.41060E+00 +7.36033E+00 +9.04866E-01 +7.61962E+00 -1.52864E+00 +7.21672E+00 -3.73150E+00 +6.19893E+00
 -5.56316E+00 +4.64944E+00 -6.90880E+00 +2.68159E+00 -7.68539E+00 +4.31514E-01 -7.84581E+00 -1.95038E+00
 -7.38073E+00 -4.30850E+00 -6.31826E+00 -6.49129E+00 -4.72139E+00 -8.35990E+00 -2.68348E+00 -9.79587E+00
 -3.22201E-01 -1.07074E+01 +2.22785E+00 -1.10341E+01 +4.82318E+00 -1.07491E+01 +7.31970E+00 -9.86030E+00
 +9.58074E+00 -8.40832E+00 +1.14844E+01 -6.46375E+00 +1.29296E+01 -4.12219E+00 +1.38412E+01 -1.49833E+00
 +1.41728E+01 +1.28082E+00 +1.39082E+01 +4.08305E+00 +1.30612E+01 +6.77806E+00 +1.16740E+01 +9.24408E+00
 +9.81330E+00 +1.13737E+01 +7.56626E+00 +1.30787E+01 +5.03519E+00 +1.42934E+01 +2.33174E+00 +1.49771E+01
 -4.28894E-01 +1.51142E+01 -3.13368E+00 +1.47144E+01 -5.67692E+00 +1.38101E+01 -7.96471E+00 +1.24541E+01
 -9.91854E+00 +1.07156E+01 -1.14778E+01 +8.67665E+00 -1.26015E+01 +6.42693E+00 -1.32684E+01 +4.05996E+00
 -1.34770E+01 +1.66859E+00 -1.32440E+01 -6.58835E-01 -1.26025E+01 -2.84179E+00 -1.15994E+01 -4.81033E+00
 -1.02924E+01 -6.50711E+00 -8.74736E+00 -7.88879E+00 -7.03502E+00 -8.92674E+00 -5.22783E+00 -9.60713E+00
 -3.39728E+00 -9.93050E+00 -1.61124E+00 -9.91081E+00 +6.82841E-02 -9.57414E+00 +1.58712E+00 -8.95706E+00
 +2.90048E+00 -8.10474E+00 +3.97415E+00 -7.06887E+00 +4.78530E+00 -5.90554E+00 +5.32291E+00 -4.67295E+00
 +5.58779E+00 -3.42916E+00 +5.59223E+00 -2.22985E+00 +5.35927E+00 -1.12623E+00 +4.92160E+00 -1.63001E-01
 +4.32008E+00 +6.23403E-01 +3.60193E+00 +1.20630E+00 +2.81866E+00 +1.56993E+00 +2.02369E+00 +1.71016E+00
 +1.26992E+00 +1.63476E+00 +6.07158E-01 +1.36315E+00 +7.95888E-02 +9.25557E-01 -2.76511E-01 +3.61706E-01
 -4.34839E-01 -2.81085E-01 -3.80675E-01 -9.50223E-01 -1.11978E-01 -1.59053E+00 +3.60148E-01 -2.14721E+00
 +1.01166E+00 -2.56885E+00 +1.80649E+00 -2.81044E+00 +2.69817E+00 -2.83613E+00 +3.63207E+00 -2.62154E+00
 +4.54818E+00 -2.15563E+00 +5.38433E+00 -1.44179E+00 +6.07963E+00 -4.98235E-01 +6.57789E+00 +6.42482E-01
 +6.83104E+00 +1.93473E+00 +6.80208E+00 +3.32188E+00 +6.46750E+00 +4.73902E+00 +5.81910E+00 +6.11624E+00
 +4.86495E+00 +7.38232E+00 +3.62942E+00 +8.46848E+00 +2.15238E+00 +9.31220E+00 +4.87512E-01 +9.86070E+00
 -1.30018E+00 +1.00739E+01 -3.13751E+00 +9.92699E+00 -4.94678E+00 +9.41169E+00 -6.64962E+00 +8.53727E+00
 -8.17101E+00 +7.33014E+00 -9.44312E+00 +5.83280E+00 -1.04087E+01 +4.10178E+00 -1.10241E+01 +2.20496E+00
 -1.12613E+01 +2.18214E-01 -1.11095E+01 -1.77829E+00 -1.05753E+01 -3.70402E+00 -9.68264E+00 -5.48199E+00
 -8.47125E+00 -7.04244E+00 -6.99465E+00 -8.32612E+00 -5.31747E+00 -9.28697E+00 -3.51212E+00 -9.89418E+00
 -1.65528E+00 -1.01333E+01 +1.75846E-01 -1.00068E+01 +1.90719E+00 -9.53336E+00 +3.47128E+00 -8.74689E+00
 +4.81026E+00 -7.69441E+00 +5.87845E+00 -6.43362E+00 +6.64416E+00 -5.02981E+00 +7.09095E+00 -3.55265E+00
 +7.21793E+00 -2.07270E+00 +7.03953E+00 -6.58004E-01 +6.58437E+00 +6.29096E-01 +5.89360E+00 +1.73489E+00
 +5.01857E+00 +2.61672E+00 +4.01812E+00 +3.24487E+00 +2.95556E+00 +3.60379E+00 +1.89534E+00 +3.69266E+00
 +8.99873E-01 +3.52522E+00 +2.63017E-02 +3.12892E+00 -6.76378E-01 +2.54339E+00 -1.16984E+00 +1.81832E+00
 -1.42843E+00 +1.01084E+00 -1.44058E+00 +1.82458E-01 -1.20948E+00 -6.04151E-01 -7.53096E-01 -1.28859E+00
 -1.03343E-01 -1.81606E+00 +6.95395E-01 -2.14046E+00 +1.58849E+00 -2.22717E+00 +2.51387E+00 -2.05524E+00
 +3.40529E+00 -1.61893E+00 +4.19597E+00 -9.28555E-01 +4.82232E+00 -1.03651E-02 +5.22769E+00 +1.09432E+00
 +5.36585E+00 +2.33093E+00 +5.20401E+00 +3.63421E+00 +4.72522E+00 +4.93150E+00 +3.92999E+00 +6.14656E+00
 +2.83701E+00 +7.20377E+00 +1.48280E+00 +8.03237E+00 -7.95874E-02 +8.57073E+00 -1.78289E+00 +8.77016E+00
 -3.54885E+00 +8.59815E+00 -5.29221E+00 +8.04081E+00 -6.92518E+00 +7.10438E+00 -8.36226E+00 +5.81551E+00
 -9.52510E+00 +4.22054E+00 -1.03470E+01 +2.38347E+00 -1.07771E+01 +3.82927E-01 -1.07833E+01 -1.69175E+00
 -1.03548E+01 -3.74525E+00 -9.50314E+00 -5.68140E+00 -8.26153E+00 -7.40847E+00 -6.68388E+00 -8.84426E+00
 -4.84178E+00 -9.92079E+00 -2.82080E+00 -1.05882E+01 -7.15826E-01 -1.08174E+01 +1.37412E+00 -1.06022E+01
 +3.35140E+00 -9.95918E+00 +5.12514E+00 -8.92686E+00 +6.61623E+00 -7.56351E+00 +7.76165E+00 -5.94365E+00
 +8.51775E+00 -4.15367E+00 +8.86239E+00 -2.28683E+00 +8.79581E+00 -4.37889E-01 +8.34009E+00 +1.30224E+00
 +7.53740E+00 +2.85156E+00 +6.44700E+00 +4.14136E+00 +5.14141E+00 +5.11974E+00 +3.70178E+00 +5.75394E+00
 +2.21297E+00 +6.03160E+00 +7.58541E-01 +5.96059E+00 -5.84008E-01 +5.56773E+00 -1.74738E+00 +4.89638E+00
 -2.67787E+00 +4.00317E+00 -3.33776E+00 +2.95406E+00 -3.70659E+00 +1.82006E+00 -3.78138E+00 +6.72881E-01
 -3.57573E+00 -4.19198E-01 -3.11796E+00 -1.39495E+00 -2.44859E+00 -2.20320E+00 -1.61721E+00 -2.80489E+00
 -6.79045E-01 -3.17441E+00 +3.08421E-01 -3.29981E+00 +1.28869E+00 -3.18236E+00 +2.20910E+00 -2.83530E+00
 +3.02304E+00 -2.28202E+00 +3.69165E+00 -1.55394E+00 +4.18475E+00 -6.88211E-01 +4.48120E+00 +2.74543E-01
 +4.56864E+00 +1.29229E+00 +4.44291E+00 +2.32330E+00 +4.10706E+00 +3.32746E+00 +3.57037E+00 +4.26719E+00
 +2.84734E+00 +5.10792E+00 +1.95683E+00 +5.81830E+00 +9.21470E-01 +6.37018E+00 -2.32654E-01 +6.73854E+00
 -1.47610E+00 +6.90153E+00 -2.77591E+00 +6.84061E+00 -4.09545E+00 +6.54106E+00 -5.39422E+00 +5.99277E+00
 -6.62793E+00 +5.19136E+00 -7.74892E+00 +4.13954E+00 -8.70709E+00 +2.84856E+00 -9.45128E+00 +1.33973E+00
 -9.93142E+00 -3.54452E-01 -1.01010E+01 -2.18952E+00 -9.92041E+00 -4.10891E+00 -9.35971E+00 -6.04473E+00
 -8.40245E+00 -7.91938E+00 -7.04847E+00 -9.64821E+00 -5.31651E+00 -1.11431E+01 -3.24582E+00 -1.23170E+01
 -8.96794E-01 -1.30888E+01 +1.64983E+00 -1.33889E+01 +4.29507E+00 -1.31642E+01 +6.92536E+00 -1.23835E+01
 +9.41750E+00 -1.10412E+01 +1.16447E+01 -9.16059E+00 +1.34839E+01 -6.79466E+00 +1.48224E+01 -4.02621E+00
 +1.55664E+01 -9.65281E-01 +1.56469E+01 +2.25500E+00 +1.50261E+01 +5.48445E+00 +1.37013E+01 +8.56336E+00
 +1.17080E+01 +1.13311E+01 +9.11962E+00 +1.36356E+01 +6.04552E+00 +1.53422E+01 +2.62672E+00 +1.63431E+01
 -9.70857E-01 +1.65644E+01 -4.56485E+00 +1.59724E+01 -7.96642E+00 +1.45772E+01 -1.09910E+01 +1.24336E+01
 -1.34692E+01 +9.64029E+00 -1.52576E+01 +6.33483E+00 -1.62473E+01 +2.68740E+00 -1.63721E+01 -1.10846E+00
 -1.56133E+01 -4.84651E+00 -1.40016E+01 -8.31961E+00 -1.16172E+01 -1.13319E+01 -8.58545E+00 -1.37105E+01
 -5.07053E+00 -1.53163E+01 -1.26660E+00 -1.60523E+01 +2.61338E+00 -1.58706E+01 +6.34989E+00 -1.47751E+01
 +9.72968E+00 -1.28226E+01 +1.25584E+01 -1.01191E+01 +1.46721E+01 -6.81474E+00 +1.59470E+01 -3.09479E+00
 +1.63072E+01 +8.31009E-01 +1.57286E+01 +4.74065E+00 +1.42411E+01 +8.41283E+00 +1.19262E+01 +1.16398E+01
 +8.91207E+00 +1.42396E+01 +5.36634E+00 +1.60661E+01 +1.48575E+00 +1.70176E+01 -2.51539E+00 +1.70423E+01
 -6.41763E+00 +1.61401E+01 -1.00091E+01 +1.43630E+01 -1.30974E+01 +1.18103E+01 -1.55203E+01 +8.62299E+00
 -1.71543E+01 +4.97440E+00 -1.79206E+01 +1.06009E+00 -1.77888E+01 -2.91378E+00 -1.67769E+01 -6.74217E+00
 -1.49493E+01 -1.02325E+01 -1.24116E+01 -1.32148E+01 -9.30346E+00 -1.55504E+01 -5.78971E+00 -1.71382E+01
 -2.05060E+00 -1.79187E+01 +1.72867E+00 -1.78752E+01 +5.36793E+00 -1.70332E+01 +8.70137E+00 -1.54566E+01
 +1.15854E+01 -1.32424E+01 +1.39048E+01 -1.05140E+01 +1.55772E+01 -7.41318E+00 +1.65548E+01 -4.09168E+00
 +1.68245E+01 -7.03155E-01 +1.64065E+01 +2.60468E+00 +1.53503E+01 +5.69677E+00 +1.37301E+01 +8.45613E+00
 +1.16397E+01 +1.07878E+01 +9.18558E+00 +1.26213E+01 +6.48194E+00 +1.39115E+01 +3.64431E+00 +1.46378E+01
