 Created: 19-Jan-2021
 $NMID
 ID='D:\BASISSIMULATI'
 FMTDAT='(8E13.5)'
 VOLUME=   1.00000E+00
 TRAMP=   1.00000E+00
 $END
 +5.47847E+01 +1.18466E+00 +4.78267E+01 +1.47329E+01 +2.97203E+01 +2.55332E+01 +5.68689E+00 +3.14676E+01
 -1.74381E+01 +3.12191E+01 -3.32725E+01 +2.46005E+01 -3.77649E+01 +1.27560E+01 -3.03025E+01 -1.88200E+00
 -1.37294E+01 -1.59695E+01 +6.68228E+00 -2.59616E+01 +2.49359E+01 -2.90273E+01 +3.61217E+01 -2.39238E+01
 +3.77679E+01 -1.15371E+01 +3.03473E+01 +5.14907E+00 +1.68542E+01 +2.17362E+01 +1.66639E+00 +3.36092E+01
 -1.08856E+01 +3.73186E+01 -1.77687E+01 +3.17078E+01 -1.79543E+01 +1.83928E+01 -1.24350E+01 +1.38183E+00
 -3.64234E+00 -1.40950E+01 +5.46551E+00 -2.32066E+01 +1.23139E+01 -2.30764E+01 +1.53456E+01 -1.37516E+01
 +1.42444E+01 +1.75730E+00 +9.77242E+00 +1.84109E+01 +3.36541E+00 +3.07620E+01 -3.33115E+00 +3.47375E+01
 -8.83972E+00 +2.89882E+01 -1.20783E+01 +1.53502E+01 -1.24572E+01 -1.74400E+00 -9.90671E+00 -1.67147E+01
 -4.88806E+00 -2.46628E+01 +1.61063E+00 -2.29700E+01 +8.14068E+00 -1.21400E+01 +1.29896E+01 +4.38561E+00
 +1.45400E+01 +2.13659E+01 +1.17454E+01 +3.34601E+01 +4.58637E+00 +3.69221E+01 -5.67500E+00 +3.07410E+01
 -1.66081E+01 +1.68775E+01 -2.51512E+01 -4.44235E-01 -2.84797E+01 -1.61200E+01 -2.49585E+01 -2.57518E+01
 -1.48546E+01 -2.69249E+01 -5.16768E-01 -1.97994E+01 +1.41193E+01 -6.88220E+00 +2.46192E+01 +7.88000E+00
 +2.74257E+01 +2.03473E+01 +2.10828E+01 +2.73617E+01 +6.87582E+00 +2.75091E+01 -1.13768E+01 +2.12958E+01
 -2.83766E+01 +1.07749E+01 -3.89452E+01 -1.18532E+00 -3.96716E+01 -1.17199E+01 -3.00636E+01 -1.86360E+01
 -1.28016E+01 -2.07888E+01 +7.02041E+00 -1.81479E+01 +2.34459E+01 -1.16294E+01 +3.15111E+01 -2.80666E+00
 +2.88053E+01 +6.40788E+00 +1.62285E+01 +1.40659E+01 -2.30220E+00 +1.84750E+01 -2.10967E+01 +1.84906E+01
 -3.44811E+01 +1.37944E+01 -3.85493E+01 +5.09210E+00 -3.23193E+01 -5.86678E+00 -1.79437E+01 -1.65379E+01
 +6.32489E-02 -2.41216E+01 +1.62964E+01 -2.63050E+01 +2.61371E+01 -2.20114E+01 +2.70994E+01 -1.19051E+01
 +1.94451E+01 +1.57152E+00 +5.92449E+00 +1.47238E+01 -9.21215E+00 +2.36059E+01 -2.15725E+01 +2.52261E+01
 -2.79006E+01 +1.85757E+01 -2.68986E+01 +5.11673E+00 -1.93932E+01 -1.14887E+01 -7.87592E+00 -2.63840E+01
 +4.36721E+00 -3.49813E+01 +1.42254E+01 -3.44288E+01 +1.95412E+01 -2.45961E+01 +1.95133E+01 -8.22649E+00
 +1.46872E+01 +9.83079E+00 +6.62504E+00 +2.40932E+01 -2.58621E+00 +3.01612E+01 -1.08312E+01 +2.61238E+01
 -1.63625E+01 +1.31893E+01 -1.80608E+01 -4.67397E+00 -1.55753E+01 -2.19798E+01 -9.36677E+00 -3.34473E+01
 -6.63614E-01 -3.56500E+01 +8.69457E+00 -2.80588E+01 +1.65541E+01 -1.31546E+01 +2.08869E+01 +4.40827E+00
 +2.03120E+01 +1.92986E+01 +1.45682E+01 +2.71684E+01 +4.77150E+00 +2.59471E+01 -6.68816E+00 +1.63763E+01
 -1.66630E+01 +1.65425E+00 -2.20905E+01 -1.36524E+01 -2.09410E+01 -2.50488E+01 -1.29688E+01 -2.94353E+01
 +1.48342E-02 -2.59198E+01 +1.45012E+01 -1.59115E+01 +2.62302E+01 -2.53291E+00 +3.14702E+01 +1.04072E+01
 +2.82363E+01 +1.95321E+01 +1.70386E+01 +2.27691E+01 +8.77129E-01 +1.97585E+01 -1.55657E+01 +1.17501E+01
 -2.73159E+01 +1.09590E+00 -3.06572E+01 -9.45603E+00 -2.43398E+01 -1.74487E+01 -1.00427E+01 -2.12197E+01
 +8.08152E+00 -2.01480E+01 +2.46557E+01 -1.46570E+01 +3.47303E+01 -6.03548E+00 +3.53142E+01 +3.84954E+00
 +2.62931E+01 +1.28965E+01 +1.04438E+01 +1.91392E+01 -7.45348E+00 +2.11194E+01 -2.21115E+01 +1.82212E+01
 -2.93568E+01 +1.08972E+01 -2.73613E+01 +6.97390E-01 -1.71102E+01 -9.96903E+00 -1.98839E+00 -1.83465E+01
 +1.33489E+01 -2.20369E+01 +2.44351E+01 -1.97175E+01 +2.83113E+01 -1.16472E+01 +2.43090E+01 +2.37690E-01
 +1.40906E+01 +1.27352E+01 +9.92306E-01 +2.22320E+01 -1.10777E+01 +2.57764E+01 -1.88136E+01 +2.20434E+01
 -2.04027E+01 +1.18625E+01 -1.58988E+01 -1.90335E+00 -7.02568E+00 -1.51405E+01 +3.46375E+00 -2.37182E+01
 +1.26337E+01 -2.47978E+01 +1.81543E+01 -1.77908E+01 +1.88281E+01 -4.63542E+00 +1.47603E+01 +1.07298E+01
 +7.19096E+00 +2.35542E+01 -1.90661E+00 +2.97592E+01 -1.03272E+01 +2.72448E+01 -1.61149E+01 +1.65912E+01
 -1.79421E+01 +9.19279E-01 -1.53500E+01 -1.50567E+01 -8.83412E+00 -2.64844E+01 +2.27001E-01 -2.98759E+01
 +9.80377E+00 -2.41788E+01 +1.75994E+01 -1.10826E+01 +2.15463E+01 +5.52582E+00 +2.03314E+01 +2.07711E+01
 +1.38225E+01 +3.02702E+01 +3.25611E+00 +3.14208E+01 -8.92168E+00 +2.41081E+01 -1.95827E+01 +1.06414E+01
 -2.57202E+01 -5.02395E+00 -2.53236E+01 -1.85041E+01 -1.80637E+01 -2.62556E+01 -5.54516E+00 -2.65164E+01
 +9.00358E+00 -1.96709E+01 +2.15659E+01 -7.98148E+00 +2.84830E+01 +5.17719E+00 +2.75722E+01 +1.63156E+01
 +1.88619E+01 +2.27562E+01 +4.68334E+00 +2.32457E+01 -1.09470E+01 +1.81289E+01 -2.34918E+01 +9.09922E+00
 -2.92589E+01 -1.35167E+00 -2.65431E+01 -1.06041E+01 -1.61752E+01 -1.65266E+01 -1.29230E+00 -1.79106E+01
 +1.36114E+01 -1.46621E+01 +2.40612E+01 -7.74878E+00 +2.69735E+01 +1.05653E+00 +2.15920E+01 +9.57680E+00
 +9.69510E+00 +1.57044E+01 -4.98402E+00 +1.78710E+01 -1.79324E+01 +1.54296E+01 -2.52509E+01 +8.86229E+00
 -2.48289E+01 -2.56355E-01 -1.69412E+01 -9.57214E+00 -4.10138E+00 -1.65052E+01 +9.75786E+00 -1.89340E+01
 +2.05026E+01 -1.58347E+01 +2.50275E+01 -7.68249E+00 +2.21277E+01 +3.54072E+00 +1.27731E+01 +1.47864E+01
 -2.62386E-01 +2.27470E+01 -1.32687E+01 +2.48230E+01 -2.26803E+01 +1.99622E+01 -2.60484E+01 +9.09839E+00
 -2.26420E+01 -4.98632E+00 -1.35431E+01 -1.83760E+01 -1.25693E+00 -2.71315E+01 +1.10142E+01 -2.84750E+01
 +2.02148E+01 -2.16810E+01 +2.41742E+01 -8.38262E+00 +2.20724E+01 +7.82757E+00 +1.45552E+01 +2.24057E+01
 +3.50945E+00 +3.11791E+01 -8.42018E+00 +3.15851E+01 -1.84486E+01 +2.34430E+01 -2.42708E+01 +9.02113E+00
 -2.45632E+01 -7.62760E+00 -1.92741E+01 -2.18560E+01 -9.64489E+00 -2.97774E+01 +2.04992E+00 -2.93734E+01
 +1.30037E+01 -2.10292E+01 +2.05282E+01 -7.34973E+00 +2.27145E+01 +7.66476E+00 +1.89454E+01 +1.98166E+01
 +1.01125E+01 +2.59132E+01 -1.54592E+00 +2.46204E+01 -1.29805E+01 +1.67368E+01 -2.11241E+01 +4.84209E+00
 -2.37392E+01 -7.53886E+00 -2.00784E+01 -1.69838E+01 -1.11513E+01 -2.11186E+01 +5.09038E-01 -1.92005E+01
 +1.15393E+01 -1.22047E+01 +1.87152E+01 -2.43124E+00 +1.99140E+01 +7.21821E+00 +1.47762E+01 +1.40679E+01
 +4.84990E+00 +1.63701E+01 -6.84508E+00 +1.37075E+01 -1.67147E+01 +7.01933E+00 -2.16843E+01 -1.72148E+00
 -2.01516E+01 -1.00718E+01 -1.24998E+01 -1.57650E+01 -1.00456E+00 -1.72824E+01 +1.08459E+01 -1.42190E+01
 +1.94100E+01 -7.37029E+00 +2.20073E+01 +1.47137E+00 +1.77442E+01 +9.96123E+00 +7.79647E+00 +1.57857E+01
 -4.93729E+00 +1.72536E+01 -1.67009E+01 +1.37553E+01 -2.39993E+01 +5.97127E+00 -2.46314E+01 -4.23757E+00
 -1.83286E+01 -1.42551E+01 -6.81865E+00 -2.13637E+01 +6.69228E+00 -2.34730E+01 +1.84534E+01 -1.97300E+01
 +2.52370E+01 -1.08333E+01 +2.52316E+01 +1.06265E+00 +1.85123E+01 +1.28593E+01 +6.97556E+00 +2.13258E+01
 -6.22375E+00 +2.40001E+01 -1.75552E+01 +1.99222E+01 -2.40630E+01 +9.97626E+00 -2.41271E+01 -3.28136E+00
 -1.78435E+01 -1.62836E+01 -6.94483E+00 -2.54326E+01 +5.69562E+00 -2.81223E+01 +1.68308E+01 -2.35051E+01
 +2.36724E+01 -1.27694E+01 +2.45816E+01 +1.16631E+00 +1.94518E+01 +1.44628E+01 +9.70464E+00 +2.34458E+01
 -2.09249E+00 +2.56511E+01 -1.28845E+01 +2.05249E+01 -1.99003E+01 +9.57471E+00 -2.13508E+01 -4.07099E+00
 -1.68814E+01 -1.65635E+01 -7.66754E+00 -2.44294E+01 +3.87753E+00 -2.55433E+01 +1.47164E+01 -1.97017E+01
 +2.19738E+01 -8.64173E+00 +2.36979E+01 +4.48604E+00 +1.93949E+01 +1.60277E+01 +1.01878E+01 +2.28523E+01
 -1.45621E+00 +2.32036E+01 -1.23725E+01 +1.71467E+01 -1.95526E+01 +6.49995E+00 -2.09777E+01 -5.70947E+00
 -1.61965E+01 -1.61020E+01 -6.47800E+00 -2.18693E+01 +5.51508E+00 -2.15154E+01 +1.64534E+01 -1.52238E+01
 +2.32687E+01 -4.76684E+00 +2.40215E+01 +7.00323E+00 +1.84593E+01 +1.69344E+01 +8.09975E+00 +2.24149E+01
 -4.18824E+00 +2.20534E+01 -1.49914E+01 +1.60264E+01 -2.13151E+01 +6.01145E+00 -2.14277E+01 -5.27263E+00
 -1.53438E+01 -1.47921E+01 -4.81054E+00 -2.00028E+01 +7.19612E+00 -1.95226E+01 +1.73176E+01 -1.34962E+01
 +2.27562E+01 -3.55601E+00 +2.20491E+01 +7.61389E+00 +1.54565E+01 +1.69973E+01 +4.86270E+00 +2.20603E+01
 -6.77233E+00 +2.14416E+01 -1.62499E+01 +1.53300E+01 -2.10186E+01 +5.42044E+00 -1.98649E+01 -5.54448E+00
 -1.32225E+01 -1.45279E+01 -3.02463E+00 -1.90408E+01 +7.84911E+00 -1.78384E+01 +1.63744E+01 -1.12738E+01
 +2.02093E+01 -1.20407E+00 +1.83238E+01 +9.52756E+00 +1.12661E+01 +1.78912E+01 +9.99714E-01 +2.15252E+01
 -9.64125E+00 +1.94036E+01 -1.77283E+01 +1.21252E+01 -2.10380E+01 +1.74214E+00 -1.86594E+01 -8.82308E+00
 -1.12470E+01 -1.66047E+01 -8.48525E-01 -1.94290E+01 +9.64821E+00 -1.65219E+01 +1.73038E+01 -8.71756E+00
 +1.99385E+01 +1.78378E+00 +1.67452E+01 +1.20380E+01 +8.53162E+00 +1.91795E+01 -2.48231E+00 +2.12123E+01
 -1.32627E+01 +1.75537E+01 -2.07983E+01 +9.18346E+00 -2.29439E+01 -1.63420E+00 -1.90349E+01 -1.19745E+01
 -1.00943E+01 -1.90473E+01 +1.43377E+00 -2.09481E+01 +1.23558E+01 -1.71662E+01 +1.96211E+01 -8.71752E+00
 +2.11828E+01 +2.12862E+00 +1.65812E+01 +1.24536E+01 +7.08096E+00 +1.94648E+01 -4.68051E+00 +2.12387E+01
 -1.54339E+01 +1.72387E+01 -2.21972E+01 +8.46922E+00 -2.31105E+01 -2.77545E+00 -1.79491E+01 -1.35085E+01
 -8.17170E+00 -2.08412E+01 +3.50355E+00 -2.27623E+01 +1.38703E+01 -1.86963E+01 +2.01278E+01 -9.68698E+00
 +2.06451E+01 +1.85523E+00 +1.53860E+01 +1.27856E+01 +5.88525E+00 +2.00758E+01 -5.20311E+00 +2.16544E+01
 -1.48501E+01 +1.70028E+01 -2.04751E+01 +7.33275E+00 -2.06255E+01 -4.71973E+00 -1.53345E+01 -1.58094E+01
 -6.07650E+00 -2.28151E+01 +4.65467E+00 -2.37295E+01 +1.40203E+01 -1.82465E+01 +1.95821E+01 -7.87163E+00
 +1.99265E+01 +4.48782E+00 +1.50135E+01 +1.53425E+01 +6.17087E+00 +2.16171E+01 -4.25744E+00 +2.15352E+01
 -1.35164E+01 +1.51318E+01 -1.91466E+01 +4.24362E+00 -1.96180E+01 -8.02307E+00 -1.47342E+01 -1.81885E+01
 -5.70259E+00 -2.33974E+01 +5.15354E+00 -2.22269E+01 +1.49783E+01 -1.50710E+01 +2.11232E+01 -3.99845E+00
 +2.18577E+01 +7.86442E+00 +1.68628E+01 +1.72370E+01 +7.36497E+00 +2.16057E+01 -4.14377E+00 +1.99013E+01
 -1.45444E+01 +1.27491E+01 -2.09314E+01 +2.23879E+00 -2.14293E+01 -8.69819E+00 -1.57551E+01 -1.71144E+01
