 Created: 19-Jan-2021
 $NMID
 ID='D:\BASISSIMULATI'
 FMTDAT='(8E13.5)'
 VOLUME=   1.00000E+00
 TRAMP=   1.00000E+00
 $END
 +8.19485E+01 +2.48552E+00 +7.24680E+01 +3.44794E+01 +4.91378E+01 +5.79508E+01 +1.78679E+01 +6.73402E+01
 -1.35114E+01 +6.06952E+01 -3.72683E+01 +4.01265E+01 -4.77412E+01 +1.12123E+01 -4.27494E+01 -1.84847E+01
 -2.40831E+01 -4.13878E+01 +3.03989E+00 -5.18458E+01 +3.13915E+01 -4.75359E+01 +5.36409E+01 -2.99758E+01
 +6.42429E+01 -4.02951E+00 +6.08168E+01 +2.34426E+01 +4.46666E+01 +4.54168E+01 +2.03278E+01 +5.65308E+01
 -5.71586E+00 +5.44233E+01 -2.67871E+01 +4.02492E+01 -3.77679E+01 +1.82577E+01 -3.63887E+01 -5.42912E+00
 -2.37278E+01 -2.44946E+01 -3.81054E+00 -3.41043E+01 +1.75585E+01 -3.21394E+01 +3.44017E+01 -1.96722E+01
 +4.21718E+01 -5.78135E-01 +3.89285E+01 +1.95881E+01 +2.57859E+01 +3.51332E+01 +6.53183E+00 +4.17619E+01
 -1.34595E+01 +3.77004E+01 -2.87120E+01 +2.41164E+01 -3.51256E+01 +4.74302E+00 -3.10531E+01 -1.51769E+01
 -1.76984E+01 -3.03275E+01 +1.25509E+00 -3.67477E+01 +2.06705E+01 -3.28707E+01 +3.53522E+01 -1.99066E+01
 +4.14319E+01 -1.48013E+00 +3.73796E+01 +1.73658E+01 +2.43791E+01 +3.15265E+01 +5.98075E+00 +3.71860E+01
 -1.28634E+01 +3.28078E+01 -2.71177E+01 +1.95106E+01 -3.29829E+01 +7.43584E-01 -2.88719E+01 -1.86430E+01
 -1.57939E+01 -3.36772E+01 +2.94319E+00 -4.05555E+01 +2.26207E+01 -3.76080E+01 +3.83478E+01 -2.56954E+01
 +4.63211E+01 -7.94424E+00 +4.47812E+01 +1.10969E+01 +3.44235E+01 +2.66505E+01 +1.81696E+01 +3.49391E+01
 +3.70424E-01 +3.41303E+01 -1.43395E+01 +2.47625E+01 -2.22368E+01 +9.55170E+00 -2.14417E+01 -7.35669E+00
 -1.23558E+01 -2.14863E+01 +2.49715E+00 -2.91874E+01 +1.91736E+01 -2.85546E+01 +3.33599E+01 -1.98729E+01
 +4.14936E+01 -5.48819E+00 +4.16619E+01 +1.08510E+01 +3.40533E+01 +2.49978E+01 +2.08528E+01 +3.34906E+01
 +5.62344E+00 +3.44320E+01 -7.65621E+00 +2.79402E+01 -1.56389E+01 +1.60656E+01 -1.64666E+01 +2.20496E+00
 -1.02189E+01 -9.82187E+00 +1.15541E+00 -1.67852E+01 +1.43954E+01 -1.68815E+01 +2.58182E+01 -1.01764E+01
 +3.23007E+01 +1.45333E+00 +3.20947E+01 +1.48541E+01 +2.52618E+01 +2.64560E+01 +1.36225E+01 +3.32275E+01
 +2.40160E-01 +3.34692E+01 -1.14150E+01 +2.72404E+01 -1.83953E+01 +1.63116E+01 -1.90498E+01 +3.66264E+00
 -1.34409E+01 -7.33218E+00 -3.29705E+00 -1.38107E+01 +8.47742E+00 -1.41785E+01 +1.86000E+01 -8.51372E+00
 +2.42961E+01 +1.48142E+00 +2.40359E+01 +1.29641E+01 +1.79270E+01 +2.27333E+01 +7.66098E+00 +2.80972E+01
 -3.96503E+00 +2.75926E+01 -1.38189E+01 +2.13636E+01 -1.92849E+01 +1.11014E+01 -1.89650E+01 -4.32240E-01
 -1.30434E+01 -1.01666E+01 -3.21801E+00 -1.55586E+01 +7.77770E+00 -1.52781E+01 +1.69295E+01 -9.55672E+00
 +2.17667E+01 -1.09591E-01 +2.10315E+01 +1.03464E+01 +1.50135E+01 +1.88433E+01 +5.45967E+00 +2.29757E+01
 -4.91213E+00 +2.15570E+01 -1.31618E+01 +1.49384E+01 -1.69329E+01 +4.90864E+00 -1.50957E+01 -5.79904E+00
 -8.05460E+00 -1.42546E+01 +2.36401E+00 -1.81305E+01 +1.34095E+01 -1.63346E+01 +2.21548E+01 -9.30575E+00
 +2.62896E+01 +1.10675E+00 +2.47441E+01 +1.21458E+01 +1.79748E+01 +2.08928E+01 +7.83642E+00 +2.50549E+01
 -2.92327E+00 +2.35790E+01 -1.14065E+01 +1.69288E+01 -1.53449E+01 +6.95061E+00 -1.37035E+01 -3.63217E+00
 -6.94784E+00 -1.19572E+01 +3.09546E+00 -1.57918E+01 +1.37436E+01 -1.41245E+01 +2.21878E+01 -7.42109E+00
 +2.62489E+01 +2.52144E+00 +2.49528E+01 +1.30786E+01 +1.87725E+01 +2.15192E+01 +9.47271E+00 +2.57451E+01
 -3.93484E-01 +2.48470E+01 -8.19651E+00 +1.93273E+01 -1.19516E+01 +1.09329E+01 -1.08518E+01 +2.14717E+00
 -5.46740E+00 -4.51365E+00 +2.44010E+00 -7.20373E+00 +1.04341E+01 -5.25516E+00 +1.61035E+01 +6.50339E-01
 +1.77496E+01 +8.69171E+00 +1.48685E+01 +1.64402E+01 +8.29147E+00 +2.15627E+01 -5.47335E-02 +2.24975E+01
 -7.70235E+00 +1.89135E+01 -1.23563E+01 +1.18187E+01 -1.25666E+01 +3.28735E+00 -8.16835E+00 -4.12438E+00
 -3.61771E-01 -8.11075E+00 +8.59679E+00 -7.29384E+00 +1.60129E+01 -1.65290E+00 +1.95135E+01 +7.42008E+00
 +1.77390E+01 +1.74630E+01 +1.07711E+01 +2.55987E+01 +1.72030E-01 +2.93277E+01 -1.13872E+01 +2.72435E+01
 -2.08177E+01 +1.94700E+01 -2.54428E+01 +7.69409E+00 -2.37438E+01 -5.22709E+00 -1.58170E+01 -1.59895E+01
 -3.41053E+00 -2.17090E+01 +1.04796E+01 -2.07024E+01 +2.23573E+01 -1.29721E+01 +2.91263E+01 -2.57993E-01
 +2.89079E+01 +1.43667E+01 +2.15582E+01 +2.72575E+01 +8.74370E+00 +3.51252E+01 -6.45148E+00 +3.58867E+01
 -2.02913E+01 +2.92171E+01 -2.93312E+01 +1.66553E+01 -3.12964E+01 +1.23142E+00 -2.56660E+01 -1.32916E+01
 -1.38115E+01 -2.33672E+01 +1.34932E+00 -2.65616E+01 +1.60931E+01 -2.21653E+01 +2.68355E+01 -1.13625E+01
 +3.10357E+01 +3.08440E+00 +2.78263E+01 +1.75518E+01 +1.82097E+01 +2.84848E+01 +4.77202E+00 +3.32987E+01
 -9.00576E+00 +3.10186E+01 -1.96559E+01 +2.24943E+01 -2.46135E+01 +1.01409E+01 -2.28551E+01 -2.72245E+00
 -1.51244E+01 -1.27546E+01 -3.69168E+00 -1.74631E+01 +8.28180E+00 -1.58331E+01 +1.75999E+01 -8.55410E+00
 +2.18785E+01 +2.20861E+00 +2.01588E+01 +1.34303E+01 +1.31268E+01 +2.20590E+01 +2.88785E+00 +2.58381E+01
 -7.63669E+00 +2.38992E+01 -1.55225E+01 +1.69683E+01 -1.86425E+01 +7.13709E+00 -1.62385E+01 -2.73600E+00
 -9.11022E+00 -9.82515E+00 +6.23393E-01 -1.21193E+01 +1.01240E+01 -8.97353E+00 +1.66272E+01 -1.28012E+00
 +1.82112E+01 +8.78387E+00 +1.43316E+01 +1.83630E+01 +5.97566E+00 +2.47160E+01 -4.60589E+00 +2.59775E+01
 -1.45148E+01 +2.16802E+01 -2.10021E+01 +1.28943E+01 -2.22278E+01 +1.94557E+00 -1.77753E+01 -8.21332E+00
 -8.77952E+00 -1.48064E+01 +2.36791E+00 -1.59959E+01 +1.26588E+01 -1.13937E+01 +1.92816E+01 -2.18116E+00
 +2.03876E+01 +9.19598E+00 +1.56015E+01 +1.96792E+01 +6.13760E+00 +2.64200E+01 -5.51516E+00 +2.75527E+01
 -1.62543E+01 +2.27073E+01 -2.31970E+01 +1.31219E+01 -2.44599E+01 +1.32208E+00 -1.96761E+01 -9.55111E+00
 -1.01054E+01 -1.65837E+01 +1.69217E+00 -1.78777E+01 +1.25381E+01 -1.30714E+01 +1.94887E+01 -3.45015E+00
 +2.06332E+01 +8.38698E+00 +1.56204E+01 +1.92186E+01 +5.76851E+00 +2.60665E+01 -6.27353E+00 +2.70053E+01
 -1.72286E+01 +2.16954E+01 -2.40711E+01 +1.14953E+01 -2.48494E+01 -8.83574E-01 -1.92295E+01 -1.20909E+01
 -8.61014E+00 -1.90329E+01 +4.22637E+00 -1.97112E+01 +1.58400E+01 -1.37799E+01 +2.30458E+01 -2.66726E+00
 +2.37720E+01 +1.07752E+01 +1.76338E+01 +2.30089E+01 +6.06666E+00 +3.07388E+01 -8.02291E+00 +3.17923E+01
 -2.10007E+01 +2.57143E+01 -2.94515E+01 +1.39157E+01 -3.10799E+01 -6.68143E-01 -2.53286E+01 -1.43232E+01
 -1.35473E+01 -2.35161E+01 +1.33546E+00 -2.58158E+01 +1.55545E+01 -2.05357E+01 +2.54747E+01 -8.92648E+00
 +2.85288E+01 +6.13232E+00 +2.38832E+01 +2.08650E+01 +1.26562E+01 +3.15657E+01 -2.36668E+00 +3.55468E+01
 -1.74479E+01 +3.18242E+01 -2.88558E+01 +2.13609E+01 -3.38154E+01 +6.80856E+00 -3.12076E+01 -8.18444E+00
 -2.18338E+01 -1.99142E+01 -8.18462E+00 -2.55666E+01 +6.22468E+00 -2.39209E+01 +1.77724E+01 -1.56311E+01
 +2.36607E+01 -3.01819E+00 +2.26151E+01 +1.05653E+01 +1.51745E+01 +2.16258E+01 +3.50157E+00 +2.74366E+01
 -9.22502E+00 +2.67242E+01 -1.96716E+01 +1.99572E+01 -2.52292E+01 +9.16911E+00 -2.46791E+01 -2.62756E+00
 -1.84723E+01 -1.22732E+01 -8.55553E+00 -1.73100E+01 +2.19930E+00 -1.66220E+01 +1.08015E+01 -1.06961E+01
 +1.49614E+01 -1.44422E+00 +1.37006E+01 +8.36101E+00 +7.59158E+00 +1.58733E+01 -1.43430E+00 +1.89668E+01
 -1.06507E+01 +1.68187E+01 -1.73138E+01 +1.01229E+01 -1.94363E+01 +8.80342E-01 -1.63465E+01 -8.17332E+00
 -8.87705E+00 -1.43432E+01 +8.65120E-01 -1.57382E+01 +1.00854E+01 -1.18124E+01 +1.60824E+01 -3.53325E+00
 +1.70092E+01 +6.86850E+00 +1.24049E+01 +1.65025E+01 +3.34950E+00 +2.26118E+01 -7.80315E+00 +2.33398E+01
 -1.80463E+01 +1.82621E+01 -2.45290E+01 +8.53550E+00 -2.53361E+01 -3.37992E+00 -2.00287E+01 -1.43563E+01
 -9.79591E+00 -2.14237E+01 +2.82580E+00 -2.25682E+01 +1.45982E+01 -1.72874E+01 +2.24231E+01 -6.75507E+00
 +2.41594E+01 +6.45607E+00 +1.92013E+01 +1.90225E+01 +8.66008E+00 +2.77241E+01 -4.89888E+00 +3.02816E+01
 -1.81020E+01 +2.59580E+01 -2.76287E+01 +1.57654E+01 -3.10665E+01 +2.22042E+00 -2.75368E+01 -1.12916E+01
 -1.79291E+01 -2.13796E+01 -4.67999E+00 -2.55157E+01 +8.84758E+00 -2.26846E+01 +1.92238E+01 -1.36446E+01
 +2.38305E+01 -7.33114E-01 +2.15302E+01 +1.27351E+01 +1.29537E+01 +2.33201E+01 +3.31834E-01 +2.83398E+01
 -1.30859E+01 +2.65560E+01 -2.38726E+01 +1.84844E+01 -2.93085E+01 +6.25138E+00 -2.80791E+01 -6.96652E+00
 -2.06047E+01 -1.77725E+01 -8.91882E+00 -2.34324E+01 +3.87372E+00 -2.25812E+01 +1.44148E+01 -1.55684E+01
 +1.99734E+01 -4.35347E+00 +1.91571E+01 +8.01971E+00 +1.22696E+01 +1.82311E+01 +1.21918E+00 +2.35615E+01
 -1.09948E+01 +2.26082E+01 -2.10819E+01 +1.56495E+01 -2.63360E+01 +4.56376E+00 -2.53525E+01 -7.67614E+00
 -1.83995E+01 -1.77984E+01 -7.34189E+00 -2.31061E+01 +4.85922E+00 -2.21970E+01 +1.49399E+01 -1.53379E+01
 +2.02078E+01 -4.39229E+00 +1.92645E+01 +7.67852E+00 +1.23818E+01 +1.76096E+01 +1.43085E+00 +2.27089E+01
 -1.06179E+01 +2.15816E+01 -2.04910E+01 +1.45084E+01 -2.54918E+01 +3.37365E+00 -2.42276E+01 -8.83657E+00
 -1.69883E+01 -1.88350E+01 -5.67350E+00 -2.39164E+01 +6.71321E+00 -2.26878E+01 +1.68691E+01 -1.54464E+01
 +2.20798E+01 -4.10539E+00 +2.09504E+01 +8.31646E+00 +1.37847E+01 +1.85039E+01 +2.50615E+00 +2.37361E+01
 -9.85544E+00 +2.26189E+01 -1.99775E+01 +1.54626E+01 -2.51380E+01 +4.19962E+00 -2.39478E+01 -8.13301E+00
 -1.67254E+01 -1.82106E+01 -5.41164E+00 -2.33150E+01 +6.95249E+00 -2.20658E+01 +1.70447E+01 -1.47915E+01
 +2.21552E+01 -3.43950E+00 +2.09154E+01 +8.94924E+00 +1.36636E+01 +1.90602E+01 +2.35114E+00 +2.41972E+01
 -9.98660E+00 +2.30066E+01 -2.00497E+01 +1.58371E+01 -2.51623E+01 +4.64084E+00 -2.39902E+01 -7.55799E+00
 -1.68941E+01 -1.74811E+01 -5.82554E+00 -2.24795E+01 +6.20663E+00 -2.12436E+01 +1.59512E+01 -1.41486E+01
 +2.07916E+01 -3.14481E+00 +1.94467E+01 +8.77695E+00 +1.23080E+01 +1.83966E+01 +1.32401E+00 +2.31339E+01
 -1.05348E+01 +2.17392E+01 -2.00831E+01 +1.46216E+01 -2.47805E+01 +3.72747E+00 -2.34121E+01 -7.99497E+00
 -1.64069E+01 -1.73976E+01 -5.71077E+00 -2.19834E+01 +5.74952E+00 -2.05757E+01 +1.48630E+01 -1.36273E+01
 +1.91764E+01 -3.08800E+00 +1.75533E+01 +8.13186E+00 +1.04742E+01 +1.69534E+01 -1.01095E-01 +2.09630E+01
