 Created: 19-Jan-2021
 $NMID
 ID='D:\BASISSIMULATI'
 FMTDAT='(8E13.5)'
 VOLUME=   1.00000E+00
 TRAMP=   1.00000E+00
 $END
 +6.45784E+01 +5.33266E-01 +5.73416E+01 -1.86582E+01 +3.76554E+01 -3.13792E+01 +1.08713E+01 -3.30384E+01
 -1.58064E+01 -2.24023E+01 -3.53742E+01 -1.99930E+00 -4.30099E+01 +2.25870E+01 -3.74092E+01 +4.43315E+01
 -2.10942E+01 +5.68169E+01 +3.88734E-01 +5.61211E+01 +2.01399E+01 +4.19898E+01 +3.19547E+01 +1.79520E+01
 +3.21488E+01 -9.65944E+00 +2.06271E+01 -3.34971E+01 +8.88185E-01 -4.72819E+01 -2.10325E+01 -4.75765E+01
 -3.83668E+01 -3.47381E+01 -4.56343E+01 -1.27780E+01 -4.02835E+01 +1.18239E+01 -2.34751E+01 +3.20041E+01
 +2.24705E-01 +4.21467E+01 +2.41492E+01 +3.96741E+01 +4.14550E+01 +2.57393E+01 +4.71037E+01 +4.82594E+00
 +3.93245E+01 -1.66175E+01 +2.01336E+01 -3.21031E+01 -5.23705E+00 -3.70226E+01 -2.98358E+01 -2.99980E+01
 -4.69736E+01 -1.32732E+01 -5.21200E+01 +7.96319E+00 -4.41646E+01 +2.71200E+01 -2.56854E+01 +3.81561E+01
 -2.15487E+00 +3.73689E+01 +1.96781E+01 +2.44987E+01 +3.37528E+01 +2.82601E+00 +3.64370E+01 -2.17625E+01
 +2.75380E+01 -4.24644E+01 +1.03007E+01 -5.35164E+01 -9.59879E+00 -5.18437E+01 -2.57595E+01 -3.79293E+01
 -3.29584E+01 -1.56565E+01 -2.86918E+01 +8.82502E+00 -1.39089E+01 +2.88721E+01 +7.27295E+00 +3.92454E+01
 +2.87793E+01 +3.75801E+01 +4.43582E+01 +2.50117E+01 +4.94062E+01 +5.78333E+00 +4.23079E+01 -1.40390E+01
 +2.49033E+01 -2.83611E+01 +1.95214E+00 -3.28385E+01 -2.02429E+01 -2.61230E+01 -3.56490E+01 -1.02197E+01
 -4.02252E+01 +1.01386E+01 -3.30550E+01 +2.89062E+01 -1.65694E+01 +4.05101E+01 +4.19564E+00 +4.14812E+01
 +2.30825E+01 +3.14589E+01 +3.45996E+01 +1.32812E+01 +3.54919E+01 -7.85673E+00 +2.56453E+01 -2.59231E+01
 +8.06933E+00 -3.58011E+01 -1.20240E+01 -3.47618E+01 -2.87664E+01 -2.32333E+01 -3.73490E+01 -4.64993E+00
 -3.54082E+01 +1.55641E+01 -2.36820E+01 +3.15758E+01 -5.75788E+00 +3.88238E+01 +1.30062E+01 +3.53130E+01
 +2.70614E+01 +2.21531E+01 +3.22867E+01 +3.19503E+00 +2.71737E+01 -1.61176E+01 +1.32404E+01 -3.03403E+01
 -5.43695E+00 -3.55964E+01 -2.34289E+01 -3.06700E+01 -3.55360E+01 -1.73126E+01 -3.82875E+01 +3.12412E-01
 -3.09230E+01 +1.68758E+01 -1.55791E+01 +2.74480E+01 +3.36170E+00 +2.89256E+01 +2.05612E+01 +2.09090E+01
 +3.12733E+01 +5.78319E+00 +3.26991E+01 -1.20094E+01 +2.47590E+01 -2.72827E+01 +1.00698E+01 -3.56189E+01
 -6.85685E+00 -3.46367E+01 -2.09503E+01 -2.46552E+01 -2.80571E+01 -8.56611E+00 -2.61293E+01 +9.03381E+00
 -1.57842E+01 +2.31909E+01 -8.59213E-02 +3.00253E+01 +1.63788E+01 +2.78308E+01 +2.88500E+01 +1.75292E+01
 +3.37739E+01 +2.36073E+00 +2.98124E+01 -1.30912E+01 +1.81967E+01 -2.42459E+01 +2.33385E+00 -2.78494E+01
 -1.32095E+01 -2.28930E+01 -2.40413E+01 -1.08680E+01 -2.72064E+01 +4.70508E+00 -2.20134E+01 +1.93270E+01
 -1.01951E+01 +2.88349E+01 +4.63392E+00 +3.05988E+01 +1.80532E+01 +2.42561E+01 +2.61260E+01 +1.17784E+01
 +2.65274E+01 -3.13567E+00 +1.91877E+01 -1.61566E+01 +6.27290E+00 -2.35834E+01 -8.47907E+00 -2.34004E+01
 -2.08643E+01 -1.58292E+01 -2.74337E+01 -3.22642E+00 -2.64744E+01 +1.06330E+01 -1.84716E+01 +2.16689E+01
 -5.92769E+00 +2.66770E+01 +7.39786E+00 +2.42367E+01 +1.75986E+01 +1.50887E+01 +2.17538E+01 +1.88235E+00
 +1.87561E+01 -1.16211E+01 +9.60094E+00 -2.16513E+01 -2.93650E+00 -2.55121E+01 -1.51329E+01 -2.23346E+01
 -2.34077E+01 -1.32883E+01 -2.53541E+01 -1.19975E+00 -2.04137E+01 +1.02997E+01 -1.00072E+01 +1.78412E+01
 +2.90728E+00 +1.92895E+01 +1.47091E+01 +1.43382E+01 +2.21650E+01 +4.56356E+00 +2.33461E+01 -7.06664E+00
 +1.81522E+01 -1.70796E+01 +8.29949E+00 -2.25141E+01 -3.21410E+00 -2.17717E+01 -1.30009E+01 -1.50595E+01
 -1.82686E+01 -4.30410E+00 -1.76117E+01 +7.42953E+00 -1.13859E+01 +1.68372E+01 -1.56470E+00 +2.13278E+01
 +8.86933E+00 +1.97536E+01 +1.68132E+01 +1.27122E+01 +1.99496E+01 +2.34130E+00 +1.74075E+01 -8.32436E+00
 +9.99086E+00 -1.62405E+01 -8.25569E-02 -1.92246E+01 -9.84843E+00 -1.65608E+01 -1.64678E+01 -9.16925E+00
 -1.80486E+01 +6.99180E-01 -1.41793E+01 +1.01447E+01 -6.02672E+00 +1.64722E+01 +4.02333E+00 +1.79667E+01
 +1.30706E+01 +1.43665E+01 +1.85406E+01 +6.90617E+00 +1.89152E+01 -2.07766E+00 +1.41474E+01 -9.85167E+00
 +5.64423E+00 -1.40936E+01 -4.16622E+00 -1.35651E+01 -1.25518E+01 -8.45766E+00 -1.72643E+01 -3.15991E-01
 -1.71707E+01 +8.42999E+00 -1.25475E+01 +1.51834E+01 -4.96192E+00 +1.79362E+01 +3.21703E+00 +1.58425E+01
 +9.52897E+00 +9.44817E+00 +1.21424E+01 +5.15249E-01 +1.03763E+01 -8.50081E+00 +4.87522E+00 -1.51635E+01
 -2.60589E+00 -1.77488E+01 -9.73721E+00 -1.57206E+01 -1.43085E+01 -9.85439E+00 -1.48772E+01 -1.98201E+00
 -1.11834E+01 +5.56195E+00 -4.21359E+00 +1.06258E+01 +4.09852E+00 +1.18572E+01 +1.14413E+01 +9.07351E+00
 +1.57961E+01 +3.28432E+00 +1.60131E+01 -3.63398E+00 +1.21273E+01 -9.50917E+00 +5.32774E+00 -1.25191E+01
 -2.40499E+00 -1.17232E+01 -8.88226E+00 -7.32622E+00 -1.23390E+01 -6.02849E-01 -1.19300E+01 +6.48962E+00
 -7.95011E+00 +1.18923E+01 -1.71951E+00 +1.40472E+01 +4.82533E+00 +1.23451E+01 +9.71123E+00 +7.29123E+00
 +1.15061E+01 +3.45579E-01 +9.72753E+00 -6.51216E+00 +4.96541E+00 -1.13607E+01 -1.31063E+00 -1.28890E+01
 -7.19847E+00 -1.07623E+01 -1.09299E+01 -5.69897E+00 -1.13888E+01 +7.59240E-01 -8.43133E+00 +6.71094E+00
 -2.91680E+00 +1.04545E+01 +3.55458E+00 +1.09784E+01 +9.11650E+00 +8.24167E+00 +1.21821E+01 +3.16509E+00
 +1.19007E+01 -2.65747E+00 +8.39295E+00 -7.44033E+00 +2.70108E+00 -9.73518E+00 -3.52880E+00 -8.85322E+00
 -8.53413E+00 -5.05845E+00 -1.09491E+01 +5.21045E-01 -1.01932E+01 +6.23362E+00 -6.62423E+00 +1.03934E+01
 -1.41441E+00 +1.17734E+01 +3.80985E+00 +9.95804E+00 +7.45509E+00 +5.45512E+00 +8.43088E+00 -4.63564E-01
 +6.46521E+00 -6.14104E+00 +2.17483E+00 -1.00206E+01 -3.12658E+00 -1.10944E+01 -7.82304E+00 -9.18452E+00
 -1.04754E+01 -4.97777E+00 -1.02436E+01 +1.93438E-01 -7.12970E+00 +4.75493E+00 -1.97142E+00 +7.35908E+00
 +3.80717E+00 +7.27885E+00 +8.61362E+00 +4.61306E+00 +1.11487E+01 +2.44892E-01 +1.07769E+01 -4.43086E+00
 +7.69836E+00 -7.92905E+00 +2.87604E+00 -9.11810E+00 -2.25879E+00 -7.55585E+00 -6.23192E+00 -3.61961E+00
 -7.95681E+00 +1.60606E+00 -7.04410E+00 +6.64854E+00 -3.90083E+00 +1.00781E+01 +4.06669E-01 +1.09235E+01
 +4.48273E+00 +8.95053E+00 +7.02526E+00 +4.72388E+00 +7.21590E+00 -5.63235E-01 +4.96224E+00 -5.44020E+00
 +9.22235E-01 -8.58555E+00 -3.69471E+00 -9.20405E+00 -7.48932E+00 -7.24486E+00 -9.28900E+00 -3.39933E+00
 -8.49611E+00 +1.11788E+00 -5.26596E+00 +4.93690E+00 -4.63330E-01 +6.94001E+00 +4.58850E+00 +6.58779E+00
 +8.49124E+00 +4.06908E+00 +1.01746E+01 +2.32698E-01 +9.20143E+00 -3.67642E+00 +5.88615E+00 -6.39650E+00
 +1.19496E+00 -7.03030E+00 -3.54168E+00 -5.31549E+00 -7.01789E+00 -1.70479E+00 -8.32786E+00 +2.76675E+00
 -7.21887E+00 +6.78712E+00 -4.14933E+00 +9.15441E+00 -1.37678E-01 +9.13131E+00 +3.55060E+00 +6.66297E+00
 +5.78370E+00 +2.39497E+00 +5.89889E+00 -2.51288E+00 +3.89405E+00 -6.72144E+00 +4.20474E-01 -9.09710E+00
 -3.41915E+00 -9.03434E+00 -6.40594E+00 -6.62257E+00 -7.57286E+00 -2.61033E+00 -6.49640E+00 +1.82058E+00
 -3.42588E+00 +5.40305E+00 +7.87146E-01 +7.15193E+00 +4.93779E+00 +6.64316E+00 +7.82117E+00 +4.12456E+00
 +8.58589E+00 +4.28130E-01 +6.98403E+00 -3.28771E+00 +3.44479E+00 -5.88797E+00 -1.04894E+00 -6.59877E+00
 -5.24409E+00 -5.23350E+00 -7.97754E+00 -2.24180E+00 -8.50783E+00 +1.43145E+00 -6.72217E+00 +4.63370E+00
 -3.16022E+00 +6.35262E+00 +1.15050E+00 +6.02113E+00 +4.99749E+00 +3.68920E+00 +7.33472E+00 +1.25684E-02
 +7.57988E+00 -3.93804E+00 +5.77158E+00 -6.99030E+00 +2.54279E+00 -8.21396E+00 -1.07911E+00 -7.19422E+00
 -3.98448E+00 -4.15484E+00 -5.31260E+00 +1.03996E-01 -4.70406E+00 +4.43438E+00 -2.40091E+00 +7.66852E+00
 +8.33377E-01 +8.95017E+00 +3.94877E+00 +7.97380E+00 +5.92758E+00 +5.06343E+00 +6.09251E+00 +1.07009E+00
 +4.31264E+00 -2.87989E+00 +1.04714E+00 -5.71121E+00 -2.78586E+00 -6.70474E+00 -6.07620E+00 -5.69351E+00
 -7.84578E+00 -3.09442E+00 -7.53495E+00 +2.30780E-01 -5.16801E+00 +3.24173E+00 -1.34985E+00 +5.03274E+00
 +2.90414E+00 +5.10044E+00 +6.45508E+00 +3.48741E+00 +8.36084E+00 +7.61046E-01 +8.13723E+00 -2.16432E+00
 +5.88580E+00 -4.30795E+00 +2.25347E+00 -4.92210E+00 -1.76190E+00 -3.72152E+00 -5.10147E+00 -9.75647E-01
 -6.94577E+00 +2.56341E+00 -6.93849E+00 +5.87555E+00 -5.27052E+00 +7.96699E+00 -2.60277E+00 +8.15838E+00
 +1.46654E-01 +6.28307E+00 +2.08564E+00 +2.73870E+00 +2.61744E+00 -1.62203E+00 +1.61674E+00 -5.72877E+00
 -5.38176E-01 -8.59008E+00 -3.08512E+00 -9.56379E+00 -5.11256E+00 -8.52441E+00 -5.83874E+00 -5.88167E+00
 -4.85271E+00 -2.44782E+00 -2.24617E+00 +8.05329E-01 +1.40227E+00 +3.02729E+00 +5.18563E+00 +3.72599E+00
 +8.12326E+00 +2.89368E+00 +9.43801E+00 +9.87501E-01 +8.77547E+00 -1.22597E+00 +6.30319E+00 -2.91402E+00
 +2.66202E+00 -3.43531E+00 -1.21457E+00 -2.53549E+00 -4.36043E+00 -4.23860E-01 -6.04072E+00 +2.29025E+00
 -5.94496E+00 +4.78112E+00 -4.25592E+00 +6.25525E+00 -1.57751E+00 +6.19116E+00 +1.25421E+00 +4.50004E+00
 +3.41966E+00 +1.56055E+00 +4.35085E+00 -1.88210E+00 +3.88538E+00 -4.92287E+00 +2.29657E+00 -6.74944E+00
 +1.94141E-01 -6.86791E+00 -1.67264E+00 -5.23739E+00 -2.64914E+00 -2.27637E+00 -2.37713E+00 +1.25919E+00
 -9.04951E-01 +4.48923E+00 +1.32541E+00 +6.65239E+00 +3.60928E+00 +7.30870E+00 +5.18870E+00 +6.44562E+00
 +5.47825E+00 +4.46005E+00 +4.24114E+00 +2.02466E+00 +1.66458E+00 -1.19461E-01 -1.68688E+00 -1.38214E+00
 -5.02570E+00 -1.49139E+00 -7.55821E+00 -5.61362E-01 -8.70152E+00 +9.56368E-01 -8.23872E+00 +2.42113E+00
 -6.36938E+00 +3.20529E+00 -3.64301E+00 +2.88945E+00 -7.96812E-01 +1.39334E+00 +1.45400E+00 -9.95514E-01
 +2.61262E+00 -3.70265E+00 +2.52821E+00 -6.03206E+00 +1.42024E+00 -7.36724E+00 -2.04253E-01 -7.34881E+00
 -1.71354E+00 -5.97766E+00 -2.54453E+00 -3.61455E+00 -2.36962E+00 -8.77444E-01 -1.18886E+00 +1.53246E+00
 +6.77376E-01 +3.02540E+00 +2.69102E+00 +3.28243E+00 +4.26184E+00 +2.33506E+00 +4.92595E+00 +5.44071E-01
 +4.48468E+00 -1.51373E+00 +3.06348E+00 -3.21632E+00 +1.07484E+00 -4.07433E+00 -9.02460E-01 -3.86476E+00
 -2.29159E+00 -2.68352E+00 -2.68365E+00 -9.03988E-01 -1.95338E+00 +9.43638E-01 -2.92026E-01 +2.33475E+00
