 Created: 19-Jan-2021
 $NMID
 ID='D:\BASISSIMULATI'
 FMTDAT='(8E13.5)'
 VOLUME=   1.00000E+00
 TRAMP=   1.00000E+00
 $END
 +1.09827E+02 +5.07040E-01 +1.05732E+02 +2.80320E+01 +9.43718E+01 +5.33510E+01 +7.66572E+01 +7.45411E+01
 +5.40011E+01 +9.00149E+01 +2.82013E+01 +9.86484E+01 +1.29406E+00 +9.98697E+01 -2.46117E+01 +9.37027E+01
 -4.75060E+01 +8.07621E+01 -6.56398E+01 +6.21998E+01 -7.76654E+01 +3.96086E+01 -8.27436E+01 +1.48887E+01
 -8.06081E+01 -9.90875E+00 -7.15830E+01 -3.27505E+01 -5.65514E+01 -5.17875E+01 -3.68787E+01 -6.55048E+01
 -1.42963E+01 -7.28433E+01 +9.24380E+00 -7.32832E+01 +3.17324E+01 -6.68826E+01 +5.12691E+01 -5.42674E+01
 +6.62194E+01 -3.65752E+01 +7.53477E+01 -1.53565E+01 +7.79174E+01 +7.55755E+00 +7.37481E+01 +3.02096E+01
 +6.32268E+01 +5.06808E+01 +4.72709E+01 +6.72506E+01 +2.72485E+01 +7.85396E+01 +4.85995E+00 +8.36228E+01
 -1.80064E+01 +8.21045E+01 -3.94343E+01 +7.41485E+01 -5.76413E+01 +6.04608E+01 -7.11276E+01 +4.22276E+01
 -7.88018E+01 +2.10127E+01 -8.00706E+01 -1.37609E+00 -7.48876E+01 -2.30409E+01 -6.37546E+01 -4.21544E+01
 -4.76777E+01 -5.71147E+01 -2.80807E+01 -6.66798E+01 -6.68325E+00 -7.00728E+01 +1.46451E+01 -6.70464E+01
 +3.40440E+01 -5.79035E+01 +4.98200E+01 -4.34715E+01 +6.05902E+01 -2.50313E+01 +6.53998E+01 -4.20961E+00
 +6.38033E+01 +1.71590E+01 +5.59035E+01 +3.71871E+01 +4.23435E+01 +5.40941E+01 +2.42537E+01 +6.63572E+01
 +3.15828E+00 +7.28408E+01 -1.91526E+01 +7.28934E+01 -4.07723E+01 +6.64046E+01 -5.98374E+01 +5.38165E+01
 -7.46846E+01 +3.60885E+01 -8.39907E+01 +1.46198E+01 -8.68844E+01 -8.86581E+00 -8.30215E+01 -3.24624E+01
 -7.26154E+01 -5.42395E+01 -5.64222E+01 -7.24026E+01 -3.56797E+01 -8.54421E+01 -1.20071E+01 -9.22595E+01
 +1.27273E+01 -9.22595E+01 +3.65596E+01 -8.54005E+01 +5.75914E+01 -7.21999E+01 +7.41461E+01 -5.36925E+01
 +8.49071E+01 -3.13466E+01 +8.90262E+01 -6.94452E+00 +8.61936E+01 +1.75636E+01 +7.66636E+01 +4.02190E+01
 +6.12336E+01 +5.92151E+01 +4.11793E+01 +7.30447E+01 +1.81491E+01 +8.06238E+01 -5.97051E+00 +8.13789E+01
 -2.92100E+01 +7.52941E+01 -4.96780E+01 +6.29106E+01 -6.57161E+01 +4.52814E+01 -7.60341E+01 +2.38839E+01
 -7.98143E+01 +4.97546E-01 -7.67775E+01 -2.29432E+01 -6.72041E+01 -4.45076E+01 -5.19086E+01 -6.24275E+01
 -3.21712E+01 -7.52416E+01 -9.63060E+00 -8.19147E+01 +1.38523E+01 -8.19205E+01 +3.63486E+01 -7.52832E+01
 +5.60200E+01 -6.25728E+01 +7.12707E+01 -4.48560E+01 +8.08772E+01 -2.36052E+01 +8.40877E+01 -5.75751E-01
 +8.06823E+01 +2.23410E+01 +7.09878E+01 +4.32744E+01 +5.58486E+01 +6.05296E+01 +3.65537E+01 +7.27267E+01
 +1.47277E+01 +7.89138E+01 -7.80580E+00 +7.86442E+01 -2.91768E+01 +7.20102E+01 -4.76247E+01 +5.96337E+01
 -6.16444E+01 +4.26110E+01 -7.01109E+01 +2.24199E+01 -7.23712E+01 +7.94028E-01 -6.82968E+01 -2.04230E+01
 -5.82928E+01 -3.94320E+01 -4.32612E+01 -5.46291E+01 -2.45245E+01 -6.47392E+01 -3.71239E+00 -6.89220E+01
 +1.73750E+01 -6.68412E+01 +3.69191E+01 -5.86916E+01 +5.32357E+01 -4.51812E+01 +6.49161E+01 -2.74716E+01
 +7.09448E+01 -7.07874E+00 +7.07851E+01 +1.42539E+01 +6.44229E+01 +3.47026E+01 +5.23684E+01 +5.25159E+01
 +3.56128E+01 +6.61622E+01 +1.55455E+01 +7.44578E+01 -6.16265E+00 +7.66663E+01 -2.76984E+01 +7.25604E+01
 -4.72584E+01 +6.24416E+01 -6.31994E+01 +4.71151E+01 -7.41758E+01 +2.78230E+01 -7.92523E+01 +6.14137E+00
 -7.79819E+01 -1.61510E+01 -7.04439E+01 -3.72204E+01 -5.72376E+01 -5.53308E+01 -3.94327E+01 -6.89879E+01
 -1.84811E+01 -7.70637E+01 +3.90327E+00 -7.88900E+01 +2.58869E+01 -7.43141E+01 +4.56680E+01 -6.37116E+01
 +6.16263E+01 -4.79553E+01 +7.24564E+01 -2.83428E+01 +7.72764E+01 -6.48940E+00 +7.57001E+01 +1.58061E+01
 +6.78688E+01 +3.67100E+01 +5.44393E+01 +5.45052E+01 +3.65288E+01 +6.77330E+01 +1.56225E+01 +7.53137E+01
 -6.55004E+00 +7.66347E+01 -2.81581E+01 +7.16010E+01 -4.74210E+01 +6.06419E+01 -6.27553E+01 +4.46746E+01
 -7.29056E+01 +2.50276E+01 -7.70473E+01 +3.32991E+00 -7.48537E+01 -1.86242E+01 -6.65225E+01 -3.90241E+01
 -5.27577E+01 -5.61923E+01 -3.47104E+01 -6.87236E+01 -1.38821E+01 -7.55999E+01 +8.00025E+00 -7.62741E+01
 +2.91282E+01 -7.07140E+01 +4.77616E+01 -5.94033E+01 +6.23729E+01 -4.33005E+01 +7.17732E+01 -2.37579E+01
 +7.52101E+01 -2.40787E+00 +7.24284E+01 +1.89727E+01 +6.36906E+01 +3.86111E+01 +4.97533E+01 +5.48858E+01
 +3.18027E+01 +6.64609E+01 +1.13552E+01 +7.23965E+01 -9.86997E+00 +7.22262E+01 -3.00944E+01 +6.59942E+01
 -4.76289E+01 +5.42508E+01 -6.10139E+01 +3.80052E+01 -6.91409E+01 +1.86405E+01 -7.13441E+01 -2.20260E+00
 -6.74553E+01 -2.27632E+01 -5.78170E+01 -4.13072E+01 -4.32530E+01 -5.62722E+01 -2.49993E+01 -6.63977E+01
 -4.60016E+00 -7.08300E+01 +1.62211E+01 -6.91931E+01 +3.57059E+01 -6.16198E+01 +5.22074E+01 -4.87402E+01
 +6.43276E+01 -3.16292E+01 +7.10340E+01 -1.17166E+01 +7.17459E+01 +9.33213E+00 +6.63823E+01 +2.97546E+01
 +5.53692E+01 +4.78381E+01 +3.96038E+01 +6.20623E+01 +2.03804E+01 +7.12254E+01 -7.17264E-01 +7.45445E+01
 -2.19472E+01 +7.17205E+01 -4.15540E+01 +6.29628E+01 -5.79140E+01 +4.89724E+01 -6.96698E+01 +3.08838E+01
 -7.58430E+01 +1.01710E+01 -7.59146E+01 -1.14746E+01 -6.98680E+01 -3.22837E+01 -5.81902E+01 -5.05557E+01
 -4.18311E+01 -6.47986E+01 -2.21247E+01 -7.38524E+01 -6.78980E-01 -7.69843E+01 +2.07575E+01 -7.39483E+01
 +4.04396E+01 -6.50053E+01 +5.67698E+01 -5.09000E+01 +6.84290E+01 -3.27994E+01 +7.44854E+01 -1.21948E+01
 +7.44697E+01 +9.22095E+00 +6.84129E+01 +2.96944E+01 +5.68422E+01 +4.75557E+01 +4.07363E+01 +6.13563E+01
 +2.14428E+01 +6.99877E+01 +5.65898E-01 +7.27718E+01 -2.01669E+01 +6.95153E+01 -3.90482E+01 +6.05241E+01
 -5.45316E+01 +4.65761E+01 -6.53592E+01 +2.88546E+01 -7.06643E+01 +8.84932E+00 -7.00420E+01 -1.17689E+01
 -6.35806E+01 -3.12867E+01 -5.18523E+01 -4.80913E+01 -3.58635E+01 -6.08034E+01 -1.69696E+01 -6.83911E+01
 +3.23913E+00 -7.02541E+01 +2.30714E+01 -6.62722E+01 +4.08757E+01 -5.68133E+01 +5.51781E+01 -4.27005E+01
 +6.48045E+01 -2.51419E+01 +6.89778E+01 -5.62838E+00 +6.73810E+01 +1.41925E+01 +6.01827E+01 +3.26544E+01
 +4.80210E+01 +4.82121E+01 +3.19488E+01 +5.95704E+01 +1.33444E+01 +6.57922E+01 -6.20496E+00 +6.63762E+01
 -2.50370E+01 +6.12979E+01 -4.15539E+01 +5.10109E+01 -5.43566E+01 +3.64077E+01 -6.23621E+01 +1.87445E+01
 -6.48940E+01 -4.64892E-01 -6.17395E+01 -1.95767E+01 -5.31667E+01 -3.69551E+01 -3.99026E+01 -5.11102E+01
 -2.30715E+01 -6.08225E+01 -4.10119E+00 -6.52465E+01 +1.53965E+01 -6.39812E+01 +3.37610E+01 -5.71048E+01
 +4.94222E+01 -4.51687E+01 +6.10318E+01 -2.91521E+01 +6.75771E+01 -1.03809E+01 +6.84657E+01 +9.58217E+00
 +6.35768E+01 +2.90681E+01 +5.32717E+01 +4.64400E+01 +3.83650E+01 +6.02299E+01 +2.00584E+01 +6.92612E+01
 -1.58821E-01 +7.27470E+01 -2.06322E+01 +7.03566E+01 -3.96790E+01 +6.22441E+01 -5.57275E+01 +4.90364E+01
 -6.74470E+01 +3.17824E+01 -7.38583E+01 +1.18675E+01 -7.44148E+01 -9.10023E+00 -6.90484E+01 -2.94221E+01
 -5.81755E+01 -4.74487E+01 -4.26635E+01 -6.17150E+01 -2.37594E+01 -7.10614E+01 -2.98788E+00 -7.47285E+01
 +1.79736E+01 -7.24195E+01 +3.74328E+01 -6.43242E+01 +5.38206E+01 -5.11034E+01 +6.58200E+01 -3.38339E+01
 +7.24731E+01 -1.39200E+01 +7.32591E+01 +7.02206E+00 +6.81356E+01 +2.72970E+01 +5.75409E+01 +4.52690E+01
 +4.23571E+01 +5.94960E+01 +2.38358E+01 +6.88465E+01 +3.49479E+00 +7.25911E+01 -1.70076E+01 +7.04611E+01
 -3.60090E+01 +6.26681E+01 -5.19792E+01 +4.98845E+01 -6.36451E+01 +3.31861E+01 -7.00941E+01 +1.39616E+01
 -7.08468E+01 -6.20300E+00 -6.58945E+01 -2.56565E+01 -5.56966E+01 -4.28187E+01 -4.11402E+01 -5.63099E+01
 -2.34642E+01 -6.50643E+01 -4.15437E+00 -6.84155E+01 +1.51809E+01 -6.61495E+01 +3.29451E+01 -5.85194E+01
 +4.76859E+01 -4.62213E+01 +5.82149E+01 -3.03337E+01 +6.37053E+01 -1.22248E+01 +6.37584E+01 +6.56278E+00
 +5.84340E+01 +2.44426E+01 +4.82432E+01 +3.99170E+01 +3.41027E+01 +5.17024E+01 +1.72555E+01 +5.88358E+01
 -8.34789E-01 +6.07541E+01 -1.86088E+01 +5.73393E+01 -3.45426E+01 +4.89270E+01 -4.72768E+01 +3.62759E+01
 -5.57303E+01 +2.05025E+01 -5.91909E+01 +2.98519E+00 -5.73748E+01 -1.47524E+01 -5.04496E+01 -3.11712E+01
 -3.90194E+01 -4.48467E+01 -2.40734E+01 -5.45898E+01 -6.90167E+00 -5.95472E+01 +1.10140E+01 -5.92735E+01
 +2.81253E+01 -5.37698E+01 +4.29488E+01 -4.34833E+01 +5.41908E+01 -2.92708E+01 +6.08580E+01 -1.23265E+01
 +6.23410E+01 +5.91753E+00 +5.84676E+01 +2.39118E+01 +4.95183E+01 +4.01193E+01 +3.62042E+01 +5.31452E+01
 +1.96088E+01 +6.18543E+01 +1.09879E+00 +6.54672E+01 -1.77897E+01 +6.36270E+01 -3.54784E+01 +5.64310E+01
 -5.04787E+01 +4.44243E+01 -6.15160E+01 +2.85562E+01 -6.76366E+01 +1.01033E+01 -6.82881E+01 -9.43565E+00
 -6.33668E+01 -2.84630E+01 -5.32281E+01 -4.54136E+01 -3.86584E+01 -5.88849E+01 -2.08124E+01 -6.77524E+01
 -1.11824E+00 -7.12636E+01 +1.88384E+01 -6.91009E+01 +3.74445E+01 -6.14085E+01 +5.31918E+01 -4.87816E+01
 +6.48005E+01 -3.22186E+01 +7.13245E+01 -1.30397E+01 +7.22286E+01 +7.22034E+00 +6.74327E+01 +2.69380E+01
 +5.73183E+01 +4.45329E+01 +4.26972E+01 +5.85970E+01 +2.47447E+01 +6.80092E+01 +4.90383E+00 +7.20259E+01
 -1.52331E+01 +7.03416E+01 -3.40542E+01 +6.31121E+01 -5.00598E+01 +5.09408E+01 -6.19837E+01 +3.48281E+01
 -6.88957E+01 +1.60885E+01 -7.02763E+01 -3.75791E+00 -6.60566E+01 -2.31104E+01 -5.66223E+01 -4.04187E+01
 -4.27795E+01 -5.43090E+01 -2.56860E+01 -6.36956E+01 -6.75527E+00 -6.78679E+01 +1.24618E+01 -6.65460E+01
 +3.04045E+01 -5.99013E+01 +4.56311E+01 -4.85386E+01 +5.69360E+01 -3.34436E+01 +6.34479E+01 -1.58990E+01
 +6.46988E+01 +2.62400E+00 +6.06598E+01 +2.05885E+01 +5.17402E+01 +3.65198E+01 +3.87500E+01 +4.91274E+01
 +2.28294E+01 +5.74109E+01 +5.35165E+00 +6.07409E+01 -1.21935E+01 +5.89091E+01 -2.83255E+01 +5.21426E+01
 -4.16964E+01 +4.10819E+01 -5.12038E+01 +2.67241E+01 -5.60815E+01 +1.03372E+01 -5.59623E+01 -6.64851E+00
 -5.09068E+01 -2.27622E+01 -4.13961E+01 -3.66165E+01 -2.82892E+01 -4.70251E+01 -1.27488E+01 -5.31018E+01
 +3.85834E+00 -5.43351E+01 +2.00778E+01 -5.06303E+01 +3.44911E+01 -4.23169E+01 +4.58366E+01 -3.01196E+01
 +5.31157E+01 -1.50966E+01 +5.56782E+01 +1.45047E+00 +5.32774E+01 +1.80870E+01 +4.60909E+01 +3.33670E+01
 +3.47069E+01 +4.59560E+01 +2.00744E+01 +5.47440E+01 +3.42391E+00 +5.89402E+01 -1.38360E+01 +5.81406E+01
