 Created: 19-Jan-2021
 $NMID
 ID='D:\BASISSIMULATI'
 FMTDAT='(8E13.5)'
 VOLUME=   1.00000E+00
 TRAMP=   1.00000E+00
 $END
 +6.55056E+01 +3.02943E-01 +6.18032E+01 +3.75052E+00 +5.14492E+01 +7.97602E+00 +3.61619E+01 +1.34669E+01
 +1.83970E+01 +2.01477E+01 +8.51854E-01 +2.73160E+01 -1.40560E+01 +3.37728E+01 -2.46162E+01 +3.81148E+01
 -3.00698E+01 +3.91113E+01 -3.06280E+01 +3.60656E+01 -2.72811E+01 +2.90576E+01 -2.14638E+01 +1.90011E+01
 -1.46742E+01 +7.49217E+00 -8.14653E+00 -3.51743E+00 -2.65539E+00 -1.21405E+01 +1.51407E+00 -1.69655E+01
 +4.44532E+00 -1.73565E+01 +6.37686E+00 -1.35688E+01 +7.47755E+00 -6.65763E+00 +7.69090E+00 +1.79097E+00
 +6.70296E+00 +1.00338E+01 +4.04659E+00 +1.65499E+01 -6.90350E-01 +2.03322E+01 -7.62125E+00 +2.10233E+01
 -1.63650E+01 +1.88769E+01 -2.59716E+01 +1.45698E+01 -3.50113E+01 +8.93390E+00 -4.18199E+01 +2.69365E+00
 -4.48507E+01 -3.71115E+00 -4.30450E+01 -1.01678E+01 -3.61232E+01 -1.67921E+01 -2.47164E+01 -2.37277E+01
 -1.02923E+01 -3.09166E+01 +5.11363E+00 -3.79240E+01 +1.93050E+01 -4.38877E+01 +3.03710E+01 -4.76264E+01
 +3.70670E+01 -4.78924E+01 +3.90357E+01 -4.37105E+01 +3.68186E+01 -3.47114E+01 +3.16606E+01 -2.13630E+01
 +2.51611E+01 -5.02264E+00 +1.88662E+01 +1.22227E+01 +1.39074E+01 +2.79086E+01 +1.07779E+01 +3.96646E+01
 +9.29724E+00 +4.56990E+01 +8.76615E+00 +4.51828E+01 +8.25679E+00 +3.84390E+01 +6.95316E+00 +2.68889E+01
 +4.44084E+00 +1.27675E+01 +8.63070E-01 -1.33010E+00 -3.10154E+00 -1.29628E+01 -6.43305E+00 -2.03039E+01
 -8.08092E+00 -2.24460E+01 -7.30236E+00 -1.94896E+01 -3.93109E+00 -1.24136E+01 +1.50278E+00 -2.77235E+00
 +7.84072E+00 +7.69024E+00 +1.35393E+01 +1.74110E+01 +1.70288E+01 +2.52721E+01 +1.70954E+01 +3.07085E+01
 +1.31868E+01 +3.36528E+01 +5.56349E+00 +3.43570E+01 -4.74525E+00 +3.31663E+01 -1.61654E+01 +3.03229E+01
 -2.69255E+01 +2.58673E+01 -3.54361E+01 +1.96668E+01 -4.06059E+01 +1.15590E+01 -4.20186E+01 +1.55694E+00
 -3.99355E+01 -9.95781E+00 -3.51332E+01 -2.21307E+01 -2.86358E+01 -3.36692E+01 -2.14206E+01 -4.30296E+01
 -1.41856E+01 -4.87201E+01 -7.23944E+00 -4.96491E+01 -5.41150E-01 -4.54261E+01 +6.13482E+00 -3.65282E+01
 +1.29664E+01 -2.42800E+01 +1.98667E+01 -1.06338E+01 +2.63602E+01 +2.20383E+00 +3.16010E+01 +1.22167E+01
 +3.45438E+01 +1.79893E+01 +3.42263E+01 +1.89848E+01 +3.00878E+01 +1.56233E+01 +2.22312E+01 +9.14440E+00
 +1.15447E+01 +1.28970E+00 -3.67699E-01 -6.11203E+00 -1.14473E+01 -1.15540E+01 -1.95838E+01 -1.41544E+01
 -2.30687E+01 -1.37830E+01 -2.09910E+01 -1.09909E+01 -1.34765E+01 -6.77200E+00 -1.70675E+00 -2.23138E+00
 +1.22911E+01 +1.74398E+00 +2.60398E+01 +4.72114E+00 +3.71024E+01 +6.80075E+00 +4.35550E+01 +8.52379E+00
 +4.43370E+01 +1.06383E+01 +3.94036E+01 +1.37981E+01 +2.96583E+01 +1.82852E+01 +1.66937E+01 +2.38396E+01
 +2.41625E+00 +2.96499E+01 -1.13486E+01 +3.45139E+01 -2.31753E+01 +3.71278E+01 -3.22139E+01 +3.64277E+01
 -3.81993E+01 +3.18909E+01 -4.13160E+01 +2.37136E+01 -4.19796E+01 +1.28146E+01 -4.06142E+01 +6.60457E-01
 -3.74973E+01 -1.10429E+01 -3.27195E+01 -2.07156E+01 -2.62632E+01 -2.72314E+01 -1.81671E+01 -3.01261E+01
 -8.70948E+00 -2.96387E+01 +1.46031E+00 -2.65809E+01 +1.13051E+01 -2.20787E+01 +1.95221E+01 -1.72620E+01
 +2.47889E+01 -1.29879E+01 +2.60761E+01 -9.67376E+00 +2.29440E+01 -7.27827E+00 +1.57373E+01 -5.42910E+00
 +5.61319E+00 -3.64832E+00 -5.62181E+00 -1.60147E+00 -1.58405E+01 +7.12077E-01 -2.30200E+01 +2.89170E+00
 -2.56642E+01 +4.21885E+00 -2.31240E+01 +3.87296E+00 -1.57349E+01 +1.22067E+00 -4.73990E+00 -3.90683E+00
 +7.98605E+00 -1.10349E+01 +2.03422E+01 -1.90288E+01 +3.04405E+01 -2.62609E+01 +3.69719E+01 -3.09332E+01
 +3.94178E+01 -3.14837E+01 +3.80622E+01 -2.69762E+01 +3.38172E+01 -1.73754E+01 +2.79152E+01 -3.63173E+00
 +2.15599E+01 +1.24516E+01 +1.56280E+01 +2.85463E+01 +1.05000E+01 +4.22478E+01 +6.05696E+00 +5.15427E+01
 +1.83270E+00 +5.51878E+01 -2.73271E+00 +5.29183E+01 -8.01884E+00 +4.54423E+01 -1.40161E+01 +3.42342E+01
 -2.02473E+01 +2.11866E+01 -2.58447E+01 +8.21040E+00 -2.97653E+01 -3.12022E+00 -3.10817E+01 -1.17987E+01
 -2.92677E+01 -1.74533E+01 -2.43945E+01 -2.02556E+01 -1.71777E+01 -2.07183E+01 -8.85758E+00 -1.94546E+01
 -9.37140E-01 -1.69775E+01 +5.15405E+00 -1.35958E+01 +8.38462E+00 -9.42999E+00 +8.35000E+00 -4.53092E+00
 +5.34651E+00 +9.51395E-01 +2.73545E-01 +6.61786E+00 -5.60704E+00 +1.17541E+01 -1.09882E+01 +1.53876E+01
 -1.48257E+01 +1.64696E+01 -1.65561E+01 +1.41411E+01 -1.61702E+01 +8.01311E+00 -1.41289E+01 -1.62231E+00
 -1.11545E+01 -1.37206E+01 -7.96193E+00 -2.65906E+01 -5.01435E+00 -3.81701E+01 -2.37706E+00 -4.64175E+01
 +2.85718E-01 -4.97319E+01 +3.56794E+00 -4.73009E+01 +8.07436E+00 -3.92929E+01 +1.41426E+01 -2.68398E+01
 +2.16203E+01 -1.18151E+01 +2.97712E+01 +3.54673E+00 +3.73499E+01 +1.70969E+01 +4.28378E+01 +2.71838E+01
 +4.47897E+01 +3.29341E+01 +4.22038E+01 +3.43445E+01 +3.48197E+01 +3.21740E+01 +2.32622E+01 +2.76742E+01
 +8.98620E+00 +2.22375E+01 -5.97350E+00 +1.70551E+01 -1.93928E+01 +1.28732E+01 -2.93008E+01 +9.90053E+00
 -3.43698E+01 +7.88023E+00 -3.41651E+01 +6.28932E+00 -2.91969E+01 +4.59841E+00 -2.07709E+01 +2.50812E+00
 -1.06788E+01 +8.98521E-02 -8.09545E-01 -2.21147E+00 +7.22423E+00 -3.71264E+00 +1.23587E+01 -3.72395E+00
 +1.41966E+01 -1.80660E+00 +1.29590E+01 +2.02382E+00 +9.30411E+00 +7.21334E+00 +4.07955E+00 +1.27372E+01
 -1.91613E+00 +1.73086E+01 -8.09394E+00 +1.96765E+01 -1.41196E+01 +1.89368E+01 -1.98443E+01 +1.47706E+01
 -2.51585E+01 +7.54660E+00 -2.98322E+01 -1.74321E+00 -3.34074E+01 -1.16996E+01 -3.51938E+01 -2.08288E+01
 -3.43849E+01 -2.78706E+01 -3.02716E+01 -3.20577E+01 -2.24964E+01 -3.32408E+01 -1.12722E+01 -3.18519E+01
 +2.50750E+00 -2.87209E+01 +1.73175E+01 -2.48033E+01 +3.12155E+01 -2.08957E+01 +4.21879E+01 -1.74239E+01
 +4.85513E+01 -1.43590E+01 +4.93148E+01 -1.12867E+01 +4.44153E+01 -7.60548E+00 +3.47618E+01 -2.79372E+00
 +2.20716E+01 +3.33601E+00 +8.53352E+00 +1.04744E+01 -3.62820E+00 +1.78002E+01 -1.25884E+01 +2.41257E+01
 -1.72551E+01 +2.81725E+01 -1.74307E+01 +2.89075E+01 -1.37702E+01 +2.58488E+01 -7.55815E+00 +1.92585E+01
 -3.67272E-01 +1.01620E+01 +6.31001E+00 +1.81053E-01 +1.13669E+01 -8.78630E+00 +1.42538E+01 -1.49653E+01
 +1.49868E+01 -1.70878E+01 +1.40075E+01 -1.46673E+01 +1.19488E+01 -8.10081E+00 +9.38416E+00 +1.42429E+00
 +6.63528E+00 +1.21937E+01 +3.69579E+00 +2.23309E+01 +2.87114E-01 +3.01755E+01 -3.97530E+00 +3.45850E+01
 -9.36214E+00 +3.50966E+01 -1.58302E+01 +3.19219E+01 -2.29102E+01 +2.57943E+01 -2.97253E+01 +1.77236E+01
 -3.51454E+01 +8.73328E+00 -3.80414E+01 -3.46959E-01 -3.75723E+01 -8.98185E+00 -3.34269E+01 -1.69104E+01
 -2.59508E+01 -2.40278E+01 -1.61165E+01 -3.02235E+01 -5.34067E+00 -3.52405E+01 +4.81200E+00 -3.86154E+01
 +1.29624E+01 -3.97291E+01 +1.82055E+01 -3.79647E+01 +2.02793E+01 -3.29287E+01 +1.95743E+01 -2.46704E+01
 +1.69834E+01 -1.38240E+01 +1.36359E+01 -1.61853E+00 +1.05889E+01 +1.02711E+01 +8.56080E+00 +2.00106E+01
 +7.77635E+00 +2.59731E+01 +7.96341E+00 +2.70999E+01 +8.49665E+00 +2.31651E+01 +8.64343E+00 +1.48740E+01
 +7.83778E+00 +3.76202E+00 +5.90086E+00 -8.09034E+00 +3.14098E+00 -1.84651E+01 +3.00337E-01 -2.54457E+01
 -1.64098E+00 -2.77878E+01 -1.75208E+00 -2.51384E+01 +5.49555E-01 -1.80586E+01 +5.27163E+00 -7.85205E+00
 +1.17608E+01 +3.75173E+00 +1.87882E+01 +1.49772E+01 +2.47921E+01 +2.43530E+01 +2.82220E+01 +3.09533E+01
 +2.79006E+01 +3.44811E+01 +2.33115E+01 +3.51927E+01 +1.47421E+01 +3.36996E+01 +3.24581E+00 +3.07160E+01
 -9.56908E+00 +2.68314E+01 -2.18687E+01 +2.23695E+01 -3.19621E+01 +1.73711E+01 -3.86203E+01 +1.16940E+01
 -4.12727E+01 +5.19015E+00 -4.00448E+01 -2.10530E+00 -3.56379E+01 -9.83984E+00 -2.90982E+01 -1.73166E+01
 -2.15419E+01 -2.35926E+01 -1.39142E+01 -2.76827E+01 -6.84134E+00 -2.88151E+01 -6.05916E-01 -2.66675E+01
 +4.76517E+00 -2.15118E+01 +9.34145E+00 -1.42201E+01 +1.31220E+01 -6.11943E+00 +1.59240E+01 +1.27594E+00
 +1.73695E+01 +6.59030E+00 +1.69836E+01 +8.89004E+00 +1.43754E+01 +7.88734E+00 +9.44721E+00 +3.99173E+00
 +2.56272E+00 -1.80406E+00 -5.39098E+00 -8.17398E+00 -1.30828E+01 -1.37794E+01 -1.89580E+01 -1.75779E+01
 -2.15564E+01 -1.90406E+01 -1.98552E+01 -1.82268E+01 -1.35510E+01 -1.56984E+01 -3.20236E+00 -1.23072E+01
 +9.81043E+00 -8.91560E+00 +2.35110E+01 -6.13226E+00 +3.56935E+01 -4.13778E+00 +4.43498E+01 -2.64935E+00
 +4.80608E+01 -1.03355E+00 +4.62635E+01 +1.46523E+00 +3.93347E+01 +5.44672E+00 +2.84765E+01 +1.11079E+01
 +1.54375E+01 +1.81008E+01 +2.13935E+00 +2.55403E+01 -9.70036E+00 +3.21673E+01 -1.88627E+01 +3.66291E+01
 -2.47789E+01 +3.78069E+01 -2.75166E+01 +3.51055E+01 -2.76248E+01 +2.86294E+01 -2.58924E+01 +1.91977E+01
 -2.30962E+01 +8.19147E+00 -1.98089E+01 -2.72902E+00 -1.63150E+01 -1.19684E+01 -1.26467E+01 -1.83169E+01
 -8.71461E+00 -2.11716E+01 -4.48096E+00 -2.06099E+01 -1.08582E-01 -1.73041E+01 +3.96971E+00 -1.23114E+01
 +7.09278E+00 -6.79824E+00 +8.51942E+00 -1.77623E+00 +7.64385E+00 +2.08391E+00 +4.21559E+00 +4.51896E+00
 -1.50508E+00 +5.61564E+00 -8.71047E+00 +5.66011E+00 -1.61510E+01 +4.95184E+00 -2.23675E+01 +3.64687E+00
 -2.59988E+01 +1.68423E+00 -2.60891E+01 -1.17870E+00 -2.23177E+01 -5.23196E+00 -1.50888E+01 -1.06229E+01
 -5.45718E+00 -1.71745E+01 +5.09680E+00 -2.42772E+01 +1.49871E+01 -3.09026E+01 +2.28584E+01 -3.57545E+01
 +2.78559E+01 -3.75298E+01 +2.97643E+01 -3.52325E+01 +2.89853E+01 -2.84598E+01 +2.63650E+01 -1.75821E+01
 +2.29251E+01 -3.76121E+00 +1.95703E+01 +1.12102E+01 +1.68540E+01 +2.52223E+01 +1.48628E+01 +3.62467E+01
 +1.32482E+01 +4.27322E+01 +1.13910E+01 +4.39054E+01 +8.64887E+00 +3.99094E+01 +4.61153E+00 +3.17487E+01
 -7.10450E-01 +2.10577E+01 -6.82129E+00 +9.75046E+00 -1.28219E+01 -3.64687E-01 -1.76189E+01 -7.91670E+00
 -2.02069E+01 -1.21781E+01 -1.99465E+01 -1.31096E+01 -1.67634E+01 -1.12498E+01 -1.12113E+01 -7.49212E+00
 -4.37871E+00 -2.82078E+00 +2.33947E+00 +1.92289E+00 +7.54900E+00 +6.18403E+00 +1.01655E+01 +9.72062E+00
 +9.64815E+00 +1.25215E+01 +6.10222E+00 +1.46574E+01 +2.27925E-01 +1.61243E+01 -6.86496E+00 +1.67387E+01
 -1.39245E+01 +1.61261E+01 -1.98345E+01 +1.38121E+01 -2.38307E+01 +9.39199E+00 -2.56065E+01 +2.72717E+00
