 Created: 19-Jan-2021
 $NMID
 ID='D:\BASISSIMULATI'
 FMTDAT='(8E13.5)'
 VOLUME=   1.00000E+00
 TRAMP=   1.00000E+00
 $END
 +2.89957E+01 +1.33436E-01 +2.81967E+01 +6.18579E+00 +2.60054E+01 +1.18422E+01 +2.25783E+01 +1.67642E+01
 +1.81558E+01 +2.06694E+01 +1.30431E+01 +2.33528E+01 +7.58556E+00 +2.47005E+01 +2.14238E+00 +2.46966E+01
 -2.94150E+00 +2.34226E+01 -7.36131E+00 +2.10486E+01 -1.08750E+01 +1.78177E+01 -1.33203E+01 +1.40252E+01
 -1.46251E+01 +9.99361E+00 -1.48104E+01 +6.04611E+00 -1.39859E+01 +2.48057E+00 -1.23376E+01 -4.54020E-01
 -1.01105E+01 -2.57661E+00 -7.58627E+00 -3.78711E+00 -5.05798E+00 -4.07257E+00 -2.80486E+00 -3.50588E+00
 -1.06834E+00 -2.23741E+00 -3.17543E-02 -4.80130E-01 +1.94863E-01 +1.51022E+00 -4.16500E-01 +3.45843E+00
 -1.81011E+00 +5.09453E+00 -3.85191E+00 +6.17778E+00 -6.34157E+00 +6.51806E+00 -9.03009E+00 +5.99287E+00
 -1.16414E+01 +4.55845E+00 -1.38965E+01 +2.25436E+00 -1.55372E+01 -7.99083E-01 -1.63488E+01 -4.41007E+00
 -1.61789E+01 -8.33054E+00 -1.49508E+01 -1.22761E+01 -1.26711E+01 -1.59491E+01 -9.43021E+00 -1.90625E+01
 -5.39635E+00 -2.13633E+01 -8.02738E-01 -2.26530E+01 +4.06998E+00 -2.28037E+01 +8.91533E+00 -2.17687E+01
 +1.34245E+01 -1.95863E+01 +1.73101E+01 -1.63771E+01 +2.03279E+01 -1.23347E+01 +2.22953E+01 -7.71088E+00
 +2.31044E+01 -2.79616E+00 +2.27297E+01 +2.10261E+00 +2.12288E+01 +6.68539E+00 +1.87365E+01 +1.06814E+01
 +1.54537E+01 +1.38691E+01 +1.16301E+01 +1.60917E+01 +7.54445E+00 +1.72677E+01 +3.48230E+00 +1.73946E+01
 -2.86122E-01 +1.65474E+01 -3.52649E+00 +1.48700E+01 -6.05757E+00 +1.25617E+01 -7.76375E+00 +9.85946E+00
 -8.60208E+00 +7.01768E+00 -8.60317E+00 +4.28695E+00 -7.86616E+00 +1.89357E+00 -6.54812E+00 +2.15305E-02
 -4.84897E+00 -1.20153E+00 -2.99313E+00 -1.71349E+00 -1.20957E+00 -1.52125E+00 +2.88194E-01 -6.98313E-01
 +1.32041E+00 +6.23021E-01 +1.75623E+00 +2.26443E+00 +1.52459E+00 +4.01794E+00 +6.19745E-01 +5.66462E+00
 -8.98622E-01 +6.99395E+00 -2.91091E+00 +7.82232E+00 -5.24809E+00 +8.00905E+00 -7.70625E+00 +7.46873E+00
 -1.00640E+01 +6.17882E+00 -1.21011E+01 +4.18199E+00 -1.36174E+01 +1.58301E+00 -1.44492E+01 -1.45943E+00
 -1.44834E+01 -4.74540E+00 -1.36670E+01 -8.04960E+00 -1.20117E+01 -1.11393E+01 -9.59360E+00 -1.37930E+01
 -6.54709E+00 -1.58174E+01 -3.05488E+00 -1.70633E+01 +6.66311E-01 -1.74364E+01 +4.38243E+00 -1.69048E+01
 +7.85999E+00 -1.55009E+01 +1.08837E+01 -1.33187E+01 +1.32727E+01 -1.05056E+01 +1.48934E+01 -7.25114E+00
 +1.56691E+01 -3.77156E+00 +1.55841E+01 -2.93344E-01 +1.46843E+01 +2.96417E+00 +1.30715E+01 +5.80511E+00
 +1.08945E+01 +8.07128E+00 +8.33635E+00 +9.65304E+00 +5.59921E+00 +1.04962E+01 +2.88811E+00 +1.06042E+01
 +3.94913E-01 +1.00361E+01 -1.71625E+00 +8.89952E+00 -3.32095E+00 +7.34048E+00 -4.34289E+00 +5.53030E+00
 -4.75829E+00 +3.65071E+00 -4.59580E+00 +1.87857E+00 -3.93223E+00 +3.71474E-01 -2.88441E+00 -7.44740E-01
 -1.59804E+00 -1.38552E+00 -2.34341E-01 -1.51348E+00 +1.04416E+00 -1.14026E+00 +2.08764E+00 -3.24208E-01
 +2.77165E+00 +8.35681E-01 +3.00740E+00 +2.20917E+00 +2.74884E+00 +3.64658E+00 +1.99608E+00 +4.99197E+00
 +7.94889E-01 +6.09663E+00 -7.67579E-01 +6.83181E+00 -2.57044E+00 +7.09956E+00 -4.46942E+00 +6.84084E+00
 -6.30900E+00 +6.04044E+00 -7.93531E+00 +4.72813E+00 -9.20874E+00 +2.97617E+00 -1.00153E+01 +8.93427E-01
 -1.02757E+01 -1.38346E+00 -9.95167E+00 -3.70098E+00 -9.04858E+00 -5.90092E+00 -7.61512E+00 -7.83271E+00
 -5.73901E+00 -9.36501E+00 -3.54005E+00 -1.03956E+01 -1.16057E+00 -1.08590E+01 +1.24560E+00 -1.07306E+01
 +3.52493E+00 -1.00282E+01 +5.53571E+00 -8.80982E+00 +7.15836E+00 -7.16836E+00 +8.30395E+00 -5.22404E+00
 +8.91993E+00 -3.11463E+00 +8.99312E+00 -9.84633E-01 +8.54944E+00 +1.02567E+00 +7.65070E+00 +2.79068E+00
 +6.38864E+00 +4.20836E+00 +4.87694E+00 +5.20712E+00 +3.24168E+00 +5.75008E+00 +1.61122E+00 +5.83646E+00
 +1.06169E-01 +5.50019E+00 -1.16958E+00 +4.80575E+00 -2.13632E+00 +3.84184E+00 -2.74370E+00 +2.71330E+00
 -2.97348E+00 +1.53211E+00 -2.83963E+00 +4.08085E-01 -2.38574E+00 -5.59886E-01 -1.68036E+00 -1.29143E+00
 -8.10277E-01 -1.73052E+00 +1.27241E-01 -1.84914E+00 +1.03293E+00 -1.64857E+00 +1.81380E+00 -1.15827E+00
 +2.39069E+00 -4.32499E-01 +2.70437E+00 +4.54928E-01 +2.72000E+00 +1.41735E+00 +2.42928E+00 +2.36277E+00
 +1.85059E+00 +3.20159E+00 +1.02681E+00 +3.85391E+00 +2.13704E-02 +4.25590E+00 -1.08732E+00 +4.36463E+00
 -2.21249E+00 +4.16121E+00 -3.26604E+00 +3.65179E+00 -4.16560E+00 +2.86675E+00 -4.84088E+00 +1.85778E+00
 -5.23890E+00 +6.93575E-01 -5.32780E+00 -5.45802E-01 -5.09888E+00 -1.77526E+00 -4.56674E+00 -2.91121E+00
 -3.76776E+00 -3.87781E+00 -2.75685E+00 -4.61245E+00 -1.60295E+00 -5.07006E+00 -3.83629E-01 -5.22593E+00
 +8.20853E-01 -5.07700E+00 +1.93341E+00 -4.64141E+00 +2.88563E+00 -3.95651E+00 +3.62235E+00 -3.07555E+00
 +4.10517E+00 -2.06333E+00 +4.31457E+00 -9.91079E-01 +4.25053E+00 +6.87885E-02 +3.93175E+00 +1.04791E+00
 +3.39350E+00 +1.88664E+00 +2.68442E+00 +2.53786E+00 +1.86244E+00 +2.96976E+00 +9.90250E-01 +3.16733E+00
 +1.30627E-01 +3.13265E+00 -6.57986E-01 +2.88383E+00 -1.32541E+00 +2.45296E+00 -1.83285E+00 +1.88309E+00
 -2.15503E+00 +1.22462E+00 -2.28129E+00 +5.31333E-01 -2.21555E+00 -1.43583E-01 -1.97526E+00 -7.51285E-01
 -1.58946E+00 -1.25050E+00 -1.09606E+00 -1.61003E+00 -5.38762E-01 -1.81048E+00 +3.63648E-02 -1.84497E+00
 +5.84254E-01 -1.71901E+00 +1.06396E+00 -1.44951E+00 +1.44133E+00 -1.06303E+00 +1.69109E+00 -5.93445E-01
 +1.79819E+00 -7.93138E-02 +1.75842E+00 +4.39053E-01 +1.57822E+00 +9.22426E-01 +1.27387E+00 +1.33531E+00
 +8.69966E-01 +1.64823E+00 +3.97492E-01 +1.83951E+00 -1.08495E-01 +1.89649E+00 -6.11321E-01 +1.81611E+00
 -1.07517E+00 +1.60480E+00 -1.46745E+00 +1.27791E+00 -1.76080E+00 +8.58410E-01 -1.93483E+00 +3.75316E-01
 -1.97729E+00 -1.38307E-01 -1.88477E+00 -6.47520E-01 -1.66277E+00 -1.11776E+00 -1.32535E+00 -1.51704E+00
 -8.94184E-01 -1.81796E+00 -3.97133E-01 -1.99941E+00 +1.33447E-01 -2.04795E+00 +6.62748E-01 -1.95865E+00
 +1.15568E+00 -1.73546E+00 +1.57906E+00 -1.39105E+00 +1.90374E+00 -9.46162E-01 +2.10651E+00 -4.28333E-01
 +2.17165E+00 +1.29664E-01 +2.09207E+00 +6.91828E-01 +1.86995E+00 +1.22115E+00 +1.51681E+00 +1.68198E+00
 +1.05299E+00 +2.04232E+00 +5.06585E-01 +2.27602E+00 -8.82305E-02 +2.36461E+00 -6.93218E-01 +2.29876E+00
 -1.26850E+00 +2.07912E+00 -1.77515E+00 +1.71660E+00 -2.17783E+00 +1.23193E+00 -2.44727E+00 +6.54562E-01
 -2.56239E+00 +2.09742E-02 -2.51207E+00 -6.27625E-01 -2.29614E+00 -1.24796E+00 -1.92575E+00 -1.79762E+00
 -1.42295E+00 -2.23800E+00 -8.19473E-01 -2.53715E+00 -1.54766E-01 -2.67216E+00 +5.26541E-01 -2.63110E+00
 +1.17768E+00 -2.41413E+00 +1.75301E+00 -2.03387E+00 +2.21137E+00 -1.51479E+00 +2.51913E+00 -8.91790E-01
 +2.65287E+00 -2.07906E-01 +2.60136E+00 +4.88608E-01 +2.36665E+00 +1.14772E+00 +1.96431E+00 +1.72129E+00
 +1.42253E+00 +2.16666E+00 +7.80334E-01 +2.45005E+00 +8.49028E-02 +2.54924E+00 -6.11835E-01 +2.45553E+00
 -1.25704E+00 +2.17474E+00 -1.80098E+00 +1.72703E+00 -2.20093E+00 +1.14573E+00 -2.42462E+00 +4.74976E-01
 -2.45294E+00 -2.33429E-01 -2.28177E+00 -9.23906E-01 -1.92254E+00 -1.54136E+00 -1.40173E+00 -2.03553E+00
 -7.59104E-01 -2.36502E+00 -4.47979E-02 -2.50083E+00 +6.84378E-01 -2.42885E+00 +1.36933E+00 -2.15135E+00
 +1.95336E+00 -1.68714E+00 +2.38673E+00 -1.07047E+00 +2.63078E+00 -3.48572E-01 +2.66133E+00 +4.21781E-01
 +2.47092E+00 +1.17865E+00 +2.06979E+00 +1.85977E+00 +1.48546E+00 +2.40758E+00 +7.60946E-01 +2.77393E+00
 -4.83954E-02 +2.92422E+00 -8.78997E-01 +2.84045E+00 -1.66403E+00 +2.52310E+00 -2.33868E+00 +1.99151E+00
 -2.84547E+00 +1.28274E+00 -3.13898E+00 +4.49005E-01 -3.18980E+00 -4.46140E-01 -2.98727E+00 -1.33269E+00
 -2.54073E+00 -2.13963E+00 -1.87922E+00 -2.80062E+00 -1.04958E+00 -3.25939E+00 -1.13110E-01 -3.47443E+00
 +8.59073E-01 -3.42267E+00 +1.79146E+00 -3.10161E+00 +2.61009E+00 -2.53000E+00 +3.24846E+00 -1.74668E+00
 +3.65294E+00 -8.07917E-01 +3.78727E+00 +2.16767E-01 +3.63568E+00 +1.24990E+00 +3.20454E+00 +2.21205E+00
 +2.52212E+00 +3.02807E+00 +1.63671E+00 +3.63316E+00 +6.13081E-01 +3.97805E+00 -4.72473E-01 +4.03316E+00
 -1.53799E+00 +3.79113E+00 -2.50228E+00 +3.26766E+00 -3.29135E+00 +2.50050E+00 -3.84435E+00 +1.54665E+00
 -4.11848E+00 +4.78013E-01 -4.09253E+00 -6.24209E-01 -3.76874E+00 -1.67591E+00 -3.17272E+00 -2.59678E+00
 -2.35154E+00 -3.31669E+00 -1.37010E+00 -3.78140E+00 -3.05951E-01 -3.95697E+00 +7.56872E-01 -3.83254E+00
 +1.73461E+00 -3.42129E+00 +2.55056E+00 -2.75949E+00 +3.14132E+00 -1.90359E+00 +3.46200E+00 -9.25670E-01
 +3.48994E+00 +9.23416E-02 +3.22665E+00 +1.06540E+00 +2.69777E+00 +1.91230E+00 +1.95104E+00 +2.56238E+00
 +1.05250E+00 +2.96143E+00 +8.10816E-02 +3.07624E+00 -8.77851E-01 +2.89748E+00 -1.73954E+00 +2.44067E+00
 -2.42689E+00 +1.74506E+00 -2.87695E+00 +8.70537E-01 -3.04629E+00 -1.07128E-01 -2.91477E+00 -1.10244E+00
 -2.48753E+00 -2.02718E+00 -1.79478E+00 -2.79767E+00 -8.89648E-01 -3.34178E+00 +1.55923E-01 -3.60502E+00
 +1.25687E+00 -3.55525E+00 +2.32181E+00 -3.18560E+00 +3.26041E+00 -2.51538E+00 +3.99080E+00 -1.58889E+00
 +4.44630E+00 -4.72059E-01 +4.58098E+00 +7.52518E-01 +4.37367E+00 +1.99208E+00 +3.82987E+00 +3.15101E+00
 +2.98166E+00 +4.13843E+00 +1.88533E+00 +4.87550E+00 +6.17213E-01 +5.30178E+00 -7.32299E-01 +5.38012E+00
 -2.06574E+00 +5.09976E+00 -3.28622E+00 +4.47731E+00 -4.30509E+00 +3.55552E+00 -5.04886E+00 +2.40000E+00
 -5.46503E+00 +1.09403E+00 -5.52618E+00 -2.67916E-01 -5.23208E+00 -1.58771E+00 -4.60958E+00 -2.77125E+00
 -3.71040E+00 -3.73590E+00 -2.60687E+00 -4.41694E+00 -1.38602E+00 -4.77258E+00 -1.42551E-01 -4.78713E+00
 +1.02882E+00 -4.47197E+00 +2.04098E+00 -3.86446E+00 +2.82141E+00 -3.02458E+00 +3.31790E+00 -2.02987E+00
 +3.50264E+00 -9.68903E-01 +3.37425E+00 +6.60891E-02 +2.95767E+00 +9.86901E-01 +2.30184E+00 +1.71664E+00
 +1.47546E+00 +2.19605E+00 +5.61081E-01 +2.38840E+00 -3.51931E-01 +2.28245E+00 -1.17494E+00 +1.89331E+00
 -1.82755E+00 +1.26114E+00 -2.24446E+00 +4.47695E-01 -2.38100E+00 -4.68829E-01 -2.21697E+00 -1.40041E+00
 -1.75855E+00 -2.25658E+00 -1.03784E+00 -2.95208E+00 -1.10473E-01 -3.41405E+00 +9.48928E-01 -3.58827E+00
