 Created: 19-Jan-2021
 $NMID
 ID='D:\BASISSIMULATI'
 FMTDAT='(8E13.5)'
 VOLUME=   1.00000E+00
 TRAMP=   1.00000E+00
 $END
 +5.62681E+01 +2.59753E-01 +5.42255E+01 +1.48590E+01 +4.84644E+01 +2.84155E+01 +3.93859E+01 +4.00004E+01
 +2.76185E+01 +4.88217E+01 +1.39739E+01 +5.42782E+01 -6.08378E-01 +5.60008E+01 -1.51260E+01 +5.38771E+01
 -2.85827E+01 +4.80589E+01 -4.00564E+01 +3.89513E+01 -4.87629E+01 +2.71845E+01 -5.41089E+01 +1.35704E+01
 -5.57327E+01 -9.53695E-01 -5.35288E+01 -1.53896E+01 -4.76543E+01 -2.87465E+01 -3.85184E+01 -4.01095E+01
 -2.67530E+01 -4.87017E+01 -1.31699E+01 -5.39378E+01 +1.29572E+00 -5.54637E+01 +1.56497E+01 -5.31804E+01
 +2.89071E+01 -4.72506E+01 +4.01597E+01 -3.80871E+01 +4.86382E+01 -2.63239E+01 +5.37651E+01 -1.27724E+01
 +5.51938E+01 +1.63445E+00 +5.28320E+01 +1.59065E+01 +4.68478E+01 +2.90644E+01 +3.76576E+01 +4.02069E+01
 +2.58972E+01 +4.85722E+01 +1.23778E+01 +5.35907E+01 -1.96990E+00 +5.49231E+01 -1.61599E+01 +5.24837E+01
 -2.92185E+01 +4.64460E+01 -4.02512E+01 +3.72299E+01 -4.85039E+01 +2.54730E+01 -5.34147E+01 +1.19862E+01
 -5.46515E+01 -2.30209E+00 -5.21355E+01 -1.64100E+01 -4.60450E+01 -2.93694E+01 -3.68039E+01 -4.02927E+01
 -2.50512E+01 -4.84334E+01 -1.15975E+01 -5.32370E+01 +2.63103E+00 -5.43792E+01 +1.66566E+01 -5.17873E+01
 +2.95170E+01 -4.56451E+01 +4.03313E+01 -3.63796E+01 +4.83605E+01 -2.46318E+01 +5.30578E+01 -1.12117E+01
 +5.41062E+01 +2.95671E+00 +5.14393E+01 +1.69000E+01 +4.52461E+01 +2.96615E+01 +3.59571E+01 +4.03671E+01
 +2.42148E+01 +4.82853E+01 +1.08289E+01 +5.28771E+01 -3.27916E+00 +5.38324E+01 -1.71400E+01 +5.10914E+01
 -2.98028E+01 +4.48481E+01 -4.04001E+01 +3.55364E+01 -4.82079E+01 +2.38003E+01 -5.26948E+01 +1.04490E+01
 -5.35578E+01 -3.59839E+00 -5.07436E+01 -1.73768E+01 -4.44510E+01 -2.99409E+01 -3.51174E+01 -4.04303E+01
 -2.33882E+01 -4.81283E+01 -1.00721E+01 -5.25110E+01 +3.91440E+00 -5.32826E+01 +1.76103E+01 -5.03960E+01
 +3.00760E+01 -4.40550E+01 +4.04578E+01 -3.47003E+01 +4.80466E+01 -2.29785E+01 +5.23257E+01 -9.69804E+00
 +5.30068E+01 +4.22721E+00 +5.00486E+01 +1.78405E+01 +4.36601E+01 +3.02079E+01 +3.42849E+01 +4.04826E+01
 +2.25713E+01 +4.79626E+01 +9.32692E+00 +5.21390E+01 -4.53683E+00 +5.27303E+01 -1.80674E+01 +4.97015E+01
 -3.03368E+01 +4.32661E+01 -4.05046E+01 +3.38713E+01 -4.78765E+01 +2.21665E+01 -5.19509E+01 +8.95872E+00
 -5.24531E+01 -4.84327E+00 -4.93545E+01 -1.82912E+01 -4.28733E+01 -3.04626E+01 -3.34596E+01 -4.05240E+01
 -2.17642E+01 -4.77883E+01 -8.59342E+00 -5.17613E+01 +5.14654E+00 -5.21754E+01 +1.85117E+01 -4.90078E+01
 +3.05853E+01 -4.24815E+01 +4.05408E+01 -3.30497E+01 +4.76981E+01 -2.13644E+01 +5.15704E+01 -8.23102E+00
 +5.18971E+01 +5.44664E+00 +4.86613E+01 +1.87290E+01 +4.20908E+01 +3.07051E+01 +3.26416E+01 +4.05549E+01
 +2.09669E+01 +4.76057E+01 +7.87152E+00 +5.13781E+01 -5.74361E+00 +5.16182E+01 -1.89431E+01 +4.83152E+01
 -3.08218E+01 +4.17012E+01 -4.05664E+01 +3.22354E+01 -4.75114E+01 +2.05720E+01 -5.11845E+01 +7.51491E+00
 -5.13388E+01 -6.03743E+00 -4.79693E+01 -1.91541E+01 -4.13127E+01 -3.09356E+01 -3.18310E+01 -4.05753E+01
 -2.01794E+01 -4.74150E+01 -7.16119E+00 -5.09896E+01 +6.32813E+00 -5.10590E+01 +1.93620E+01 -4.76238E+01
 +3.10464E+01 -4.09253E+01 +4.05817E+01 -3.14284E+01 +4.73166E+01 -1.97894E+01 +5.07934E+01 -6.81036E+00
 +5.07786E+01 +6.61572E+00 +4.72785E+01 +1.95667E+01 +4.05391E+01 +3.11543E+01 +3.10277E+01 +4.05855E+01
 +1.94018E+01 +4.72163E+01 +6.46239E+00 +5.05960E+01 -6.90021E+00 +5.04977E+01 -1.97682E+01 +4.69337E+01
 -3.12593E+01 +4.01540E+01 -4.05868E+01 +3.06289E+01 -4.71140E+01 +1.90166E+01 -5.03973E+01 +6.11730E+00
 -5.02164E+01 -7.18161E+00 -4.65892E+01 -1.99667E+01 -3.97701E+01 -3.13614E+01 -3.02320E+01 -4.05857E+01
 -1.86339E+01 -4.70099E+01 -5.77508E+00 -5.01974E+01 +7.45993E+00 -4.99347E+01 +2.01622E+01 -4.62452E+01
 +3.14606E+01 -3.93873E+01 +4.05820E+01 -2.98369E+01 +4.69038E+01 -1.82536E+01 +4.99964E+01 -5.43571E+00
 +4.96526E+01 +7.73519E+00 +4.59015E+01 +2.03545E+01 +3.90058E+01 +3.15570E+01 +2.94437E+01 +4.05760E+01
 +1.78758E+01 +4.67959E+01 +5.09919E+00 +4.97942E+01 -8.00739E+00 +4.93701E+01 -2.05438E+01 +4.55582E+01
 -3.16505E+01 +3.86254E+01 -4.05675E+01 +2.90525E+01 -4.66861E+01 +1.75005E+01 -4.95908E+01 +4.76552E+00
 -4.90873E+01 -8.27656E+00 -4.52154E+01 -2.07301E+01 -3.82463E+01 -3.17413E+01 -2.86631E+01 -4.05566E+01
 -1.71276E+01 -4.65745E+01 -4.43469E+00 -4.93863E+01 +8.54269E+00 -4.88041E+01 +2.09134E+01 -4.48731E+01
 +3.18292E+01 -3.78684E+01 +4.05434E+01 -2.82756E+01 +4.64611E+01 -1.67572E+01 +4.91808E+01 -4.10669E+00
 +4.85206E+01 +8.80580E+00 +4.45312E+01 +2.10936E+01 +3.74917E+01 +3.19144E+01 +2.78900E+01 +4.05278E+01
 +1.63892E+01 +4.63460E+01 +3.78152E+00 +4.89741E+01 -9.06591E+00 +4.82368E+01 -2.12709E+01 +4.41899E+01
 -3.19969E+01 +3.71163E+01 -4.05099E+01 +2.75064E+01 -4.62291E+01 +1.60237E+01 -4.87664E+01 +3.45917E+00
 -4.79527E+01 -9.32303E+00 -4.38490E+01 -2.14453E+01 -3.67422E+01 -3.20766E+01 -2.71247E+01 -4.04897E+01
 -1.56606E+01 -4.61105E+01 -3.13963E+00 -4.85577E+01 +9.57717E+00 -4.76684E+01 +2.16167E+01 -4.35087E+01
 +3.21536E+01 -3.63693E+01 +4.04672E+01 -2.67449E+01 +4.59902E+01 -1.53000E+01 +4.83480E+01 -2.82290E+00
 +4.73838E+01 +9.82834E+00 +4.31689E+01 +2.17852E+01 +3.59977E+01 +3.22280E+01 +2.63670E+01 +4.04424E+01
 +1.49418E+01 +4.58682E+01 +2.50896E+00 +4.81373E+01 -1.00766E+01 +4.70990E+01 -2.19507E+01 +4.28296E+01
 -3.22996E+01 +3.56274E+01 -4.04155E+01 +2.59911E+01 -4.57446E+01 +1.45861E+01 -4.79257E+01 +2.19782E+00
 -4.68140E+01 -1.03218E+01 -4.24910E+01 -2.21134E+01 -3.52583E+01 -3.23687E+01 -2.56171E+01 -4.03863E+01
 -1.42328E+01 -4.56193E+01 -1.88946E+00 -4.77131E+01 +1.05642E+01 -4.65288E+01 +2.22732E+01 -4.21529E+01
 +3.24351E+01 -3.48906E+01 +4.03549E+01 -2.52451E+01 +4.54925E+01 -1.38820E+01 +4.74996E+01 -1.58388E+00
 +4.62435E+01 +1.08036E+01 +4.18154E+01 +2.24301E+01 +3.45243E+01 +3.24989E+01 +2.48750E+01 +4.03213E+01
 +1.35336E+01 +4.53640E+01 +1.28107E+00 +4.72852E+01 -1.10401E+01 +4.59580E+01 -2.25842E+01 +4.14785E+01
 -3.25602E+01 +3.41592E+01 -4.02857E+01 +2.45069E+01 -4.52340E+01 +1.31876E+01 -4.70700E+01 +9.81027E-01
 -4.56724E+01 -1.12737E+01 -4.11423E+01 -2.27355E+01 -3.37955E+01 -3.26188E+01 -2.41407E+01 -4.02479E+01
 -1.28441E+01 -4.51025E+01 -6.83735E-01 -4.68539E+01 +1.15045E+01 -4.53867E+01 +2.28840E+01 -4.08067E+01
 +3.26750E+01 -3.34332E+01 +4.02080E+01 -2.37765E+01 +4.49694E+01 -1.25031E+01 +4.66370E+01 -3.89190E-01
 +4.51009E+01 +1.17324E+01 +4.04718E+01 +2.30297E+01 +3.30722E+01 +3.27286E+01 +2.34143E+01 +4.01660E+01
 +1.21644E+01 +4.48349E+01 +9.73839E-02 +4.64192E+01 -1.19574E+01 +4.48151E+01 -2.31726E+01 +4.01376E+01
 -3.27797E+01 +3.27126E+01 -4.01219E+01 +2.30540E+01 -4.46989E+01 +1.18283E+01 -4.62007E+01 -1.91691E-01
 -4.45292E+01 -1.21796E+01 -3.98040E+01 -2.33128E+01 -3.23543E+01 -3.28284E+01 -2.26957E+01 -4.00759E+01
 -1.14945E+01 -4.45614E+01 +4.78042E-01 -4.59814E+01 +1.23990E+01 -4.42432E+01 +2.34502E+01 -3.94712E+01
 +3.28746E+01 -3.19975E+01 +4.00278E+01 -2.23394E+01 +4.44225E+01 -1.11632E+01 +4.57614E+01 +7.61678E-01
 +4.39573E+01 +1.26155E+01 +3.91390E+01 +2.35849E+01 +3.16420E+01 +3.29183E+01 +2.19850E+01 +3.99777E+01
 +1.08343E+01 +4.42822E+01 -1.04261E+00 +4.55406E+01 -1.28293E+01 +4.36713E+01 -2.37169E+01 +3.88076E+01
 -3.29597E+01 +3.12880E+01 -3.99257E+01 +2.16327E+01 -4.41405E+01 +1.05078E+01 -4.53191E+01 -1.32084E+00
 -4.33854E+01 -1.30403E+01 -3.84770E+01 -2.38463E+01 -3.09354E+01 -3.29986E+01 -2.12823E+01 -3.98717E+01
 -1.01837E+01 -4.39975E+01 +1.59638E+00 -4.50970E+01 +1.32484E+01 -4.30995E+01 +2.39729E+01 -3.81471E+01
 +3.30352E+01 -3.05841E+01 +3.98158E+01 -2.09340E+01 +4.38531E+01 -9.86212E+00 +4.48742E+01 +1.86923E+00
 +4.28137E+01 +1.34539E+01 +3.78179E+01 +2.40969E+01 +3.02344E+01 +3.30694E+01 +2.05876E+01 +3.97580E+01
 +9.54290E+00 +4.37074E+01 -2.13942E+00 +4.46507E+01 -1.36566E+01 +4.25279E+01 -2.42183E+01 +3.74896E+01
 -3.31013E+01 +2.98860E+01 -3.96984E+01 +2.02432E+01 -4.35604E+01 +9.22610E+00 -4.44266E+01 -2.40694E+00
 -4.22422E+01 -1.38565E+01 -3.71620E+01 -2.43371E+01 -2.95391E+01 -3.31308E+01 -1.99008E+01 -3.96368E+01
 -8.91170E+00 -4.34121E+01 +2.67180E+00 -4.42019E+01 +1.40537E+01 -4.19567E+01 +2.44532E+01 -3.68353E+01
 +3.31581E+01 -2.91937E+01 +3.95734E+01 -1.95604E+01 +4.32626E+01 -8.59971E+00 +4.39766E+01 +2.93402E+00
 +4.16712E+01 +1.42483E+01 +3.65093E+01 +2.45668E+01 +2.88497E+01 +3.31831E+01 +1.92220E+01 +3.95082E+01
 +8.29013E+00 +4.31118E+01 -3.19359E+00 +4.37508E+01 -1.44401E+01 +4.13859E+01 -2.46779E+01 +3.61842E+01
 -3.32058E+01 +2.85072E+01 -3.94412E+01 +1.88856E+01 -4.29599E+01 +7.98294E+00 -4.35244E+01 -3.45054E+00
 -4.11008E+01 -1.46293E+01 -3.58600E+01 -2.47863E+01 -2.81662E+01 -3.32263E+01 -1.85512E+01 -3.93725E+01
 -7.67815E+00 -4.28067E+01 +3.70487E+00 -4.32975E+01 +1.48157E+01 -4.08158E+01 +2.48923E+01 -3.55366E+01
 +3.32445E+01 -2.78266E+01 +3.93020E+01 -1.82189E+01 +4.26524E+01 -7.37575E+00 +4.30701E+01 +3.95659E+00
 +4.05310E+01 +1.49996E+01 +3.52141E+01 +2.49957E+01 +2.74886E+01 +3.32606E+01 +1.78885E+01 +3.92297E+01
 +7.07574E+00 +4.24969E+01 -4.20570E+00 +4.28421E+01 -1.51808E+01 +4.02464E+01 -2.50967E+01 +3.48924E+01
 -3.32745E+01 +2.71520E+01 -3.91557E+01 +1.75601E+01 -4.23402E+01 +6.77811E+00 -4.26137E+01 -4.45222E+00
 -3.99620E+01 -1.53593E+01 -3.45717E+01 -2.51952E+01 -2.68169E+01 -3.32863E+01 -1.72338E+01 -3.90801E+01
 -6.48286E+00 -4.21825E+01 +4.69616E+00 -4.23849E+01 +1.55353E+01 -3.96779E+01 +2.52912E+01 -3.42518E+01
 +3.32959E+01 -2.64834E+01 +3.90027E+01 -1.69095E+01 +4.20237E+01 -6.18998E+00 +4.21556E+01 +4.93752E+00
 +3.93940E+01 +1.57087E+01 +3.39329E+01 +2.53847E+01 +2.61513E+01 +3.33033E+01 +1.65871E+01 +3.89237E+01
 +5.89947E+00 +4.18638E+01 -5.17631E+00 +4.19259E+01 -1.58794E+01 +3.91103E+01 -2.54759E+01 +3.36148E+01
 -3.33087E+01 +2.58208E+01 -3.88431E+01 +1.62668E+01 -4.17028E+01 +5.61133E+00 -4.16958E+01 -5.41256E+00
 -3.88270E+01 -1.60476E+01 -3.32977E+01 -2.55646E+01 -2.54918E+01 -3.33120E+01 -1.59485E+01 -3.87609E+01
