 Created: 19-Jan-2021
 $NMID
 ID='D:\BASISSIMULATI'
 FMTDAT='(8E13.5)'
 VOLUME=   1.00000E+00
 TRAMP=   1.00000E+00
 $END
 +3.46939E+01 +1.60178E-01 +3.34570E+01 +9.21672E+00 +2.98858E+01 +1.76315E+01 +2.42326E+01 +2.48115E+01
 +1.68978E+01 +3.02519E+01 +8.40122E+00 +3.35726E+01 -6.56092E-01 +3.45450E+01 -9.63473E+00 +3.31084E+01
 -1.79032E+01 +2.93734E+01 -2.48834E+01 +2.36136E+01 -3.00915E+01 +1.62453E+01 -3.31724E+01 +7.79621E+00
 -3.39246E+01 -1.13226E+00 -3.23131E+01 -9.90924E+00 -2.84712E+01 -1.79196E+01 -2.26891E+01 -2.46081E+01
 -1.53921E+01 -2.95183E+01 -7.10836E+00 -3.23249E+01 +1.56958E+00 -3.28550E+01 +1.00282E+01 -3.10993E+01
 +1.76773E+01 -2.72107E+01 +2.39917E+01 -2.14911E+01 +2.85482E+01 -1.43682E+01 +3.10544E+01 -6.36248E+00
 +3.13677E+01 +1.95075E+00 +2.95031E+01 +9.98390E+00 +2.56299E+01 +1.71792E+01 +2.00564E+01 +2.30482E+01
 +1.32058E+01 +2.72054E+01 +5.58338E+00 +2.93942E+01 -2.26086E+00 +2.95026E+01 -9.77290E+00 +2.75681E+01
 -1.64343E+01 +2.37726E+01 -2.17987E+01 +1.84253E+01 -2.55222E+01 +1.19385E+01 -2.73854E+01 +4.79506E+00
 -2.73065E+01 -2.48782E+00 -2.53435E+01 -9.39645E+00 -2.16865E+01 -1.54576E+01 -1.66406E+01 -2.02712E+01
 -1.06005E+01 -2.35375E+01 -4.02003E+00 -2.50754E+01 +2.62276E+00 -2.48321E+01 +8.86035E+00 -2.28830E+01
 +1.42693E+01 -1.94226E+01 +1.84993E+01 -1.47461E+01 +2.12962E+01 -9.22530E+00 +2.25170E+01 -3.27864E+00
 +2.21361E+01 +2.66025E+00 +2.02434E+01 +8.17475E+00 +1.70330E+01 +1.28947E+01 +1.27858E+01 +1.65217E+01
 +7.84483E+00 +1.88477E+01 +2.58861E+00 +1.97666E+01 -2.59838E+00 +1.92780E+01 -7.35386E+00 +1.74825E+01
 -1.13633E+01 +1.45701E+01 -1.43809E+01 +1.08022E+01 -1.62444E+01 +6.48894E+00 -1.68830E+01 +1.96459E+00
 -1.63184E+01 -2.43877E+00 -1.46585E+01 -6.41548E+00 -1.20850E+01 -9.70769E+00 -8.83575E+00 -1.21220E+01
 -5.18446E+00 -1.35405E+01 -1.41788E+00 -1.39255E+01 +2.18641E+00 -1.33174E+01 +5.38045E+00 -1.18278E+01
 +7.96292E+00 -9.62619E+00 +9.79167E+00 -6.92384E+00 +1.07909E+01 -3.95476E+00 +1.09526E+01 -9.56337E-01
 +1.03331E+01 +1.84938E+00 +9.04379E+00 +4.27197E+00 +7.23881E+00 +6.16543E+00 +5.09980E+00 +7.43664E+00
 +2.81928E+00 +8.04892E+00 +5.84291E-01 +8.02085E+00 -1.43849E+00 +7.42051E+00 -3.11491E+00 +6.35603E+00
 -4.35205E+00 +4.96335E+00 -5.10274E+00 +3.39246E+00 -5.36590E+00 +1.79331E+00 -5.18282E+00 +3.02697E-01
 -4.62991E+00 -9.66806E-01 -3.80887E+00 -1.93505E+00 -2.83510E+00 -2.55898E+00 -1.82566E+00 -2.83364E+00
 -8.87846E-01 -2.78950E+00 -1.09336E-01 -2.48659E+00 +4.49172E-01 -2.00617E+00 +7.58273E-01 -1.44074E+00
 +8.20857E-01 -8.83447E-01 +6.69808E-01 -4.17945E-01 +3.62760E-01 -1.09643E-01 -2.55178E-02 +8.65836E-04
 -4.12265E-01 -9.84107E-02 -7.16498E-01 -3.90162E-01 -8.68414E-01 -8.30159E-01 -8.17513E-01 -1.35245E+00
 -5.38650E-01 -1.87681E+00 -3.54352E-02 -2.31772E+00 +6.59354E-01 -2.59399E+00 +1.48638E+00 -2.63799E+00
 +2.36517E+00 -2.40373E+00 +3.20174E+00 -1.87289E+00 +3.89795E+00 -1.05821E+00 +4.36137E+00 -3.89231E-03
 +4.51505E+00 +1.21709E+00 +4.30609E+00 +2.50857E+00 +3.71216E+00 +3.75922E+00 +2.74549E+00 +4.85228E+00
 +1.45365E+00 +5.67621E+00 -8.27567E-02 +6.13528E+00 -1.75565E+00 +6.15913E+00 -3.43756E+00 +5.71036E+00
 -4.99190E+00 +4.78962E+00 -6.28430E+00 +3.43742E+00 -7.19426E+00 +1.73260E+00 -7.62599E+00 -2.12549E-01
 -7.51755E+00 -2.26021E+00 -6.84743E+00 -4.25735E+00 -5.63794E+00 -6.04772E+00 -3.95515E+00 -7.48438E+00
 -1.90514E+00 -8.44201E+00 +3.73096E-01 -8.82761E+00 +2.71759E+00 -8.58907E+00 +4.95550E+00 -7.72056E+00
 +6.91638E+00 -6.26436E+00 +8.44554E+00 -4.30893E+00 +9.41653E+00 -1.98326E+00 +9.74161E+00 +5.52102E-01
 +9.37941E+00 +3.11666E+00 +8.33916E+00 +5.52339E+00 +6.68095E+00 +7.59287E+00 +4.51219E+00 +9.16708E+00
 +1.98030E+00 +1.01218E+01 -7.37841E-01 +1.03764E+01 -3.44869E+00 +9.90073E+00 -5.95640E+00 +8.71806E+00
 -8.07743E+00 +6.90387E+00 -9.65441E+00 +4.58087E+00 -1.05681E+01 +1.91032E+00 -1.07465E+01 -9.19586E-01
 -1.01708E+01 -3.70754E+00 -8.87676E+00 -6.25385E+00 -6.95262E+00 -8.37527E+00 -4.53267E+00 -9.91850E+00
 -1.78762E+00 -1.07716E+01 +1.08797E+00 -1.08722E+01 +3.88982E+00 -1.02122E+01 +6.41897E+00 -8.83851E+00
 +8.49625E+00 -6.84917E+00 +9.97533E+00 -4.38643E+00 +1.07533E+01 -1.62612E+00 +1.07780E+01 +1.23526E+00
 +1.00514E+01 +3.99492E+00 +8.62934E+00 +6.45855E+00 +6.61713E+00 +8.45431E+00 +4.16135E+00 +9.84516E+00
 +1.43900E+00 +1.05384E+01 -1.35557E+00 +1.04921E+01 -4.02488E+00 +9.71737E+00 -6.38261E+00 +8.27712E+00
 -8.26689E+00 +6.28092E+00 -9.55165E+00 +3.87641E+00 -1.01552E+01 +1.23823E+00 -1.00453E+01 -1.44495E+00
 -9.24113E+00 -3.98421E+00 -7.81059E+00 -6.20393E+00 -5.86489E+00 -7.95416E+00 -3.54975E+00 -9.12093E+00
 -1.03432E+00 -9.63369E+00 +1.50140E+00 -9.46961E+00 +3.87963E+00 -8.65416E+00 +5.93747E+00 -7.25836E+00
 +7.53826E+00 -5.39266E+00 +8.58067E+00 -3.19822E+00 +9.00519E+00 -8.36066E-01 +8.79735E+00 +1.52479E+00
 +7.98761E+00 +3.71965E+00 +6.64812E+00 +5.59975E+00 +4.88641E+00 +7.04241E+00 +2.83688E+00 +7.95909E+00
 +6.50423E-01 +8.30074E+00 -1.51671E+00 +8.06017E+00 -3.51421E+00 +7.27135E+00 -5.20818E+00 +6.00578E+00
 -6.49015E+00 +4.36631E+00 -7.28400E+00 +2.47878E+00 -7.55032E+00 +4.82481E-01 -7.28801E+00 -1.48025E+00
 -6.53308E+00 -3.27414E+00 -5.35490E+00 -4.78039E+00 -3.85008E+00 -5.90446E+00 -2.13473E+00 -6.58193E+00
 -3.35507E-01 -6.78197E+00 +1.41967E+00 -6.50832E+00 +3.01073E+00 -5.79772E+00 +4.33362E+00 -4.71607E+00
 +5.30705E+00 -3.35271E+00 +5.87730E+00 -1.81316E+00 +6.02098E+00 -2.11069E-01 +5.74537E+00 +1.34013E+00
 +5.08675E+00 +2.73517E+00 +4.10660E+00 +3.88404E+00 +2.88622E+00 +4.71765E+00 +1.52021E+00 +5.19181E+00
 +1.09225E-01 +5.28926E+00 -1.24732E+00 +5.01970E+00 -2.45817E+00 +4.41791E+00 -3.44626E+00 +3.54022E+00
 -4.15348E+00 +2.45959E+00 -4.54382E+00 +1.25973E+00 -4.60491E+00 +2.87690E-02 -4.34776E+00 -1.14707E+00
 -3.80490E+00 -2.18943E+00 -3.02708E+00 -3.03287E+00 -2.07888E+00 -3.62880E+00 -1.03354E+00 -3.94804E+00
 +3.24934E-02 -3.98190E+00 +1.04509E+00 -3.74178E+00 +1.93738E+00 -3.25737E+00 +2.65406E+00 -2.57371E+00
 +3.15458E+00 -1.74731E+00 +3.41524E+00 -8.41656E-01 +3.42992E+00 +7.74478E-02 +3.20966E+00 +9.46556E-01
 +2.78097E+00 +1.70879E+00 +2.18328E+00 +2.31739E+00 +1.46557E+00 +2.73837E+00 +6.82541E-01 +2.95223E+00
 -1.09370E-01 +2.95448E+00 -8.55922E-01 +2.75519E+00 -1.50862E+00 +2.37760E+00 -2.02767E+00 +1.85584E+00
 -2.38428E+00 +1.23213E+00 -2.56195E+00 +5.53484E-01 -2.55703E+00 -1.31638E-01 -2.37829E+00 -7.76653E-01
 -2.04574E+00 -1.33986E+00 -1.58875E+00 -1.78698E+00 -1.04362E+00 -2.09305E+00 -4.50913E-01 -2.24365E+00
 +1.47470E-01 -2.23536E+00 +7.11086E-01 -2.07546E+00 +1.20354E+00 -1.78095E+00 +1.59469E+00 -1.37708E+00
 +1.86233E+00 -8.95237E-01 +1.99332E+00 -3.70736E-01 +1.98403E+00 +1.59697E-01 +1.84024E+00 +6.60341E-01
 +1.57635E+00 +1.09876E+00 +1.21417E+00 +1.44778E+00 +7.81191E-01 +1.68705E+00 +3.08663E-01 +1.80409E+00
 -1.70587E-01 +1.79489E+00 -6.24299E-01 +1.66384E+00 -1.02285E+00 +1.42320E+00 -1.34108E+00 +1.09210E+00
 -1.55980E+00 +6.95112E-01 -1.66685E+00 +2.60487E-01 -1.65775E+00 -1.81719E-01 -1.53576E+00 -6.01652E-01
 -1.31154E+00 -9.71584E-01 -1.00227E+00 -1.26767E+00 -6.30463E-01 -1.47142E+00 -2.22337E-01 -1.57083E+00
 +1.93918E-01 -1.56101E+00 +5.90028E-01 -1.44446E+00 +9.39501E-01 -1.23076E+00 +1.21934E+00 -9.35846E-01
 +1.41155E+00 -5.80899E-01 +1.50423E+00 -1.90866E-01 +1.49235E+00 +2.07239E-01 +1.37801E+00 +5.86160E-01
 +1.17022E+00 +9.20233E-01 +8.84261E-01 +1.18710E+00 +5.40583E-01 +1.36921E+00 +1.63393E-01 +1.45495E+00
 -2.21024E-01 +1.43942E+00 -5.86120E-01 +1.32473E+00 -9.06906E-01 +1.11978E+00 -1.16167E+00 +8.39637E-01
 -1.33344E+00 +5.04445E-01 -1.41118E+00 +1.37986E-01 -1.39046E+00 -2.33992E-01 -1.27376E+00 -5.85584E-01
 -1.07027E+00 -8.92553E-01 -7.95124E-01 -1.13402E+00 -4.68375E-01 -1.29391E+00 -1.13477E-01 -1.36208E+00
 +2.44392E-01 -1.33492E+00 +5.80134E-01 -1.21565E+00 +8.70535E-01 -1.01393E+00 +1.09590E+00 -7.45180E-01
 +1.24144E+00 -4.29343E-01 +1.29826E+00 -8.94333E-02 +1.26396E+00 +2.50183E-01 +1.14268E+00 +5.65570E-01
 +9.44744E-01 +8.34955E-01 +6.85767E-01 +1.04029E+00 +3.85455E-01 +1.16849E+00 +6.60726E-02 +1.21234E+00
 -2.49245E-01 +1.17087E+00 -5.38214E-01 +1.04932E+00 -7.81039E-01 +8.58626E-01 -9.61819E-01 +6.14456E-01
 -1.06964E+00 +3.35937E-01 -1.09928E+00 +4.41312E-02 -1.05140E+00 -2.39600E-01 -9.32368E-01 -4.95215E-01
 -7.53585E-01 -7.05466E-01 -5.30452E-01 -8.57122E-01 -2.81059E-01 -9.41846E-01 -2.47038E-02 -9.56653E-01
 +2.19644E-01 -9.03945E-01 +4.34802E-01 -7.91109E-01 +6.06646E-01 -6.29736E-01 +7.25081E-01 -4.34529E-01
 +7.84663E-01 -2.21998E-01 +7.84814E-01 -9.05661E-03 +7.29627E-01 +1.88354E-01 +6.27293E-01 +3.56510E-01
 +4.89218E-01 +4.84912E-01 +3.28896E-01 +5.66974E-01 +1.60663E-01 +6.00354E-01 -1.56971E-03 +5.86898E-01
 -1.45484E-01 +5.32228E-01 -2.61330E-01 +4.45017E-01 -3.42624E-01 +3.36023E-01 -3.86522E-01 +2.16984E-01
 -3.93834E-01 +9.94773E-02 -3.68710E-01 -6.15686E-03 -3.18019E-01 -9.17183E-02 -2.50493E-01 -1.51808E-01
 -1.75738E-01 -1.84186E-01 -1.03192E-01 -1.89804E-01 -4.11438E-02 -1.72514E-01 +4.09194E-03 -1.38496E-01
 +2.87758E-02 -9.54611E-02 +3.20529E-02 -5.17211E-02 +1.59526E-02 -1.52116E-02 -1.49216E-02 +7.42373E-03
 -5.39748E-02 +1.15994E-02 -9.34167E-02 -4.67404E-03 -1.25187E-01 -4.05347E-02 -1.41918E-01 -9.23248E-02
 -1.37829E-01 -1.53951E-01 -1.09469E-01 -2.17519E-01 -5.62161E-02 -2.74171E-01 +1.95026E-02 -3.15061E-01
 +1.12322E-01 -3.32349E-01 +2.14357E-01 -3.20132E-01 +3.15904E-01 -2.75200E-01 +4.06356E-01 -1.97550E-01
 +4.75254E-01 -9.05913E-02 +5.13360E-01 +3.89872E-02 +5.13667E-01 +1.81682E-01 +4.72222E-01 +3.25936E-01
 +3.88690E-01 +4.59142E-01 +2.66599E-01 +5.68777E-01 +1.13218E-01 +6.43590E-01 -6.09210E-02 +6.74709E-01
 -2.42824E-01 +6.56576E-01 -4.18098E-01 +5.87604E-01 -5.72178E-01 +4.70493E-01 -6.91618E-01 +3.12173E-01
 -7.65318E-01 +1.23345E-01 -7.85581E-01 -8.23164E-02 -7.48886E-01 -2.89262E-01 -6.56322E-01 -4.81358E-01
 -5.13608E-01 -6.43265E-01 -3.30711E-01 -7.61769E-01 -1.21073E-01 -8.26961E-01 +9.94754E-02 -8.33139E-01
