 Created: 19-Jan-2021
 $NMID
 ID='D:\BASISSIMULATI'
 FMTDAT='(8E13.5)'
 VOLUME=   1.00000E+00
 TRAMP=   1.00000E+00
 $END
 +3.80675E+01 +4.05466E-02 +3.24083E+01 +1.72942E+01 +1.81882E+01 +2.78162E+01 +1.32253E+00 +2.79176E+01
 -1.13025E+01 +1.83489E+01 -1.47844E+01 +3.93042E+00 -8.28577E+00 -8.56570E+00 +4.64903E+00 -1.33593E+01
 +1.76699E+01 -8.16042E+00 +2.44008E+01 +4.85492E+00 +2.12183E+01 +2.00038E+01 +8.83008E+00 +3.05691E+01
 -8.02311E+00 +3.17125E+01 -2.26051E+01 +2.25693E+01 -2.90771E+01 +6.62511E+00 -2.49953E+01 -9.77944E+00
 -1.23396E+01 -2.01655E+01 +3.36213E+00 -2.06779E+01 +1.54276E+01 -1.17037E+01 +1.88930E+01 +2.34272E+00
 +1.26258E+01 +1.49659E+01 -2.29188E-01 +2.04169E+01 -1.36515E+01 +1.61803E+01 -2.13809E+01 +4.04833E+00
 -1.96435E+01 -1.06716E+01 -8.79168E+00 -2.14664E+01 +6.84411E+00 -2.34385E+01 +2.08187E+01 -1.54223E+01
 +2.73403E+01 -4.84990E-01 +2.37466E+01 +1.53938E+01 +1.16247E+01 +2.58877E+01 -3.90020E+00 +2.70220E+01
 -1.63889E+01 +1.88442E+01 -2.08606E+01 +5.35330E+00 -1.59139E+01 -7.26943E+00 -4.29024E+00 -1.33557E+01
 +8.35535E+00 -1.02036E+01 +1.59329E+01 +7.66932E-01 +1.45704E+01 +1.46460E+01 +4.29517E+00 +2.51711E+01
 -1.09748E+01 +2.74395E+01 -2.51172E+01 +2.00239E+01 -3.24343E+01 +5.58257E+00 -3.00854E+01 -1.02887E+01
 -1.92794E+01 -2.14600E+01 -4.72074E+00 -2.38822E+01 +7.43982E+00 -1.72883E+01 +1.22580E+01 -5.25544E+00
 +8.10531E+00 +6.38744E+00 -2.66801E+00 +1.21070E+01 -1.47928E+01 +9.06505E+00 -2.23929E+01 -1.66386E+00
 -2.15460E+01 -1.55731E+01 -1.19851E+01 -2.66849E+01 +2.78470E+00 -3.01363E+01 +1.69961E+01 -2.42726E+01
 +2.50947E+01 -1.13497E+01 +2.41080E+01 +3.44810E+00 +1.48895E+01 +1.42390E+01 +1.71209E+00 +1.69565E+01
 -9.60228E+00 +1.10597E+01 -1.42000E+01 -2.86410E-01 -1.02718E+01 -1.16276E+01 +2.03461E-01 -1.76087E+01
 +1.23548E+01 -1.52978E+01 +2.05583E+01 -5.44599E+00 +2.08852E+01 +7.85346E+00 +1.28037E+01 +1.89467E+01
 -5.95109E-01 +2.30633E+01 -1.39320E+01 +1.83659E+01 -2.18503E+01 +6.72628E+00 -2.13002E+01 -7.09738E+00
 -1.28153E+01 -1.75136E+01 -2.40233E-01 -2.04898E+01 +1.09589E+01 -1.52509E+01 +1.60627E+01 -4.56108E+00
 +1.31199E+01 +6.52023E+00 +3.75438E+00 +1.28578E+01 -7.57772E+00 +1.14710E+01 -1.55467E+01 +2.81410E+00
 -1.62703E+01 -9.43681E+00 -8.99333E+00 -1.99857E+01 +3.59238E+00 -2.42063E+01 +1.65133E+01 -2.01278E+01
 +2.46520E+01 -9.26546E+00 +2.49291E+01 +4.05270E+00 +1.75907E+01 +1.45579E+01 +6.05709E+00 +1.82972E+01
 -4.58897E+00 +1.42991E+01 -9.80934E+00 +4.93992E+00 -7.55727E+00 -5.13477E+00 +8.71633E-01 -1.10538E+01
 +1.14393E+01 -9.83934E+00 +1.91435E+01 -1.68790E+00 +2.01966E+01 +1.01303E+01 +1.36629E+01 +2.06975E+01
 +1.85465E+00 +2.55733E+01 -1.06727E+01 +2.26980E+01 -1.90800E+01 +1.32560E+01 -2.03067E+01 +1.14064E+00
 -1.43488E+01 -8.73694E+00 -4.21122E+00 -1.25550E+01 +5.42902E+00 -9.19402E+00 +1.02610E+01 -6.68422E-01
 +8.19331E+00 +8.79617E+00 +2.28492E-01 +1.46264E+01 -1.00082E+01 +1.38932E+01 -1.78666E+01 +6.57222E+00
 -1.96969E+01 -4.46123E+00 -1.44238E+01 -1.46883E+01 -3.99931E+00 -1.98991E+01 +7.45178E+00 -1.79935E+01
 +1.54091E+01 -9.85972E+00 +1.68846E+01 +1.03951E+00 +1.16698E+01 +1.01777E+01 +2.37581E+00 +1.39116E+01
 -6.73744E+00 +1.10216E+01 -1.16224E+01 +3.18896E+00 -1.01875E+01 -5.78183E+00 -3.17374E+00 -1.16452E+01
 +6.20191E+00 -1.15646E+01 +1.36677E+01 -5.33345E+00 +1.57574E+01 +4.55355E+00 +1.13041E+01 +1.39930E+01
 +1.92875E+00 +1.90470E+01 -8.67446E+00 +1.76274E+01 -1.63339E+01 +1.03663E+01 -1.81808E+01 +3.10478E-01
 -1.38464E+01 -8.41527E+00 -5.57013E+00 -1.23857E+01 +2.81287E+00 -1.03252E+01 +7.55316E+00 -3.61089E+00
 +6.60504E+00 +4.37341E+00 +4.85762E-01 +9.73852E+00 -7.98328E+00 +9.78758E+00 -1.49263E+01 +4.17681E+00
 -1.71022E+01 -4.95327E+00 -1.33004E+01 -1.39189E+01 -4.84575E+00 -1.90866E+01 +4.99148E+00 -1.84259E+01
 +1.24119E+01 -1.23528E+01 +1.47096E+01 -3.51382E+00 +1.14003E+01 +4.38282E+00 +4.37823E+00 +8.17012E+00
 -2.94924E+00 +6.56529E+00 -7.16277E+00 +6.78913E-01 -6.31025E+00 -6.51498E+00 -7.28910E-01 -1.15033E+01
 +7.13355E+00 -1.17701E+01 +1.38062E+01 -6.87940E+00 +1.63081E+01 +1.35455E+00 +1.34298E+01 +9.66837E+00
 +6.23494E+00 +1.47632E+01 -2.42131E+00 +1.47127E+01 -9.13403E+00 +9.76054E+00 -1.14049E+01 +2.17529E+00
 -8.68378E+00 -4.75972E+00 -2.55497E+00 -8.17150E+00 +3.99583E+00 -6.81832E+00 +7.90266E+00 -1.58478E+00
 +7.34903E+00 +4.94849E+00 +2.53368E+00 +9.65866E+00 -4.44714E+00 +1.02479E+01 -1.05345E+01 +6.23161E+00
 -1.30419E+01 -8.71945E-01 -1.08080E+01 -8.21708E+00 -4.67591E+00 -1.28663E+01 +2.89724E+00 -1.30439E+01
 +8.91453E+00 -8.86883E+00 +1.11239E+01 -2.26161E+00 +8.95680E+00 +3.91883E+00 +3.72398E+00 +7.12132E+00
 -1.99968E+00 +6.18848E+00 -5.52067E+00 +1.81848E+00 -5.19789E+00 -3.78316E+00 -1.13464E+00 -7.89494E+00
 +4.89690E+00 -8.47355E+00 +1.02505E+01 -5.03204E+00 +1.25627E+01 +1.16999E+00 +1.07668E+01 +7.69220E+00
 +5.52882E+00 +1.19762E+01 -1.06814E+00 +1.24374E+01 -6.44109E+00 +9.11606E+00 -8.61697E+00 +3.61653E+00
 -7.05399E+00 -1.62192E+00 -2.82782E+00 -4.39440E+00 +1.88246E+00 -3.67106E+00 +4.77054E+00 -7.16454E-03
 +4.40923E+00 +4.74134E+00 +8.52403E-01 +8.25766E+00 -4.41773E+00 +8.78372E+00 -9.15977E+00 +5.87522E+00
 -1.13554E+01 +5.72684E-01 -1.00737E+01 -5.07153E+00 -5.84755E+00 -8.89076E+00 -4.12368E-01 -9.52896E+00
 +4.06492E+00 -6.99386E+00 +5.92059E+00 -2.60983E+00 +4.68597E+00 +1.59323E+00 +1.24467E+00 +3.77630E+00
 -2.59772E+00 +3.07826E+00 -4.92943E+00 -4.30977E-02 -4.57026E+00 -4.05098E+00 -1.56864E+00 -7.03041E+00
 +2.84777E+00 -7.53387E+00 +6.83117E+00 -5.20190E+00 +8.72642E+00 -8.96258E-01 +7.77872E+00 +3.69798E+00
 +4.43328E+00 +6.81439E+00 +1.09467E-01 +7.36027E+00 -3.43730E+00 +5.35821E+00 -4.87719E+00 +1.89309E+00
 -3.85800E+00 -1.39721E+00 -1.11534E+00 -3.05178E+00 +1.89236E+00 -2.41414E+00 +3.64969E+00 +1.11865E-01
 +3.25208E+00 +3.27646E+00 +7.85016E-01 +5.55975E+00 -2.74074E+00 +5.84664E+00 -5.85486E+00 +3.90378E+00
 -7.27830E+00 +4.57560E-01 -6.46960E+00 -3.14725E+00 -3.83265E+00 -5.54539E+00 -5.07294E-01 -5.93625E+00
 +2.15098E+00 -4.40195E+00 +3.16401E+00 -1.82974E+00 +2.33526E+00 +5.12613E-01 +2.95972E-01 +1.54933E+00
 -1.81290E+00 +8.60946E-01 -2.86948E+00 -1.15903E+00 -2.26978E+00 -3.51182E+00 -1.78465E-01 -5.05990E+00
 +2.56927E+00 -5.03680E+00 +4.85794E+00 -3.37374E+00 +5.79043E+00 -7.06238E-01 +5.07071E+00 +1.92960E+00
 +3.10616E+00 +3.56441E+00 +7.95777E-01 +3.71301E+00 -8.88613E-01 +2.55922E+00 -1.33348E+00 +8.35907E-01
 -5.34600E-01 -5.33042E-01 +9.36246E-01 -8.58730E-01 +2.22153E+00 +1.25466E-02 +2.58378E+00 +1.65429E+00
 +1.73915E+00 +3.27944E+00 -2.89773E-02 +4.11438E+00 -2.01880E+00 +3.75146E+00 -3.44302E+00 +2.32091E+00
 -3.78710E+00 +4.11164E-01 -3.02835E+00 -1.21599E+00 -1.62126E+00 -1.97703E+00 -2.65108E-01 -1.72109E+00
 +4.30625E-01 -7.73808E-01 +2.24393E-01 +2.41431E-01 -6.62907E-01 +7.13687E-01 -1.67464E+00 +3.36467E-01
 -2.19958E+00 -7.54802E-01 -1.87035E+00 -2.05993E+00 -7.37337E-01 -2.96331E+00 +7.61254E-01 -3.03286E+00
 +2.01467E+00 -2.22507E+00 +2.53376E+00 -9.00098E-01 +2.18207E+00 +3.57170E-01 +1.23375E+00 +1.02161E+00
 +2.32464E-01 +8.79775E-01 -2.78998E-01 +1.28099E-01 -2.69754E-02 -7.29473E-01 +8.57117E-01 -1.13435E+00
 +1.89955E+00 -7.54147E-01 +2.51648E+00 +3.45182E-01 +2.30415E+00 +1.72088E+00 +1.24641E+00 +2.76095E+00
 -2.62906E-01 +2.97991E+00 -1.59764E+00 +2.26067E+00 -2.19528E+00 +9.23781E-01 -1.83082E+00 -4.13855E-01
 -7.35463E-01 -1.12837E+00 +5.01840E-01 -8.90861E-01 +1.20914E+00 +1.63250E-01 +9.56141E-01 +1.48334E+00
 -2.25665E-01 +2.35502E+00 -1.83655E+00 +2.24066E+00 -3.12698E+00 +1.04926E+00 -3.44538E+00 -7.95704E-01
 -2.55474E+00 -2.53088E+00 -7.66751E-01 -3.39700E+00 +1.17751E+00 -2.99652E+00 +2.43456E+00 -1.49670E+00
 +2.44787E+00 +4.23533E-01 +1.21959E+00 +1.86865E+00 -6.67167E-01 +2.13538E+00 -2.29617E+00 +1.04914E+00
 -2.83152E+00 -9.31544E-01 -1.91131E+00 -2.90052E+00 +1.61907E-01 -3.90514E+00 +2.53009E+00 -3.38611E+00
 +4.14993E+00 -1.45437E+00 +4.26405E+00 +1.12888E+00 +2.76051E+00 +3.27178E+00 +2.51403E-01 +4.03595E+00
 -2.17653E+00 +3.06991E+00 -3.43753E+00 +7.91607E-01 -2.94032E+00 -1.77247E+00 -8.75232E-01 -3.43125E+00
 +1.84317E+00 -3.36430E+00 +3.96434E+00 -1.50860E+00 +4.45660E+00 +1.38397E+00 +2.98293E+00 +4.05599E+00
 +7.99775E-02 +5.29357E+00 -3.05113E+00 +4.47523E+00 -5.06062E+00 +1.87299E+00 -5.05054E+00 -1.43838E+00
 -2.99222E+00 -4.03591E+00 +2.32751E-01 -4.77422E+00 +3.19860E+00 -3.30693E+00 +4.55688E+00 -2.66506E-01
 +3.64280E+00 +2.98877E+00 +7.94332E-01 +4.96050E+00 -2.76744E+00 +4.67651E+00 -5.45616E+00 +2.14235E+00
 -6.01677E+00 -1.63006E+00 -4.09497E+00 -5.04170E+00 -4.22172E-01 -6.59944E+00 +3.47738E+00 -5.58165E+00
 +5.94007E+00 -2.37954E+00 +5.89607E+00 +1.64670E+00 +3.35844E+00 +4.74564E+00 -5.55716E-01 +5.54131E+00
 -4.09333E+00 +3.65295E+00 -5.62776E+00 -1.10752E-01 -4.38452E+00 -4.08005E+00 -8.07795E-01 -6.44265E+00
 +3.60363E+00 -6.04365E+00 +6.93142E+00 -2.91460E+00 +7.67407E+00 +1.70888E+00 +5.41951E+00 +5.90106E+00
 +1.05283E+00 +7.87682E+00 -3.60328E+00 +6.77960E+00 -6.56959E+00 +3.07761E+00 -6.57745E+00 -1.61514E+00
 -3.64130E+00 -5.22679E+00 +9.22292E-01 -6.13195E+00 +5.04928E+00 -3.87833E+00 +6.82416E+00 +5.88437E-01
 +5.32959E+00 +5.31146E+00 +1.07439E+00 +8.16309E+00 -4.19735E+00 +7.77860E+00 -8.24457E+00 +4.17396E+00
 -9.30141E+00 -1.23037E+00 -6.86028E+00 -6.20201E+00 -1.91820E+00 -8.65702E+00 +3.43229E+00 -7.57329E+00
 +6.89998E+00 -3.45508E+00 +6.99504E+00 +1.86378E+00 +3.69505E+00 +6.00334E+00 -1.52144E+00 +7.07448E+00
 -6.29966E+00 +4.51856E+00 -8.42935E+00 -6.22081E-01 -6.82040E+00 -6.13170E+00 -2.00481E+00 -9.57133E+00
 +4.06360E+00 -9.34417E+00 +8.83585E+00 -5.41116E+00 +1.02695E+01 +6.62660E-01 +7.72744E+00 +6.36254E+00
 +2.27717E+00 +9.30400E+00 -3.75013E+00 +8.27286E+00 -7.75925E+00 +3.76944E+00 -8.02074E+00 -2.18863E+00
 -4.43847E+00 -6.93005E+00 +1.38631E+00 -8.29219E+00 +6.83302E+00 -5.57796E+00 +9.39632E+00 +1.14381E-01
 +7.78790E+00 +6.34225E+00 +2.52301E+00 +1.03649E+01 -4.27221E+00 +1.03363E+01 -9.75981E+00 +6.12587E+00
