 Created: 19-Jan-2021
 $NMID
 ID='D:\BASISSIMULATI'
 FMTDAT='(8E13.5)'
 VOLUME=   1.00000E+00
 TRAMP=   1.00000E+00
 $END
 +5.24630E+01 +6.13777E-01 +4.65146E+01 -1.49062E+01 +3.07875E+01 -2.49660E+01 +9.76549E+00 -2.58545E+01
 -1.06773E+01 -1.67640E+01 -2.50521E+01 -2.95315E-02 -2.98775E+01 +1.96081E+01 -2.46536E+01 +3.64706E+01
 -1.19015E+01 +4.56753E+01 +3.71658E+00 +4.45920E+01 +1.68987E+01 +3.35839E+01 +2.33440E+01 +1.58250E+01
 +2.10250E+01 -3.71909E+00 +1.07149E+01 -1.98068E+01 -4.35880E+00 -2.84539E+01 -1.95908E+01 -2.80196E+01
 -3.04413E+01 -1.95425E+01 -3.37899E+01 -6.26480E+00 -2.87963E+01 +7.46296E+00 -1.70358E+01 +1.75307E+01
 -1.91529E+00 +2.12496E+01 +1.24101E+01 +1.80260E+01 +2.22621E+01 +9.36517E+00 +2.54353E+01 -1.74142E+00
 +2.16907E+01 -1.18124E+01 +1.26464E+01 -1.79281E+01 +1.15583E+00 -1.85241E+01 -9.59732E+00 -1.37191E+01
 -1.69966E+01 -5.13219E+00 -1.96284E+01 +4.70410E+00 -1.75077E+01 +1.31198E+01 -1.18855E+01 +1.80313E+01
 -4.74854E+00 +1.84179E+01 +1.80407E+00 +1.44572E+01 +6.11907E+00 +7.33238E+00 +7.34348E+00 -1.18208E+00
 +5.51895E+00 -9.21254E+00 +1.44164E+00 -1.52172E+01 -3.62987E+00 -1.82656E+01 -8.31707E+00 -1.81358E+01
 -1.14274E+01 -1.52516E+01 -1.21707E+01 -1.05123E+01 -1.02709E+01 -5.07172E+00 -5.98133E+00 -1.10916E-01
 -2.16739E-02 +3.36900E+00 +6.54832E+00 +4.71831E+00 +1.25084E+01 +3.76007E+00 +1.66986E+01 +8.41201E-01
 +1.82557E+01 -3.20990E+00 +1.68248E+01 -7.23395E+00 +1.26876E+01 -9.99096E+00 +6.75882E+00 -1.04680E+01
 +4.19209E-01 -8.17206E+00 -4.79518E+00 -3.32007E+00 -7.58404E+00 +3.14564E+00 -7.24997E+00 +9.74880E+00
 -3.92952E+00 +1.48463E+01 +1.39627E+00 +1.70805E+01 +7.13688E+00 +1.57873E+01 +1.15223E+01 +1.12318E+01
 +1.31117E+01 +4.58481E+00 +1.12304E+01 -2.36977E+00 +6.19811E+00 -7.72437E+00 -7.32412E-01 -9.99454E+00
 -7.71779E+00 -8.55917E+00 -1.28538E+01 -3.85688E+00 -1.47351E+01 +2.72784E+00 -1.28762E+01 +9.26045E+00
 -7.86212E+00 +1.38189E+01 -1.18286E+00 +1.50546E+01 +5.20220E+00 +1.25830E+01 +9.43720E+00 +7.08728E+00
 +1.03082E+01 +1.06819E-01 +7.58641E+00 -6.42345E+00 +2.07801E+00 -1.07406E+01 -4.62938E+00 -1.17580E+01
 -1.06401E+01 -9.35984E+00 -1.42995E+01 -4.40503E+00 -1.46554E+01 +1.55043E+00 -1.17019E+01 +6.72071E+00
 -6.34420E+00 +9.60463E+00 -1.08029E-01 +9.39732E+00 +5.31204E+00 +6.18676E+00 +8.52828E+00 +8.91158E-01
 +8.82561E+00 -5.03102E+00 +6.32232E+00 -1.00042E+01 +1.89458E+00 -1.27676E+01 -3.09956E+00 -1.26979E+01
 -7.20909E+00 -9.94261E+00 -9.28071E+00 -5.34244E+00 -8.74872E+00 -1.75817E-01 -5.75584E+00 +4.19481E+00
 -1.08537E+00 +6.67899E+00 +4.06621E+00 +6.72647E+00 +8.40982E+00 +4.44606E+00 +1.08939E+01 +5.54445E-01
 +1.09629E+01 -3.82465E+00 +8.68541E+00 -7.45621E+00 +4.72444E+00 -9.31080E+00 +1.61020E-01 -8.82598E+00
 -3.78508E+00 -6.04991E+00 -6.06968E+00 -1.63221E+00 -6.09680E+00 +3.33756E+00 -3.88055E+00 +7.60700E+00
 -5.18143E-02 +1.00870E+01 +4.29805E+00 +1.01445E+01 +7.90286E+00 +7.78461E+00 +9.66634E+00 +3.66569E+00
 +8.97508E+00 -1.06281E+00 +5.89075E+00 -5.06675E+00 +1.16042E+00 -7.19844E+00 -3.96886E+00 -6.83062E+00
 -8.08882E+00 -4.05412E+00 -1.00317E+01 +3.26077E-01 -9.21989E+00 +5.00603E+00 -5.85598E+00 +8.55597E+00
 -8.88982E-01 +9.84647E+00 +4.24462E+00 +8.40083E+00 +8.03572E+00 +4.56234E+00 +9.35311E+00 -5.83056E-01
 +7.79266E+00 -5.51490E+00 +3.81357E+00 -8.73077E+00 -1.38731E+00 -9.20771E+00 -6.23205E+00 -6.72922E+00
 -9.24381E+00 -1.97178E+00 -9.50689E+00 +3.68291E+00 -6.95955E+00 +8.55786E+00 -2.42400E+00 +1.11894E+01
 +2.64067E+00 +1.07771E+01 +6.58939E+00 +7.43281E+00 +8.10620E+00 +2.14865E+00 +6.62194E+00 -3.50861E+00
 +2.50162E+00 -7.88278E+00 -3.05940E+00 -9.74096E+00 -8.39921E+00 -8.65248E+00 -1.18998E+01 -5.11493E+00
 -1.24835E+01 -3.88413E-01 -9.94127E+00 +3.90850E+00 -4.98925E+00 +6.31220E+00 +9.59462E-01 +5.97454E+00
 +6.23488E+00 +2.92623E+00 +9.42126E+00 -1.93700E+00 +9.77949E+00 -7.13753E+00 +7.45157E+00 -1.10756E+01
 +3.38878E+00 -1.25199E+01 -9.67037E-01 -1.09768E+01 -4.14386E+00 -6.82706E+00 -5.09530E+00 -1.19477E+00
 -3.51178E+00 +4.40390E+00 +1.03588E-01 +8.51793E+00 +4.60939E+00 +1.01827E+01 +8.58835E+00 +9.17980E+00
 +1.07810E+01 +6.06450E+00 +1.04572E+01 +1.96352E+00 +7.61807E+00 -1.78564E+00 +2.97483E+00 -4.03879E+00
 -2.27642E+00 -4.17118E+00 -6.80950E+00 -2.23478E+00 -9.54246E+00 +1.08953E+00 -9.92358E+00 +4.71866E+00
 -8.05371E+00 +7.49743E+00 -4.62132E+00 +8.53214E+00 -6.80584E-01 +7.43396E+00 +2.65578E+00 +4.41074E+00
 +4.51992E+00 +1.91738E-01 +4.50762E+00 -4.18381E+00 +2.76037E+00 -7.64976E+00 -1.00958E-01 -9.38982E+00
 -3.16441E+00 -9.03767E+00 -5.48156E+00 -6.75456E+00 -6.32111E+00 -3.17189E+00 -5.35859E+00 +7.80698E-01
 -2.75823E+00 +4.11531E+00 +8.69683E-01 +6.03397E+00 +4.62337E+00 +6.12540E+00 +7.53775E+00 +4.46394E+00
 +8.83127E+00 +1.58687E+00 +8.11141E+00 -1.64533E+00 +5.48700E+00 -4.27376E+00 +1.55592E+00 -5.49677E+00
 -2.73419E+00 -4.89251E+00 -6.32238E+00 -2.54848E+00 -8.31123E+00 +9.41420E-01 -8.21222E+00 +4.61915E+00
 -6.09096E+00 +7.41394E+00 -2.56600E+00 +8.43940E+00 +1.34710E+00 +7.25556E+00 +4.51145E+00 +4.01844E+00
 +5.99174E+00 -5.32882E-01 +5.33305E+00 -5.25797E+00 +2.71135E+00 -8.92206E+00 -1.09573E+00 -1.05448E+01
 -4.91812E+00 -9.68988E+00 -7.52826E+00 -6.60567E+00 -8.00682E+00 -2.17002E+00 -6.02988E+00 +2.35337E+00
 -1.98790E+00 +5.67951E+00 +3.10560E+00 +6.88144E+00 +7.89449E+00 +5.67014E+00 +1.10699E+01 +2.48759E+00
 +1.17541E+01 -1.61907E+00 +9.76222E+00 -5.30795E+00 +5.66079E+00 -7.34542E+00 +6.03522E-01 -6.98051E+00
 -4.00751E+00 -4.17649E+00 -6.93343E+00 +3.70945E-01 -7.45877E+00 +5.43498E+00 -5.59245E+00 +9.61689E+00
 -2.05062E+00 +1.17546E+01 +1.97012E+00 +1.12578E+01 +5.15790E+00 +8.27058E+00 +6.47694E+00 +3.61785E+00
 +5.46843E+00 -1.44505E+00 +2.37410E+00 -5.59883E+00 -1.94831E+00 -7.83284E+00 -6.28567E+00 -7.71497E+00
 -9.42385E+00 -5.48550E+00 -1.04897E+01 -1.95624E+00 -9.18388E+00 +1.74609E+00 -5.84383E+00 +4.51091E+00
 -1.32952E+00 +5.55193E+00 +3.22661E+00 +4.60810E+00 +6.72841E+00 +1.98936E+00 +8.39679E+00 -1.53450E+00
 +7.95065E+00 -4.96104E+00 +5.64874E+00 -7.33020E+00 +2.19294E+00 -7.97298E+00 -1.47189E+00 -6.67305E+00
 -4.40417E+00 -3.70812E+00 -5.89591E+00 +2.30223E-01 -5.63452E+00 +4.21173E+00 -3.76396E+00 +7.29225E+00
 -8.37020E-01 +8.73598E+00 +2.32628E+00 +8.18695E+00 +4.84108E+00 +5.75398E+00 +5.97660E+00 +1.99091E+00
 +5.34349E+00 -2.22536E+00 +3.00630E+00 -5.89573E+00 -5.09190E-01 -8.13747E+00 -4.32357E+00 -8.40686E+00
 -7.40959E+00 -6.65077E+00 -8.85361E+00 -3.34267E+00 -8.10984E+00 +6.17104E-01 -5.17817E+00 +4.12335E+00
 -6.48701E-01 +6.16118E+00 +4.41398E+00 +6.09847E+00 +8.72999E+00 +3.89139E+00 +1.11463E+01 +1.34539E-01
 +1.09693E+01 -4.07311E+00 +8.18890E+00 -7.42289E+00 +3.51818E+00 -8.77602E+00 -1.77787E+00 -7.51933E+00
 -6.22727E+00 -3.78628E+00 -8.57654E+00 +1.53483E+00 -8.17099E+00 +7.02230E+00 -5.17021E+00 +1.11185E+01
 -5.23420E-01 +1.25901E+01 +4.29897E+00 +1.09126E+01 +7.74446E+00 +6.45419E+00 +8.65743E+00 +3.96068E-01
 +6.64922E+00 -5.59892E+00 +2.23935E+00 -9.87240E+00 -3.28316E+00 -1.12654E+01 -8.24190E+00 -9.46782E+00
 -1.10837E+01 -5.11165E+00 -1.08596E+01 +4.25072E-01 -7.52472E+00 +5.44355E+00 -1.96148E+00 +8.44705E+00
 +4.28282E+00 +8.59723E+00 +9.46174E+00 +5.96102E+00 +1.21530E+01 +1.47269E+00 +1.16757E+01 -3.37364E+00
 +8.27384E+00 -6.99988E+00 +3.01378E+00 -8.23552E+00 -2.56385E+00 -6.67001E+00 -6.92262E+00 -2.75969E+00
 -8.98503E+00 +2.33629E+00 -8.42395E+00 +7.12939E+00 -5.70837E+00 +1.02593E+01 -1.90354E+00 +1.08894E+01
 +1.69695E+00 +8.92180E+00 +3.98087E+00 +4.97663E+00 +4.33810E+00 +1.59709E-01 +2.79985E+00 -4.29306E+00
 -3.08195E-02 -7.37430E+00 -3.21473E+00 -8.55685E+00 -5.78759E+00 -7.87371E+00 -7.04064E+00 -5.82393E+00
 -6.68801E+00 -3.15821E+00 -4.88563E+00 -6.29467E-01 -2.12033E+00 +1.20786E+00 +9.72329E-01 +2.09651E+00
 +3.78949E+00 +2.06478E+00 +5.88497E+00 +1.33664E+00 +7.01258E+00 +2.17178E-01 +7.10279E+00 -9.97022E-01
 +6.21033E+00 -2.05740E+00 +4.47317E+00 -2.75926E+00 +2.10452E+00 -2.92416E+00 -5.88787E-01 -2.40391E+00
 -3.19212E+00 -1.12480E+00 -5.21036E+00 +8.38175E-01 -6.15822E+00 +3.19477E+00 -5.70328E+00 +5.42957E+00
 -3.81660E+00 +6.88436E+00 -8.65877E-01 +6.93325E+00 +2.40767E+00 +5.20724E+00 +5.05287E+00 +1.79036E+00
 +6.18391E+00 -2.69761E+00 +5.28773E+00 -7.19022E+00 +2.45578E+00 -1.04377E+01 -1.55771E+00 -1.13812E+01
 -5.49937E+00 -9.52155E+00 -7.97626E+00 -5.15284E+00 -7.91026E+00 +6.40910E-01 -4.93975E+00 +6.25266E+00
 +3.77373E-01 +1.00212E+01 +6.65054E+00 +1.07623E+01 +1.20322E+01 +8.18733E+00 +1.47805E+01 +3.05759E+00
 +1.38340E+01 -2.99784E+00 +9.20560E+00 -7.96457E+00 +2.05066E+00 -1.00831E+01 -5.63523E+00 -8.44219E+00
 -1.16097E+01 -3.32346E+00 -1.40875E+01 +3.83003E+00 -1.23273E+01 +1.08303E+01 -6.90216E+00 +1.54247E+01
 +4.47212E-01 +1.60250E+01 +7.34341E+00 +1.22462E+01 +1.15241E+01 +5.07149E+00 +1.15738E+01 -3.42408E+00
 +7.39534E+00 -1.07100E+01 +2.59957E-01 -1.45981E+01 -7.58628E+00 -1.39436E+01 -1.36382E+01 -9.01776E+00
 -1.59381E+01 -1.42903E+00 -1.37106E+01 +6.38770E+00 -7.61657E+00 +1.19482E+01 +4.56848E-01 +1.35104E+01
 +8.00290E+00 +1.06234E+01 +1.26990E+01 +4.25607E+00 +1.31454E+01 -3.53301E+00 +9.29947E+00 -1.02720E+01
 +2.46738E+00 -1.38745E+01 -5.13679E+00 -1.32994E+01 -1.11146E+01 -8.85904E+00 -1.36485E+01 -2.08444E+00
 -1.20609E+01 +4.79919E+00 -6.99027E+00 +9.60513E+00 -1.39613E-01 +1.08823E+01 +6.30692E+00 +8.35162E+00
 +1.03989E+01 +2.94887E+00 +1.10288E+01 -3.52473E+00 +8.24207E+00 -9.01502E+00 +3.16147E+00 -1.18799E+01
 -2.43103E+00 -1.13886E+01 -6.70180E+00 -7.90123E+00 -8.35400E+00 -2.68754E+00 -7.00656E+00 +2.53557E+00
 -3.25301E+00 +6.18036E+00 +1.59868E+00 +7.28324E+00 +5.99817E+00 +5.76258E+00 +8.66734E+00 +2.37215E+00
 +8.98496E+00 -1.61148E+00 +7.12551E+00 -4.84362E+00 +3.92659E+00 -6.34699E+00 +5.52592E-01 -5.78585E+00
 -1.91536E+00 -3.50339E+00 -2.81943E+00 -3.33127E-01 -2.08862E+00 +2.72907E+00 -1.89674E-01 +4.86684E+00
 +2.09437E+00 +5.68163E+00 +3.96226E+00 +5.25846E+00 +4.85764E+00 +4.05801E+00 +4.61061E+00 +2.69557E+00
