 Created: 19-Jan-2021
 $NMID
 ID='D:\BASISSIMULATI'
 FMTDAT='(8E13.5)'
 VOLUME=   1.00000E+00
 TRAMP=   1.00000E+00
 $END
 +5.30533E+01 +2.82870E-01 +4.88479E+01 -7.75130E+00 +3.70381E+01 -1.31251E+01 +1.99955E+01 -1.38429E+01
 +1.08547E+00 -9.11307E+00 -1.60702E+01 +4.27421E-01 -2.83725E+01 +1.28392E+01 -3.38898E+01 +2.53263E+01
 -3.22246E+01 +3.48960E+01 -2.45242E+01 +3.90750E+01 -1.31450E+01 +3.65105E+01 -1.05700E+00 +2.73147E+01
 +8.86501E+00 +1.30697E+01 +1.44955E+01 -3.50642E+00 +1.49064E+01 -1.91545E+01 +1.05122E+01 -3.07896E+01
 +2.89021E+00 -3.61727E+01 -5.66964E+00 -3.43847E+01 -1.27668E+01 -2.59996E+01 -1.64936E+01 -1.29240E+01
 -1.58952E+01 +2.05092E+00 -1.11783E+01 +1.58760E+01 -3.62804E+00 +2.59000E+01 +4.73867E+00 +3.04080E+01
 +1.16905E+01 +2.89249E+01 +1.53393E+01 +2.22286E+01 +1.46025E+01 +1.20864E+01 +9.46036E+00 +7.90772E-01
 +9.54004E-01 -9.38642E+00 -9.06903E+00 -1.66889E+01 -1.83921E+01 -2.02103E+01 -2.49411E+01 -2.00006E+01
 -2.72462E+01 -1.69383E+01 -2.47505E+01 -1.24173E+01 -1.78976E+01 -7.93869E+00 -7.99204E+00 -4.71780E+00
 +3.12462E+00 -3.39996E+00 +1.34948E+01 -3.95018E+00 +2.14604E+01 -5.73028E+00 +2.59773E+01 -7.73002E+00
 +2.67639E+01 -8.88138E+00 +2.42655E+01 -8.36829E+00 +1.94592E+01 -5.85093E+00 +1.35635E+01 -1.55055E+00
 +7.73341E+00 +3.81935E+00 +2.81679E+00 +9.24885E+00 -7.73713E-01 +1.36961E+01 -3.05498E+00 +1.63472E+01
 -4.35326E+00 +1.68037E+01 -5.11785E+00 +1.51531E+01 -5.73060E+00 +1.19110E+01 -6.36920E+00 +7.85946E+00
 -6.96161E+00 +3.83085E+00 -7.23911E+00 +5.00381E-01 -6.86489E+00 -1.75763E+00 -5.59268E+00 -2.91459E+00
 -3.40132E+00 -3.22882E+00 -5.59409E-01 -3.10831E+00 +2.40451E+00 -2.94185E+00 +4.82176E+00 -2.95289E+00
 +6.06107E+00 -3.12187E+00 +5.71322E+00 -3.20095E+00 +3.72769E+00 -2.81618E+00 +4.58216E-01 -1.62505E+00
 -3.40123E+00 +5.20762E-01 -6.97824E+00 +3.46098E+00 -9.44134E+00 +6.70189E+00 -1.02190E+01 +9.49730E+00
 -9.15834E+00 +1.10209E+01 -6.57732E+00 +1.05877E+01 -3.19234E+00 +7.86589E+00 +6.43610E-02 +3.01696E+00
 +2.29220E+00 -3.27922E+00 +2.87059E+00 -9.93208E+00 +1.64139E+00 -1.56623E+01 -1.02603E+00 -1.92888E+01
 -4.30912E+00 -2.00107E+01 -7.13191E+00 -1.76151E+01 -8.44270E+00 -1.25517E+01 -7.50009E+00 -5.85374E+00
 -4.09312E+00 +1.08512E+00 +1.36409E+00 +6.82485E+00 +7.89283E+00 +1.02124E+01 +1.41561E+01 +1.06523E+01
 +1.87645E+01 +8.24892E+00 +2.06090E+01 +3.78196E+00 +1.91384E+01 -1.47950E+00 +1.45131E+01 -6.08253E+00
 +7.59208E+00 -8.74201E+00 -2.44951E-01 -8.65384E+00 -7.40332E+00 -5.69362E+00 -1.24340E+01 -4.52087E-01
 -1.43650E+01 +5.90184E+00 -1.29231E+01 +1.18980E+01 -8.59490E+00 +1.61151E+01 -2.50971E+00 +1.75204E+01
 +3.82589E+00 +1.57169E+01 +8.87987E+00 +1.10397E+01 +1.14493E+01 +4.47815E+00 +1.09344E+01 -2.55470E+00
 +7.46759E+00 -8.55165E+00 +1.87096E+00 -1.22591E+01 -4.54758E+00 -1.29613E+01 -1.03071E+01 -1.06350E+01
 -1.41010E+01 -5.93992E+00 -1.50960E+01 -5.09568E-02 -1.31143E+01 +5.62547E+00 -8.65891E+00 +9.78112E+00
 -2.78018E+00 +1.15033E+01 +3.18037E+00 +1.04710E+01 +7.90591E+00 +7.00664E+00 +1.04037E+01 +1.97655E+00
 +1.02194E+01 -3.43187E+00 +7.51861E+00 -7.99886E+00 +3.02362E+00 -1.07566E+01 -2.17556E+00 -1.12026E+01
 -6.88496E+00 -9.39446E+00 -1.00807E+01 -5.90899E+00 -1.11292E+01 -1.68186E+00 -9.90490E+00 +2.22965E+00
 -6.78437E+00 +4.90046E+00 -2.52542E+00 +5.74782E+00 +1.93296E+00 +4.65024E+00 +5.69745E+00 +1.95237E+00
 +8.11874E+00 -1.63913E+00 +8.91628E+00 -5.23777E+00 +8.20540E+00 -7.99000E+00 +6.42772E+00 -9.26682E+00
 +4.20959E+00 -8.79084E+00 +2.18862E+00 -6.67381E+00 +8.53743E-01 -3.36274E+00 +4.37056E-01 +4.85288E-01
 +8.80183E-01 +4.16404E+00 +1.87752E+00 +7.07386E+00 +2.97919E+00 +8.83591E+00 +3.72284E+00 +9.34238E+00
 +3.75855E+00 +8.73793E+00 +2.93545E+00 +7.34518E+00 +1.33121E+00 +5.55962E+00 -7.78839E-01 +3.74456E+00
 -2.99997E+00 +2.15288E+00 -4.92003E+00 +8.92633E-01 -6.20712E+00 -6.05636E-02 -6.67867E+00 -8.14369E-01
 -6.32716E+00 -1.49326E+00 -5.30054E+00 -2.17713E+00 -3.84755E+00 -2.86383E+00 -2.24638E+00 -3.46574E+00
 -7.37819E-01 -3.83939E+00 +5.19712E-01 -3.83715E+00 +1.46372E+00 -3.36367E+00 +2.11062E+00 -2.41877E+00
 +2.51788E+00 -1.11317E+00 +2.74060E+00 +3.48149E-01 +2.79823E+00 +1.71052E+00 +2.66271E+00 +2.72950E+00
 +2.27168E+00 +3.22915E+00 +1.56172E+00 +3.14236E+00 +5.09801E-01 +2.52264E+00 -8.31909E-01 +1.52453E+00
 -2.32110E+00 +3.59361E-01 -3.73760E+00 -7.60797E-01 -4.82227E+00 -1.67459E+00 -5.33333E+00 -2.30428E+00
 -5.10579E+00 -2.66158E+00 -4.09748E+00 -2.82632E+00 -2.40867E+00 -2.90583E+00 -2.68864E-01 -2.98827E+00
 +2.00688E+00 -3.10500E+00 +4.08153E+00 -3.21383E+00 +5.66389E+00 -3.20870E+00 +6.56382E+00 -2.95307E+00
 +6.72183E+00 -2.32730E+00 +6.20692E+00 -1.27559E+00 +5.18527E+00 +1.62077E-01 +3.87000E+00 +1.84327E+00
 +2.46669E+00 +3.54506E+00 +1.12966E+00 +5.00962E+00 -5.98103E-02 +6.00157E+00 -1.08952E+00 +6.36178E+00
 -1.99045E+00 +6.04300E+00 -2.79950E+00 +5.11787E+00 -3.52453E+00 +3.75749E+00 -4.12422E+00 +2.18699E+00
 -4.51032E+00 +6.30959E-01 -4.57252E+00 -7.35852E-01 -4.21817E+00 -1.81898E+00 -3.41424E+00 -2.60810E+00
 -2.21685E+00 -3.15475E+00 -7.76956E-01 -3.53237E+00 +6.82464E-01 -3.79271E+00 +1.91395E+00 -3.93380E+00
 +2.70587E+00 -3.89126E+00 +2.93884E+00 -3.55764E+00 +2.62127E+00 -2.82509E+00 +1.89208E+00 -1.63880E+00
 +9.87323E-01 -4.38208E-02 +1.77571E-01 +1.79174E+00 -3.07724E-01 +3.58856E+00 -3.48209E-01 +5.00487E+00
 +2.72389E-02 +5.71297E+00 +6.41716E-01 +5.48518E+00 +1.21547E+00 +4.26608E+00 +1.44535E+00 +2.20944E+00
 +1.09835E+00 -3.34329E-01 +9.36321E-02 -2.88175E+00 -1.45125E+00 -4.91926E+00 -3.22625E+00 -6.02206E+00
 -4.78984E+00 -5.95958E+00 -5.67323E+00 -4.75959E+00 -5.50353E+00 -2.71203E+00 -4.11437E+00 -3.07937E-01
 -1.61367E+00 +1.87450E+00 +1.61248E+00 +3.31055E+00 +4.96590E+00 +3.66175E+00 +7.76036E+00 +2.86690E+00
 +9.37643E+00 +1.16626E+00 +9.41024E+00 -9.50152E-01 +7.77913E+00 -2.85994E+00 +4.75607E+00 -3.96456E+00
 +9.21214E-01 -3.84610E+00 -2.96078E+00 -2.38512E+00 -6.11059E+00 +1.91802E-01 -7.91143E+00 +3.34946E+00
 -8.05118E+00 +6.36029E+00 -6.59429E+00 +8.47331E+00 -3.96490E+00 +9.09602E+00 -8.44202E-01 +7.94467E+00
 +1.99406E+00 +5.12548E+00 +3.87044E+00 +1.12531E+00 +4.36356E+00 -3.28829E+00 +3.41069E+00 -7.23489E+00
 +1.32021E+00 -9.91810E+00 -1.30724E+00 -1.08048E+01 -3.72982E+00 -9.74410E+00 -5.25062E+00 -6.99784E+00
 -5.39296E+00 -3.17585E+00 -4.02187E+00 +9.07980E-01 -1.38174E+00 +4.42358E+00 +1.95897E+00 +6.71121E+00
 +5.24211E+00 +7.42229E+00 +7.70031E+00 +6.58211E+00 +8.73921E+00 +4.56168E+00 +8.07738E+00 +1.96854E+00
 +5.81064E+00 -5.13945E-01 +2.38659E+00 -2.29757E+00 -1.50276E+00 -3.02777E+00 -5.08231E+00 -2.65652E+00
 -7.66904E+00 -1.43402E+00 -8.81859E+00 +1.75320E-01 -8.40926E+00 +1.62808E+00 -6.64644E+00 +2.45133E+00
 -3.99057E+00 +2.36714E+00 -1.03096E+00 +1.36079E+00 +1.66000E+00 -3.23161E-01 +3.65446E+00 -2.25314E+00
 +4.74775E+00 -3.92963E+00 +4.97187E+00 -4.91790E+00 +4.54584E+00 -4.95867E+00 +3.78198E+00 -4.02828E+00
 +2.97802E+00 -2.33437E+00 +2.32728E+00 -2.51068E-01 +1.87229E+00 +1.78591E+00 +1.51328E+00 +3.39380E+00
 +1.06618E+00 +4.33467E+00 +3.49887E-01 +4.56023E+00 -7.26236E-01 +4.19907E+00 -2.10391E+00 +3.49317E+00
 -3.56695E+00 +2.70517E+00 -4.78748E+00 +2.02617E+00 -5.41589E+00 +1.51361E+00 -5.18916E+00 +1.07932E+00
 -4.02510E+00 +5.32345E-01 -2.07220E+00 -3.35870E-01 +3.03571E-01 -1.65070E+00 +2.59652E+00 -3.37094E+00
 +4.28604E+00 -5.25272E+00 +4.97627E+00 -6.87837E+00 +4.51177E+00 -7.74901E+00 +3.03482E+00 -7.42071E+00
 +9.63959E-01 -5.64831E+00 -1.10588E+00 -2.49580E+00 -2.55907E+00 +1.62297E+00 -2.93160E+00 +5.99317E+00
 -2.05324E+00 +9.73431E+00 -1.18187E-01 +1.19954E+01 +2.34055E+00 +1.21645E+01 +4.57299E+00 +1.00393E+01
 +5.80425E+00 +5.91213E+00 +5.45016E+00 +5.40519E-01 +3.29996E+00 -4.99804E+00 -3.85146E-01 -9.53836E+00
 -4.89045E+00 -1.20951E+01 -9.18725E+00 -1.21015E+01 -1.21664E+01 -9.55849E+00 -1.29126E+01 -5.05441E+00
 -1.09527E+01 +3.57352E-01 -6.41283E+00 +5.39693E+00 -3.91753E-02 +8.85991E+00 +6.93125E+00 +9.91046E+00
 +1.30277E+01 +8.29347E+00 +1.68749E+01 +4.41072E+00 +1.75178E+01 -7.61961E-01 +1.46647E+01 -5.90134E+00
 +8.78515E+00 -9.65572E+00 +1.03451E+00 -1.09806E+01 -6.98386E+00 -9.40853E+00 -1.35683E+01 -5.18565E+00
 -1.73008E+01 +7.64037E-01 -1.73731E+01 +7.04155E+00 -1.37778E+01 +1.20992E+01 -7.31859E+00 +1.46139E+01
 +5.66681E-01 +1.38176E+01 +8.13096E+00 +9.70437E+00 +1.37160E+01 +3.06006E+00 +1.61308E+01 -4.69665E+00
 +1.49219E+01 -1.18283E+01 +1.04709E+01 -1.66762E+01 +3.89708E+00 -1.80488E+01 -3.21294E+00 -1.55089E+01
 -9.18299E+00 -9.49019E+00 -1.26435E+01 -1.21374E+00 -1.28514E+01 +7.57787E+00 -9.85858E+00 +1.50086E+01
 -4.48892E+00 +1.94892E+01 +1.86863E+00 +2.00724E+01 +7.60048E+00 +1.66614E+01 +1.12598E+01 +1.00236E+01
 +1.19148E+01 +1.60872E+00 +9.37055E+00 -6.78520E+00 +4.21272E+00 -1.34177E+01 -2.33623E+00 -1.69904E+01
 -8.71172E+00 -1.69206E+01 -1.33811E+01 -1.34444E+01 -1.52070E+01 -7.53006E+00 -1.37132E+01 -6.27266E-01
 -9.19215E+00 +5.68376E+00 -2.63071E+00 +1.00579E+01 +4.52590E+00 +1.16795E+01 +1.07121E+01 +1.04190E+01
 +1.46008E+01 +6.82104E+00 +1.53993E+01 +1.93387E+00 +1.30132E+01 -2.97098E+00 +8.04577E+00 -6.71719E+00
 +1.63794E+00 -8.50094E+00 -4.80780E+00 -8.06187E+00 -9.95011E+00 -5.71132E+00 -1.28011E+01 -2.21799E+00
 -1.29213E+01 +1.41347E+00 -1.04785E+01 +4.21054E+00 -6.16295E+00 +5.47837E+00 -9.90670E-01 +4.96231E+00
 +3.95162E+00 +2.89059E+00 +7.75469E+00 -1.07755E-01 +9.86846E+00 -3.18265E+00 +1.01789E+01 -5.49016E+00
 +8.97080E+00 -6.40664E+00 +6.79707E+00 -5.67619E+00 +4.29710E+00 -3.45692E+00 +2.01770E+00 -2.60014E-01
 +2.84398E-01 +3.19686E+00 -8.45988E-01 +6.17859E+00 -1.54564E+00 +8.11246E+00 -2.10827E+00 +8.71208E+00
 -2.81181E+00 +8.01675E+00 -3.79612E+00 +6.34175E+00 -4.99457E+00 +4.15999E+00 -6.14086E+00 +1.95354E+00
 -6.84923E+00 +7.97918E-02 -6.74349E+00 -1.30912E+00 -5.59510E+00 -2.27262E+00 -3.42652E+00 -3.01576E+00
 -5.45447E-01 -3.77506E+00 +2.50530E+00 -4.69542E+00 +5.07284E+00 -5.73994E+00 +6.56241E+00 -6.66548E+00
