 Created: 19-Jan-2021
 $NMID
 ID='D:\BASISSIMULATI'
 FMTDAT='(8E13.5)'
 VOLUME=   1.00000E+00
 TRAMP=   1.00000E+00
 $END
 +5.70673E+01 +6.51593E-01 +4.45063E+01 +3.36339E+01 +1.43676E+01 +5.06295E+01 -1.84994E+01 +4.43459E+01
 -3.82990E+01 +1.91251E+01 -3.62208E+01 -1.14530E+01 -1.47177E+01 -3.16005E+01 +1.39927E+01 -3.13506E+01
 +3.43598E+01 -1.14885E+01 +3.55145E+01 +1.70833E+01 +1.67505E+01 +3.91366E+01 -1.22910E+01 +4.30289E+01
 -3.67540E+01 +2.66496E+01 -4.43097E+01 -1.62360E+00 -3.14950E+01 -2.73857E+01 -5.40434E+00 -3.77240E+01
 +2.00890E+01 -2.78913E+01 +3.15816E+01 -3.70286E+00 +2.30954E+01 +2.15419E+01 -8.40475E-01 +3.39856E+01
 -2.75411E+01 +2.63987E+01 -4.27089E+01 +1.92838E+00 -3.77856E+01 -2.74919E+01 -1.43443E+01 -4.72258E+01
 +1.67061E+01 -4.73716E+01 +4.06586E+01 -2.77509E+01 +4.64285E+01 +2.07137E+00 +3.20657E+01 +2.76969E+01
 +5.58144E+00 +3.71825E+01 -1.92702E+01 +2.69794E+01 -3.00409E+01 +3.52594E+00 -2.18454E+01 -2.02451E+01
 +3.40999E-01 -3.16275E+01 +2.44460E+01 -2.46134E+01 +3.76275E+01 -2.82388E+00 +3.28733E+01 +2.25367E+01
 +1.24958E+01 +3.85711E+01 -1.32166E+01 +3.73440E+01 -3.14197E+01 +1.98785E+01 -3.33623E+01 -4.51476E+00
 -1.88311E+01 -2.31610E+01 +3.86013E+00 -2.66111E+01 +2.22731E+01 -1.34868E+01 +2.63241E+01 +8.88374E+00
 +1.34858E+01 +2.83195E+01 -9.94004E+00 +3.41009E+01 -3.20925E+01 +2.24829E+01 -4.16389E+01 -1.40617E+00
 -3.35402E+01 -2.62106E+01 -1.15574E+01 -4.01343E+01 +1.37359E+01 -3.68841E+01 +3.03625E+01 -1.87448E+01
 +3.09731E+01 +4.73332E+00 +1.64285E+01 +2.16941E+01 -4.84278E+00 +2.40030E+01 -2.13053E+01 +1.12603E+01
 -2.42555E+01 -9.19879E+00 -1.21874E+01 -2.62365E+01 +8.60502E+00 -3.06945E+01 +2.74180E+01 -2.00393E+01
 +3.47094E+01 +4.75218E-01 +2.69606E+01 +2.06527E+01 +8.35625E+00 +3.06707E+01 -1.15146E+01 +2.61012E+01
 -2.26828E+01 +1.00682E+01 -1.99255E+01 -8.50775E+00 -5.36395E+00 -1.96093E+01 +1.27522E+01 -1.73052E+01
 +2.43880E+01 -2.75437E+00 +2.29171E+01 +1.64728E+01 +8.49572E+00 +3.03466E+01 -1.20774E+01 +3.15320E+01
 -2.88853E+01 +1.90939E+01 -3.39479E+01 -1.10908E+00 -2.52076E+01 -1.94832E+01 -7.44049E+00 -2.75900E+01
 +1.03068E+01 -2.23487E+01 +1.93802E+01 -7.43201E+00 +1.58662E+01 +8.78929E+00 +2.42594E+00 +1.76295E+01
 -1.32581E+01 +1.45143E+01 -2.25469E+01 +1.19931E+00 -2.02918E+01 -1.52946E+01 -7.38675E+00 -2.64051E+01
 +9.82815E+00 -2.64457E+01 +2.29306E+01 -1.54457E+01 +2.57618E+01 +9.98834E-01 +1.75100E+01 +1.47152E+01
 +2.98653E+00 +1.91887E+01 -9.97923E+00 +1.28470E+01 -1.46277E+01 -2.61062E-01 -8.71377E+00 -1.26796E+01
 +4.43568E+00 -1.74532E+01 +1.77382E+01 -1.16929E+01 +2.40515E+01 +2.01051E+00 +1.98211E+01 +1.69987E+01
 +6.82353E+00 +2.59959E+01 -8.83677E+00 +2.47929E+01 -1.98961E+01 +1.42876E+01 -2.16020E+01 -1.10960E-01
 -1.40079E+01 -1.13400E+01 -1.76936E+00 -1.42875E+01 +8.38261E+00 -8.29228E+00 +1.11351E+01 +2.69542E+00
 +5.24947E+00 +1.23027E+01 -5.94653E+00 +1.50836E+01 -1.64122E+01 +9.28747E+00 -2.05757E+01 -2.34797E+00
 -1.61782E+01 -1.41220E+01 -5.33949E+00 -2.03649E+01 +6.64509E+00 -1.83255E+01 +1.40930E+01 -9.48306E+00
 +1.38348E+01 +1.34168E+00 +6.74265E+00 +8.55168E+00 -2.85132E+00 +8.65604E+00 -9.48523E+00 +1.98778E+00
 -9.40263E+00 -7.58326E+00 -2.43140E+00 -1.47332E+01 +8.02049E+00 -1.54448E+01 +1.67899E+01 -9.01946E+00
 +1.96160E+01 +1.65851E+00 +1.52533E+01 +1.16784E+01 +5.98632E+00 +1.66280E+01 -3.65399E+00 +1.47699E+01
 -9.25436E+00 +7.78090E+00 -8.72064E+00 -2.64239E-01 -3.20676E+00 -5.07566E+00 +3.64756E+00 -4.34005E+00
 +7.71035E+00 +1.19530E+00 +6.51293E+00 +8.25167E+00 +4.59173E-01 +1.28226E+01 -7.49054E+00 +1.22758E+01
 -1.34356E+01 +6.66447E+00 -1.45702E+01 -1.39221E+00 -1.05770E+01 -8.13883E+00 -3.69090E+00 -1.06390E+01
 +2.54466E+00 -8.23223E+00 +5.13953E+00 -2.76727E+00 +3.15725E+00 +2.45707E+00 -1.89777E+00 +4.44720E+00
 -6.95701E+00 +2.03926E+00 -9.02548E+00 -3.57568E+00 -6.71133E+00 -9.54935E+00 -8.72554E-01 -1.28854E+01
 +5.90609E+00 -1.19537E+01 +1.06824E+01 -7.23936E+00 +1.16329E+01 -9.86652E-01 +8.88107E+00 +4.02192E+00
 +4.29276E+00 +5.88160E+00 +4.05610E-01 +4.44435E+00 -9.09510E-01 +1.24522E+00 +6.47576E-01 -1.42645E+00
 +3.77398E+00 -1.77971E+00 +6.36461E+00 +5.68233E-01 +6.67955E+00 +4.47509E+00 +4.24856E+00 +7.96150E+00
 +5.74905E-02 +9.29708E+00 -4.03849E+00 +7.89410E+00 -6.32306E+00 +4.55303E+00 -6.09667E+00 +9.69088E-01
 -3.97277E+00 -1.19920E+00 -1.47115E+00 -1.18664E+00 -1.62848E-01 +5.40616E-01 -8.40694E-01 +2.61139E+00
 -3.14818E+00 +3.52899E+00 -5.83202E+00 +2.46770E+00 -7.44623E+00 -3.31426E-01 -7.10939E+00 -3.74546E+00
 -4.91537E+00 -6.39783E+00 -1.80847E+00 -7.36833E+00 +9.69721E-01 -6.60608E+00 +2.53489E+00 -4.85282E+00
 +2.76035E+00 -3.15934E+00 +2.23170E+00 -2.29048E+00 +1.82077E+00 -2.35059E+00 +2.14677E+00 -2.81541E+00
 +3.23433E+00 -2.91739E+00 +4.54592E+00 -2.13871E+00 +5.34288E+00 -5.21714E-01 +5.14558E+00 +1.37122E+00
 +4.01855E+00 +2.80621E+00 +2.52122E+00 +3.31657E+00 +1.36522E+00 +2.96979E+00 +9.89010E-01 +2.31033E+00
 +1.30315E+00 +2.01908E+00 +1.75387E+00 +2.49549E+00 +1.66388E+00 +3.61021E+00 +6.47361E-01 +4.77314E+00
 -1.14576E+00 +5.27576E+00 -3.09982E+00 +4.70621E+00 -4.47695E+00 +3.19366E+00 -4.83335E+00 +1.33807E+00
 -4.26422E+00 -1.34239E-01 -3.33258E+00 -7.87978E-01 -2.72185E+00 -7.23412E-01 -2.81497E+00 -5.00833E-01
 -3.45001E+00 -7.84333E-01 -4.00316E+00 -1.91095E+00 -3.76083E+00 -3.64116E+00 -2.37053E+00 -5.24836E+00
 -1.05450E-01 -5.91126E+00 +2.22457E+00 -5.19421E+00 +3.68472E+00 -3.33883E+00 +3.73030E+00 -1.18619E+00
 +2.53558E+00 +2.48049E-01 +9.38595E-01 +3.24108E-01 +1.14781E-02 -8.49103E-01 +4.77207E-01 -2.43684E+00
 +2.28901E+00 -3.30392E+00 +4.61235E+00 -2.62654E+00 +6.23699E+00 -3.62623E-01 +6.21124E+00 +2.68196E+00
 +4.36179E+00 +5.24242E+00 +1.41346E+00 +6.24370E+00 -1.36779E+00 +5.36610E+00 -2.82877E+00 +3.22056E+00
 -2.53440E+00 +1.02984E+00 -9.96941E-01 -2.31497E-02 +6.02334E-01 +5.65573E-01 +1.05846E+00 +2.34058E+00
 -1.87499E-01 +4.12459E+00 -2.71747E+00 +4.65608E+00 -5.33171E+00 +3.28947E+00 -6.67701E+00 +3.79101E-01
 -5.97789E+00 -2.86928E+00 -3.47765E+00 -5.01282E+00 -3.43825E-01 -5.13219E+00 +1.92475E+00 -3.33285E+00
 +2.28336E+00 -7.11936E-01 +7.03862E-01 +1.20427E+00 -1.79073E+00 +1.26399E+00 -3.64908E+00 -6.87571E-01
 -3.60553E+00 -3.70057E+00 -1.36003E+00 -6.19419E+00 +2.23670E+00 -6.77143E+00 +5.59742E+00 -4.95173E+00
 +7.20241E+00 -1.43630E+00 +6.37648E+00 +2.23735E+00 +3.63311E+00 +4.47541E+00 +4.04630E-01 +4.43762E+00
 -1.70204E+00 +2.45458E+00 -1.73531E+00 -1.64658E-01 +1.19213E-01 -1.83277E+00 +2.65591E+00 -1.52353E+00
 +4.30105E+00 +6.90555E-01 +3.95432E+00 +3.68360E+00 +1.57571E+00 +5.87831E+00 -1.79077E+00 +6.08475E+00
 -4.56749E+00 +4.13203E+00 -5.47477E+00 +9.59628E-01 -4.20369E+00 -1.87862E+00 -1.57445E+00 -3.03445E+00
 +9.02284E-01 -2.07499E+00 +1.82848E+00 +2.92238E-01 +6.61731E-01 +2.59733E+00 -1.99341E+00 +3.38885E+00
 -4.69862E+00 +2.00588E+00 -5.93383E+00 -1.06416E+00 -4.89289E+00 -4.42853E+00 -1.90708E+00 -6.50349E+00
 +1.72204E+00 -6.32520E+00 +4.38871E+00 -4.03512E+00 +4.99726E+00 -7.92044E-01 +3.50118E+00 +1.83575E+00
 +8.92960E-01 +2.67470E+00 -1.33869E+00 +1.52675E+00 -1.99106E+00 -7.68865E-01 -7.57098E-01 -2.81172E+00
 +1.64998E+00 -3.39192E+00 +3.90829E+00 -2.11735E+00 +4.80403E+00 +4.08401E-01 +3.86778E+00 +2.93761E+00
 +1.59719E+00 +4.25862E+00 -8.39736E-01 +3.83523E+00 -2.24851E+00 +2.06704E+00 -2.04686E+00 +4.25896E-02
 -5.57463E-01 -1.06966E+00 +1.19337E+00 -6.57590E-01 +2.05166E+00 +1.01262E+00 +1.36922E+00 +2.95472E+00
 -6.46164E-01 +4.00599E+00 -3.04588E+00 +3.45740E+00 -4.64998E+00 +1.43163E+00 -4.67115E+00 -1.18722E+00
 -3.11879E+00 -3.22478E+00 -7.74429E-01 -3.82829E+00 +1.23621E+00 -2.89120E+00 +2.03488E+00 -1.07207E+00
 +1.42722E+00 +5.87409E-01 -4.13751E-02 +1.22659E+00 -1.42339E+00 +6.03721E-01 -1.90133E+00 -8.20814E-01
 -1.21811E+00 -2.18358E+00 +2.23149E-01 -2.71802E+00 +1.62825E+00 -2.17128E+00 +2.28344E+00 -9.10882E-01
 +1.95618E+00 +3.24468E-01 +1.00128E+00 +8.74535E-01 +1.22038E-01 +5.43630E-01 -6.61717E-02 -2.98065E-01
 +5.88177E-01 -9.51149E-01 +1.67682E+00 -8.19061E-01 +2.47116E+00 +2.19233E-01 +2.35748E+00 +1.71564E+00
 +1.21381E+00 +2.89646E+00 -4.93601E-01 +3.10516E+00 -1.95589E+00 +2.18915E+00 -2.47289E+00 +6.04136E-01
 -1.85236E+00 -8.30353E-01 -5.25046E-01 -1.38949E+00 +6.96564E-01 -8.54837E-01 +1.08301E+00 +3.59928E-01
 +4.10998E-01 +1.44779E+00 -9.01936E-01 +1.68039E+00 -2.03685E+00 +8.43196E-01 -2.25671E+00 -6.22404E-01
 -1.35692E+00 -1.86331E+00 +1.84421E-01 -2.11571E+00 +1.45893E+00 -1.17753E+00 +1.65392E+00 +4.29221E-01
 +5.55855E-01 +1.72013E+00 -1.26774E+00 +1.80592E+00 -2.73671E+00 +4.37498E-01 -2.85195E+00 -1.78189E+00
 -1.29223E+00 -3.66545E+00 +1.33050E+00 -4.07329E+00 +3.72992E+00 -2.56955E+00 +4.60889E+00 +2.66042E-01
 +3.38180E+00 +3.07392E+00 +5.53835E-01 +4.40368E+00 -2.47796E+00 +3.50213E+00 -4.12873E+00 +7.68740E-01
 -3.47640E+00 -2.39403E+00 -7.98386E-01 -4.28861E+00 +2.51866E+00 -3.83042E+00 +4.68042E+00 -1.16809E+00
 +4.44479E+00 +2.33947E+00 +1.82698E+00 +4.80943E+00 -1.84949E+00 +4.84197E+00 -4.61627E+00 +2.31170E+00
 -4.91018E+00 -1.50068E+00 -2.45348E+00 -4.54150E+00 +1.52612E+00 -5.07351E+00 +4.88935E+00 -2.64840E+00
 +5.71003E+00 +1.57532E+00 +3.34349E+00 +5.37628E+00 -1.14683E+00 +6.62395E+00 -5.46985E+00 +4.44573E+00
 -7.28062E+00 -2.25886E-01 -5.44669E+00 -5.05451E+00 -7.27179E-01 -7.48096E+00 +4.53139E+00 -6.08635E+00
 +7.56745E+00 -1.41264E+00 +6.65757E+00 +4.22605E+00 +2.08524E+00 +7.88818E+00 -3.91482E+00 +7.53723E+00
 -8.25275E+00 +3.16170E+00 -8.58103E+00 -3.13184E+00 -4.56448E+00 -8.14481E+00 +1.86495E+00 -9.23194E+00
 +7.44360E+00 -5.71658E+00 +9.25043E+00 +6.83226E-01 +6.25990E+00 +6.68014E+00 -5.38526E-02 +9.10175E+00
 -6.41496E+00 +6.57133E+00 -9.42085E+00 +2.94537E-01 -7.33996E+00 -6.49510E+00 -1.08387E+00 -1.01830E+01
 +6.18866E+00 -8.67631E+00 +1.06713E+01 -2.56357E+00 +9.90529E+00 +5.10866E+00 +4.12688E+00 +1.03684E+01
 -3.76903E+00 +1.03916E+01 -9.67416E+00 +5.03692E+00 -1.04032E+01 -2.98996E+00 -5.41295E+00 -9.47280E+00
