 Created: 26-Mar-2021
 $NMID
 ID='D:\BASISSIMULATI'
 FMTDAT='(8E13.5)'
 VOLUME=   1.00000E+00
 TRAMP=   1.00000E+00
 $END
 +7.44110E-02 +2.81783E-04 +6.73175E-02 +2.92890E-02 +4.81503E-02 +5.18157E-02 +2.13551E-02 +6.30443E-02
 -6.89935E-03 +6.08288E-02 -3.01947E-02 +4.61814E-02 -4.33846E-02 +2.29991E-02 -4.37963E-02 -2.89679E-03
 -3.18252E-02 -2.51682E-02 -1.07885E-02 -3.84703E-02 +1.39160E-02 -3.96985E-02 +3.61310E-02 -2.86766E-02
 +5.04129E-02 -8.13296E-03 +5.32993E-02 +1.70145E-02 +4.40731E-02 +4.08750E-02 +2.48523E-02 +5.79973E-02
 +3.98306E-06 +6.46341E-02 -2.49538E-02 +5.95600E-02 -4.46830E-02 +4.42626E-02 -5.52613E-02 +2.24841E-02
 -5.50308E-02 -7.49920E-04 -4.48738E-02 -2.03606E-02 -2.78750E-02 -3.23992E-02 -8.48150E-03 -3.49027E-02
 +8.61313E-03 -2.82331E-02 +1.95778E-02 -1.48483E-02 +2.22818E-02 +1.40798E-03 +1.66759E-02 +1.62985E-02
 +4.65625E-03 +2.62100E-02 -1.05232E-02 +2.89506E-02 -2.51147E-02 +2.41501E-02 -3.57896E-02 +1.31977E-02
 -4.03748E-02 -1.23234E-03 -3.82505E-02 -1.59182E-02 -3.03414E-02 -2.78883E-02 -1.87410E-02 -3.50807E-02
 -6.09716E-03 -3.67160E-02 +5.06687E-03 -3.33204E-02 +1.29199E-02 -2.64325E-02 +1.66505E-02 -1.81015E-02
 +1.65012E-02 -1.03284E-02 +1.35366E-02 -4.60014E-03 +9.24151E-03 -1.62353E-03 +5.07714E-03 -1.30288E-03
 +2.12135E-03 -2.93044E-03 +8.78668E-04 -5.50615E-03 +1.28764E-03 -8.07541E-03 +2.89187E-03 -9.98302E-03
 +5.09596E-03 -1.09786E-02 +7.41066E-03 -1.11629E-02 +9.60524E-03 -1.08166E-02 +1.17239E-02 -1.01886E-02
 +1.39728E-02 -9.32753E-03 +1.65311E-02 -8.02315E-03 +1.93620E-02 -5.87943E-03 +2.21053E-02 -2.49584E-03
 +2.40991E-02 +2.30845E-03 +2.45397E-02 +8.31067E-03 +2.27367E-02 +1.48162E-02 +1.83853E-02 +2.07474E-02
 +1.17647E-02 +2.48810E-02 +3.78636E-03 +2.61788E-02 -4.14295E-03 +2.41168E-02 -1.04252E-02 +1.89146E-02
 -1.36721E-02 +1.15834E-02 -1.30973E-02 +3.75994E-03 -8.78855E-03 -2.64894E-03 -1.77370E-03 -5.93021E-03
 +6.15578E-03 -5.02001E-03 +1.28346E-02 +1.71915E-04 +1.62396E-02 +8.66369E-03 +1.50049E-02 +1.85691E-02
 +8.80443E-03 +2.75041E-02 -1.50420E-03 +3.31412E-02 -1.40216E-02 +3.37784E-02 -2.62113E-02 +2.87808E-02
 -3.54760E-02 +1.87800E-02 -3.97708E-02 +5.57432E-03 -3.81012E-02 -8.25552E-03 -3.07845E-02 -1.99274E-02
 -1.94047E-02 -2.71003E-02 -6.46677E-03 -2.84234E-02 +5.17056E-03 -2.38609E-02 +1.29511E-02 -1.47107E-02
 +1.52111E-02 -3.31238E-03 +1.15642E-02 +7.48778E-03 +2.99024E-03 +1.49903E-02 -8.39087E-03 +1.72601E-02
 -1.98063E-02 +1.35661E-02 -2.84629E-02 +4.54166E-03 -3.21789E-02 -7.96652E-03 -2.98685E-02 -2.13226E-02
 -2.17728E-02 -3.26972E-02 -9.39027E-03 -3.96958E-02 +4.87256E-03 -4.08783E-02 +1.82425E-02 -3.60546E-02
 +2.81886E-02 -2.62991E-02 +3.29613E-02 -1.36869E-02 +3.19452E-02 -8.20849E-04 +2.57551E-02 +9.74003E-03
 +1.60645E-02 +1.60236E-02 +5.21353E-03 +1.70420E-02 -4.30973E-03 +1.29647E-02 -1.03990E-02 +5.04084E-03
 -1.17577E-02 -4.70317E-03 -8.14102E-03 -1.39146E-02 -3.69629E-04 -2.04150E-02 +9.87618E-03 -2.26439E-02
 +2.04289E-02 -1.99579E-02 +2.90895E-02 -1.27324E-02 +3.40711E-02 -2.25400E-03 +3.43429E-02 +9.56329E-03
 +2.98110E-02 +2.05751E-02 +2.13102E-02 +2.88337E-02 +1.04147E-02 +3.29621E-02 -8.87576E-04 +3.24043E-02
 -1.05898E-02 +2.75114E-02 -1.70535E-02 +1.94500E-02 -1.93159E-02 +9.95874E-03 -1.72615E-02 +1.00007E-03
 -1.16297E-02 -5.62448E-03 -3.85810E-03 -8.62294E-03 +4.20625E-03 -7.46071E-03 +1.06732E-02 -2.46156E-03
 +1.39844E-02 +5.25780E-03 +1.32242E-02 +1.40078E-02 +8.30843E-03 +2.18602E-02 +9.40776E-06 +2.70332E-02
 -1.01879E-02 +2.82530E-02 -2.03758E-02 +2.50199E-02 -2.86040E-02 +1.77219E-02 -3.32767E-02 +7.57156E-03
 -3.34847E-02 -3.62892E-03 -2.92032E-02 -1.38488E-02 -2.13091E-02 -2.12450E-02 -1.14106E-02 -2.45480E-02
 -1.51766E-03 -2.33337E-02 +6.37774E-03 -1.81207E-02 +1.07259E-02 -1.02683E-02 +1.07552E-02 -1.69025E-03
 +6.64385E-03 +5.55484E-03 -5.12467E-04 +9.71121E-03 -8.93498E-03 +9.71261E-03 -1.65492E-02 +5.42148E-03
 -2.14413E-02 -2.33496E-03 -2.22831E-02 -1.19423E-02 -1.86283E-02 -2.13532E-02 -1.10147E-02 -2.85390E-02
 -8.45388E-04 -3.19390E-02 +9.92276E-03 -3.08043E-02 +1.92144E-02 -2.53585E-02 +2.52948E-02 -1.67396E-02
 +2.71485E-02 -6.73691E-03 +2.46918E-02 +2.61636E-03 +1.87717E-02 +9.49871E-03 +1.09551E-02 +1.27007E-02
 +3.15849E-03 +1.18786E-02 -2.79199E-03 +7.60530E-03 -5.56964E-03 +1.21255E-03 -4.63027E-03 -5.53605E-03
 -3.08437E-04 -1.08598E-02 +6.29031E-03 -1.33655E-02 +1.35692E-02 -1.23492E-02 +1.98213E-02 -7.92861E-03
 +2.36197E-02 -9.81492E-04 +2.41255E-02 +7.08561E-03 +2.12471E-02 +1.46787E-02 +1.56200E-02 +2.03818E-02
 +8.42188E-03 +2.32611E-02 +1.07619E-03 +2.30402E-02 -5.08105E-03 +2.01130E-02 -9.09011E-03 +1.54042E-02
 -1.05481E-02 +1.01174E-02 -9.64721E-03 +5.44213E-03 -7.07262E-03 +2.28865E-03 -3.79720E-03 +1.11299E-03
 -8.30097E-04 +1.86407E-03 +1.01586E-03 +4.05393E-03 +1.28463E-03 +6.92138E-03 -6.52905E-05 +9.63936E-03
 -2.70773E-03 +1.15105E-02 -6.07538E-03 +1.21049E-02 -9.52413E-03 +1.13133E-02 -1.24883E-02 +9.31529E-03
 -1.45889E-02 +6.48410E-03 -1.56740E-02 +3.26252E-03 -1.57937E-02 +4.96355E-05 -1.51280E-02 -2.87258E-03
 -1.38999E-02 -5.35941E-03 -1.23035E-02 -7.37533E-03 -1.04686E-02 -8.93812E-03 -8.46829E-03 -1.00623E-02
 -6.35742E-03 -1.07261E-02 -4.22203E-03 -1.08762E-02 -2.21249E-03 -1.04667E-02 -5.41815E-04 -9.51647E-03
 +5.57174E-04 -8.16029E-03 +9.05993E-04 -6.66623E-03 +4.62326E-04 -5.40571E-03 -6.20387E-04 -4.77480E-03
 -1.98228E-03 -5.08438E-03 -3.10922E-03 -6.44994E-03 -3.44328E-03 -8.71616E-03 -2.52746E-03 -1.14460E-02
 -1.47260E-04 -1.39877E-02 +3.57247E-03 -1.56118E-02 +8.14888E-03 -1.56888E-02 +1.28153E-02 -1.38635E-02
 +1.66784E-02 -1.01783E-02 +1.89255E-02 -5.10566E-03 +1.90311E-02 +5.24147E-04 +1.69088E-02 +5.69409E-03
 +1.29656E-02 +9.43101E-03 +8.03691E-03 +1.10423E-02 +3.21106E-03 +1.02984E-02 -4.19099E-04 +7.51195E-03
 -2.01887E-03 +3.48771E-03 -1.22404E-03 -6.50697E-04 +1.75258E-03 -3.71963E-03 +6.15090E-03 -4.75936E-03
 +1.08277E-02 -3.27411E-03 +1.45191E-02 +6.32571E-04 +1.61404E-02 +6.26313E-03 +1.50504E-02 +1.24748E-02
 +1.12160E-02 +1.79389E-02 +5.23448E-03 +2.14498E-02 -1.79443E-03 +2.22104E-02 -8.51746E-03 +2.00236E-02
 -1.36396E-02 +1.53449E-02 -1.62245E-02 +9.17924E-03 -1.59108E-02 +2.84961E-03 -1.29940E-02 -2.31072E-03
 -8.35303E-03 -5.26706E-03 -3.24007E-03 -5.52051E-03 +1.01551E-03 -3.21760E-03 +3.31834E-03 +8.92851E-04
 +3.05968E-03 +5.64337E-03 +2.52369E-04 +9.72707E-03 -4.48184E-03 +1.20049E-02 -1.00668E-02 +1.17679E-02
 -1.52294E-02 +8.89456E-03 -1.87968E-02 +3.86700E-03 -1.99627E-02 -2.35208E-03 -1.84628E-02 -8.55082E-03
 -1.46183E-02 -1.35498E-02 -9.24457E-03 -1.64670E-02 -3.44932E-03 -1.69048E-02 +1.62816E-03 -1.50189E-02
 +5.07402E-03 -1.14577E-02 +6.39374E-03 -7.19210E-03 +5.60104E-03 -3.27986E-03 +3.18648E-03 -6.22127E-04
 -2.08653E-05 +2.31339E-04 -3.06096E-03 -8.13930E-04 -5.06797E-03 -3.40262E-03 -5.46043E-03 -6.83677E-03
 -4.05500E-03 -1.02537E-02 -1.08304E-03 -1.28290E-02 +2.88717E-03 -1.39576E-02 +7.09782E-03 -1.33718E-02
 +1.07800E-02 -1.11759E-02 +1.33205E-02 -7.79558E-03 +1.43794E-02 -3.86035E-03 +1.39385E-02 -5.23767E-05
 +1.22733E-02 +3.04219E-03 +9.86585E-03 +5.04593E-03 +7.28030E-03 +5.84575E-03 +5.03629E-03 +5.58532E-03
 +3.50613E-03 +4.60339E-03 +2.85641E-03 +3.33819E-03 +3.04094E-03 +2.22345E-03 +3.83931E-03 +1.59967E-03
 +4.92605E-03 +1.65782E-03 +5.95070E-03 +2.42237E-03 +6.60984E-03 +3.77064E-03 +6.69729E-03 +5.47787E-03
 +6.12646E-03 +7.27347E-03 +4.92602E-03 +8.89449E-03 +3.21640E-03 +1.01263E-02 +1.17645E-03 +1.08261E-02
 -9.90348E-04 +1.09293E-02 -3.08404E-03 +1.04444E-02 -4.92843E-03 +9.44125E-03 -6.38438E-03 +8.03696E-03
 -7.35880E-03 +6.38300E-03 -7.81179E-03 +4.65163E-03 -7.76246E-03 +3.02057E-03 -7.29186E-03 +1.65394E-03
 -6.53943E-03 +6.79357E-04 -5.68958E-03 +1.64324E-04 -4.94683E-03 +9.69085E-05 -4.50089E-03 +3.77465E-04
 -4.48757E-03 +8.26793E-04 -4.95378E-03 +1.21306E-03 -5.83635E-03 +1.29497E-03 -6.96246E-03 +8.73734E-04
 -8.07506E-03 -1.57511E-04 -8.88101E-03 -1.77913E-03 -9.11284E-03 -3.83564E-03 -8.59104E-03 -6.05669E-03
 -7.27195E-03 -8.10641E-03 -5.26834E-03 -9.65192E-03 -2.83577E-03 -1.04363E-02 -3.25381E-04 -1.03387E-02
 +1.88778E-03 -9.40721E-03 +3.48536E-03 -7.85461E-03 +4.27683E-03 -6.01636E-03 +4.24388E-03 -4.27935E-03
 +3.54701E-03 -2.99677E-03 +2.49126E-03 -2.40848E-03 +1.45834E-03 -2.58583E-03 +8.19996E-04 -3.41406E-03
 +8.52508E-04 -4.61712E-03 +1.67214E-03 -5.81975E-03 +3.20668E-03 -6.63273E-03 +5.20987E-03 -6.74187E-03
 +7.31552E-03 -5.98012E-03 +9.11886E-03 -4.36639E-03 +1.02664E-02 -2.10214E-03 +1.05336E-02 +4.72969E-04
 +9.87300E-03 +2.95608E-03 +8.42208E-03 +4.96909E-03 +6.46979E-03 +6.23956E-03 +4.39028E-03 +6.65639E-03
 +2.55943E-03 +6.28831E-03 +1.27348E-03 +5.36200E-03 +6.87949E-04 +4.20601E-03 +7.89849E-04 +3.17419E-03
 +1.40817E-03 +2.56637E-03 +2.25893E-03 +2.56422E-03 +3.01318E-03 +3.19586E-03 +3.37202E-03 +4.33573E-03
 +3.13168E-03 +5.73832E-03 +2.22470E-03 +7.09640E-03 +7.29578E-04 +8.10996E-03 -1.15154E-03 +8.55005E-03
 -3.14055E-03 +8.30398E-03 -4.94452E-03 +7.39329E-03 -6.31625E-03 +5.96237E-03 -7.10145E-03 +4.24197E-03
 -7.26342E-03 +2.49736E-03 -6.88166E-03 +9.72943E-04 -6.12675E-03 -1.54528E-04 -5.21865E-03 -8.05375E-04
 -4.37837E-03 -1.00422E-03 -3.78351E-03 -8.65561E-04 -3.53638E-03 -5.62601E-04 -3.64986E-03 -2.87046E-04
 -4.05220E-03 -2.08819E-04 -4.60792E-03 -4.43548E-04 -5.14924E-03 -1.03335E-03 -5.51090E-03 -1.94326E-03
 -5.56168E-03 -3.07237E-03 -5.22695E-03 -4.27613E-03 -4.49941E-03 -5.39477E-03 -3.43698E-03 -6.28221E-03
 -2.14966E-03 -6.83040E-03 -7.78493E-04 -6.98560E-03 +5.29337E-04 -6.75449E-03 +1.64490E-03 -6.19998E-03
 +2.47766E-03 -5.42797E-03 +2.98841E-03 -4.56779E-03 +3.19328E-03 -3.74940E-03 +3.15853E-03 -3.08122E-03
 +2.98688E-03 -2.63194E-03 +2.79778E-03 -2.41939E-03 +2.70473E-03 -2.40832E-03 +2.79345E-03 -2.51776E-03
 +3.10494E-03 -2.63691E-03 +3.62648E-03 -2.64707E-03 +4.29281E-03 -2.44560E-03 +4.99761E-03 -1.96764E-03
 +5.61357E-03 -1.20096E-03 +6.01743E-03 -1.90874E-04 +6.11510E-03 +9.66501E-04 +5.86166E-03 +2.14152E-03
