 Created: 26-Mar-2021
 $NMID
 ID='D:\BASISSIMULATI'
 FMTDAT='(8E13.5)'
 VOLUME=   1.00000E+00
 TRAMP=   1.00000E+00
 $END
 +5.20986E-02 -9.57515E-09 +4.52454E-02 +2.57957E-02 +2.65213E-02 +4.48049E-02 +8.48143E-04 +5.20426E-02
 -2.50315E-02 +4.56167E-02 -4.43250E-02 +2.72222E-02 -5.19729E-02 +1.69445E-03 -4.59751E-02 -2.42619E-02
 -2.79145E-02 -4.38342E-02 -2.53872E-03 -5.18895E-02 +2.34874E-02 -4.63207E-02 +4.33327E-02 -2.85981E-02
 +5.17924E-02 -3.38072E-03 +4.66533E-02 +2.27081E-02 +2.92728E-02 +4.28206E-02 +4.22023E-03 +5.16817E-02
 -2.19242E-02 +4.69728E-02 -4.22980E-02 +2.99384E-02 -5.15574E-02 +5.05704E-03 -4.72793E-02 -2.11360E-02
 -3.05948E-02 -4.17652E-02 -5.89093E-03 -5.14197E-02 +2.03436E-02 -4.75725E-02 +4.12222E-02 -3.12419E-02
 +5.12685E-02 -6.72168E-03 +4.78526E-02 +1.95473E-02 +3.18794E-02 +4.06693E-02 +7.54908E-03 +5.11040E-02
 -1.87473E-02 +4.81194E-02 -4.01066E-02 +3.25072E-02 -5.09262E-02 +8.37291E-03 -4.83729E-02 -1.79437E-02
 -3.31251E-02 -3.95343E-02 -9.19295E-03 -5.07352E-02 +1.71370E-02 -4.86130E-02 +3.89526E-02 -3.37331E-02
 +5.05310E-02 -1.00090E-02 +4.88397E-02 +1.63272E-02 +3.43310E-02 +3.83616E-02 +1.08209E-02 +5.03138E-02
 -1.55146E-02 +4.90530E-02 -3.77615E-02 +3.49186E-02 -5.00835E-02 +1.16283E-02 -4.92529E-02 -1.46993E-02
 -3.54958E-02 -3.71524E-02 -1.24311E-02 -4.98404E-02 +1.38817E-02 -4.94392E-02 +3.65347E-02 -3.60625E-02
 +4.95845E-02 -1.32292E-02 +4.96121E-02 +1.30620E-02 +3.66185E-02 +3.59083E-02 +1.40221E-02 +4.93158E-02
 -1.22403E-02 +4.97714E-02 -3.52736E-02 +3.71637E-02 -4.90345E-02 +1.48099E-02 -4.99172E-02 -1.14169E-02
 -3.76980E-02 -3.46307E-02 -1.55922E-02 -4.87408E-02 +1.05920E-02 -5.00494E-02 +3.39798E-02 -3.82213E-02
 +4.84345E-02 -1.63690E-02 +5.01681E-02 +9.76583E-03 +3.87334E-02 +3.33210E-02 +1.71398E-02 +4.81160E-02
 -8.93863E-03 +5.02731E-02 -3.26547E-02 +3.92342E-02 -4.77853E-02 +1.79047E-02 -5.03646E-02 -8.11061E-03
 -3.97236E-02 -3.19809E-02 -1.86634E-02 -4.74424E-02 +7.28199E-03 -5.04425E-02 +3.12998E-02 -4.02015E-02
 +4.70876E-02 -1.94157E-02 +5.05069E-02 +6.45299E-03 +4.06679E-02 +3.06117E-02 +2.01614E-02 +4.67210E-02
 -5.62383E-03 +5.05576E-02 -2.99168E-02 +4.11225E-02 -4.63425E-02 +2.09003E-02 -5.05949E-02 -4.79474E-03
 -4.15654E-02 -2.92152E-02 -2.16323E-02 -4.59525E-02 +3.96594E-03 -5.06185E-02 +2.85071E-02 -4.19963E-02
 +4.55509E-02 -2.23571E-02 +5.06287E-02 +3.13764E-03 +4.24152E-02 +2.77928E-02 +2.30746E-02 +4.51380E-02
 -2.31006E-03 +5.06254E-02 -2.70725E-02 +4.28221E-02 -4.47139E-02 +2.37846E-02 -5.06086E-02 -1.48343E-03
 -4.32168E-02 -2.63463E-02 -2.44870E-02 -4.42786E-02 +6.57958E-04 -5.05783E-02 +2.56144E-02 -4.35993E-02
 +4.38324E-02 -2.51815E-02 +5.05347E-02 -1.66132E-04 +4.39694E-02 +2.48771E-02 +2.58680E-02 +4.33754E-02
 +9.88627E-04 +5.04777E-02 -2.41346E-02 +4.43271E-02 -4.29076E-02 +2.65463E-02 -5.04073E-02 +1.80931E-03
 -4.46724E-02 -2.33870E-02 -2.72163E-02 -4.24294E-02 -2.62796E-03 -5.03237E-02 +2.26347E-02 -4.50051E-02
 +4.19407E-02 -2.78778E-02 +5.02268E-02 -3.44438E-03 +4.53252E-02 +2.18777E-02 +2.85306E-02 +4.14418E-02
 +4.25834E-03 +5.01168E-02 -2.11163E-02 +4.56327E-02 -4.09328E-02 +2.91746E-02 -4.99936E-02 +5.06963E-03
 -4.59274E-02 -2.03507E-02 -2.98096E-02 -4.04139E-02 -5.87805E-03 -4.98574E-02 +1.95812E-02 -4.62093E-02
 +3.98852E-02 -3.04354E-02 +4.97081E-02 -6.68338E-03 +4.64784E-02 +1.88079E-02 +3.10520E-02 +3.93468E-02
 +7.48541E-03 +4.95459E-02 -1.80310E-02 +4.67347E-02 -3.87990E-02 +3.16592E-02 -4.93708E-02 +8.28394E-03
 -4.69780E-02 -1.72509E-02 -3.22568E-02 -3.82419E-02 -9.07877E-03 -4.91828E-02 +1.64675E-02 -4.72083E-02
 +3.76757E-02 -3.28447E-02 +4.89822E-02 -9.86968E-03 +4.74257E-02 +1.56813E-02 +3.34227E-02 +3.71005E-02
 +1.06565E-02 +4.87689E-02 -1.48924E-02 +4.76300E-02 -3.65166E-02 +3.39908E-02 -4.85430E-02 +1.14389E-02
 -4.78212E-02 -1.41010E-02 -3.45487E-02 -3.59240E-02 -1.22169E-02 -4.83046E-02 +1.33074E-02 -4.79994E-02
 +3.53229E-02 -3.50964E-02 +4.80538E-02 -1.29901E-02 +4.81644E-02 +1.25117E-02 +3.56337E-02 +3.47136E-02
 +1.37585E-02 +4.77907E-02 -1.17141E-02 +4.83164E-02 -3.40962E-02 +3.61606E-02 -4.75154E-02 +1.45217E-02
 -4.84551E-02 -1.09150E-02 -3.66768E-02 -3.34709E-02 -1.52796E-02 -4.72279E-02 +1.01144E-02 -4.85808E-02
 +3.28379E-02 -3.71822E-02 +4.69284E-02 -1.60320E-02 +4.86932E-02 +9.31270E-03 +3.76769E-02 +3.21973E-02
 +1.67788E-02 +4.66170E-02 -8.51000E-03 +4.87925E-02 -3.15493E-02 +3.81605E-02 -4.62937E-02 +1.75196E-02
 -4.88786E-02 -7.70654E-03 -3.86331E-02 -3.08942E-02 -1.82544E-02 -4.59588E-02 +6.90254E-03 -4.89515E-02
 +3.02321E-02 -3.90945E-02 +4.56122E-02 -1.89830E-02 +4.90113E-02 +6.09823E-03 +3.95447E-02 +2.95631E-02
 +1.97051E-02 +4.52541E-02 -5.29380E-03 +4.90579E-02 -2.88876E-02 +3.99835E-02 -4.48847E-02 +2.04207E-02
 -4.90913E-02 -4.48948E-03 -4.04108E-02 -2.82057E-02 -2.11294E-02 -4.45041E-02 +3.68548E-03 -4.91117E-02
 +2.75175E-02 -4.08265E-02 +4.41123E-02 -2.18312E-02 +4.91189E-02 +2.88201E-03 +4.12306E-02 +2.68233E-02
 +2.25258E-02 +4.37095E-02 -2.07929E-03 +4.91130E-02 -2.61232E-02 +4.16229E-02 -4.32958E-02 +2.32132E-02
 -4.90941E-02 -1.27753E-03 -4.20035E-02 -2.54176E-02 -2.38931E-02 -4.28713E-02 +4.76932E-04 -4.90621E-02
 +2.47065E-02 -4.23721E-02 +4.24363E-02 -2.45653E-02 +4.90172E-02 -3.22281E-04 +4.27288E-02 +2.39901E-02
 +2.52298E-02 +4.19908E-02 +1.11990E-03 +4.89592E-02 -2.32687E-02 +4.30734E-02 -4.15349E-02 +2.58862E-02
 -4.88884E-02 +1.91573E-03 -4.34059E-02 -2.25425E-02 -2.65346E-02 -4.10689E-02 -2.70954E-03 -4.88047E-02
 +2.18117E-02 -4.37263E-02 +4.05928E-02 -2.71746E-02 +4.87081E-02 -3.50114E-03 +4.40344E-02 +2.10764E-02
 +2.78063E-02 +4.01068E-02 +4.29031E-03 +4.85988E-02 -2.03369E-02 +4.43301E-02 -3.96110E-02 +2.84293E-02
 -4.84767E-02 +5.07686E-03 -4.46136E-02 -1.95934E-02 -2.90436E-02 -3.91056E-02 -5.86057E-03 -4.83419E-02
 +1.88460E-02 -4.48846E-02 +3.85908E-02 -2.96490E-02 +4.81946E-02 -6.64125E-03 +4.51432E-02 +1.80951E-02
 +3.02454E-02 +3.80667E-02 +7.41869E-03 +4.80347E-02 -1.73407E-02 +4.53892E-02 -3.75334E-02 +3.08325E-02
 -4.78623E-02 +8.19269E-03 -4.56227E-02 -1.65832E-02 -3.14104E-02 -3.69911E-02 -8.96306E-03 -4.76775E-02
 +1.58227E-02 -4.58437E-02 +3.64400E-02 -3.19789E-02 +4.74803E-02 -9.72958E-03 +4.60520E-02 +1.50594E-02
 +3.25377E-02 +3.58802E-02 +1.04921E-02 +4.72709E-02 -1.42935E-02 +4.62477E-02 -3.53120E-02 +3.30869E-02
 -4.70493E-02 +1.12503E-02 -4.64306E-02 -1.35252E-02 -3.36262E-02 -3.47354E-02 -1.20042E-02 -4.68156E-02
 +1.27548E-02 -4.66009E-02 +3.41507E-02 -3.41555E-02 +4.65699E-02 -1.27534E-02 +4.67585E-02 +1.19825E-02
 +3.46747E-02 +3.35579E-02 +1.34978E-02 +4.63122E-02 -1.12084E-02 +4.69033E-02 -3.29574E-02 +3.51838E-02
 -4.60427E-02 +1.42373E-02 -4.70354E-02 -1.04328E-02 -3.56825E-02 -3.23492E-02 -1.49715E-02 -4.57614E-02
 +9.65590E-03 -4.71547E-02 +3.17335E-02 -3.61708E-02 +4.54685E-02 -1.57004E-02 +4.72612E-02 +8.87788E-03
 +3.66485E-02 +3.11106E-02 +1.64237E-02 +4.51641E-02 -8.09895E-03 +4.73549E-02 -3.04806E-02 +3.71156E-02
 -4.48482E-02 +1.71413E-02 -4.74359E-02 -7.31934E-03 -3.75719E-02 -2.98436E-02 -1.78530E-02 -4.45209E-02
 +6.53925E-03 -4.75040E-02 +2.91999E-02 -3.80174E-02 +4.41824E-02 -1.85586E-02 +4.75594E-02 +5.75889E-03
 +3.84519E-02 +2.85496E-02 +1.92579E-02 +4.38328E-02 -4.97846E-03 +4.76021E-02 -2.78929E-02 +3.88753E-02
 -4.34722E-02 +1.99508E-02 -4.76320E-02 -4.19818E-03 -3.92876E-02 -2.72301E-02 -2.06370E-02 -4.31007E-02
 +3.41825E-03 -4.76491E-02 +2.65612E-02 -3.96887E-02 +4.27184E-02 -2.13165E-02 +4.76536E-02 +2.63887E-03
 +4.00784E-02 +2.58866E-02 +2.19890E-02 +4.23255E-02 -1.86027E-03 +4.76453E-02 -2.52063E-02 +4.04568E-02
 -4.19221E-02 +2.26544E-02 -4.76244E-02 -1.08263E-03 -4.08236E-02 -2.45206E-02 -2.33125E-02 -4.15082E-02
 +3.06174E-04 -4.75908E-02 +2.38297E-02 -4.11789E-02 +4.10841E-02 -2.39632E-02 +4.75447E-02 -4.68904E-04
 +4.15226E-02 +2.31337E-02 +2.46063E-02 +4.06498E-02 +1.24240E-03 +4.74859E-02 -2.24329E-02 +4.18546E-02
 -4.02056E-02 +2.52416E-02 -4.74147E-02 +2.01410E-03 -4.21748E-02 -2.17274E-02 -2.58690E-02 -3.97514E-02
 -2.78382E-03 -4.73309E-02 +2.10175E-02 -4.24832E-02 +3.92876E-02 -2.64883E-02 +4.72348E-02 -3.55135E-03
 +4.27797E-02 +2.03033E-02 +2.70994E-02 +3.88142E-02 +4.31648E-03 +4.71262E-02 -1.95851E-02 +4.30642E-02
 -3.83313E-02 +2.77022E-02 -4.70053E-02 +5.07903E-03 -4.33368E-02 -1.88629E-02 -2.82964E-02 -3.78391E-02
 -5.83879E-03 -4.68721E-02 +1.81372E-02 -4.35973E-02 +3.73378E-02 -2.88820E-02 +4.67266E-02 -6.59556E-03
 +4.38457E-02 +1.74080E-02 +2.94588E-02 +3.68275E-02 +7.34915E-03 +4.65691E-02 -1.66755E-02 +4.40820E-02
 -3.63083E-02 +3.00267E-02 -4.63994E-02 +8.09937E-03 -4.43061E-02 -1.59399E-02 -3.05855E-02 -3.57805E-02
 -8.84602E-03 -4.62177E-02 +1.52015E-02 -4.45179E-02 +3.52441E-02 -3.11351E-02 +4.60240E-02 -9.58891E-03
 +4.47176E-02 +1.44605E-02 +3.16754E-02 +3.46994E-02 +1.03278E-02 +4.58184E-02 -1.37169E-02 +4.49049E-02
 -3.41465E-02 +3.22062E-02 -4.56010E-02 +1.10626E-02 -4.50800E-02 -1.29712E-02 -3.27275E-02 -3.35855E-02
 -1.17931E-02 -4.53719E-02 +1.22234E-02 -4.52427E-02 +3.30166E-02 -3.32391E-02 +4.51312E-02 -1.25191E-02
 +4.53930E-02 +1.14737E-02 +3.37408E-02 +3.24400E-02 +1.32403E-02 +4.48789E-02 -1.07224E-02 +4.55311E-02
 -3.18559E-02 +3.42327E-02 -4.46151E-02 +1.39567E-02 -4.56567E-02 -9.96966E-03 -3.47145E-02 -3.12643E-02
 -1.46680E-02 -4.43400E-02 +9.21568E-03 -4.57699E-02 +3.06656E-02 -3.51861E-02 +4.40535E-02 -1.53741E-02
 +4.58707E-02 +8.46067E-03 +3.56476E-02 +3.00598E-02 +1.60747E-02 +4.37559E-02 -7.70483E-03 +4.59592E-02
 -2.94472E-02 +3.60986E-02 -4.34472E-02 +1.67697E-02 -4.60352E-02 -6.94837E-03 -3.65392E-02 -2.88279E-02
 -1.74590E-02 -4.31275E-02 +6.19147E-03 -4.60989E-02 +2.82021E-02 -3.69692E-02 +4.27969E-02 -1.81423E-02
 +4.61501E-02 +5.43436E-03 +3.73886E-02 +2.75699E-02 +1.88196E-02 +4.24556E-02 -4.67722E-03 +4.61890E-02
 -2.69317E-02 +3.77972E-02 -4.21036E-02 +1.94905E-02 -4.62155E-02 -3.92027E-03 -3.81951E-02 -2.62874E-02
 -2.01550E-02 -4.17411E-02 +3.16370E-03 -4.62296E-02 +2.56374E-02 -3.85819E-02 +4.13681E-02 -2.08128E-02
