 Created: 26-Mar-2021
 $NMID
 ID='D:\BASISSIMULATI'
 FMTDAT='(8E13.5)'
 VOLUME=   1.00000E+00
 TRAMP=   1.00000E+00
 $END
 +6.46880E-02 +6.37464E-06 +5.57261E-02 +3.05182E-02 +3.20602E-02 +5.10971E-02 +1.78847E-03 +5.53346E-02
 -2.48191E-02 +4.25036E-02 -3.89069E-02 +1.77823E-02 -3.61156E-02 -9.58536E-03 -1.80835E-02 -2.95456E-02
 +8.15521E-03 -3.47655E-02 +3.26606E-02 -2.32017E-02 +4.60890E-02 +1.18817E-03 +4.29816E-02 +2.98391E-02
 +2.36875E-02 +5.25834E-02 -5.74885E-03 +6.12147E-02 -3.56925E-02 +5.23617E-02 -5.62766E-02 +2.86688E-02
 -6.08375E-02 -2.12653E-03 -4.82251E-02 -2.98939E-02 -2.31837E-02 -4.56394E-02 +5.32689E-03 -4.46293E-02
 +2.72774E-02 -2.80162E-02 +3.50796E-02 -2.40326E-03 +2.62327E-02 +2.24969E-02 +4.18107E-03 +3.72852E-02
 -2.29112E-02 +3.61814E-02 -4.50375E-02 +1.90548E-02 -5.38668E-02 -8.52724E-03 -4.56705E-02 -3.72459E-02
 -2.26352E-02 -5.72890E-02 +7.89458E-03 -6.17775E-02 +3.59753E-02 -4.91628E-02 +5.25269E-02 -2.37577E-02
 +5.24866E-02 +5.78012E-03 +3.65512E-02 +2.94770E-02 +1.09043E-02 +3.95242E-02 -1.49738E-02 +3.29899E-02
 -3.16416E-02 +1.28190E-02 -3.30076E-02 -1.32276E-02 -1.84606E-02 -3.53158E-02 +6.92482E-03 -4.50018E-02
 +3.41749E-02 -3.82017E-02 +5.35663E-02 -1.66291E-02 +5.80332E-02 +1.27974E-02 +4.56418E-02 +4.03685E-02
 +2.02657E-02 +5.69690E-02 -9.76735E-03 +5.72505E-02 -3.45817E-02 +4.14814E-02 -4.61931E-02 +1.54319E-02
 -4.12770E-02 -1.16617E-02 -2.23012E-02 -3.03375E-02 +3.37021E-03 -3.42153E-02 +2.60823E-02 -2.22165E-02
 +3.72887E-02 +1.07883E-03 +3.25534E-02 +2.70567E-02 +1.31067E-02 +4.61038E-02 -1.45864E-02 +5.09858E-02
 -4.10900E-02 +3.93878E-02 -5.72971E-02 +1.47293E-02 -5.76096E-02 -1.50261E-02 -4.18861E-02 -4.01483E-02
 -1.54814E-02 -5.25277E-02 +1.26347E-02 -4.84893E-02 +3.30133E-02 -3.00496E-02 +3.90207E-02 -4.18237E-03
 +2.91372E-02 +1.96450E-02 +7.46005E-03 +3.27984E-02 -1.77600E-02 +3.05016E-02 -3.70317E-02 +1.35011E-02
 -4.29633E-02 -1.22068E-02 -3.28598E-02 -3.74877E-02 -9.67061E-03 -5.32741E-02 +1.90390E-02 -5.37433E-02
 +4.37300E-02 -3.83535E-02 +5.62161E-02 -1.20319E-02 +5.25108E-02 +1.65487E-02 +3.42012E-02 +3.79959E-02
 +7.87222E-03 +4.54670E-02 -1.72121E-02 +3.70365E-02 -3.23550E-02 +1.63385E-02 -3.24634E-02 -8.73663E-03
 -1.78129E-02 -2.88286E-02 +6.07109E-03 -3.63995E-02 +3.03699E-02 -2.83780E-02 +4.60763E-02 -7.23303E-03
 +4.71584E-02 +1.98953E-02 +3.26761E-02 +4.36971E-02 +7.11157E-03 +5.59493E-02 -2.11948E-02 +5.23853E-02
 -4.29543E-02 +3.41766E-02 -5.11631E-02 +7.51225E-03 -4.35283E-02 -1.85728E-02 -2.32416E-02 -3.53546E-02
 +2.16435E-03 -3.74583E-02 +2.34724E-02 -2.47135E-02 +3.30160E-02 -2.18467E-03 +2.73601E-02 +2.16305E-02
 +8.49267E-03 +3.77977E-02 -1.68859E-02 +4.00876E-02 -3.97216E-02 +2.71609E-02 -5.17837E-02 +3.03866E-03
 -4.85470E-02 -2.43054E-02 -3.07731E-02 -4.57304E-02 -4.23957E-03 -5.41163E-02 +2.22807E-02 -4.68372E-02
 +4.00803E-02 -2.66596E-02 +4.35454E-02 -7.54555E-04 +3.20922E-02 +2.18237E-02 +1.03402E-02 +3.33067E-02
 -1.35345E-02 +2.99199E-02 -3.06820E-02 +1.31828E-02 -3.46877E-02 -1.06466E-02 -2.38182E-02 -3.27850E-02
 -1.62225E-03 -4.50136E-02 +2.43186E-02 -4.25631E-02 +4.50476E-02 -2.57841E-02 +5.33654E-02 -2.41601E-05
 +4.63403E-02 +2.62422E-02 +2.63221E-02 +4.43701E-02 +1.09049E-04 +4.85518E-02 -2.34358E-02 +3.78242E-02
 -3.64792E-02 +1.63778E-02 -3.49410E-02 -7.93494E-03 -1.98958E-02 -2.63641E-02 +2.83376E-03 -3.23292E-02
 +2.47419E-02 -2.37159E-02 +3.76358E-02 -3.60110E-03 +3.65131E-02 +2.08409E-02 +2.13133E-02 +4.08629E-02
 -3.06366E-03 +4.92130E-02 -2.84748E-02 +4.26724E-02 -4.63800E-02 +2.31762E-02 -5.08191E-02 -2.86840E-03
 -4.04795E-02 -2.68242E-02 -1.91342E-02 -4.08363E-02 +5.69596E-03 -4.05602E-02 +2.53840E-02 -2.66540E-02
 +3.32126E-02 -4.51747E-03 +2.67103E-02 +1.76254E-02 +8.49358E-03 +3.16218E-02 -1.46738E-02 +3.22501E-02
 -3.42696E-02 +1.90438E-02 -4.30087E-02 -3.55531E-03 -3.73977E-02 -2.77608E-02 -1.89550E-02 -4.51716E-02
 +6.32366E-03 -4.97088E-02 +3.00632E-02 -3.97330E-02 +4.44311E-02 -1.86047E-02 +4.48605E-02 +6.50265E-03
 +3.16226E-02 +2.71155E-02 +9.70531E-03 +3.64166E-02 -1.29557E-02 +3.16109E-02 -2.82661E-02 +1.48751E-02
 -3.08064E-02 -7.43309E-03 -1.97174E-02 -2.70253E-02 +1.01672E-03 -3.65987E-02 +2.39811E-02 -3.23965E-02
 +4.09381E-02 -1.55200E-02 +4.57154E-02 +8.46414E-03 +3.63623E-02 +3.14752E-02 +1.58256E-02 +4.57436E-02
 -9.08862E-03 +4.65172E-02 -3.00960E-02 +3.37059E-02 -4.03217E-02 +1.18921E-02 -3.66850E-02 -1.12889E-02
 -2.09484E-02 -2.78274E-02 +9.28818E-04 -3.21354E-02 +2.08999E-02 -2.29848E-02 +3.16606E-02 -3.91240E-03
 +2.92062E-02 +1.80433E-02 +1.42257E-02 +3.48244E-02 -8.15296E-03 +4.01836E-02 -3.01681E-02 +3.18711E-02
 -4.41451E-02 +1.24163E-02 -4.51776E-02 -1.17632E-02 -3.28326E-02 -3.26081E-02 -1.12881E-02 -4.32282E-02
 +1.21397E-02 -4.02953E-02 +2.95576E-02 -2.51822E-02 +3.52466E-02 -3.45656E-03 +2.76410E-02 +1.70874E-02
 +9.84788E-03 +2.91652E-02 -1.14689E-02 +2.85469E-02 -2.84425E-02 +1.55229E-02 -3.47676E-02 -5.21815E-03
 -2.79069E-02 -2.62482E-02 -9.97151E-03 -4.00116E-02 +1.30268E-02 -4.14710E-02 +3.32849E-02 -2.98640E-02
 +4.39353E-02 -8.96040E-03 +4.14360E-02 +1.42645E-02 +2.67909E-02 +3.20700E-02 +5.17812E-03 +3.86466E-02
 -1.58768E-02 +3.21263E-02 -2.91369E-02 +1.52075E-02 -3.01773E-02 -5.81684E-03 -1.89123E-02 -2.32824E-02
 +3.99637E-04 -3.08443E-02 +2.06711E-02 -2.56940E-02 +3.44823E-02 -9.53001E-03 +3.66837E-02 +1.20519E-02
 +2.61944E-02 +3.15285E-02 +6.37166E-03 +4.20853E-02 -1.61718E-02 +3.99946E-02 -3.38830E-02 +2.59066E-02
 -4.09015E-02 +4.60681E-03 -3.50914E-02 -1.66684E-02 -1.87626E-02 -3.07633E-02 +2.16100E-03 -3.30939E-02
 +2.02320E-02 -2.32280E-02 +2.90896E-02 -5.00809E-03 +2.56775E-02 +1.48204E-02 +1.12949E-02 +2.89874E-02
 -8.87939E-03 +3.22491E-02 -2.76174E-02 +2.32186E-02 -3.81810E-02 +4.83949E-03 -3.66786E-02 -1.66555E-02
 -2.34181E-02 -3.39309E-02 -2.78681E-03 -4.11112E-02 +1.82914E-02 -3.58224E-02 +3.27775E-02 -2.00027E-02
 +3.59671E-02 +7.95451E-04 +2.71132E-02 +1.93605E-02 +9.65909E-03 +2.93454E-02 -9.99189E-03 +2.74758E-02
 -2.47342E-02 +1.46732E-02 -2.92506E-02 -4.29405E-03 -2.18648E-02 -2.25018E-02 -5.11213E-03 -3.33064E-02
 +1.51643E-02 -3.26714E-02 +3.18700E-02 -2.05724E-02 +3.91430E-02 -9.93574E-04 +3.43967E-02 +1.94756E-02
 +1.92093E-02 +3.39467E-02 -1.24351E-03 +3.76324E-02 -2.00091E-02 +2.95010E-02 -3.07879E-02 +1.26127E-02
 -3.01225E-02 -6.97412E-03 -1.85829E-02 -2.23360E-02 -5.38302E-04 -2.81076E-02 +1.73956E-02 -2.23470E-02
 +2.86860E-02 -7.19430E-03 +2.91709E-02 +1.18995E-02 +1.85060E-02 +2.80967E-02 +2.71075E-04 +3.55721E-02
 -1.92956E-02 +3.15470E-02 -3.34855E-02 +1.72495E-02 -3.74610E-02 -2.52912E-03 -2.99330E-02 -2.11189E-02
 -1.35906E-02 -3.23026E-02 +5.85799E-03 -3.24762E-02 +2.16933E-02 -2.18862E-02 +2.85325E-02 -4.51540E-03
 +2.41972E-02 +1.33333E-02 +1.04517E-02 +2.52556E-02 -7.64091E-03 +2.69859E-02 -2.35102E-02 +1.78780E-02
 -3.13871E-02 +1.11206E-03 -2.83203E-02 -1.74352E-02 -1.51968E-02 -3.12576E-02 +3.58177E-03 -3.54953E-02
 +2.16501E-02 -2.86239E-02 +3.29059E-02 -1.29714E-02 +3.36331E-02 +6.11312E-03 +2.37814E-02 +2.21379E-02
 +6.95880E-03 +2.97363E-02 -1.08512E-02 +2.65267E-02 -2.33930E-02 +1.39207E-02 -2.63246E-02 -3.39844E-03
 -1.87207E-02 -1.91356E-02 -3.37413E-03 -2.75965E-02 +1.42037E-02 -2.56770E-02 +2.77259E-02 -1.39365E-02
 +3.23331E-02 +3.61518E-03 +2.62860E-02 +2.09340E-02 +1.15587E-02 +3.20605E-02 -6.86667E-03 +3.31977E-02
 -2.27509E-02 +2.40220E-02 -3.07770E-02 +7.77516E-03 -2.83943E-02 -9.88705E-03 -1.66859E-02 -2.28817E-02
 +3.61341E-05 -2.68209E-02 +1.57600E-02 -2.05289E-02 +2.48862E-02 -6.42783E-03 +2.41817E-02 +1.03343E-02
 +1.38953E-02 +2.37025E-02 -2.35022E-03 +2.88388E-02 -1.88429E-02 +2.38078E-02 -2.97890E-02 +1.02393E-02
 -3.13366E-02 -7.25799E-03 -2.29095E-02 -2.27190E-02 -7.39050E-03 -3.09078E-02 +9.90301E-03 -2.91364E-02
 +2.30858E-02 -1.81828E-02 +2.77571E-02 -1.99520E-03 +2.25214E-02 +1.37076E-02 +9.45079E-03 +2.34437E-02
 -6.66608E-03 +2.38786E-02 -2.00172E-02 +1.49731E-02 -2.58062E-02 -2.64424E-05 -2.19232E-02 -1.57457E-02
 -9.66592E-03 -2.65742E-02 +6.73224E-03 -2.86284E-02 +2.15971E-02 -2.10984E-02 +2.98011E-02 -6.51467E-03
 +2.85475E-02 +1.01533E-02 +1.83299E-02 +2.32425E-02 +2.73849E-03 +2.83717E-02 -1.28125E-02 +2.39571E-02
 -2.29836E-02 +1.17412E-02 -2.43695E-02 -3.84168E-03 -1.66701E-02 -1.72340E-02 -2.76928E-03 -2.37032E-02
 +1.22968E-02 -2.09891E-02 +2.31162E-02 -1.00747E-02 +2.57950E-02 +5.17846E-03 +1.93096E-02 +1.93987E-02
 +5.84624E-03 +2.75894E-02 -9.98011E-03 +2.68705E-02 -2.27499E-02 +1.74700E-02 -2.81319E-02 +2.62483E-03
 -2.43833E-02 -1.25671E-02 -1.29365E-02 -2.29347E-02 +2.12452E-03 -2.50338E-02 +1.55090E-02 -1.83315E-02
 +2.25731E-02 -5.36676E-03 +2.09336E-02 +9.16193E-03 +1.12807E-02 +2.00545E-02 -2.88764E-03 +2.34296E-02
 -1.65092E-02 +1.80709E-02 -2.47371E-02 +5.83302E-03 -2.46314E-02 -9.02625E-03 -1.61727E-02 -2.13481E-02
 -2.25017E-03 -2.68772E-02 +1.23652E-02 -2.37388E-02 +2.26949E-02 -1.30736E-02 +2.52870E-02 +1.38207E-03
 +1.94047E-02 +1.46178E-02 +7.25902E-03 +2.21042E-02 -6.78784E-03 +2.13653E-02 -1.77621E-02 +1.28230E-02
 -2.18186E-02 -3.76316E-04 -1.75730E-02 -1.34836E-02 -6.56483E-03 -2.18186E-02 +7.30312E-03 -2.24043E-02
 +1.91452E-02 -1.49932E-02 +2.48052E-02 -2.13472E-03 +2.23005E-02 +1.17344E-02 +1.24974E-02 +2.18495E-02
 -1.21230E-03 +2.47800E-02 -1.41119E-02 +1.96121E-02 -2.18121E-02 +8.24533E-03 -2.17751E-02 -5.29345E-03
 -1.41806E-02 -1.62718E-02 -1.83726E-03 -2.09064E-02 +1.08215E-02 -1.76724E-02 +1.92987E-02 -7.81410E-03
 +2.06033E-02 +5.11414E-03 +1.42819E-02 +1.65088E-02 +2.55538E-03 +2.23326E-02 -1.04769E-02 +2.05188E-02
 -2.02819E-02 +1.16767E-02 -2.34757E-02 -1.14186E-03 -1.89928E-02 -1.35253E-02 -8.43746E-03 -2.12487E-02
 +4.49858E-03 -2.17421E-02 +1.53394E-02 -1.49690E-02 +2.03898E-02 -3.41414E-03 +1.80136E-02 +8.80652E-03
 +9.18259E-03 +1.73956E-02 -2.88828E-03 +1.93736E-02 -1.38840E-02 +1.41054E-02 -1.99051E-02 +3.49890E-03
 -1.88243E-02 -8.68347E-03 -1.10129E-02 -1.81537E-02 +8.10178E-04 -2.15978E-02 +1.25463E-02 -1.78225E-02
