 Created: 26-Mar-2021
 $NMID
 ID='D:\BASISSIMULATI'
 FMTDAT='(8E13.5)'
 VOLUME=   1.00000E+00
 TRAMP=   1.00000E+00
 $END
 +6.71910E-02 -4.48275E-05 +6.65533E-02 +8.27249E-03 +6.46604E-02 +1.63842E-02 +6.15635E-02 +2.40905E-02
 +5.73457E-02 +3.12031E-02 +5.21202E-02 +3.75502E-02 +4.60267E-02 +4.29812E-02 +3.92278E-02 +4.73714E-02
 +3.19038E-02 +5.06246E-02 +2.42482E-02 +5.26762E-02 +1.64616E-02 +5.34946E-02 +8.74652E-03 +5.30821E-02
 +1.30155E-03 +5.14743E-02 -5.68427E-03 +4.87392E-02 -1.20366E-02 +4.49747E-02 -1.76007E-02 +4.03059E-02
 -2.22455E-02 +3.48813E-02 -2.58671E-02 +2.88681E-02 -2.83915E-02 +2.24475E-02 -2.97764E-02 +1.58096E-02
 -3.00119E-02 +9.14749E-03 -2.91207E-02 +2.65190E-03 -2.71568E-02 -3.49411E-03 -2.42037E-02 -9.12045E-03
 -2.03716E-02 -1.40747E-02 -1.57940E-02 -1.82262E-02 -1.06232E-02 -2.14696E-02 -5.02602E-03 -2.37276E-02
 +8.21538E-04 -2.49526E-02 +6.73941E-03 -2.51281E-02 +1.25488E-02 -2.42681E-02 +1.80776E-02 -2.24167E-02
 +2.31650E-02 -1.96463E-02 +2.76664E-02 -1.60547E-02 +3.14572E-02 -1.17623E-02 +3.44366E-02 -6.90776E-03
 +3.65295E-02 -1.64356E-03 +3.76892E-02 +3.86852E-03 +3.78977E-02 +9.46265E-03 +3.71660E-02 +1.49739E-02
 +3.55334E-02 +2.02435E-02 +3.30655E-02 +2.51231E-02 +2.98523E-02 +2.94796E-02 +2.60044E-02 +3.31989E-02
 +2.16497E-02 +3.61888E-02 +1.69291E-02 +3.83819E-02 +1.19917E-02 +3.97372E-02 +6.98994E-03 +4.02409E-02
 +2.07524E-03 +3.99063E-02 -2.60729E-03 +3.87733E-02 -6.92312E-03 +3.69064E-02 -1.07525E-02 +3.43926E-02
 -1.39940E-02 +3.13379E-02 -1.65678E-02 +2.78641E-02 -1.84176E-02 +2.41044E-02 -1.95123E-02 +2.01989E-02
 -1.98472E-02 +1.62902E-02 -1.94429E-02 +1.25185E-02 -1.83455E-02 +9.01707E-03 -1.66238E-02 +5.90799E-03
 -1.43678E-02 +3.29822E-03 -1.16849E-02 +1.27612E-03 -8.69652E-03 -9.13419E-05 -5.53403E-03 -7.60696E-04
 -2.33425E-03 -7.13339E-04 +7.65041E-04 +4.39291E-05 +3.62972E-03 +1.47917E-03 +6.13374E-03 +3.53639E-03
 +8.16337E-03 +6.13738E-03 +9.62093E-03 +9.18431E-03 +1.04281E-02 +1.25629E-02 +1.05286E-02 +1.61461E-02
 +9.88995E-03 +1.97983E-02 +8.50506E-03 +2.33798E-02 +6.39220E-03 +2.67512E-02 +3.59481E-03 +2.97780E-02
 +1.80198E-04 +3.23354E-02 -3.76244E-03 +3.43117E-02 -8.12472E-03 +3.56126E-02 -1.27824E-02 +3.61645E-02
 -1.75990E-02 +3.59164E-02 -2.24306E-02 +3.48424E-02 -2.71297E-02 +3.29426E-02 -3.15500E-02 +3.02431E-02
 -3.55515E-02 +2.67959E-02 -3.90043E-02 +2.26774E-02 -4.17931E-02 +1.79859E-02 -4.38211E-02 +1.28396E-02
 -4.50127E-02 +7.37247E-03 -4.53167E-02 +1.73046E-03 -4.47075E-02 -3.93258E-03 -4.31869E-02 -9.45977E-03
 -4.07834E-02 -1.46958E-02 -3.75525E-02 -1.94916E-02 -3.35750E-02 -2.37092E-02 -2.89546E-02 -2.72256E-02
 -2.38152E-02 -2.99367E-02 -1.82977E-02 -3.17607E-02 -1.25555E-02 -3.26409E-02 -6.75040E-03 -3.25469E-02
 -1.04768E-03 -3.14766E-02 +4.38852E-03 -2.94560E-02 +9.40010E-03 -2.65386E-02 +1.38397E-02 -2.28045E-02
 +1.75750E-02 -1.83577E-02 +2.04926E-02 -1.33238E-02 +2.25018E-02 -7.84582E-03 +2.35367E-02 -2.08095E-03
 +2.35588E-02 +3.80446E-03 +2.25580E-02 +9.63939E-03 +2.05532E-02 +1.52531E-02 +1.75915E-02 +2.04800E-02
 +1.37473E-02 +2.51644E-02 +9.12028E-03 +2.91649E-02 +3.83241E-03 +3.23587E-02 -1.97532E-03 +3.46445E-02
 -8.14684E-03 +3.59464E-02 -1.45155E-02 +3.62151E-02 -2.09086E-02 +3.54299E-02 -2.71524E-02 +3.35990E-02
 -3.30770E-02 +3.07595E-02 -3.85211E-02 +2.69760E-02 -4.33363E-02 +2.23391E-02 -4.73916E-02 +1.69624E-02
 -5.05767E-02 +1.09799E-02 -5.28053E-02 +4.54130E-03 -5.40172E-02 -2.19147E-03 -5.41800E-02 -9.04927E-03
 -5.32895E-02 -1.58604E-02 -5.13705E-02 -2.24553E-02 -4.84748E-02 -2.86716E-02 -4.46805E-02 -3.43582E-02
 -4.00892E-02 -3.93796E-02 -3.48229E-02 -4.36198E-02 -2.90206E-02 -4.69848E-02 -2.28340E-02 -4.94057E-02
 -1.64235E-02 -5.08399E-02 -9.95328E-03 -5.12721E-02 -3.58656E-03 -5.07147E-02 +2.51866E-03 -4.92067E-02
 +8.21426E-03 -4.68126E-02 +1.33659E-02 -4.36200E-02 +1.78569E-02 -3.97372E-02 +2.15910E-02 -3.52893E-02
 +2.44949E-02 -3.04147E-02 +2.65202E-02 -2.52609E-02 +2.76442E-02 -1.99802E-02 +2.78704E-02 -1.47250E-02
 +2.72274E-02 -9.64368E-03 +2.57684E-02 -4.87619E-03 +2.35688E-02 -5.50186E-04 +2.07236E-02 +3.22248E-03
 +1.73445E-02 +6.34878E-03 +1.35562E-02 +8.75689E-03 +9.49235E-03 +1.03979E-02 +5.29174E-03 +1.12470E-02
 +1.09385E-03 +1.13035E-02 -2.96528E-03 +1.05906E-02 -6.75701E-03 +9.15432E-03 -1.01639E-02 +7.06153E-03
 -1.30829E-02 +4.39760E-03 -1.54286E-02 +1.26347E-03 -1.71348E-02 -2.22766E-03 -1.81571E-02 -5.95411E-03
 -1.84730E-02 -9.78951E-03 -1.80828E-02 -1.36068E-02 -1.70088E-02 -1.72824E-02 -1.52945E-02 -2.06995E-02
 -1.30027E-02 -2.37519E-02 -1.02133E-02 -2.63475E-02 -7.02043E-03 -2.84101E-02 -3.52937E-03 -2.98822E-02
 +1.47132E-04 -3.07265E-02 +3.89241E-03 -3.09265E-02 +7.58972E-03 -3.04868E-02 +1.11260E-02 -2.94328E-02
 +1.43953E-02 -2.78093E-02 +1.73023E-02 -2.56791E-02 +1.97652E-02 -2.31207E-02 +2.17180E-02 -2.02254E-02
 +2.31128E-02 -1.70943E-02 +2.39209E-02 -1.38350E-02 +2.41336E-02 -1.05578E-02 +2.37624E-02 -7.37233E-03
 +2.28385E-02 -4.38372E-03 +2.14114E-02 -1.68942E-03 +1.95472E-02 +6.24078E-04 +1.73267E-02 +2.48399E-03
 +1.48423E-02 +3.83358E-03 +1.21950E-02 +4.63394E-03 +9.49114E-03 +4.86523E-03 +6.83876E-03 +4.52730E-03
 +4.34424E-03 +3.63966E-03 +2.10870E-03 +2.24085E-03 +2.24709E-04 +3.87205E-04 -1.22677E-03 -1.84898E-03
 -2.17902E-03 -4.38177E-03 -2.58179E-03 -7.11429E-03 -2.40302E-03 -9.94187E-03 -1.62992E-03 -1.27554E-02
 -2.69494E-04 -1.54447E-02 +1.65153E-03 -1.79024E-02 +4.08749E-03 -2.00267E-02 +6.97503E-03 -2.17256E-02
 +1.02351E-02 -2.29189E-02 +1.37751E-02 -2.35415E-02 +1.74920E-02 -2.35455E-02 +2.12752E-02 -2.29014E-02
 +2.50100E-02 -2.15998E-02 +2.85813E-02 -1.96512E-02 +3.18766E-02 -1.70864E-02 +3.47903E-02 -1.39555E-02
 +3.72261E-02 -1.03264E-02 +3.91008E-02 -6.28335E-03 +4.03462E-02 -1.92389E-03 +4.09118E-02 +2.64343E-03
 +4.07665E-02 +7.30246E-03 +3.98989E-02 +1.19328E-02 +3.83190E-02 +1.64135E-02 +3.60569E-02 +2.06263E-02
 +3.31628E-02 +2.44593E-02 +2.97053E-02 +2.78107E-02 +2.57697E-02 +3.05910E-02 +2.14554E-02 +3.27265E-02
 +1.68733E-02 +3.41609E-02 +1.21423E-02 +3.48575E-02 +7.38642E-03 +3.47999E-02 +2.73073E-03 +3.39930E-02
 -1.70199E-03 +3.24626E-02 -5.79481E-03 +3.02548E-02 -9.44006E-03 +2.74349E-02 -1.25424E-02 +2.40851E-02
 -1.50215E-02 +2.03028E-02 -1.68146E-02 +1.61974E-02 -1.78778E-02 +1.18874E-02 -1.81878E-02 +7.49675E-03
 -1.77425E-02 +3.15178E-03 -1.65605E-02 -1.02275E-03 -1.46814E-02 -4.90704E-03 -1.21638E-02 -8.38962E-03
 -9.08431E-03 -1.13705E-02 -5.53470E-03 -1.37641E-02 -1.61978E-03 -1.55011E-02 +2.54589E-03 -1.65312E-02
 +6.84116E-03 -1.68236E-02 +1.11418E-02 -1.63682E-02 +1.53239E-02 -1.51758E-02 +1.92675E-02 -1.32775E-02
 +2.28598E-02 -1.07238E-02 +2.59984E-02 -7.58311E-03 +2.85938E-02 -3.93949E-03 +3.05725E-02 +1.09609E-04
 +3.18779E-02 +4.45629E-03 +3.24729E-02 +8.98532E-03 +3.23397E-02 +1.35774E-02 +3.14809E-02 +1.81127E-02
 +2.99187E-02 +2.24740E-02 +2.76946E-02 +2.65501E-02 +2.48673E-02 +3.02388E-02 +2.15114E-02 +3.34499E-02
 +1.77149E-02 +3.61073E-02 +1.35768E-02 +3.81511E-02 +9.20353E-03 +3.95390E-02 +4.70650E-03 +4.02475E-02
 +1.98498E-04 +4.02719E-02 -4.20941E-03 +3.96264E-02 -8.41106E-03 +3.83436E-02 -1.23081E-02 +3.64727E-02
 -1.58128E-02 +3.40783E-02 -1.88501E-02 +3.12382E-02 -2.13600E-02 +2.80407E-02 -2.32986E-02 +2.45823E-02
 -2.46392E-02 +2.09642E-02 -2.53731E-02 +1.72897E-02 -2.55088E-02 +1.36610E-02 -2.50722E-02 +1.01763E-02
 -2.41050E-02 +6.92678E-03 -2.26633E-02 +3.99426E-03 -2.08158E-02 +1.44891E-03 -1.86411E-02 -6.52673E-04
 -1.62257E-02 -2.26881E-03 -1.36609E-02 -3.37376E-03 -1.10398E-02 -3.95812E-03 -8.45499E-03 -4.02883E-03
 -5.99520E-03 -3.60862E-03 -3.74295E-03 -2.73502E-03 -1.77207E-03 -1.45891E-03 -1.45598E-04 +1.57308E-04
 +1.08599E-03 +2.04183E-03 +1.88608E-03 +4.11587E-03 +2.23285E-03 +6.29625E-03 +2.11965E-03 +8.49806E-03
 +1.55499E-03 +1.06374E-02 +5.61995E-04 +1.26338E-02 -8.22561E-04 +1.44131E-02 -2.54961E-03 +1.59093E-02
 -4.55956E-03 +1.70669E-02 -6.78433E-03 +1.78420E-02 -9.14961E-03 +1.82042E-02 -1.15774E-02 +1.81368E-02
 -1.39884E-02 +1.76376E-02 -1.63049E-02 +1.67185E-02 -1.84527E-02 +1.54051E-02 -2.03640E-02 +1.37358E-02
 -2.19792E-02 +1.17602E-02 -2.32491E-02 +9.53764E-03 -2.41358E-02 +7.13514E-03 -2.46143E-02 +4.62508E-03
 -2.46733E-02 +2.08292E-03 -2.43150E-02 -4.15250E-04 -2.35553E-02 -2.79523E-03 -2.24232E-02 -4.98703E-03
 -2.09597E-02 -6.92715E-03 -1.92165E-02 -8.56057E-03 -1.72542E-02 -9.84253E-03 -1.51405E-02 -1.07399E-02
 -1.29478E-02 -1.12322E-02 -1.07511E-02 -1.13124E-02 -8.62542E-03 -1.09869E-02 -6.64348E-03 -1.02755E-02
 -4.87335E-03 -9.21065E-03 -3.37627E-03 -7.83651E-03 -2.20473E-03 -6.20755E-03 -1.40077E-03 -4.38682E-03
 -9.94617E-04 -2.44401E-03 -1.00371E-03 -4.53218E-04 -1.43209E-03 +1.50932E-03 -2.27028E-03 +3.36762E-03
 -3.49543E-03 +5.04834E-03 -5.07209E-03 +6.48306E-03 -6.95313E-03 +7.61043E-03 -9.08124E-03 +8.37810E-03
 -1.13906E-02 +8.74438E-03 -1.38088E-02 +8.67955E-03 -1.62591E-02 +8.16688E-03 -1.86628E-02 +7.20316E-03
 -2.09414E-02 +5.79887E-03 -2.30192E-02 +3.97798E-03 -2.48253E-02 +1.77725E-03 -2.62961E-02 -7.54776E-04
 -2.73770E-02 -3.55916E-03 -2.80242E-02 -6.56830E-03 -2.82057E-02 -9.70785E-03 -2.79027E-02 -1.28989E-02
 -2.71103E-02 -1.60603E-02 -2.58369E-02 -1.91109E-02 -2.41050E-02 -2.19721E-02 -2.19499E-02 -2.45701E-02
 -1.94190E-02 -2.68379E-02 -1.65702E-02 -2.87173E-02 -1.34706E-02 -3.01608E-02 -1.01943E-02 -3.11326E-02
 -6.82035E-03 -3.16099E-02 -3.43063E-03 -3.15836E-02 -1.07243E-04 -3.10582E-02 +3.06962E-03 -3.00521E-02
 +6.02405E-03 -2.85965E-02 +8.68652E-03 -2.67350E-02 +1.09959E-02 -2.45223E-02 +1.29010E-02 -2.20221E-02
 +1.43624E-02 -1.93056E-02 +1.53528E-02 -1.64497E-02 +1.58585E-02 -1.35344E-02 +1.58792E-02 -1.06404E-02
 +1.54281E-02 -7.84738E-03 +1.45315E-02 -5.23126E-03 +1.32278E-02 -2.86222E-03 +1.15664E-02 -8.02804E-04
 +9.60640E-03 +8.93871E-04 +7.41448E-03 +2.18549E-03 +5.06320E-03 +3.04169E-03 +2.62883E-03 +3.44478E-03
 +1.89124E-04 +3.39015E-03 -2.17890E-03 +2.88626E-03 -4.40113E-03 +1.95428E-03 -6.40844E-03 +6.27363E-04
