 Created: 26-Mar-2021
 $NMID
 ID='D:\BASISSIMULATI'
 FMTDAT='(8E13.5)'
 VOLUME=   1.00000E+00
 TRAMP=   1.00000E+00
 $END
 +4.68028E-02 +2.61508E-04 +4.44751E-02 +1.35746E-02 +3.80245E-02 +2.53480E-02 +2.82408E-02 +3.42779E-02
 +1.63183E-02 +3.94229E-02 +3.70004E-03 +4.03237E-02 -8.10929E-03 +3.70581E-02 -1.77384E-02 +3.02272E-02
 -2.41259E-02 +2.08720E-02 -2.66549E-02 +1.03328E-02 -2.52293E-02 +7.03267E-05 -2.02798E-02 -8.52782E-03
 -1.27010E-02 -1.43304E-02 -3.72781E-03 -1.66101E-02 +5.23341E-03 -1.51368E-02 +1.27944E-02 -1.02048E-02
 +1.77717E-02 -2.58907E-03 +1.93447E-02 +6.56071E-03 +1.71654E-02 +1.58764E-02 +1.14036E-02 +2.39557E-02
 +2.72457E-03 +2.95497E-02 -7.79972E-03 +3.17301E-02 -1.88327E-02 +3.00125E-02 -2.89491E-02 +2.44214E-02
 -3.68226E-02 +1.54870E-02 -4.13987E-02 +4.17645E-03 -4.20314E-02 -8.23262E-03 -3.85656E-02 -2.03175E-02
 -3.13545E-02 -3.06942E-02 -2.12115E-02 -3.81940E-02 -9.30139E-03 -4.20110E-02 +3.01126E-03 -4.18003E-02
 +1.43392E-02 -3.77153E-02 +2.34492E-02 -3.03802E-02 +2.94166E-02 -2.08015E-02 +3.17373E-02 -1.02311E-02
 +3.03826E-02 -1.47997E-07 +2.57923E-02 +8.65457E-03 +1.88052E-02 +1.47489E-02 +1.05403E-02 +1.76732E-02
 +2.24227E-03 +1.72630E-02 -4.88558E-03 +1.38098E-02 -9.84017E-03 +8.01134E-03 -1.19479E-02 +8.69402E-04
 -1.09477E-02 -6.45032E-03 -7.01824E-03 -1.27778E-02 -7.46450E-04 -1.70956E-02 +6.95769E-03 -1.86730E-02
 +1.49872E-02 -1.71595E-02 +2.21879E-02 -1.26270E-02 +2.75125E-02 -5.55524E-03 +3.01567E-02 +3.23621E-03
 +2.96626E-02 +1.26988E-02 +2.59732E-02 +2.16946E-02 +1.94354E-02 +2.91438E-02 +1.07488E-02 +3.41632E-02
 +8.70855E-04 +3.61747E-02 -9.10974E-03 +3.49735E-02 -1.81133E-02 +3.07450E-02 -2.52052E-02 +2.40321E-02
 -2.97088E-02 +1.56570E-02 -3.12830E-02 +6.60860E-03 -2.99536E-02 -2.08730E-03 -2.60962E-02 -9.49895E-03
 -2.03749E-02 -1.49031E-02 -1.36460E-02 -1.78686E-02 -6.83919E-03 -1.82990E-02 -8.34437E-04 -1.64301E-02
 +3.65047E-03 -1.27846E-02 +6.14696E-03 -8.09003E-03 +6.48670E-03 -3.17403E-03 +4.81113E-03 +1.15068E-03
 +1.53981E-03 +4.19443E-03 -2.69689E-03 +5.47867E-03 -7.15048E-03 +4.79280E-03 -1.10594E-02 +2.21352E-03
 -1.37518E-02 -1.91459E-03 -1.47334E-02 -7.03325E-03 -1.37479E-02 -1.24509E-02 -1.08049E-02 -1.74377E-02
 -6.17086E-03 -2.13226E-02 -3.28094E-04 -2.35783E-02 +6.09401E-03 -2.38855E-02 +1.24035E-02 -2.21665E-02
 +1.79352E-02 -1.85867E-02 +2.21328E-02 -1.35254E-02 +2.46132E-02 -7.51894E-03 +2.52059E-02 -1.18783E-03
 +2.39629E-02 +4.84398E-03 +2.11396E-02 +1.00258E-02 +1.71511E-02 +1.39434E-02 +1.25105E-02 +1.63606E-02
 +7.75770E-03 +1.72359E-02 +3.39081E-03 +1.67127E-02 -1.93951E-04 +1.50862E-02 -2.74401E-03 +1.27531E-02
 -4.17067E-03 +1.01509E-02 -4.54623E-03 +7.69721E-03 -4.07986E-03 +5.73529E-03 -3.07707E-03 +4.49432E-03
 -1.88917E-03 +4.06762E-03 -8.60426E-04 +4.41113E-03 -2.80144E-04 +5.36063E-03 -3.45939E-04 +6.66409E-03
 -1.14229E-03 +8.02360E-03 -2.63622E-03 +9.14044E-03 -4.68944E-03 +9.75674E-03 -7.08382E-03 +9.68848E-03
 -9.55584E-03 +8.84577E-03 -1.18343E-02 +7.23875E-03 -1.36760E-02 +4.96957E-03 -1.48944E-02 +2.21264E-03
 -1.53780E-02 -8.12786E-04 -1.50969E-02 -3.87333E-03 -1.40980E-02 -6.75066E-03 -1.24901E-02 -9.26530E-03
 -1.04228E-02 -1.12920E-02 -8.06342E-03 -1.27660E-02 -5.57373E-03 -1.36791E-02 -3.09272E-03 -1.40696E-02
 -7.25118E-04 -1.40063E-02 +1.46220E-03 -1.35714E-02 +3.43685E-03 -1.28451E-02 +5.19217E-03 -1.18939E-02
 +6.73548E-03 -1.07649E-02 +8.07628E-03 -9.48619E-03 +9.21667E-03 -8.07177E-03 +1.01461E-02 -6.53062E-03
 +1.08414E-02 -4.87638E-03 +1.12713E-02 -3.13584E-03 +1.14054E-02 -1.35379E-03 +1.12246E-02 +4.06885E-04
 +1.07300E-02 +2.07033E-03 +9.95073E-03 +3.55728E-03 +8.94477E-03 +4.79740E-03 +7.79572E-03 +5.74209E-03
 +6.60311E-03 +6.37500E-03 +5.46857E-03 +6.71824E-03 +4.47988E-03 +6.83228E-03 +3.69546E-03 +6.80909E-03
 +3.13226E-03 +6.75905E-03 +2.75962E-03 +6.79318E-03 +2.50049E-03 +7.00352E-03 +2.24082E-03 +7.44460E-03
 +1.84599E-03 +8.11942E-03 +1.18247E-03 +8.97253E-03 +1.41430E-04 +9.89194E-03 -1.33916E-03 +1.07204E-02
 -3.25765E-03 +1.12752E-02 -5.54010E-03 +1.13734E-02 -8.04181E-03 +1.08601E-02 -1.05597E-02 +9.63480E-03
 -1.28545E-02 +7.67246E-03 -1.46795E-02 +5.03479E-03 -1.58134E-02 +1.87074E-03 -1.60916E-02 -1.59556E-03
 -1.54315E-02 -5.08794E-03 -1.38484E-02 -8.30989E-03 -1.14596E-02 -1.09807E-02 -8.47355E-03 -1.28715E-02
 -5.16771E-03 -1.38354E-02 -1.85564E-03 -1.38285E-02 +1.15174E-03 -1.29176E-02 +3.58558E-03 -1.12730E-02
 +5.25403E-03 -9.14793E-03 +6.06758E-03 -6.84582E-03 +6.05114E-03 -4.68050E-03 +5.34083E-03 -2.93398E-03
 +4.16560E-03 -1.81799E-03 +2.81578E-03 -1.44440E-03 +1.60268E-03 -1.80890E-03 +8.14576E-04 -2.79041E-03
 +6.75096E-04 -4.16668E-03 +1.30972E-03 -5.64420E-03 +2.72523E-03 -6.89862E-03 +4.80519E-03 -7.62031E-03
 +7.32233E-03 -7.55895E-03 +9.96644E-03 -6.56094E-03 +1.23844E-02 -4.59448E-03 +1.42270E-02 -1.75858E-03
 +1.51960E-02 +1.72534E-03 +1.50858E-02 +5.53868E-03 +1.38136E-02 +9.30420E-03 +1.14330E-02 +1.26333E-02
 +8.13102E-03 +1.51753E-02 +4.20635E-03 +1.66629E-02 +3.36550E-05 +1.69466E-02 -3.98293E-03 +1.60147E-02
 -7.46022E-03 +1.39948E-02 -1.00839E-02 +1.11379E-02 -1.16475E-02 +7.78587E-03 -1.20772E-02 +4.32727E-03
 -1.14394E-02 +1.14718E-03 -9.92955E-03 -1.42215E-03 -7.84440E-03 -3.14348E-03 -5.54073E-03 -3.90379E-03
 -3.38663E-03 -3.72683E-03 -1.71165E-03 -2.76723E-03 -7.62449E-04 -1.28709E-03 -6.70009E-04 +3.81645E-04
 -1.43262E-03 +1.88411E-03 -2.91701E-03 +2.89225E-03 -4.87725E-03 +3.15074E-03 -6.98895E-03 +2.51284E-03
 -8.89401E-03 +9.61564E-04 -1.02499E-02 -1.38679E-03 -1.07770E-02 -4.29710E-03 -1.02971E-02 -7.44584E-03
 -8.75891E-03 -1.04633E-02 -6.24623E-03 -1.29823E-02 -2.96840E-03 -1.46858E-02 +7.65786E-04 -1.53488E-02
 +4.58727E-03 -1.48674E-02 +8.11355E-03 -1.32721E-02 +1.09969E-02 -1.07233E-02 +1.29680E-02 -7.49028E-03
 +1.38682E-02 -3.91603E-03 +1.36680E-02 -3.72994E-04 +1.24678E-02 +2.78435E-03 +1.04819E-02 +5.26379E-03
 +8.00775E-03 +6.87074E-03 +5.38570E-03 +7.53019E-03 +2.95294E-03 +7.29241E-03 +9.99458E-04 +6.32209E-03
 -2.68948E-04 +4.87244E-03 -7.55603E-04 +3.24812E-03 -4.82761E-04 +1.76204E-03 +4.14818E-04 +6.91914E-04
 +1.71137E-03 +2.42445E-04 +3.12357E-03 +5.18035E-04 +4.35131E-03 +1.50959E-03 +5.12004E-03 +3.09695E-03
 +5.21925E-03 +5.06637E-03 +4.53169E-03 +7.14053E-03 +3.04971E-03 +9.01681E-03 +8.76643E-04 +1.04086E-02
 -1.78670E-03 +1.10844E-02 -4.66855E-03 +1.08983E-02 -7.46180E-03 +9.81035E-03 -9.86404E-03 +7.89092E-03
 -1.16166E-02 +5.31183E-03 -1.25371E-02 +2.32359E-03 -1.25420E-02 -7.77252E-04 -1.16558E-02 -3.68614E-03
 -1.00052E-02 -6.12910E-03 -7.80154E-03 -7.89653E-03 -5.31121E-03 -8.86787E-03 -2.82011E-03 -9.02414E-03
 -5.96361E-04 -8.44684E-03 +1.14383E-03 -7.30355E-03 +2.26248E-03 -5.82267E-03 +2.71512E-03 -4.26054E-03
 +2.55313E-03 -2.86582E-03 +1.91317E-03 -1.84563E-03 +9.95260E-04 -1.33830E-03 +3.27899E-05 -1.39589E-03
 -7.41457E-04 -1.97900E-03 -1.12856E-03 -2.96414E-03 -9.91515E-04 -4.16250E-03 -2.74473E-04 -5.34751E-03
 +9.89477E-04 -6.28720E-03 +2.68270E-03 -6.77708E-03 +4.61897E-03 -6.66890E-03 +6.56863E-03 -5.89174E-03
 +8.28953E-03 -4.46241E-03 +9.55951E-03 -2.48405E-03 +1.02060E-02 -1.33164E-04 +1.01291E-02 +2.36306E-03
 +9.31447E-03 +4.75603E-03 +7.83549E-03 +6.80766E-03 +5.84325E-03 +8.32069E-03 +3.54683E-03 +9.16336E-03
 +1.18608E-03 +9.28530E-03 -9.99373E-04 +8.72255E-03 -2.80060E-03 +7.59125E-03 -4.06544E-03 +6.07085E-03
 -4.71675E-03 +4.37931E-03 -4.76042E-03 +2.74356E-03 -4.28233E-03 +1.36919E-03 -3.43463E-03 +4.13465E-04
 -2.41343E-03 -3.48065E-05 -1.43075E-03 +3.39880E-05 -6.84746E-04 +5.50402E-04 -3.31998E-04 +1.37675E-03
 -4.65667E-04 +2.32712E-03 -1.10236E-03 +3.19390E-03 -2.17946E-03 +3.77718E-03 -3.56321E-03 +3.91315E-03
 -5.06651E-03 +3.49772E-03 -6.47401E-03 +2.50209E-03 -7.57122E-03 +9.78398E-04 -8.17373E-03 -9.45551E-04
 -8.15269E-03 -3.08164E-03 -7.45320E-03 -5.20498E-03 -6.10312E-03 -7.08257E-03 -4.21108E-03 -8.50326E-03
 -1.95394E-03 -9.30518E-03 +4.44728E-04 -9.39702E-03 +2.74239E-03 -8.77030E-03 +4.70794E-03 -7.50101E-03
 +6.15080E-03 -5.74046E-03 +6.94491E-03 -3.69625E-03 +7.04455E-03 -1.60598E-03 +6.48978E-03 +2.92936E-04
 +5.40087E-03 +1.79364E-03 +3.96230E-03 +2.74620E-03 +2.39840E-03 +3.07668E-03 +9.43719E-04 +2.79640E-03
 -1.87992E-04 +2.00004E-03 -8.32258E-04 +8.52808E-04 -8.95989E-04 -4.31676E-04 -3.70347E-04 -1.62008E-03
 +6.67402E-04 -2.49087E-03 +2.06339E-03 -2.86456E-03 +3.60688E-03 -2.62877E-03 +5.05777E-03 -1.75478E-03
 +6.17838E-03 -3.03203E-04 +6.76542E-03 +1.58189E-03 +6.67797E-03 +3.68999E-03 +5.85785E-03 +5.77014E-03
 +4.33954E-03 +7.56269E-03 +2.24824E-03 +8.83273E-03 -2.13798E-04 +9.40101E-03 -2.79117E-03 +9.16824E-03
 -5.20647E-03 +8.12956E-03 -7.19480E-03 +6.37710E-03 -8.53726E-03 +4.09031E-03 -9.08912E-03 +1.51490E-03
 -8.79891E-03 -1.06694E-03 -7.71600E-03 -3.37135E-03 -5.98538E-03 -5.14837E-03 -3.83020E-03 -6.21347E-03
 -1.52422E-03 -6.47134E-03 +6.42582E-04 -5.92832E-03 +2.40078E-03 -4.69217E-03 +3.53608E-03 -2.95876E-03
 +3.91714E-03 -9.87329E-04 +3.51307E-03 +9.32666E-04 +2.39818E-03 +2.51893E-03 +7.43160E-04 +3.53325E-03
 -1.20625E-03 +3.81312E-03 -3.16055E-03 +3.29403E-03 -4.82391E-03 +2.01931E-03 -5.93291E-03 +1.36177E-04
 -6.29162E-03 -2.12171E-03 -5.79852E-03 -4.46317E-03 -4.46168E-03 -6.57627E-03 -2.39992E-03 -8.16837E-03
 +1.70125E-04 -9.00432E-03 +2.95982E-03 -8.93791E-03 +5.64394E-03 -7.93238E-03 +7.90133E-03 -6.06726E-03
 +9.45570E-03 -3.53046E-03 +1.01112E-02 -5.96455E-04 +9.77841E-03 +2.40690E-03 +8.48696E-03 +5.13873E-03
 +6.38341E-03 +7.28766E-03 +3.71411E-03 +8.61113E-03 +7.95332E-04 +8.96637E-03 -2.02580E-03 +8.32906E-03
 -4.41465E-03 +6.79717E-03 -6.09117E-03 +4.57931E-03 -6.86547E-03 +1.96896E-03 -6.66211E-03 -6.92222E-04
 -5.53018E-03 -3.05755E-03 -3.63743E-03 -4.81931E-03 -1.24943E-03 -5.74812E-03 +1.30395E-03 -5.72257E-03
 +3.67048E-03 -4.74528E-03 +5.52055E-03 -2.94321E-03 +6.58958E-03 -5.52184E-04 +6.71246E-03 +2.11262E-03
 +5.84541E-03 +4.69652E-03 +4.07262E-03 +6.85037E-03 +1.59657E-03 +8.27529E-03 -1.28673E-03 +8.76121E-03
