 Created: 26-Mar-2021
 $NMID
 ID='D:\BASISSIMULATI'
 FMTDAT='(8E13.5)'
 VOLUME=   1.00000E+00
 TRAMP=   1.00000E+00
 $END
 +9.94639E-02 +2.40337E-05 +8.57870E-02 +4.59971E-02 +5.01067E-02 +7.67778E-02 +4.96230E-03 +8.29915E-02
 -3.42243E-02 +6.42258E-02 -5.49153E-02 +2.88987E-02 -5.19685E-02 -9.22973E-03 -2.91644E-02 -3.64659E-02
 +2.76843E-03 -4.43431E-02 +3.07410E-02 -3.25072E-02 +4.45947E-02 -8.25613E-03 +4.09446E-02 +1.69626E-02
 +2.40655E-02 +3.25706E-02 +3.55166E-03 +3.32790E-02 -1.01798E-02 +2.10887E-02 -1.06004E-02 +4.08582E-03
 +2.01201E-03 -7.40355E-03 +2.06856E-02 -5.62647E-03 +3.48481E-02 +1.08890E-02 +3.50920E-02 +3.63434E-02
 +1.75835E-02 +5.98659E-02 -1.37877E-02 +7.00334E-02 -4.84997E-02 +5.98491E-02 -7.33717E-02 +3.00873E-02
 -7.78545E-02 -1.04458E-02 -5.84913E-02 -4.79470E-02 -2.07007E-02 -6.88059E-02 +2.29129E-02 -6.49111E-02
 +5.71269E-02 -3.69512E-02 +6.97846E-02 +5.63346E-03 +5.63724E-02 +4.80713E-02 +2.16952E-02 +7.57322E-02
 -2.20033E-02 +7.95216E-02 -5.97191E-02 +5.91006E-02 -7.93134E-02 +2.27114E-02 -7.58803E-02 -1.62625E-02
 -5.31828E-02 -4.45781E-02 -2.16778E-02 -5.41361E-02 +5.98150E-03 -4.47354E-02 +2.00868E-02 -2.35598E-02
 +1.75661E-02 -1.71518E-03 +2.77093E-03 +1.06679E-02 -1.48729E-02 +8.70438E-03 -2.52854E-02 -5.36952E-03
 -2.23125E-02 -2.34534E-02 -6.51330E-03 -3.53923E-02 +1.50295E-02 -3.36890E-02 +3.18023E-02 -1.70892E-02
 +3.45506E-02 +8.51595E-03 +1.95790E-02 +3.23098E-02 -9.19280E-03 +4.30136E-02 -4.13536E-02 +3.37616E-02
 -6.39307E-02 +5.34699E-03 -6.65783E-02 -3.35672E-02 -4.59233E-02 -6.94524E-02 -7.27444E-03 -8.90028E-02
 +3.70624E-02 -8.43076E-02 +7.22600E-02 -5.60431E-02 +8.65071E-02 -1.33892E-02 +7.54395E-02 +2.93287E-02
 +4.37284E-02 +5.79704E-02 +3.21284E-03 +6.38021E-02 -3.16667E-02 +4.65778E-02 -4.93186E-02 +1.43133E-02
 -4.51916E-02 -2.00949E-02 -2.30984E-02 -4.40040E-02 +6.76712E-03 -4.98420E-02 +3.22317E-02 -3.77074E-02
 +4.41193E-02 -1.47852E-02 +3.97729E-02 +8.08091E-03 +2.37291E-02 +2.11653E-02 +5.34810E-03 +1.99735E-02
 -5.53393E-03 +6.98880E-03 -3.05789E-03 -9.64142E-03 +1.19963E-02 -1.98835E-02 +3.24711E-02 -1.64323E-02
 +4.79159E-02 +1.81511E-03 +4.92002E-02 +2.89331E-02 +3.27077E-02 +5.41884E-02 +2.31513E-03 +6.64340E-02
 -3.17430E-02 +5.88744E-02 -5.67346E-02 +3.22172E-02 -6.24953E-02 -5.14532E-03 -4.56507E-02 -4.00809E-02
 -1.12583E-02 -5.96729E-02 +2.88487E-02 -5.62341E-02 +6.04135E-02 -3.03796E-02 +7.21122E-02 +9.08435E-03
 +5.98137E-02 +4.84322E-02 +2.80703E-02 +7.41758E-02 -1.17298E-02 +7.80807E-02 -4.57953E-02 +6.00859E-02
 -6.31786E-02 +2.80178E-02 -5.97647E-02 -5.72518E-03 -3.94657E-02 -2.91417E-02 -1.22225E-02 -3.52380E-02
 +1.02934E-02 -2.44547E-02 +1.94819E-02 -3.99970E-03 +1.31544E-02 +1.55466E-02 -3.91529E-03 +2.48849E-02
 -2.23845E-02 +1.99498E-02 -3.26195E-02 +3.52347E-03 -2.90225E-02 -1.61335E-02 -1.25727E-02 -2.90268E-02
 +9.49888E-03 -2.79472E-02 +2.67761E-02 -1.18377E-02 +3.01877E-02 +1.34419E-02 +1.60968E-02 +3.73208E-02
 -1.17884E-02 +4.88234E-02 -4.35399E-02 +4.12154E-02 -6.67774E-02 +1.50612E-02 -7.15883E-02 -2.16087E-02
 -5.46146E-02 -5.61605E-02 -2.06299E-02 -7.61508E-02 +1.90726E-02 -7.41595E-02 +5.08818E-02 -5.07319E-02
 +6.40169E-02 -1.42452E-02 +5.45940E-02 +2.22611E-02 +2.70121E-02 +4.60415E-02 -7.87032E-03 +4.94312E-02
 -3.70170E-02 +3.25864E-02 -5.02349E-02 +3.13396E-03 -4.39420E-02 -2.70742E-02 -2.22191E-02 -4.67492E-02
 +5.20453E-03 -4.95549E-02 +2.71421E-02 -3.63480E-02 +3.55665E-02 -1.44248E-02 +2.87612E-02 +5.84101E-03
 +1.17458E-02 +1.55246E-02 -6.14036E-03 +1.09386E-02 -1.54414E-02 -4.88348E-03 -1.07846E-02 -2.36072E-02
 +6.69700E-03 -3.53001E-02 +2.97437E-02 -3.28494E-02 +4.80062E-02 -1.52230E-02 +5.24790E-02 +1.18183E-02
 +3.94814E-02 +3.78961E-02 +1.25037E-02 +5.22155E-02 -1.88940E-02 +4.80777E-02 -4.27355E-02 +2.58407E-02
 -4.93845E-02 -6.92127E-03 -3.54812E-02 -3.81783E-02 -5.45400E-03 -5.60562E-02 +3.00379E-02 -5.34676E-02
 +5.81369E-02 -3.09126E-02 +6.87051E-02 +3.67719E-03 +5.81810E-02 +3.79932E-02 +3.08529E-02 +6.00886E-02
 -2.93611E-03 +6.29180E-02 -3.09078E-02 +4.68870E-02 -4.36298E-02 +1.94341E-02 -3.80506E-02 -8.13657E-03
 -1.84046E-02 -2.52549E-02 +5.81525E-03 -2.62419E-02 +2.39336E-02 -1.23610E-02 +2.85173E-02 +9.02016E-03
 +1.83334E-02 +2.77519E-02 -1.34685E-03 +3.52930E-02 -2.11800E-02 +2.83320E-02 -3.18680E-02 +1.01424E-02
 -2.82243E-02 -1.08771E-02 -1.14793E-02 -2.48517E-02 +1.11443E-02 -2.47348E-02 +2.94226E-02 -9.45941E-03
 +3.44529E-02 +1.53975E-02 +2.25129E-02 +3.97456E-02 -3.15780E-03 +5.30590E-02 -3.34269E-02 +4.87387E-02
 -5.67937E-02 +2.69676E-02 -6.39610E-02 -5.13689E-03 -5.16103E-02 -3.61718E-02 -2.38395E-02 -5.48598E-02
 +9.33397E-03 -5.44648E-02 +3.58252E-02 -3.54406E-02 +4.61565E-02 -5.25199E-03 +3.70935E-02 +2.45587E-02
 +1.28016E-02 +4.28815E-02 -1.69170E-02 +4.33216E-02 -4.05728E-02 +2.65540E-02 -4.95219E-02 -1.59896E-04
 -4.12639E-02 -2.60560E-02 -2.02022E-02 -4.12685E-02 +4.38774E-03 -4.07519E-02 +2.23108E-02 -2.61450E-02
 +2.66770E-02 -4.85697E-03 +1.66677E-02 +1.32014E-02 -2.27490E-03 +1.98610E-02 -2.08783E-02 +1.21444E-02
 -3.00569E-02 -6.50361E-03 -2.48321E-02 -2.77020E-02 -6.51804E-03 -4.17097E-02 +1.77408E-02 -4.16000E-02
 +3.78982E-02 -2.62916E-02 +4.51984E-02 -1.16504E-03 +3.58984E-02 +2.40125E-02 +1.29768E-02 +3.90251E-02
 -1.49012E-02 +3.74033E-02 -3.67657E-02 +1.91602E-02 -4.37176E-02 -9.06618E-03 -3.25251E-02 -3.65454E-02
 -6.98282E-03 -5.26568E-02 +2.35272E-02 -5.10764E-02 +4.77018E-02 -3.22669E-02 +5.67406E-02 -3.27299E-03
 +4.77564E-02 +2.50887E-02 +2.48138E-02 +4.25064E-02 -2.79821E-03 +4.31969E-02 -2.43404E-02 +2.80665E-02
 -3.19060E-02 +4.16962E-03 -2.34830E-02 -1.82821E-02 -3.58051E-03 -3.01165E-02 +1.87964E-02 -2.68858E-02
 +3.39603E-02 -1.05515E-02 +3.55606E-02 +1.14899E-02 +2.31582E-02 +2.96056E-02 +2.31418E-03 +3.60068E-02
 -1.78216E-02 +2.80197E-02 -2.84063E-02 +9.19769E-03 -2.46620E-02 -1.21767E-02 -7.93737E-03 -2.65736E-02
 +1.47858E-02 -2.72392E-02 +3.37434E-02 -1.30916E-02 +4.04282E-02 +1.07135E-02 +3.11576E-02 +3.47961E-02
 +8.69672E-03 +4.93342E-02 -1.87434E-02 +4.80739E-02 -4.07406E-02 +3.09319E-02 -4.88267E-02 +4.11907E-03
 -3.98952E-02 -2.22764E-02 -1.74719E-02 -3.82767E-02 +9.66957E-03 -3.79679E-02 +3.09882E-02 -2.18253E-02
 +3.83473E-02 +3.51911E-03 +2.91982E-02 +2.79622E-02 +7.50522E-03 +4.19735E-02 -1.79426E-02 +4.03610E-02
 -3.71264E-02 +2.42471E-02 -4.28295E-02 +4.76971E-04 -3.34719E-02 -2.12677E-02 -1.36150E-02 -3.24550E-02
 +8.03969E-03 -2.91526E-02 +2.23110E-02 -1.35441E-02 +2.33427E-02 +7.08692E-03 +1.09911E-02 +2.34631E-02
 -9.17445E-03 +2.82140E-02 -2.82410E-02 +1.89589E-02 -3.77025E-02 -6.95397E-04 -3.30384E-02 -2.26489E-02
 -1.56411E-02 -3.76739E-02 +7.70250E-03 -3.92638E-02 +2.75693E-02 -2.63772E-02 +3.57668E-02 -3.94608E-03
 +2.87248E-02 +1.90712E-02 +9.02033E-03 +3.33035E-02 -1.55964E-02 +3.27760E-02 -3.52859E-02 +1.73644E-02
 -4.20655E-02 -7.11041E-03 -3.30185E-02 -3.11860E-02 -1.14671E-02 -4.55320E-02 +1.43622E-02 -4.46652E-02
 +3.46354E-02 -2.91088E-02 +4.18325E-02 -5.13062E-03 +3.37090E-02 +1.78180E-02 +1.41114E-02 +3.09152E-02
 -8.66493E-03 +2.94828E-02 -2.52878E-02 +1.47853E-02 -2.91709E-02 -6.59661E-03 -1.90896E-02 -2.55371E-02
 +4.20605E-04 -3.41329E-02 +2.10222E-02 -2.89205E-02 +3.40668E-02 -1.22358E-02 +3.41768E-02 +8.82484E-03
 +2.14469E-02 +2.53951E-02 +1.37196E-03 +3.05410E-02 -1.74598E-02 +2.21471E-02 -2.69481E-02 +3.80230E-03
 -2.28604E-02 -1.66764E-02 -6.61790E-03 -3.04706E-02 +1.52467E-02 -3.14123E-02 +3.37400E-02 -1.85599E-02
 +4.10834E-02 +3.35969E-03 +3.39109E-02 +2.58289E-02 +1.46810E-02 +3.99739E-02 -9.27512E-03 +4.01587E-02
 -2.86854E-02 +2.62775E-02 -3.60583E-02 +3.81278E-03 -2.86853E-02 -1.83611E-02 -9.71049E-03 -3.15364E-02
 +1.31575E-02 -3.06491E-02 +3.07622E-02 -1.62711E-02 +3.61730E-02 +5.67885E-03 +2.74294E-02 +2.63723E-02
 +8.25432E-03 +3.76539E-02 -1.35350E-02 +3.53095E-02 -2.92506E-02 +2.07000E-02 -3.28692E-02 +1.12785E-04
 -2.34382E-02 -1.78814E-02 -5.38252E-03 -2.59701E-02 +1.33909E-02 -2.10844E-02 +2.47988E-02 -5.61338E-03
 +2.39306E-02 +1.36381E-02 +1.10668E-02 +2.83040E-02 -8.45536E-03 +3.19425E-02 -2.64645E-02 +2.27155E-02
 -3.53463E-02 +4.16489E-03 -3.12065E-02 -1.62330E-02 -1.55074E-02 -3.01369E-02 +5.49578E-03 -3.17761E-02
 +2.32876E-02 -2.03423E-02 +3.05605E-02 -3.60418E-04 +2.42028E-02 +2.01184E-02 +6.58730E-03 +3.27635E-02
 -1.53633E-02 +3.23324E-02 -3.29544E-02 +1.87913E-02 -3.92112E-02 -2.67015E-03 -3.16696E-02 -2.37299E-02
 -1.33388E-02 -3.62776E-02 +8.54279E-03 -3.56535E-02 +2.54441E-02 -2.24748E-02 +3.09702E-02 -2.32168E-03
 +2.33939E-02 +1.65723E-02 +6.27442E-03 +2.66731E-02 -1.30694E-02 +2.41732E-02 -2.65893E-02 +1.04687E-02
 -2.87941E-02 -8.49782E-03 -1.89526E-02 -2.47396E-02 -1.32257E-03 -3.15334E-02 +1.66664E-02 -2.61731E-02
 +2.75182E-02 -1.10469E-02 +2.67776E-02 +7.39317E-03 +1.48663E-02 +2.13309E-02 -3.10339E-03 +2.48394E-02
 -1.94508E-02 +1.63467E-02 -2.71102E-02 -6.96622E-04 -2.25637E-02 -1.92213E-02 -7.32084E-03 -3.14370E-02
 +1.26629E-02 -3.20352E-02 +2.93917E-02 -2.03874E-02 +3.60777E-02 -8.38683E-04 +2.99076E-02 +1.90238E-02
 +1.32013E-02 +3.14234E-02 -7.50705E-03 +3.15269E-02 -2.40901E-02 +1.93871E-02 -3.00855E-02 -8.85883E-05
 -2.32711E-02 -1.91224E-02 -6.52059E-03 -3.01939E-02 +1.33954E-02 -2.90398E-02 +2.85628E-02 -1.63160E-02
 +3.31072E-02 +2.73633E-03 +2.55162E-02 +2.04689E-02 +9.16942E-03 +2.99453E-02 -9.11768E-03 +2.77285E-02
 -2.19231E-02 +1.52084E-02 -2.42539E-02 -2.05477E-03 -1.55490E-02 -1.66801E-02 +1.59815E-04 -2.25322E-02
 +1.59742E-02 -1.72411E-02 +2.50215E-02 -3.14776E-03 +2.33140E-02 +1.37022E-02 +1.14019E-02 +2.60912E-02
 -5.85736E-03 +2.86391E-02 -2.13098E-02 +2.00498E-02 -2.84673E-02 +3.67197E-03 -2.42016E-02 -1.38553E-02
 -1.00649E-02 -2.53166E-02 +8.30678E-03 -2.58816E-02 +2.34631E-02 -1.51028E-02 +2.91591E-02 +2.86647E-03
 +2.28941E-02 +2.09241E-02 +6.93843E-03 +3.18700E-02 -1.25666E-02 +3.12976E-02 -2.80676E-02 +1.93565E-02
 -3.36182E-02 +6.77452E-04 -2.72359E-02 -1.75013E-02 -1.16523E-02 -2.82393E-02 +6.83483E-03 -2.76519E-02
