 Created: 26-Mar-2021
 $NMID
 ID='D:\BASISSIMULATI'
 FMTDAT='(8E13.5)'
 VOLUME=   1.00000E+00
 TRAMP=   1.00000E+00
 $END
 +2.19401E-01 +1.89692E-07 +2.12408E-01 +5.29618E-02 +1.92176E-01 +1.02273E-01 +1.60148E-01 +1.44603E-01
 +1.18598E-01 +1.77127E-01 +7.04637E-02 +1.97733E-01 +1.91307E-02 +2.05171E-01 -3.18162E-02 +1.99141E-01
 -7.88544E-02 +1.80306E-01 -1.18780E-01 +1.50241E-01 -1.48940E-01 +1.11312E-01 -1.67420E-01 +6.64935E-02
 -1.73182E-01 +1.91479E-02 -1.66129E-01 -2.72255E-02 -1.47109E-01 -6.92501E-02 -1.17835E-01 -1.03920E-01
 -8.07600E-02 -1.28818E-01 -3.88781E-02 -1.42293E-01 +4.49758E-03 -1.43569E-01 +4.59881E-02 -1.32802E-01
 +8.24017E-02 -1.11052E-01 +1.10971E-01 -8.02002E-02 +1.29559E-01 -4.27967E-02 +1.36811E-01 -1.86296E-03
 +1.32251E-01 +3.93406E-02 +1.16312E-01 +7.75627E-02 +9.02921E-02 +1.09808E-01 +5.62511E-02 +1.33560E-01
 +1.68472E-02 +1.46970E-01 -2.48692E-02 +1.48992E-01 -6.56899E-02 +1.39454E-01 -1.02494E-01 +1.19066E-01
 -1.32485E-01 +8.93581E-02 -1.53400E-01 +5.25593E-02 -1.63676E-01 +1.14219E-02 -1.62569E-01 -3.09917E-02
 -1.50198E-01 -7.15445E-02 -1.27534E-01 -1.07265E-01 -9.63136E-02 -1.35570E-01 -5.89069E-02 -1.54463E-01
 -1.81262E-02 -1.62677E-01 +2.29913E-02 -1.59768E-01 +6.14183E-02 -1.46143E-01 +9.43699E-02 -1.23016E-01
 +1.19516E-01 -9.23147E-02 +1.35157E-01 -5.65186E-02 +1.40349E-01 -1.84671E-02 +1.34973E-01 +1.88660E-02
 +1.19734E-01 +5.26047E-02 +9.61027E-02 +8.01944E-02 +6.61911E-02 +9.95999E-02 +3.25859E-02 +1.09461E-01
 -1.86021E-03 +1.09197E-01 -3.42550E-02 +9.90465E-02 -6.18955E-02 +8.00465E-02 -8.24825E-02 +5.39469E-02
 -9.43019E-02 +2.30701E-02 -9.63610E-02 -9.87497E-03 -8.84677E-02 -4.20082E-02 -7.12467E-02 -7.05080E-02
 -4.60925E-02 -9.28366E-02 -1.50604E-02 -1.06943E-01 +1.92931E-02 -1.11429E-01 +5.41108E-02 -1.05666E-01
 +8.64595E-02 -8.98450E-02 +1.13561E-01 -6.49759E-02 +1.33014E-01 -3.28090E-02 +1.42985E-01 +4.29329E-03
 +1.42360E-01 +4.35358E-02 +1.30835E-01 +8.19047E-02 +1.08956E-01 +1.16400E-01 +7.80769E-02 +1.44267E-01
 +4.02707E-02 +1.63215E-01 -1.82559E-03 +1.71595E-01 -4.52062E-02 +1.68538E-01 -8.67230E-02 +1.54023E-01
 -1.23324E-01 +1.28894E-01 -1.52286E-01 +9.48013E-02 -1.71425E-01 +5.40828E-02 -1.79266E-01 +9.59518E-03
 -1.75158E-01 -3.54981E-02 -1.59334E-01 -7.79629E-02 -1.32897E-01 -1.14737E-01 -9.77411E-02 -1.43162E-01
 -5.64199E-02 -1.61185E-01 -1.19536E-02 -1.67515E-01 +3.23925E-02 -1.61727E-01 +7.33519E-02 -1.44295E-01
 +1.07902E-01 -1.16563E-01 +1.33491E-01 -8.06445E-02 +1.48232E-01 -3.92739E-02 +1.51046E-01 +4.40200E-03
 +1.41747E-01 +4.70551E-02 +1.21059E-01 +8.54256E-02 +9.05627E-02 +1.16566E-01 +5.25853E-02 +1.38063E-01
 +1.00246E-02 +1.48220E-01 -3.38638E-02 +1.46187E-01 -7.57088E-02 +1.32027E-01 -1.12275E-01 +1.06714E-01
 -1.40706E-01 +7.20656E-02 -1.58737E-01 +3.06065E-02 -1.64864E-01 -1.46128E-02 -1.58464E-01 -6.02435E-02
 -1.39835E-01 -1.02886E-01 -1.10186E-01 -1.39340E-01 -7.15409E-02 -1.66844E-01 -2.65982E-02 -1.83279E-01
 +2.14720E-02 -1.87327E-01 +6.92586E-02 -1.78566E-01 +1.13361E-01 -1.57506E-01 +1.50638E-01 -1.25547E-01
 +1.78438E-01 -8.48800E-02 +1.94795E-01 -3.83212E-02 +1.98568E-01 +1.08918E-02 +1.89523E-01 +5.93402E-02
 +1.68349E-01 +1.03674E-01 +1.36600E-01 +1.40858E-01 +9.65795E-02 +1.68390E-01 +5.11675E-02 +1.84485E-01
 +3.60316E-03 +1.88195E-01 -4.27538E-02 +1.79479E-01 -8.46717E-02 +1.59195E-01 -1.19284E-01 +1.29030E-01
 -1.44297E-01 +9.13665E-02 -1.58155E-01 +4.91019E-02 -1.60148E-01 +5.42548E-03 -1.50452E-01 -3.64204E-02
 -1.30115E-01 -7.33833E-02 -1.00957E-01 -1.02827E-01 -6.54358E-02 -1.22725E-01 -2.64478E-02 -1.31806E-01
 +1.28931E-02 -1.29642E-01 +4.94941E-02 -1.16671E-01 +8.05186E-02 -9.41559E-02 +1.03600E-01 -6.40778E-02
 +1.17016E-01 -2.89790E-02 +1.19819E-01 +8.23780E-03 +1.11897E-01 +4.45352E-02 +9.39757E-02 +7.69758E-02
 +6.75604E-02 +1.02948E-01 +3.48097E-02 +1.20365E-01 -1.63415E-03 +1.27822E-01 -3.88522E-02 +1.24702E-01
 -7.38765E-02 +1.11216E-01 -1.03920E-01 +8.83850E-02 -1.26591E-01 +5.79570E-02 -1.40076E-01 +2.22670E-02
 -1.43281E-01 -1.59449E-02 -1.35908E-01 -5.37477E-02 -1.18479E-01 -8.82468E-02 -9.22930E-02 -1.16808E-01
 -5.93215E-02 -1.37259E-01 -2.20541E-02 -1.48059E-01 +1.66947E-02 -1.48413E-01 +5.40049E-02 -1.38334E-01
 +8.70773E-02 -1.18637E-01 +1.13450E-01 -9.08761E-02 +1.31187E-01 -5.72204E-02 +1.39031E-01 -2.02857E-02
 +1.36494E-01 +1.70704E-02 +1.23898E-01 +5.19710E-02 +1.02346E-01 +8.17435E-02 +7.36382E-02 +1.04128E-01
 +4.01258E-02 +1.17452E-01 +4.53149E-03 +1.20761E-01 -3.02654E-02 +1.13896E-01 -6.14537E-02 +9.74999E-02
 -8.65107E-02 +7.29742E-02 -1.03400E-01 +4.23669E-02 -1.10733E-01 +8.21465E-03 -1.07879E-01 -2.66547E-02
 -9.50179E-02 -5.93427E-02 -7.31294E-02 -8.71073E-02 -4.39212E-02 -1.07578E-01 -9.69983E-03 -1.18944E-01
 +2.68062E-02 -1.20098E-01 +6.26555E-02 -1.10731E-01 +9.49210E-02 -9.13577E-02 +1.20917E-01 -6.32881E-02
 +1.38412E-01 -2.85305E-02 +1.45798E-01 +1.03565E-02 +1.42231E-01 +5.04562E-02 +1.27693E-01 +8.87136E-02
 +1.03006E-01 +1.22169E-01 +6.97778E-02 +1.48183E-01 +3.02852E-02 +1.64643E-01 -1.26917E-02 +1.70126E-01
 -5.60758E-02 +1.64012E-01 -9.67217E-02 +1.46539E-01 -1.31652E-01 +1.18792E-01 -1.58284E-01 +8.26278E-02
 -1.74621E-01 +4.05397E-02 -1.79410E-01 -4.52247E-03 -1.72238E-01 -4.93707E-02 -1.53567E-01 -9.08150E-02
 -1.24701E-01 -1.25900E-01 -8.76989E-02 -1.52128E-01 -4.52178E-02 -1.67641E-01 -3.20815E-04 -1.71367E-01
 +4.37500E-02 -1.63095E-01 +8.38143E-02 -1.43497E-01 +1.16989E-01 -1.14078E-01 +1.40903E-01 -7.70626E-02
 +1.53875E-01 -3.52342E-02 +1.55033E-01 +8.27503E-03 +1.44388E-01 +5.02156E-02 +1.22824E-01 +8.74625E-02
 +9.20384E-02 +1.17248E-01 +5.44107E-02 +1.37368E-01 +1.28265E-02 +1.46344E-01 -2.95383E-02 +1.43536E-01
 -6.94550E-02 +1.29184E-01 -1.03883E-01 +1.04396E-01 -1.30196E-01 +7.10582E-02 -1.46377E-01 +3.16964E-02
 -1.51172E-01 -1.07139E-02 -1.44175E-01 -5.29700E-02 -1.25863E-01 -9.18815E-02 -9.75600E-02 -1.24508E-01
 -6.13302E-02 -1.48378E-01 -1.98289E-02 -1.61672E-01 +2.38987E-02 -1.63356E-01 +6.66453E-02 -1.53257E-01
 +1.05280E-01 -1.32075E-01 +1.36980E-01 -1.01325E-01 +1.59443E-01 -6.32263E-02 +1.71050E-01 -2.05293E-02
 +1.70990E-01 +2.36864E-02 +1.59311E-01 +6.62447E-02 +1.36915E-01 +1.04109E-01 +1.05483E-01 +1.34607E-01
 +6.73514E-02 +1.55629E-01 +2.53259E-02 +1.65778E-01 -1.75253E-02 +1.64471E-01 -5.81048E-02 +1.51979E-01
 -9.35174E-02 +1.29396E-01 -1.21285E-01 +9.85494E-02 -1.39530E-01 +6.18627E-02 -1.47110E-01 +2.21626E-02
 -1.43699E-01 -1.75357E-02 -1.29801E-01 -5.42581E-02 -1.06711E-01 -8.52968E-02 -7.64007E-02 -1.08413E-01
 -4.13707E-02 -1.22005E-01 -4.44925E-03 -1.25220E-01 +3.14247E-02 -1.18021E-01 +6.34284E-02 -1.01176E-01
 +8.90716E-02 -7.61933E-02 +1.06386E-01 -4.52048E-02 +1.14074E-01 -1.07917E-02 +1.11604E-01 +2.42155E-02
 +9.92488E-02 +5.69586E-02 +7.80589E-02 +8.47735E-02 +4.97786E-02 +1.05396E-01 +1.67068E-02 +1.17138E-01
 -1.84830E-02 +1.19015E-01 -5.29517E-02 +1.10821E-01 -8.39164E-02 +9.31458E-02 -1.08866E-01 +6.73253E-02
 -1.25759E-01 +3.53383E-02 -1.33176E-01 -3.48234E-04 -1.30439E-01 -3.69701E-02 -1.17655E-01 -7.16806E-02
 -9.57176E-02 -1.01771E-01 -6.62297E-02 -1.24882E-01 -3.13871E-02 -1.39185E-01 +6.19369E-03 -1.43524E-01
 +4.36758E-02 -1.37507E-01 +7.82213E-02 -1.21541E-01 +1.07209E-01 -9.67943E-02 +1.28439E-01 -6.51144E-02
 +1.40300E-01 -2.88844E-02 +1.41898E-01 +9.15906E-03 +1.33122E-01 +4.61360E-02 +1.14658E-01 +7.92441E-02
 +8.79376E-02 +1.05975E-01 +5.50265E-02 +1.24306E-01 +1.84696E-02 +1.32860E-01 -1.89046E-02 +1.31009E-01
 -5.42008E-02 +1.18929E-01 -8.46794E-02 +9.75826E-02 -1.07967E-01 +6.86522E-02 -1.22242E-01 +3.44102E-02
 -1.26374E-01 -2.45312E-03 -1.20015E-01 -3.90351E-02 -1.03626E-01 -7.24427E-02 -7.84501E-02 -1.00015E-01
 -4.64160E-02 -1.19529E-01 -9.99500E-03 -1.29370E-01 +2.79862E-02 -1.28661E-01 +6.45596E-02 -1.17332E-01
 +9.68424E-02 -9.61307E-02 +1.22257E-01 -6.65674E-02 +1.38731E-01 -3.08075E-02 +1.44853E-01 +8.49192E-03
 +1.39991E-01 +4.83798E-02 +1.24337E-01 +8.58338E-02 +9.89026E-02 +1.17988E-01 +6.54453E-02 +1.42352E-01
 +2.63392E-02 +1.56997E-01 -1.55991E-02 +1.60708E-01 -5.73207E-02 +1.53075E-01 -9.57717E-02 +1.34531E-01
 -1.28122E-01 +1.06318E-01 -1.51976E-01 +7.04035E-02 -1.65557E-01 +2.93306E-02 -1.67836E-01 -1.39667E-02
 -1.58614E-01 -5.63826E-02 -1.38536E-01 -9.48695E-02 -1.09048E-01 -1.26665E-01 -7.22848E-02 -1.49498E-01
 -3.09151E-02 -1.61756E-01 +1.20572E-02 -1.62607E-01 +5.35170E-02 -1.52058E-01 +9.04697E-02 -1.30958E-01
 +1.20263E-01 -1.00930E-01 +1.40785E-01 -6.42470E-02 +1.50618E-01 -2.36682E-02 +1.49144E-01 +1.77740E-02
 +1.36589E-01 +5.69985E-02 +1.14002E-01 +9.11056E-02 +8.31754E-02 +1.17594E-01 +4.65071E-02 +1.34545E-01
 +6.81991E-03 +1.40765E-01 -3.28521E-02 +1.35875E-01 -6.94916E-02 +1.20329E-01 -1.00325E-01 +9.53853E-02
 -1.23029E-01 +6.30025E-02 -1.35906E-01 +2.56930E-02 -1.38005E-01 -1.36689E-02 -1.29197E-01 -5.20651E-02
 -1.10175E-01 -8.65612E-02 -8.24035E-02 -1.14528E-01 -4.80049E-02 -1.33837E-01 -9.59463E-03 -1.43021E-01
 +2.99156E-02 -1.41383E-01 +6.75394E-02 -1.29043E-01 +1.00441E-01 -1.06930E-01 +1.26149E-01 -7.67057E-02
 +1.42742E-01 -4.06378E-02 +1.48990E-01 -1.42700E-03 +1.44446E-01 +3.79991E-02 +1.29478E-01 +7.47082E-02
 +1.05234E-01 +1.05984E-01 +7.35554E-02 +1.29533E-01 +3.68339E-02 +1.43651E-01 -2.17293E-03 +1.47357E-01
 -4.05509E-02 +1.40455E-01 -7.54515E-02 +1.23555E-01 -1.04307E-01 +9.80125E-02 -1.25025E-01 +6.58314E-02
 -1.36144E-01 +2.95024E-02 -1.36941E-01 -8.18713E-03 -1.27486E-01 -4.43667E-02 -1.08627E-01 -7.63025E-02
 -8.19287E-02 -1.01606E-01 -4.95422E-02 -1.18413E-01 -1.40424E-02 -1.25527E-01 +2.17734E-02 -1.22506E-01
 +5.51008E-02 -1.09694E-01 +8.33443E-02 -8.81919E-02 +1.04316E-01 -5.97687E-02 +1.16404E-01 -2.67243E-02
 +1.18693E-01 +8.28962E-03 +1.11037E-01 +4.24755E-02 +9.40643E-02 +7.31062E-02 +6.91328E-02 +9.77358E-02
 +3.82210E-02 +1.14388E-01 +3.77543E-03 +1.21710E-01 -3.14780E-02 +1.19075E-01 -6.47452E-02 +1.06634E-01
 -9.33798E-02 +8.52997E-02 -1.15087E-01 +5.66835E-02 -1.28103E-01 +2.29665E-02 -1.31330E-01 -1.32650E-02
