 Created: 26-Mar-2021
 $NMID
 ID='D:\BASISSIMULATI'
 FMTDAT='(8E13.5)'
 VOLUME=   1.00000E+00
 TRAMP=   1.00000E+00
 $END
 +1.04197E-01 -1.65050E-08 +1.00185E-01 +1.41210E-02 +8.86229E-02 +2.75783E-02 +7.06831E-02 +3.97289E-02
 +4.81670E-02 +4.99589E-02 +2.33048E-02 +5.77079E-02 -1.49128E-03 +6.25047E-02 -2.38904E-02 +6.40113E-02
 -4.18935E-02 +6.20701E-02 -5.40407E-02 +5.67482E-02 -5.95547E-02 +4.83685E-02 -5.84027E-02 +3.75205E-02
 -5.12743E-02 +2.50430E-02 -3.94778E-02 +1.19742E-02 -2.47715E-02 -5.28461E-04 -9.14886E-03 -1.12953E-02
 +5.39292E-03 -1.92674E-02 +1.70769E-02 -2.36217E-02 +2.45351E-02 -2.38831E-02 +2.69434E-02 -2.00070E-02
 +2.40883E-02 -1.24189E-02 +1.63623E-02 -2.00209E-03 +4.69216E-03 +9.97045E-03 -9.58925E-03 +2.19563E-02
 -2.49076E-02 +3.23049E-02 -3.96288E-02 +3.94439E-02 -5.22343E-02 +4.20686E-02 -6.14724E-02 +3.93122E-02
 -6.64689E-02 +3.08748E-02 -6.67876E-02 +1.70932E-02 -6.24407E-02 -1.06080E-03 -5.38500E-02 -2.20562E-02
 -4.17704E-02 -4.39474E-02 -2.71881E-02 -6.45735E-02 -1.12077E-02 -8.17908E-02 +5.05651E-03 -9.37124E-02
 +2.05745E-02 -9.89256E-02 +3.44709E-02 -9.66628E-02 +4.60678E-02 -8.69032E-02 +5.49015E-02 -7.03921E-02
 +6.07161E-02 -4.85740E-02 +6.34426E-02 -2.34453E-02 +6.31689E-02 +2.65633E-03 +6.01099E-02 +2.73034E-02
 +5.45817E-02 +4.82418E-02 +4.69837E-02 +6.36341E-02 +3.77873E-02 +7.22571E-02 +2.75296E-02 +7.36283E-02
 +1.68062E-02 +6.80483E-02 +6.25843E-03 +5.65549E-02 -3.44972E-03 +4.07936E-02 -1.16680E-02 +2.28221E-02
 -1.78088E-02 +4.87027E-03 -2.14060E-02 -1.09137E-02 -2.21764E-02 -2.27038E-02 -2.00752E-02 -2.91937E-02
 -1.53351E-02 -2.97308E-02 -8.48078E-03 -2.43724E-02 -3.10152E-04 -1.38595E-02 +8.16008E-03 +4.85874E-04
 +1.57831E-02 +1.69258E-02 +2.13988E-02 +3.35130E-02 +2.39661E-02 +4.83135E-02 +2.26976E-02 +5.96185E-02
 +1.71774E-02 +6.61229E-02 +7.44691E-03 +6.70510E-02 -5.95647E-03 +6.22170E-02 -2.20158E-02 +5.20191E-02
 -3.93103E-02 +3.73688E-02 -5.61443E-02 +1.95705E-02 -7.07191E-02 +1.65951E-04 -8.13288E-02 -1.92349E-02
 -8.65582E-02 -3.71169E-02 -8.54590E-02 -5.21993E-02 -7.76825E-02 -6.35373E-02 -6.35493E-02 -7.05789E-02
 -4.40463E-02 -7.31752E-02 -2.07471E-02 -7.15478E-02 +4.33779E-03 -6.62237E-02 +2.89653E-02 -5.79478E-02
 +5.08970E-02 -4.75883E-02 +6.81416E-02 -3.60452E-02 +7.91761E-02 -2.41733E-02 +8.31166E-02 -1.27254E-02
 +7.98209E-02 -2.31759E-03 +6.99069E-02 +6.58413E-03 +5.46863E-02 +1.36610E-02 +3.60183E-02 +1.87285E-02
 +1.61003E-02 +2.17199E-02 -2.77946E-03 +2.26715E-02 -1.84998E-02 +2.17146E-02 -2.93446E-02 +1.90726E-02
 -3.41929E-02 +1.50633E-02 -3.26404E-02 +1.01014E-02 -2.50364E-02 +4.69545E-03 -1.24355E-02 -5.66008E-04
 +3.53179E-03 -5.04336E-03 +2.08521E-02 -8.09146E-03 +3.73633E-02 -9.12042E-03 +5.10015E-02 -7.66619E-03
 +6.00317E-02 -3.46291E-03 +6.32375E-02 +3.49354E-03 +6.00466E-02 +1.29018E-02 +5.05817E-02 +2.41411E-02
 +3.56318E-02 +3.62939E-02 +1.65499E-02 +4.82085E-02 -4.90739E-03 +5.85985E-02 -2.67791E-02 +6.61719E-02
 -4.71135E-02 +6.97751E-02 -6.41700E-02 +6.85384E-02 -7.65889E-02 +6.20012E-02 -8.35096E-02 +5.02023E-02
 -8.46287E-02 +3.37193E-02 -8.01943E-02 +1.36490E-02 -7.09418E-02 -8.47471E-03 -5.79828E-02 -3.08174E-02
 -4.26634E-02 -5.14256E-02 -2.64102E-02 -6.84313E-02 -1.05837E-02 -8.02583E-02 +3.64703E-03 -8.58044E-02
 +1.53950E-02 -8.45781E-02 +2.41050E-02 -7.67706E-02 +2.95629E-02 -6.32529E-02 +3.18674E-02 -4.54949E-02
 +3.13748E-02 -2.54145E-02 +2.86258E-02 -5.17174E-03 +2.42669E-02 +1.30693E-02 +1.89776E-02 +2.73823E-02
 +1.34092E-02 +3.62981E-02 +8.14139E-03 +3.89728E-02 +3.65747E-03 +3.52874E-02 +3.34311E-04 +2.58631E-02
 -1.55602E-03 +1.19925E-02 -1.83983E-03 -4.50738E-03 -4.35730E-04 -2.15033E-02 +2.64680E-03 -3.67905E-02
 +7.30264E-03 -4.83455E-02 +1.33210E-02 -5.45582E-02 +2.03739E-02 -5.44156E-02 +2.80082E-02 -4.76161E-02
 +3.56482E-02 -3.46020E-02 +4.26138E-02 -1.65077E-02 +4.81576E-02 +4.97069E-03 +5.15226E-02 +2.77662E-02
 +5.20159E-02 +4.96711E-02 +4.90931E-02 +6.85777E-02 +4.24419E-02 +8.27026E-02 +3.20550E-02 +9.07692E-02
 +1.82777E-02 +9.21287E-02 +1.82247E-03 +8.68080E-02 -1.62584E-02 +7.54822E-02 -3.46435E-02 +5.93767E-02
 -5.18530E-02 +4.01146E-02 -6.63902E-02 +1.95280E-02 -7.68983E-02 -5.43045E-04 -8.23173E-02 -1.84396E-02
 -8.20183E-02 -3.28421E-02 -7.59000E-02 -4.28805E-02 -6.44308E-02 -4.81874E-02 -4.86288E-02 -4.88927E-02
 -2.99775E-02 -4.55647E-02 -1.02836E-02 -3.91095E-02 +8.50851E-03 -3.06432E-02 +2.45275E-02 -2.13544E-02
 +3.61846E-02 -1.23744E-02 +4.23590E-02 -4.66773E-03 +4.25352E-02 +1.04513E-03 +3.68745E-02 +4.32958E-03
 +2.62102E-02 +5.04235E-03 +1.19644E-02 +3.30592E-03 -4.00493E-03 -5.40120E-04 -1.96115E-02 -6.00071E-03
 -3.27778E-02 -1.24901E-02 -4.16764E-02 -1.93909E-02 -4.49454E-02 -2.61015E-02 -4.18529E-02 -3.20696E-02
 -3.23911E-02 -3.68110E-02 -1.72873E-02 -3.99182E-02 +2.06888E-03 -4.10634E-02 +2.37757E-02 -4.00001E-02
 +4.56274E-02 -3.65692E-02 +6.53585E-02 -3.07117E-02 +8.08938E-02 -2.24867E-02 +9.05761E-02 -1.20944E-02
 +9.33463E-02 +1.03979E-04 +8.88539E-02 +1.35739E-02 +7.74872E-02 +2.76105E-02 +6.03212E-02 +4.13621E-02
 +3.89900E-02 +5.38779E-02 +1.55003E-02 +6.41786E-02 -7.99122E-03 +7.13454E-02 -2.94103E-02 +7.46192E-02
 -4.69806E-02 +7.34984E-02 -5.93983E-02 +6.78218E-02 -6.59472E-02 +5.78241E-02 -6.65446E-02 +4.41523E-02
 -6.17141E-02 +2.78374E-02 -5.24945E-02 +1.02184E-02 -4.02956E-02 -7.17623E-03 -2.67232E-02 -2.27789E-02
 -1.33923E-02 -3.51497E-02 -1.75299E-03 -4.31409E-02 +7.05354E-03 -4.60384E-02 +1.22938E-02 -4.36614E-02
 +1.36883E-02 -3.64061E-02 +1.14034E-02 -2.52250E-02 +5.99579E-03 -1.15391E-02 -1.68094E-03 +2.90758E-03
 -1.05928E-02 +1.62379E-02 -1.96491E-02 +2.66548E-02 -2.78177E-02 +3.26532E-02 -3.42216E-02 +3.32051E-02
 -3.82056E-02 +2.78951E-02 -3.93718E-02 +1.69883E-02 -3.75836E-02 +1.42131E-03 -3.29442E-02 -1.72856E-02
 -2.57555E-02 -3.71863E-02 -1.64686E-02 -5.61192E-02 -5.63238E-03 -7.19470E-02 +6.15201E-03 -8.27978E-02
 +1.82666E-02 -8.72797E-02 +3.01014E-02 -8.46435E-02 +4.10694E-02 -7.48734E-02 +5.06165E-02 -5.86961E-02
 +5.82306E-02 -3.75058E-02 +6.34549E-02 -1.32144E-02 +6.59080E-02 +1.19561E-02 +6.53130E-02 +3.57143E-02
 +6.15323E-02 +5.59456E-02 +5.46042E-02 +7.09356E-02 +4.47752E-02 +7.95451E-02 +3.25184E-02 +8.13176E-02
 +1.85323E-02 +7.65090E-02 +3.71453E-03 +6.60367E-02 -1.08939E-02 +5.13565E-02 -2.41895E-02 +3.42844E-02
 -3.51083E-02 +1.67841E-02 -4.27381E-02 +7.45680E-04 -4.64276E-02 -1.22168E-02 -4.58792E-02 -2.09292E-02
 -4.12100E-02 -2.47637E-02 -3.29714E-02 -2.36788E-02 -2.21194E-02 -1.81914E-02 -9.93445E-03 -9.28824E-03
 +2.10240E-03 +1.71025E-03 +1.24668E-02 +1.33148E-02 +1.97644E-02 +2.40406E-02 +2.29001E-02 +3.25682E-02
 +2.12223E-02 +3.78748E-02 +1.46238E-02 +3.93234E-02 +3.58295E-03 +3.67021E-02 -1.08615E-02 +3.02154E-02
 -2.72030E-02 +2.04308E-02 -4.36191E-02 +8.19334E-03 -5.81677E-02 -5.48064E-03 -6.90043E-02 -1.95141E-02
 -7.45980E-02 -3.28726E-02 -7.39173E-02 -4.46489E-02 -6.65651E-02 -5.41225E-02 -5.28450E-02 -6.07913E-02
 -3.37486E-02 -6.43774E-02 -1.08642E-02 -6.48121E-02 +1.37842E-02 -6.22064E-02 +3.79500E-02 -5.68160E-02
 +5.94050E-02 -4.90060E-02 +7.61809E-02 -3.92218E-02 +8.67832E-02 -2.79678E-02 +9.03520E-02 -1.57936E-02
 +8.67526E-02 -3.28390E-03 +7.65838E-02 +8.94991E-03 +6.11036E-02 +2.02845E-02 +4.20831E-02 +3.01070E-02
 +2.16033E-02 +3.78493E-02 +1.82088E-03 +4.30315E-02 -1.52695E-02 +4.53125E-02 -2.80508E-02 +4.45416E-02
 -3.54506E-02 +4.08004E-02 -3.70427E-02 +3.44300E-02 -3.30730E-02 +2.60322E-02 -2.44080E-02 +1.64411E-02
 -1.24156E-02 +6.66277E-03 +1.20733E-03 -2.21399E-03 +1.46380E-02 -9.12906E-03 +2.61368E-02 -1.31725E-02
 +3.42391E-02 -1.37022E-02 +3.79072E-02 -1.04417E-02 +3.66280E-02 -3.54413E-03 +3.04468E-02 +6.38900E-03
 +1.99382E-02 +1.83418E-02 +6.11924E-03 +3.09699E-02 -9.68002E-03 +4.27322E-02 -2.59726E-02 +5.20567E-02
 -4.12767E-02 +5.75204E-02 -5.42651E-02 +5.80247E-02 -6.38873E-02 +5.29430E-02 -6.94504E-02 +4.22219E-02
 -7.06570E-02 +2.64205E-02 -6.75965E-02 +6.68143E-03 -6.06994E-02 -1.53677E-02 -5.06609E-02 -3.77726E-02
 -3.83499E-02 -5.84545E-02 -2.47121E-02 -7.54331E-02 -1.06823E-02 -8.70464E-02 +2.88742E-03 -9.21395E-02
 +1.52783E-02 -9.02007E-02 +2.59317E-02 -8.14279E-02 +3.44565E-02 -6.67155E-02 +4.06201E-02 -4.75629E-02
 +4.43301E-02 -2.59137E-02 +4.56146E-02 -3.94362E-03 +4.46032E-02 +1.61777E-02 +4.15150E-02 +3.25252E-02
 +3.66527E-02 +4.36279E-02 +3.03998E-02 +4.86260E-02 +2.32196E-02 +4.73575E-02 +1.56476E-02 +4.03647E-02
 +8.27511E-03 +2.88204E-02 +1.71974E-03 +1.43834E-02 -3.41883E-03 -9.99378E-04 -6.61451E-03 -1.53192E-02
 -7.47748E-03 -2.67356E-02 -5.81564E-03 -3.37817E-02 -1.68535E-03 -3.55223E-02 +4.57814E-03 -3.16479E-02
 +1.23589E-02 -2.24954E-02 +2.07927E-02 -8.99453E-03 +2.88339E-02 +7.45000E-03 +3.53544E-02 +2.51262E-02
 +3.92643E-02 +4.22105E-02 +3.96433E-02 +5.69680E-02 +3.58657E-02 +6.79347E-02 +2.77029E-02 +7.40611E-02
 +1.53891E-02 +7.48036E-02 -3.62206E-04 +7.01559E-02 -1.83972E-02 +6.06204E-02 -3.72151E-02 +4.71272E-02
 -5.51093E-02 +3.09127E-02 -7.03422E-02 +1.33759E-02 -8.13345E-02 -4.07133E-03 -8.68475E-02 -2.01411E-02
 -8.61362E-02 -3.37803E-02 -7.90529E-02 -4.42450E-02 -6.60877E-02 -5.11347E-02 -4.83383E-02 -5.43865E-02
 -2.74083E-02 -5.42361E-02 -5.24659E-03 -5.11542E-02 +1.60578E-02 -4.57694E-02 +3.45016E-02 -3.87896E-02
 +4.83872E-02 -3.09299E-02 +5.65123E-02 -2.28562E-02 +5.83052E-02 -1.51465E-02 +5.38898E-02 -8.26985E-03
 +4.40718E-02 -2.58148E-03 +3.02472E-02 +1.67247E-03 +1.42420E-02 +4.34540E-03 -1.89657E-03 +5.38141E-03
 -1.61345E-02 +4.81106E-03 -2.66836E-02 +2.75282E-03 -3.22044E-02 -5.80793E-04 -3.19571E-02 -4.87590E-03
 -2.58816E-02 -9.71402E-03 -1.46000E-02 -1.45782E-02 +6.59528E-04 -1.88733E-02 +1.82073E-02 -2.19635E-02
 +3.60865E-02 -2.32261E-02 +5.22954E-02 -2.21186E-02 +6.50097E-02 -1.82523E-02 +7.27813E-02 -1.14630E-02
 +7.46894E-02 -1.86683E-03 +7.04290E-02 +1.01064E-02 +6.03288E-02 +2.37141E-02 +4.52978E-02 +3.79392E-02
 +2.67110E-02 +5.15659E-02 +6.24787E-03 +6.32903E-02 -1.42942E-02 +7.18526E-02 -3.31908E-02 +7.61802E-02
