 Created: 26-Mar-2021
 $NMID
 ID='D:\BASISSIMULATI'
 FMTDAT='(8E13.5)'
 VOLUME=   1.00000E+00
 TRAMP=   1.00000E+00
 $END
 +3.47321E-02 -3.18028E-09 +3.43860E-02 +4.81316E-03 +3.33763E-02 +9.53039E-03 +3.17229E-02 +1.40607E-02
 +2.94583E-02 +1.83167E-02 +2.66264E-02 +2.22165E-02 +2.32823E-02 +2.56849E-02 +1.94908E-02 +2.86554E-02
 +1.53255E-02 +3.10709E-02 +1.08670E-02 +3.28850E-02 +6.20150E-03 +3.40632E-02 +1.41923E-03 +3.45832E-02
 -3.38744E-03 +3.44352E-02 -8.12570E-03 +3.36226E-02 -1.27041E-02 +3.21615E-02 -1.70344E-02 +3.00804E-02
 -2.10332E-02 +2.74200E-02 -2.46234E-02 +2.42320E-02 -2.77361E-02 +2.05782E-02 -3.03114E-02 +1.65294E-02
 -3.23000E-02 +1.21641E-02 -3.36638E-02 +7.56680E-03 -3.43769E-02 +2.82628E-03 -3.44260E-02 -1.96582E-03
 -3.38105E-02 -6.71697E-03 -3.25427E-02 -1.13355E-02 -3.06475E-02 -1.57322E-02 -2.81619E-02 -1.98226E-02
 -2.51342E-02 -2.35277E-02 -2.16233E-02 -2.67763E-02 -1.76971E-02 -2.95060E-02 -1.34318E-02 -3.16644E-02
 -8.90993E-03 -3.32102E-02 -4.21887E-03 -3.41140E-02 +5.50678E-04 -3.43587E-02 +5.30660E-03 -3.39399E-02
 +9.95710E-03 -3.28663E-02 +1.44125E-02 -3.11589E-02 +1.85868E-02 -2.88511E-02 +2.23998E-02 -2.59878E-02
 +2.57779E-02 -2.26247E-02 +2.86564E-02 -1.88269E-02 +3.09798E-02 -1.46681E-02 +3.27038E-02 -1.02288E-02
 +3.37953E-02 -5.59475E-03 +3.42338E-02 -8.55649E-04 +3.40113E-02 +3.89699E-03 +3.31323E-02 +8.57142E-03
 +3.16142E-02 +1.30775E-02 +2.94869E-02 +1.73282E-02 +2.67917E-02 +2.12418E-02 +2.35810E-02 +2.47429E-02
 +1.99172E-02 +2.77642E-02 +1.58711E-02 +3.02476E-02 +1.15212E-02 +3.21456E-02 +6.95171E-03 +3.34218E-02
 +2.25084E-03 +3.40521E-02 -2.49051E-03 +3.40247E-02 -7.18082E-03 +3.33404E-02 -1.17296E-02 +3.20131E-02
 -1.60490E-02 +3.00685E-02 -2.00560E-02 +2.75448E-02 -2.36732E-02 +2.44910E-02 -2.68313E-02 +2.09663E-02
 -2.94694E-02 +1.70390E-02 -3.15369E-02 +1.27854E-02 -3.29944E-02 +8.28758E-03 -3.38141E-02 +3.63263E-03
 -3.39805E-02 -1.08952E-03 -3.34909E-02 -5.78767E-03 -3.23551E-02 -1.03711E-02 -3.05954E-02 -1.47515E-02
 -2.82462E-02 -1.88444E-02 -2.53533E-02 -2.25710E-02 -2.19727E-02 -2.58595E-02 -1.81702E-02 -2.86468E-02
 -1.40192E-02 -3.08793E-02 -9.60026E-03 -3.25143E-02 -4.99877E-03 -3.35207E-02 -3.03668E-04 -3.38793E-02
 +4.39435E-03 -3.35838E-02 +9.00458E-03 -3.26401E-02 +1.34381E-02 -3.10670E-02 +1.76094E-02 -2.88951E-02
 +2.14382E-02 -2.61669E-02 +2.48508E-02 -2.29352E-02 +2.77814E-02 -1.92628E-02 +3.01740E-02 -1.52209E-02
 +3.19826E-02 -1.08877E-02 +3.31727E-02 -6.34706E-03 +3.37217E-02 -1.68674E-03 +3.36193E-02 +3.00320E-03
 +3.28681E-02 +7.63223E-03 +3.14829E-02 +1.21110E-02 +2.94908E-02 +1.63532E-02 +2.69307E-02 +2.02771E-02
 +2.38523E-02 +2.38070E-02 +2.03154E-02 +2.68752E-02 +1.63886E-02 +2.94227E-02 +1.21479E-02 +3.14006E-02
 +7.67535E-03 +3.27711E-02 +3.05745E-03 +3.35081E-02 -1.61657E-03 +3.35979E-02 -6.25644E-03 +3.30391E-02
 -1.07726E-02 +3.18428E-02 -1.50780E-02 +3.00326E-02 -1.90897E-02 +2.76438E-02 -2.27303E-02 +2.47228E-02
 -2.59298E-02 +2.13265E-02 -2.86268E-02 +1.75206E-02 -3.07695E-02 +1.33789E-02 -3.23169E-02 +8.98153E-03
 -3.32395E-02 +4.41355E-03 -3.35199E-02 -2.36758E-04 -3.31530E-02 -4.87957E-03 -3.21464E-02 -9.42528E-03
 -3.05199E-02 -1.37862E-02 -2.83053E-02 -1.78782E-02 -2.55456E-02 -2.16226E-02 -2.22946E-02 -2.49472E-02
 -1.86152E-02 -2.77882E-02 -1.45788E-02 -3.00909E-02 -1.02636E-02 -3.18114E-02 -5.75286E-03 -3.29167E-02
 -1.13395E-03 -3.33858E-02 +3.50395E-03 -3.32103E-02 +8.07130E-03 -3.23937E-02 +1.24800E-02 -3.09524E-02
 +1.66450E-02 -2.89144E-02 +2.04860E-02 -2.63196E-02 +2.39292E-02 -2.32184E-02 +2.69084E-02 -1.96709E-02
 +2.93662E-02 -1.57459E-02 +3.12556E-02 -1.15194E-02 +3.25404E-02 -7.07323E-03 +3.31964E-02 -2.49330E-03
 +3.32110E-02 +2.13189E-03 +3.25846E-02 +6.71302E-03 +3.13296E-02 +1.11617E-02 +2.94706E-02 +1.53921E-02
 +2.70439E-02 +1.93227E-02 +2.40966E-02 +2.28779E-02 +2.06861E-02 +2.59892E-02 +1.68783E-02 +2.85968E-02
 +1.27472E-02 +3.06508E-02 +8.37257E-03 +3.21119E-02 +3.83908E-03 +3.29521E-02 -7.65674E-04 +3.31558E-02
 -5.35276E-03 +3.27192E-02 -9.83363E-03 +3.16514E-02 -1.41219E-02 +2.99732E-02 -1.81348E-02 +2.77175E-02
 -2.17951E-02 +2.49281E-02 -2.50325E-02 +2.16593E-02 -2.77845E-02 +1.79745E-02 -2.99985E-02 +1.39450E-02
 -3.16321E-02 +9.64883E-03 -3.26540E-02 +5.16911E-03 -3.30449E-02 +5.92421E-04 -3.27977E-02 -3.99283E-03
 -3.19175E-02 -8.49812E-03 -3.04217E-02 -1.28365E-02 -2.83397E-02 -1.69244E-02 -2.57118E-02 -2.06831E-02
 -2.25893E-02 -2.40401E-02 -1.90328E-02 -2.69309E-02 -1.51110E-02 -2.93001E-02 -1.09000E-02 -3.11022E-02
 -6.48125E-03 -3.23027E-02 -1.94016E-03 -3.28790E-02 +2.63553E-03 -3.28202E-02 +7.15747E-03 -3.21279E-02
 +1.15384E-02 -3.08158E-02 +1.56939E-02 -2.89097E-02 +1.95438E-02 -2.64467E-02 +2.30140E-02 -2.34748E-02
 +2.60377E-02 -2.00516E-02 +2.85570E-02 -1.62435E-02 +3.05234E-02 -1.21242E-02 +3.18994E-02 -7.77342E-03
 +3.26587E-02 -3.27534E-03 +3.27871E-02 +1.28313E-03 +3.22826E-02 +5.81397E-03 +3.11551E-02 +1.02297E-02
 +2.94270E-02 +1.44453E-02 +2.71319E-02 +1.83793E-02 +2.43146E-02 +2.19561E-02 +2.10296E-02 +2.51067E-02
 +1.73407E-02 +2.77708E-02 +1.33194E-02 +2.98971E-02 +9.04356E-03 +3.14450E-02 +4.59580E-03 +3.23848E-02
 +6.21211E-05 +3.26990E-02 -4.46991E-03 +3.23817E-02 -8.91281E-03 +3.14396E-02 -1.31809E-02 +2.98911E-02
 -1.71918E-02 +2.77666E-02 -2.08684E-02 +2.51075E-02 -2.41398E-02 +2.19653E-02 -2.69431E-02 +1.84011E-02
 -2.92247E-02 +1.44840E-02 -3.09406E-02 +1.02897E-02 -3.20582E-02 +5.89941E-03 -3.25562E-02 +1.39800E-03
 -3.24255E-02 -3.12756E-03 -3.16690E-02 -7.58991E-03 -3.03015E-02 -1.19029E-02 -2.83500E-02 -1.59835E-02
 -2.58525E-02 -1.97529E-02 -2.28575E-02 -2.31387E-02 -1.94232E-02 -2.60757E-02 -1.56160E-02 -2.85075E-02
 -1.15099E-02 -3.03875E-02 -7.18407E-03 -3.16797E-02 -2.72232E-03 -3.23595E-02 +1.78918E-03 -3.24143E-02
 +6.26331E-03 -3.18433E-02 +1.06137E-02 -3.06580E-02 +1.47565E-02 -2.88816E-02 +1.86119E-02 -2.65488E-02
 +2.21055E-02 -2.37050E-02 +2.51702E-02 -2.04054E-02 +2.77472E-02 -1.67140E-02 +2.97869E-02 -1.27022E-02
 +3.12503E-02 -8.44776E-03 +3.21095E-02 -4.03292E-03 +3.23484E-02 +4.56993E-04 +3.19627E-02 +4.93527E-03
 +3.09602E-02 +9.31546E-03 +2.93607E-02 +1.35131E-02 +2.71955E-02 +1.74472E-02 +2.45066E-02 +2.10421E-02
 +2.13464E-02 +2.42285E-02 +1.77761E-02 +2.69452E-02 +1.38649E-02 +2.91401E-02 +9.68849E-03 +3.07711E-02
 +5.32769E-03 +3.18070E-02 +8.66788E-04 +3.22284E-02 -3.60805E-03 +3.20273E-02 -8.01042E-03 +3.12081E-02
 -1.22554E-02 +2.97870E-02 -1.62611E-02 +2.77918E-02 -1.99505E-02 +2.52614E-02 -2.32524E-02 +2.22449E-02
 -2.61033E-02 +1.88009E-02 -2.84486E-02 +1.49962E-02 -3.02432E-02 +1.09043E-02 -3.14530E-02 +6.60455E-03
 -3.20548E-02 +2.17999E-03 -3.20374E-02 -2.28387E-03 -3.14016E-02 -6.70084E-03 -3.01601E-02 -1.09857E-02
 -2.83371E-02 -1.50558E-02 -2.59683E-02 -1.88327E-02 -2.30997E-02 -2.22437E-02 -1.97869E-02 -2.52231E-02
 -1.60943E-02 -2.77138E-02 -1.20934E-02 -2.96680E-02 -7.86146E-03 -3.10482E-02 -3.48046E-03 -3.18282E-02
 +9.64967E-04 -3.19934E-02 +5.38898E-03 -3.15408E-02 +9.70618E-03 -3.04797E-02 +1.38333E-02 -2.88308E-02
 +1.76908E-02 -2.66265E-02 +2.12044E-02 -2.39095E-02 +2.43065E-02 -2.07328E-02 +2.69374E-02 -1.71578E-02
 +2.90466E-02 -1.32538E-02 +3.05938E-02 -9.09644E-03 +3.15495E-02 -4.76611E-03 +3.18956E-02 -3.46485E-04
 +3.16258E-02 +4.07705E-03 +3.07456E-02 +8.41910E-03 +2.92725E-02 +1.25959E-02 +2.72352E-02 +1.65269E-02
 +2.46735E-02 +2.01365E-02 +2.16371E-02 +2.33550E-02 +1.81849E-02 +2.61207E-02 +1.43839E-02 +2.83805E-02
 +1.03076E-02 +3.00910E-02 +6.03485E-03 +3.12195E-02 +1.64832E-03 +3.17447E-02 -2.76727E-03 +3.16567E-02
 -7.12668E-03 +3.09578E-02 -1.13458E-02 +2.96616E-02 -1.53432E-02 +2.77937E-02 -1.90419E-02 +2.53905E-02
 -2.23708E-02 +2.24986E-02 -2.52657E-02 +1.91743E-02 -2.76710E-02 +1.54819E-02 -2.95408E-02 +1.14929E-02
 -3.08390E-02 +7.28466E-03 -3.15412E-02 +2.93840E-03 -3.16341E-02 -1.46185E-03 -3.11162E-02 -5.83112E-03
 -2.99981E-02 -1.00851E-02 -2.83015E-02 -1.41417E-02 -2.60597E-02 -1.79228E-02 -2.33163E-02 -2.13555E-02
 -2.01245E-02 -2.43738E-02 -1.65462E-02 -2.69198E-02 -1.26508E-02 -2.89445E-02 -8.51357E-03 -3.04091E-02
 -4.21464E-03 -3.12859E-02 +1.62949E-04 -3.15582E-02 +4.53464E-03 -3.12211E-02 +8.81606E-03 -3.02815E-02
 +1.29246E-02 -2.87580E-02 +1.67811E-02 -2.66803E-02 +2.03112E-02 -2.40889E-02 +2.34470E-02 -2.10341E-02
 +2.61282E-02 -1.75752E-02 +2.83034E-02 -1.37792E-02 +2.99309E-02 -9.71965E-03 +3.09795E-02 -5.47498E-03
 +3.14295E-02 -1.12728E-03 +3.12725E-02 +3.23944E-03 +3.05119E-02 +7.54089E-03 +2.91628E-02 +1.16941E-02
 +2.72516E-02 +1.56189E-02 +2.48156E-02 +1.92398E-02 +2.19020E-02 +2.24870E-02 +1.85675E-02 +2.52980E-02
 +1.48767E-02 +2.76190E-02 +1.09010E-02 +2.94054E-02 +6.71739E-03 +3.06230E-02 +2.40672E-03 +3.12487E-02
 -1.94769E-03 +3.12708E-02 -6.26178E-03 +3.06892E-02 -1.04523E-02 +2.95156E-02 -1.44384E-02 +2.77730E-02
 -1.81433E-02 +2.54954E-02 -2.14956E-02 +2.27270E-02 -2.44309E-02 +1.95216E-02 -2.68927E-02 +1.59415E-02
 -2.88338E-02 +1.20558E-02 -3.02172E-02 +7.93990E-03 -3.10163E-02 +3.67329E-03 -3.12163E-02 -6.61555E-04
 -3.08135E-02 -4.98090E-03 -2.98162E-02 -9.20139E-03 -2.82439E-02 -1.32416E-02 -2.61274E-02 -1.70237E-02
 -2.35079E-02 -2.04747E-02 -2.04362E-02 -2.35284E-02 -1.69720E-02 -2.61260E-02 -1.31823E-02 -2.82176E-02
 -9.14059E-03 -2.97632E-02 -4.92493E-03 -3.07333E-02 -6.16843E-04 -3.11095E-02 +3.70044E-03 -3.08849E-02
 +7.94358E-03 -3.00643E-02 +1.20307E-02 -2.86639E-02 +1.58831E-02 -2.67110E-02 +1.94264E-02 -2.42437E-02
 +2.25925E-02 -2.13100E-02 +2.53204E-02 -1.79668E-02 +2.75579E-02 -1.42788E-02 +2.92620E-02 -1.03176E-02
 +3.04002E-02 -6.15963E-03 +3.09509E-02 -1.88539E-03 +3.09037E-02 +2.42256E-03 +3.02600E-02 +6.68103E-03
 +2.90326E-02 +1.08079E-02 +2.72455E-02 +1.47235E-02 +2.49336E-02 +1.83524E-02 +2.21418E-02 +2.16248E-02
 +1.89244E-02 +2.44777E-02 +1.53437E-02 +2.68563E-02 +1.14690E-02 +2.87150E-02 +7.37544E-03 +3.00182E-02
 +3.14202E-03 +3.07411E-02 -1.14938E-03 +3.08702E-02 -5.41590E-03 +3.04032E-02 -9.57520E-03 +2.93497E-02
