 Created: 26-Mar-2021
 $NMID
 ID='D:\BASISSIMULATI'
 FMTDAT='(8E13.5)'
 VOLUME=   1.00000E+00
 TRAMP=   1.00000E+00
 $END
 +6.94646E-02 -1.33247E-08 +6.57988E-02 +9.30787E-03 +5.52466E-02 +1.80479E-02 +3.89602E-02 +2.56683E-02
 +1.87087E-02 +3.16422E-02 -3.32159E-03 +3.54914E-02 -2.47735E-02 +3.68197E-02 -4.33812E-02 +3.53559E-02
 -5.72190E-02 +3.09993E-02 -6.49077E-02 +2.38632E-02 -6.57562E-02 +1.43053E-02 -5.98219E-02 +2.93736E-03
 -4.78868E-02 -9.39223E-03 -3.13521E-02 -2.16484E-02 -1.20673E-02 -3.26899E-02 +7.88558E-03 -4.13757E-02
 +2.64261E-02 -4.66874E-02 +4.17003E-02 -4.78537E-02 +5.22712E-02 -4.44613E-02 +5.72548E-02 -3.65364E-02
 +5.63882E-02 -2.45830E-02 +5.00261E-02 -9.56889E-03 +3.90691E-02 +7.14417E-03 +2.48367E-02 +2.39221E-02
 +8.90281E-03 +3.90219E-02 -7.08610E-03 +5.07794E-02 -2.15868E-02 +5.78009E-02 -3.33106E-02 +5.91348E-02
 -4.13347E-02 +5.44025E-02 -4.51643E-02 +4.38696E-02 -4.47436E-02 +2.84452E-02 -4.04182E-02 +9.60821E-03
 -3.28605E-02 -1.07371E-02 -2.29692E-02 -3.04595E-02 -1.17584E-02 -4.74322E-02 -2.50088E-04 -5.97725E-02
 +1.06174E-02 -6.60593E-02 +2.00584E-02 -6.55039E-02 +2.74810E-02 -5.80521E-02 +3.25017E-02 -4.44043E-02
 +3.49382E-02 -2.59493E-02 +3.47862E-02 -4.61834E-03 +3.21891E-02 +1.73244E-02 +2.74062E-02 +3.75322E-02
 +2.07864E-02 +5.38365E-02 +1.27498E-02 +6.44898E-02 +3.77600E-03 +6.83601E-02 -5.60270E-03 +6.50569E-02
 -1.48081E-02 +5.49708E-02 -2.32285E-02 +3.92266E-02 -3.02414E-02 +1.95518E-02 -3.52490E-02 -1.92085E-03
 -3.77259E-02 -2.28939E-02 -3.72771E-02 -4.11613E-02 -3.36977E-02 -5.48494E-02 -2.70269E-02 -6.26155E-02
 -1.75859E-02 -6.37829E-02 -5.99026E-03 -5.83971E-02 +6.87067E-03 -4.71999E-02 +1.98896E-02 -3.15272E-02
 +3.18322E-02 -1.31428E-02 +4.14547E-02 +5.96821E-03 +4.76393E-02 +2.38225E-02 +4.95288E-02 +3.86522E-02
 +4.66468E-02 +4.90839E-02 +3.89839E-02 +5.42656E-02 +2.70380E-02 +5.39294E-02 +1.17983E-02 +4.83864E-02
 -5.32979E-03 +3.84583E-02 -2.26534E-02 +2.53582E-02 -3.83641E-02 +1.05371E-02 -5.07334E-02 -4.48332E-03
 -5.83120E-02 -1.82725E-02 -6.01058E-02 -2.96283E-02 -5.57098E-02 -3.76778E-02 -4.53791E-02 -4.19322E-02
 -3.00271E-02 -4.22959E-02 -1.11469E-02 -3.90335E-02 +9.33656E-03 -3.27030E-02 +2.92690E-02 -2.40685E-02
 +4.65026E-02 -1.40045E-02 +5.91370E-02 -3.40502E-03 +6.57380E-02 +6.89371E-03 +6.55072E-02 +1.61698E-02
 +5.83827E-02 +2.38493E-02 +4.50561E-02 +2.95193E-02 +2.69049E-02 +3.29238E-02 +5.84429E-03 +3.39494E-02
 -1.58823E-02 +3.26076E-02 -3.59522E-02 +2.90186E-02 -5.22215E-02 +2.34014E-02 -6.29639E-02 +1.60694E-02
 -6.70611E-02 +7.43106E-03 -6.41233E-02 -2.00962E-03 -5.45272E-02 -1.16578E-02 -3.93662E-02 -2.08431E-02
 -2.03205E-02 -2.88504E-02 +5.36692E-04 -3.49667E-02 +2.09747E-02 -3.85431E-02 +3.88536E-02 -3.90668E-02
 +5.23563E-02 -3.62340E-02 +6.01800E-02 -3.00146E-02 +6.16632E-02 -2.06961E-02 +5.68382E-02 -8.89795E-03
 +4.64044E-02 +4.45110E-03 +3.16279E-02 +1.81759E-02 +1.41823E-02 +3.09548E-02 -4.04884E-03 +4.14490E-02
 -2.11837E-02 +4.84486E-02 -3.55432E-02 +5.10178E-02 -4.58194E-02 +4.86223E-02 -5.11926E-02 +4.12208E-02
 -5.13891E-02 +2.93058E-02 -4.66744E-02 +1.38857E-02 -3.77888E-02 -3.59513E-03 -2.58364E-02 -2.13921E-02
 -1.21434E-02 -3.76394E-02 +1.89505E-03 -5.05531E-02 +1.49619E-02 -5.86357E-02 +2.59416E-02 -6.08572E-02
 +3.40102E-02 -5.67899E-02 +3.86839E-02 -4.66797E-02 +3.98264E-02 -3.14415E-02 +3.76203E-02 -1.25782E-02
 +3.25088E-02 +7.97131E-03 +2.51218E-02 +2.80385E-02 +1.61956E-02 +4.54630E-02 +6.49765E-03 +5.83347E-02
 -3.23581E-03 +6.52125E-02 -1.23446E-02 +6.52925E-02 -2.02718E-02 +5.85058E-02 -2.65740E-02 +4.55340E-02
 -3.09222E-02 +2.77384E-02 -3.30954E-02 +7.01204E-03 -3.29762E-02 -1.44301E-02 -3.05496E-02 -3.42972E-02
 -2.59084E-02 -5.04774E-02 -1.92636E-02 -6.12713E-02 -1.09557E-02 -6.55773E-02 -1.46244E-03 -6.30082E-02
 +8.60432E-03 -5.39247E-02 +1.85172E-02 -3.93855E-02 +2.74715E-02 -2.10185E-02 +3.46443E-02 -8.30670E-04
 +3.92687E-02 +1.90202E-02 +4.07205E-02 +3.64658E-02 +3.86029E-02 +4.97505E-02 +3.28207E-02 +5.76135E-02
 +2.36304E-02 +5.94094E-02 +1.16561E-02 +5.51566E-02 -2.13650E-03 +4.55090E-02 -1.65087E-02 +3.16592E-02
 -3.00579E-02 +1.51865E-02 -4.13577E-02 -2.13139E-03 -4.91138E-02 -1.85175E-02 -5.23187E-02 -3.23845E-02
 -5.03862E-02 -4.24909E-02 -4.32460E-02 -4.80496E-02 -3.13859E-02 -4.87798E-02 -1.58312E-02 -4.48998E-02
 +1.94000E-03 -3.70665E-02 +2.01381E-02 -2.62729E-02 +3.68482E-02 -1.37187E-02 +5.02393E-02 -6.71330E-04
 +5.87739E-02 +1.16657E-02 +6.13917E-02 +2.22632E-02 +5.76462E-02 +3.03452E-02 +4.77746E-02 +3.54318E-02
 +3.26915E-02 +3.73451E-02 +1.39046E-02 +3.61849E-02 -6.64046E-03 +3.22801E-02 -2.67689E-02 +2.61271E-02
 -4.43162E-02 +1.83257E-02 -5.73703E-02 +9.51885E-03 -6.44891E-02 +3.45238E-04 -6.48668E-02 -8.59478E-03
 -5.84288E-02 -1.67594E-02 -4.58443E-02 -2.36747E-02 -2.84545E-02 -2.89392E-02 -8.12373E-03 -3.22266E-02
 +1.29687E-02 -3.32939E-02 +3.25714E-02 -3.19948E-02 +4.86112E-02 -2.83007E-02 +5.94209E-02 -2.23242E-02
 +6.39193E-02 -1.43413E-02 +6.17220E-02 -4.80534E-03 +5.31727E-02 +5.65445E-03 +3.92917E-02 +1.62553E-02
 +2.16493E-02 +2.61071E-02 +2.18086E-03 +3.42815E-02 -1.70348E-02 +3.99004E-02 -3.40061E-02 +4.22343E-02
 -4.70427E-02 +4.07994E-02 -5.49284E-02 +3.54401E-02 -5.70344E-02 +2.63845E-02 -5.33637E-02 +1.42612E-02
 -4.45223E-02 +7.07722E-05 -3.16261E-02 -1.48891E-02 -1.61559E-02 -2.91415E-02 +2.19926E-04 -4.11800E-02
 +1.58323E-02 -4.96337E-02 +2.91876E-02 -5.34306E-02 +3.91117E-02 -5.19378E-02 +4.48501E-02 -4.50594E-02
 +4.61138E-02 -3.32786E-02 +4.30723E-02 -1.76351E-02 +3.62973E-02 +3.63868E-04 +2.66691E-02 +1.88911E-02
 +1.52597E-02 +3.59908E-02 +3.20845E-03 +4.97935E-02 -8.39456E-03 +5.87289E-02 -1.86056E-02 +6.17126E-02
 -2.66958E-02 +5.82825E-02 -3.21877E-02 +4.86679E-02 -3.48613E-02 +3.37808E-02 -3.47333E-02 +1.51287E-02
 -3.20188E-02 -5.34304E-03 -2.70823E-02 -2.54612E-02 -2.03889E-02 -4.30654E-02 -1.24598E-02 -5.62489E-02
 -3.83887E-03 -6.35747E-02 +4.93118E-03 -6.42381E-02 +1.33222E-02 -5.81594E-02 +2.08296E-02 -4.59939E-02
 +2.69803E-02 -2.90581E-02 +3.13454E-02 -9.18152E-03 +3.35596E-02 +1.14991E-02 +3.33503E-02 +3.07790E-02
 +3.05720E-02 +4.66302E-02 +2.52435E-02 +5.74226E-02 +1.75797E-02 +6.20979E-02 +8.01172E-03 +6.02755E-02
 -2.81409E-03 +5.22805E-02 -1.40616E-02 +3.90914E-02 -2.47588E-02 +2.22164E-02 -3.38780E-02 +3.51337E-03
 -4.04360E-02 -1.50230E-02 -4.36049E-02 -3.14827E-02 -4.28196E-02 -4.42441E-02 -3.78687E-02 -5.21373E-02
 -2.89546E-02 -5.45508E-02 -1.67103E-02 -5.14707E-02 -2.16895E-03 -4.34528E-02 +1.33179E-02 -3.15331E-02
 +2.82057E-02 -1.70907E-02 +4.09154E-02 -1.68135E-03 +5.00077E-02 +1.31363E-02 +5.43530E-02 +2.59637E-02
 +5.32771E-02 +3.56949E-02 +4.66612E-02 +4.16072E-02 +3.49846E-02 +4.34029E-02 +1.92985E-02 +4.12011E-02
 +1.13411E-03 +3.54866E-02 -1.76509E-02 +2.70260E-02 -3.50680E-02 +1.67630E-02 -4.92174E-02 +5.70903E-03
 -5.85037E-02 -5.15878E-03 -6.18239E-02 -1.49809E-02 -5.87036E-02 -2.30743E-02 -4.93646E-02 -2.89631E-02
 -3.47136E-02 -3.23841E-02 -1.62532E-02 -3.32713E-02 +4.07801E-03 -3.17268E-02 +2.41167E-02 -2.79852E-02
 +4.17142E-02 -2.23795E-02 +5.49765E-02 -1.53122E-02 +6.24767E-02 -7.23508E-03 +6.34146E-02 +1.36420E-03
 +5.77060E-02 +9.96990E-03 +4.59899E-02 +1.80464E-02 +2.95541E-02 +2.50506E-02 +1.01875E-02 +3.04535E-02
 -1.00225E-02 +3.37723E-02 -2.89247E-02 +3.46124E-02 -4.45420E-02 +3.27166E-02 -5.52860E-02 +2.80146E-02
 -6.01240E-02 +2.06639E-02 -5.86798E-02 +1.10750E-02 -5.12579E-02 -8.85059E-05 -3.87919E-02 -1.19394E-02
 -2.27232E-02 -2.34282E-02 -4.82752E-03 -3.34335E-02 +1.29896E-02 -4.08737E-02 +2.89040E-02 -4.48293E-02
 +4.13657E-02 -4.46600E-02 +4.92530E-02 -4.01033E-02 +5.19712E-02 -3.13379E-02 +4.94887E-02 -1.90015E-02
 +4.23089E-02 -4.15681E-03 +3.13849E-02 +1.17956E-02 +1.79910E-02 +2.72504E-02 +3.56813E-03 +4.05637E-02
 -1.04376E-02 +5.02357E-02 -2.27239E-02 +5.50863E-02 -3.22532E-02 +5.44049E-02 -3.83342E-02 +4.80530E-02
 -4.06589E-02 +3.65056E-02 -3.92950E-02 +2.08231E-02 -3.46396E-02 +2.55506E-03 -2.73447E-02 -1.64171E-02
 -1.82254E-02 -3.40806E-02 -8.16590E-03 -4.85133E-02 +1.96843E-03 -5.81019E-02 +1.14010E-02 -6.17303E-02
 +1.94929E-02 -5.89148E-02 +2.57688E-02 -4.98697E-02 +2.99219E-02 -3.54944E-02 +3.18040E-02 -1.72814E-02
 +3.14055E-02 +2.84436E-03 +2.88335E-02 +2.27367E-02 +2.42920E-02 +4.02666E-02 +1.80680E-02 +5.35593E-02
 +1.05244E-02 +6.12031E-02 +2.09642E-03 +6.24052E-02 -6.71124E-03 +5.70771E-02 -1.53319E-02 +4.58397E-02
 -2.31544E-02 +2.99477E-02 -2.95528E-02 +1.11439E-02 -3.39308E-02 -8.54027E-03 -3.57773E-02 -2.70133E-02
 -3.47291E-02 -4.23545E-02 -3.06312E-02 -5.30215E-02 -2.35874E-02 -5.80092E-02 -1.39894E-02 -5.69459E-02
 -2.51775E-03 -5.01144E-02 +9.89171E-03 -3.83999E-02 +2.21165E-02 -2.31730E-02 +3.29476E-02 -6.12247E-03
 +4.12120E-02 +1.09397E-02 +4.59051E-02 +2.62788E-02 +4.63180E-02 +3.84190E-02 +4.21413E-02 +4.62880E-02
 +3.35324E-02 +4.93082E-02 +2.11334E-02 +4.74289E-02 +6.03368E-03 +4.10988E-02 -1.03224E-02 +3.11857E-02
 -2.62754E-02 +1.88569E-02 -4.01250E-02 +5.43601E-03 -5.03182E-02 -7.74462E-03 -5.56313E-02 -1.94796E-02
 -5.53227E-02 -2.87994E-02 -4.92367E-02 -3.50436E-02 -3.78438E-02 -3.78931E-02 -2.22109E-02 -3.73628E-02
 -3.90039E-03 -3.37613E-02 +1.51896E-02 -2.76258E-02 +3.30299E-02 -1.96435E-02 +4.76840E-02 -1.05720E-02
 +5.75278E-02 -1.16670E-03 +6.14373E-02 +7.87704E-03 +5.89220E-02 +1.59630E-02 +5.01893E-02 +2.26151E-02
 +3.61282E-02 +2.74828E-02 +1.82165E-02 +3.03363E-02 -1.64108E-03 +3.10564E-02 -2.13229E-02 +2.96251E-02
 -3.87270E-02 +2.61211E-02 -5.20040E-02 +2.07196E-02 -5.97624E-02 +1.36981E-02 -6.12191E-02 +5.44168E-03
 -5.62818E-02 -3.55439E-03 -4.55509E-02 -1.26928E-02 -3.02442E-02 -2.12959E-02 -1.20527E-02 -2.86446E-02
 +7.05396E-03 -3.40340E-02 +2.50499E-02 -3.68421E-02 +4.00761E-02 -3.66048E-02 +5.06395E-02 -3.30878E-02
 +5.57650E-02 -2.63445E-02 +5.50854E-02 -1.67499E-02 +4.88598E-02 -5.00083E-03 +3.79224E-02 +7.92099E-03
 +2.35689E-02 +2.08248E-02 +7.39725E-03 +3.24201E-02 -8.87830E-03 +4.14494E-02 -2.36156E-02 +4.68305E-02
