 Created: 26-Mar-2021
 $NMID
 ID='D:\BASISSIMULATI'
 FMTDAT='(8E13.5)'
 VOLUME=   1.00000E+00
 TRAMP=   1.00000E+00
 $END
 +1.23275E-01 +5.50027E-05 +1.16620E-01 +3.72612E-02 +9.76957E-02 +6.94739E-02 +6.94054E-02 +9.25665E-02
 +3.59914E-02 +1.03934E-01 +2.28518E-03 +1.02881E-01 -2.71240E-02 +9.06608E-02 -4.86463E-02 +7.01635E-02
 -6.02358E-02 +4.53286E-02 -6.16287E-02 +2.03985E-02 -5.42446E-02 -8.37034E-04 -4.07858E-02 -1.56618E-02
 -2.46308E-02 -2.28088E-02 -9.14988E-03 -2.25330E-02 +2.91693E-03 -1.63876E-02 +9.90025E-03 -6.76938E-03
 +1.13860E-02 +3.65822E-03 +8.12573E-03 +1.25359E-02 +1.71359E-03 +1.82548E-02 -5.88247E-03 +2.01933E-02
 -1.28212E-02 +1.87086E-02 -1.78063E-02 +1.49059E-02 -2.03328E-02 +1.02519E-02 -2.07169E-02 +6.13618E-03
 -1.99133E-02 +3.48603E-03 -1.91776E-02 +2.52651E-03 -1.96620E-02 +2.73907E-03 -2.20463E-02 +3.02317E-03
 -2.62987E-02 +2.01741E-03 -3.16233E-02 -1.50137E-03 -3.66110E-02 -8.24032E-03 -3.95579E-02 -1.81286E-02
 -3.88789E-02 -3.02382E-02 -3.35166E-02 -4.29122E-02 -2.32494E-02 -5.40771E-02 -8.82219E-03 -6.16701E-02
 +8.13723E-03 -6.40893E-02 +2.54027E-02 -6.05603E-02 +4.05782E-02 -5.13382E-02 +5.15772E-02 -3.76915E-02
 +5.70491E-02 -2.16684E-02 +5.66560E-02 -5.69210E-03 +5.11380E-02 +7.93059E-03 +4.21478E-02 +1.74792E-02
 +3.18888E-02 +2.21665E-02 +2.26324E-02 +2.22841E-02 +1.62205E-02 +1.91126E-02 +1.36602E-02 +1.46136E-02
 +1.49030E-02 +1.09683E-02 +1.88583E-02 +1.00628E-02 +2.36434E-02 +1.30324E-02 +2.70167E-02 +1.99670E-02
 +2.69049E-02 +2.98460E-02 +2.19084E-02 +4.07218E-02 +1.16744E-02 +5.01178E-02 -2.94748E-03 +5.55614E-02
 -2.00059E-02 +5.51384E-02 -3.67925E-02 +4.79523E-02 -5.03628E-02 +3.43877E-02 -5.81300E-02 +1.61163E-02
 -5.84100E-02 -4.16193E-03 -5.08037E-02 -2.31974E-02 -3.63358E-02 -3.77952E-02 -1.73170E-02 -4.54276E-02
 +3.04811E-03 -4.47323E-02 +2.12323E-02 -3.57959E-02 +3.40273E-02 -2.01670E-02 +3.91306E-02 -5.93586E-04
 +3.55650E-02 +1.94632E-02 +2.38526E-02 +3.64452E-02 +5.91194E-03 +4.73255E-02 -1.52962E-02 +5.01292E-02
 -3.63035E-02 +4.42517E-02 -5.37418E-02 +3.05225E-02 -6.49105E-02 +1.10088E-02 -6.81979E-02 -1.13892E-02
 -6.32856E-02 -3.34700E-02 -5.11114E-02 -5.22792E-02 -3.36123E-02 -6.55731E-02 -1.33127E-02 -7.21166E-02
 +7.15206E-03 -7.17709E-02 +2.54793E-02 -6.53740E-02 +4.00265E-02 -5.44582E-02 +4.99704E-02 -4.08762E-02
 +5.52847E-02 -2.64233E-02 +5.65623E-02 -1.25354E-02 +5.47408E-02 -1.17619E-04 +5.08052E-02 +1.04740E-02
 +4.55424E-02 +1.93132E-02 +3.94000E-02 +2.66940E-02 +3.24775E-02 +3.28951E-02 +2.46387E-02 +3.79867E-02
 +1.57055E-02 +4.17339E-02 +5.67392E-03 +4.36214E-02 -5.11471E-03 +4.29954E-02 -1.59002E-02 +3.92845E-02
 -2.55569E-02 +3.22405E-02 -3.27715E-02 +2.21333E-02 -3.63102E-02 +9.84096E-03 -3.53151E-02 -3.20023E-03
 -2.95594E-02 -1.51872E-02 -1.95970E-02 -2.42539E-02 -6.76005E-03 -2.88265E-02 +7.00678E-03 -2.79572E-02
 +1.94533E-02 -2.15603E-02 +2.84166E-02 -1.04957E-02 +3.22227E-02 +3.52900E-03 +3.00168E-02 +1.82247E-02
 +2.19502E-02 +3.11123E-02 +9.18400E-03 +3.99628E-02 -6.29923E-03 +4.32030E-02 -2.20408E-02 +4.02043E-02
 -3.55445E-02 +3.13982E-02 -4.47237E-02 +1.81927E-02 -4.82694E-02 +2.70684E-03 -4.58691E-02 -1.26263E-02
 -3.82343E-02 -2.55087E-02 -2.69330E-02 -3.41912E-02 -1.40645E-02 -3.77726E-02 -1.84128E-03 -3.63252E-02
 +7.83552E-03 -3.08298E-02 +1.37252E-02 -2.29334E-02 +1.54520E-02 -1.45864E-02 +1.35288E-02 -7.63264E-03
 +9.20106E-03 -3.43724E-03 +4.14690E-03 -2.62653E-03 +9.90238E-05 -4.98895E-03 -1.53201E-03 -9.55308E-03
 +4.36406E-05 -1.48216E-02 +4.83400E-03 -1.91092E-02 +1.20710E-02 -2.09118E-02 +2.03780E-02 -1.92317E-02
 +2.80601E-02 -1.37916E-02 +3.34561E-02 -5.09789E-03 +3.52776E-02 +5.65661E-03 +3.28689E-02 +1.68265E-02
 +2.63354E-02 +2.66336E-02 +1.65205E-02 +3.35056E-02 +4.84034E-03 +3.63670E-02 -6.98690E-03 +3.48249E-02
 -1.72583E-02 +2.92190E-02 -2.45864E-02 +2.05317E-02 -2.81248E-02 +1.01824E-02 -2.76789E-02 -2.45581E-04
 -2.36888E-02 -9.28900E-03 -1.70956E-02 -1.58433E-02 -9.12747E-03 -1.93118E-02 -1.05559E-03 -1.96444E-02
 +6.02972E-03 -1.72684E-02 +1.13776E-02 -1.29369E-02 +1.46447E-02 -7.53532E-03 +1.58693E-02 -1.89358E-03
 +1.53681E-02 +3.35636E-03 +1.35905E-02 +7.84929E-03 +1.09705E-02 +1.14752E-02 +7.81525E-03 +1.42998E-02
 +4.25635E-03 +1.64465E-02 +2.72848E-04 +1.79767E-02 -4.22473E-03 +1.88058E-02 -9.27617E-03 +1.86799E-02
 -1.47556E-02 +1.72235E-02 -2.02943E-02 +1.40493E-02 -2.52707E-02 +8.90134E-03 -2.88778E-02 +1.79717E-03
 -3.02623E-02 -6.87372E-03 -2.87069E-02 -1.63246E-02 -2.38184E-02 -2.54374E-02 -1.56760E-02 -3.29150E-02
 -4.90300E-03 -3.74965E-02 +7.36400E-03 -3.81956E-02 +1.96104E-02 -3.45127E-02 +3.01660E-02 -2.65773E-02
 +3.74770E-02 -1.51838E-02 +4.03763E-02 -1.70967E-03 +3.83024E-02 +1.20780E-02 +3.14206E-02 +2.42939E-02
 +2.06227E-02 +3.32375E-02 +7.39964E-03 +3.76735E-02 -6.39055E-03 +3.70357E-02 -1.88203E-02 +3.15196E-02
 -2.82011E-02 +2.20448E-02 -3.33486E-02 +1.00943E-02 -3.37571E-02 -2.53752E-03 -2.96550E-02 -1.40433E-02
 -2.19339E-02 -2.28927E-02 -1.19673E-02 -2.80619E-02 -1.35848E-03 -2.91664E-02 +8.33752E-03 -2.64751E-02
 +1.58641E-02 -2.08122E-02 +2.04431E-02 -1.33692E-02 +2.18565E-02 -5.46863E-03 +2.04217E-02 +1.67484E-03
 +1.68728E-02 +7.15136E-03 +1.21783E-02 +1.04772E-02 +7.33525E-03 +1.16242E-02 +3.18001E-03 +1.09602E-02
 +2.52990E-04 +9.11986E-03 -1.26275E-03 +6.83830E-03 -1.52315E-03 +4.78481E-03 -9.36782E-04 +3.43026E-03
 -3.52341E-05 +2.97276E-03 +6.68157E-04 +3.33156E-03 +7.99565E-04 +4.20403E-03 +2.01202E-04 +5.16739E-03
 -1.05003E-03 +5.79862E-03 -2.68118E-03 +5.78392E-03 -4.30582E-03 +4.99346E-03 -5.52849E-03 +3.50685E-03
 -6.04516E-03 +1.58639E-03 -5.71648E-03 -3.92166E-04 -4.59836E-03 -2.03298E-03 -2.92467E-03 -3.01425E-03
 -1.04873E-03 -3.16108E-03 +6.40980E-04 -2.48081E-03 +1.80958E-03 -1.15428E-03 +2.24810E-03 +5.13114E-04
 +1.91267E-03 +2.16714E-03 +9.22638E-04 +3.48808E-03 -4.80353E-04 +4.26125E-03 -2.00096E-03 +4.41794E-03
 -3.36849E-03 +4.03746E-03 -4.40523E-03 +3.31090E-03 -5.06726E-03 +2.47625E-03 -5.44753E-03 +1.74189E-03
 -5.73998E-03 +1.21833E-03 -6.17314E-03 +8.76317E-04 -6.92970E-03 +5.43338E-04 -8.07211E-03 -5.83873E-05
 -9.49407E-03 -1.23957E-03 -1.09122E-02 -3.25282E-03 -1.19034E-02 -6.20388E-03 -1.19831E-02 -9.98686E-03
 -1.07105E-02 -1.42610E-02 -7.79745E-03 -1.84783E-02 -3.20017E-03 -2.19603E-02 +2.83048E-03 -2.40121E-02
 +9.75208E-03 -2.40534E-02 +1.67916E-02 -2.17398E-02 +2.30558E-02 -1.70511E-02 +2.76729E-02 -1.03260E-02
 +2.99400E-02 -2.23565E-03 +2.94498E-02 +6.30518E-03 +2.61713E-02 +1.42717E-02 +2.04696E-02 +2.06874E-02
 +1.30593E-02 +2.47783E-02 +4.89906E-03 +2.60964E-02 -2.95544E-03 +2.45896E-02 -9.51359E-03 +2.06077E-02
 -1.40002E-02 +1.48427E-02 -1.59684E-02 +8.21465E-03 -1.53564E-02 +1.72514E-03 -1.24815E-02 -3.69854E-03
 -7.97358E-03 -7.33980E-03 -2.66297E-03 -8.78924E-03 +2.55713E-03 -7.98708E-03 +6.86854E-03 -5.20774E-03
 +9.64398E-03 -9.93430E-04 +1.05235E-02 +3.94840E-03 +9.44202E-03 +8.86366E-03 +6.60897E-03 +1.30650E-02
 +2.44739E-03 +1.60222E-02 -2.49156E-03 +1.74162E-02 -7.62181E-03 +1.71543E-02 -1.24063E-02 +1.53475E-02
 -1.64187E-02 +1.22609E-02 -1.93766E-02 +8.25058E-03 -2.11442E-02 +3.69943E-03 -2.17126E-02 -1.03449E-03
 -2.11642E-02 -5.65131E-03 -1.96343E-02 -9.92171E-03 -1.72777E-02 -1.36814E-02 -1.42485E-02 -1.68149E-02
 -1.06929E-02 -1.92358E-02 -6.75497E-03 -2.08731E-02 -2.58814E-03 -2.16662E-02 +1.63351E-03 -2.15719E-02
 +5.71132E-03 -2.05799E-02 +9.42917E-03 -1.87310E-02 +1.25725E-02 -1.61325E-02 +1.49560E-02 -1.29624E-02
 +1.64544E-02 -9.46049E-03 +1.70280E-02 -5.90402E-03 +1.67368E-02 -2.57184E-03 +1.57375E-02 +2.96313E-04
 +1.42626E-02 +2.53748E-03 +1.25838E-02 +4.09165E-03 +1.09666E-02 +5.01018E-03 +9.62401E-03 +5.44362E-03
 +8.67983E-03 +5.61050E-03 +8.14842E-03 +5.75250E-03 +7.93588E-03 +6.08485E-03 +7.86291E-03 +6.75184E-03
 +7.70521E-03 +7.79658E-03 +7.24317E-03 +9.15153E-03 +6.31105E-03 +1.06520E-02 +4.83537E-03 +1.20702E-02
 +2.85431E-03 +1.31631E-02 +5.13937E-04 +1.37242E-02 -1.95840E-03 +1.36292E-02 -4.29849E-03 +1.28646E-02
 -6.25850E-03 +1.15345E-02 -7.65837E-03 +9.84295E-03 -8.42462E-03 +8.05461E-03 -8.60842E-03 +6.44184E-03
 -8.37862E-03 +5.22831E-03 -7.99039E-03 +4.54037E-03 -7.73519E-03 +4.37619E-03 -7.88115E-03 +4.59928E-03
 -8.61541E-03 +4.95834E-03 -9.99942E-03 +5.13049E-03 -1.19461E-02 +4.78025E-03 -1.42239E-02 +3.62374E-03
 -1.64869E-02 +1.48650E-03 -1.83274E-02 -1.65572E-03 -1.93407E-02 -5.66060E-03 -1.91918E-02 -1.02305E-02
 -1.76724E-02 -1.49496E-02 -1.47386E-02 -1.93405E-02 -1.05235E-02 -2.29314E-02 -5.32285E-03 -2.53218E-02
 +4.43630E-04 -2.62378E-02 +6.28789E-03 -2.55671E-02 +1.17172E-02 -2.33704E-02 +1.62960E-02 -1.98679E-02
 +1.96962E-02 -1.54047E-02 +2.17297E-02 -1.04019E-02 +2.23603E-02 -5.30078E-03 +2.16938E-02 -5.10102E-04
 +1.99516E-02 +3.63740E-03 +1.74324E-02 +6.91371E-03 +1.44689E-02 +9.20750E-03 +1.13870E-02 +1.05202E-02
 +8.47174E-03 +1.09490E-02 +5.94392E-03 +1.06620E-02 +3.94795E-03 +9.86920E-03 +2.55038E-03 +8.79556E-03
 +1.74642E-03 +7.65720E-03 +1.47160E-03 +6.64405E-03 +1.61565E-03 +5.90818E-03 +2.03645E-03 +5.55709E-03
 +2.57302E-03 +5.65055E-03 +3.05727E-03 +6.19952E-03 +3.32518E-03 +7.16644E-03 +3.22815E-03 +8.46682E-03
 +2.64494E-03 +9.97282E-03 +1.49393E-03 +1.15198E-02 -2.55190E-04 +1.29172E-02 -2.57231E-03 +1.39634E-02
 -5.36228E-03 +1.44654E-02 -8.46695E-03 +1.42599E-02 -1.16750E-02 +1.32349E-02 -1.47396E-02 +1.13474E-02
 -1.74027E-02 +8.63488E-03 -1.94225E-02 +5.21752E-03 -2.06023E-02 +1.28979E-03 -2.08135E-02 -2.89760E-03
 -2.00121E-02 -7.06386E-03 -1.82443E-02 -1.09287E-02 -1.56406E-02 -1.42432E-02 -1.23985E-02 -1.68157E-02
 -8.75808E-03 -1.85302E-02 -4.97209E-03 -1.93534E-02 -1.27717E-03 -1.93303E-02 +2.13084E-03 -1.85703E-02
 +5.11310E-03 -1.72245E-02 +7.59404E-03 -1.54614E-02 +9.55726E-03 -1.34425E-02 +1.10330E-02 -1.13031E-02
 +1.20801E-02 -9.14160E-03 +1.27664E-02 -7.01651E-03 +1.31520E-02 -4.95313E-03 +1.32777E-02 -2.95546E-03
 +1.31609E-02 -1.02135E-03 +1.27995E-02 +8.43415E-04 +1.21820E-02 +2.61511E-03 +1.13010E-02 +4.24869E-03
