 Created: 26-Mar-2021
 $NMID
 ID='D:\BASISSIMULATI'
 FMTDAT='(8E13.5)'
 VOLUME=   1.00000E+00
 TRAMP=   1.00000E+00
 $END
 +6.47034E-02 +3.27880E-07 +6.29691E-02 +1.41010E-02 +5.79751E-02 +2.73359E-02 +5.00581E-02 +3.89221E-02
 +3.97456E-02 +4.81955E-02 +2.77167E-02 +5.46576E-02 +1.47510E-02 +5.80085E-02 +1.67080E-03 +5.81656E-02
 -1.07192E-02 +5.52658E-02 -2.16902E-02 +4.96500E-02 -3.06407E-02 +4.18334E-02 -3.71377E-02 +3.24626E-02
 -4.09441E-02 +2.22633E-02 -4.20303E-02 +1.19830E-02 -4.05694E-02 +2.33283E-03 -3.69172E-02 -6.06597E-03
 -3.15771E-02 -1.27279E-02 -2.51550E-02 -1.73371E-02 -1.83062E-02 -1.97669E-02 -1.16798E-02 -2.00835E-02
 -5.86462E-03 -1.85340E-02 -1.34050E-03 -1.55198E-02 +1.55963E-03 -1.15573E-02 +2.67547E-03 -7.22977E-03
 +2.02993E-03 -3.13420E-03 -1.75853E-04 +1.72542E-04 -3.58262E-03 +2.22365E-03 -7.70657E-03 +2.68441E-03
 -1.19834E-02 +1.38282E-03 -1.58195E-02 -1.67376E-03 -1.86453E-02 -6.29719E-03 -1.99675E-02 -1.21327E-02
 -1.94147E-02 -1.86870E-02 -1.67738E-02 -2.53692E-02 -1.20122E-02 -3.15393E-02 -5.28697E-03 -3.65626E-02
 +3.06319E-03 -3.98634E-02 +1.25402E-02 -4.09759E-02 +2.25228E-02 -3.95858E-02 +3.23128E-02 -3.55608E-02
 +4.11890E-02 -2.89671E-02 +4.84630E-02 -2.00696E-02 +5.35340E-02 -9.31766E-03 +5.59372E-02 +2.68546E-03
 +5.53822E-02 +1.52243E-02 +5.17784E-02 +2.75226E-02 +4.52452E-02 +3.88001E-02 +3.61068E-02 +4.83298E-02
 +2.48702E-02 +5.54914E-02 +1.21907E-02 +5.98178E-02 -1.17518E-03 +6.10295E-02 -1.44235E-02 +5.90547E-02
 -2.67611E-02 +5.40346E-02 -3.74619E-02 +4.63121E-02 -4.59186E-02 +3.64057E-02 -5.16850E-02 +2.49703E-02
 -5.45054E-02 +1.27482E-02 -5.43299E-02 +5.14044E-04 -5.13140E-02 -1.09821E-02 -4.58019E-02 -2.10686E-02
 -3.82969E-02 -2.92001E-02 -2.94190E-02 -3.49938E-02 -1.98551E-02 -3.82533E-02 -1.03049E-02 -3.89776E-02
 -1.42638E-03 -3.73542E-02 +6.21362E-03 -3.37376E-02 +1.21809E-02 -2.86160E-02 +1.62037E-02 -2.25663E-02
 +1.81893E-02 -1.62045E-02 +1.82248E-02 -1.01332E-02 +1.65643E-02 -4.89135E-03 +1.36014E-02 -9.10126E-04
 +9.83150E-03 +1.52133E-03 +5.80545E-03 +2.27787E-03 +2.07948E-03 +1.40611E-03 -8.34913E-04 -8.82381E-04
 -2.51690E-03 -4.23197E-03 -2.67419E-03 -8.17595E-03 -1.16988E-03 -1.21790E-02 +1.96402E-03 -1.56857E-02
 +6.52747E-03 -1.81706E-02 +1.21676E-02 -1.91859E-02 +1.84072E-02 -1.84038E-02 +2.46837E-02 -1.56479E-02
 +3.03959E-02 -1.09131E-02 +3.49549E-02 -4.37086E-03 +3.78343E-02 +3.63960E-03 +3.86161E-02 +1.26345E-02
 +3.70286E-02 +2.20204E-02 +3.29733E-02 +3.11395E-02 +2.65372E-02 +3.93191E-02 +1.79923E-02 +4.59253E-02
 +7.77871E-03 +5.04121E-02 -3.52452E-03 +5.23660E-02 -1.52402E-02 +5.15402E-02 -2.66418E-02 +4.78758E-02
 -3.70063E-02 +4.15099E-02 -4.56676E-02 +3.27680E-02 -5.20654E-02 +2.21417E-02 -5.57869E-02 +1.02551E-02
 -5.65966E-02 -2.18017E-03 -5.44540E-02 -1.44161E-02 -4.95153E-02 -2.57217E-02 -4.21216E-02 -3.54354E-02
 -3.27722E-02 -4.30119E-02 -2.20873E-02 -4.80594E-02 -1.07611E-02 -5.03658E-02 +4.89522E-04 -4.99101E-02
 +1.09774E-02 -4.68602E-02 +2.00948E-02 -4.15557E-02 +2.73558E-02 -3.44784E-02 +3.24288E-02 -2.62120E-02
 +3.51565E-02 -1.73952E-02 +3.55618E-02 -8.67120E-03 +3.38401E-02 -6.38286E-04 +3.03371E-02 +6.19546E-03
 +2.55164E-02 +1.14489E-02 +1.99173E-02 +1.48938E-02 +1.41086E-02 +1.64678E-02 +8.63968E-03 +1.62737E-02
 +3.99513E-03 +1.45650E-02 +5.55164E-04 +1.17197E-02 -1.43449E-03 +8.20368E-03 -1.88095E-03 +4.52748E-03
 -8.49450E-04 +1.19989E-03 +1.44497E-03 -1.31784E-03 +4.65834E-03 -2.65340E-03 +8.34969E-03 -2.55699E-03
 +1.20210E-02 -9.24300E-04 +1.51624E-02 +2.19292E-03 +1.72978E-02 +6.58963E-03 +1.80289E-02 +1.19233E-02
 +1.70720E-02 +1.77418E-02 +1.42861E-02 +2.35200E-02 +9.68879E-03 +2.87041E-02 +3.45963E-03 +3.27580E-02
 -4.07013E-03 +3.52093E-02 -1.24404E-02 +3.56905E-02 -2.10960E-02 +3.39723E-02 -2.94284E-02 +2.99865E-02
 -3.68228E-02 +2.38360E-02 -4.27057E-02 +1.57915E-02 -4.65909E-02 +6.27503E-03 -4.81177E-02 -4.16898E-03
 -4.70818E-02 -1.49119E-02 -4.34525E-02 -2.52866E-02 -3.73781E-02 -3.46357E-02 -2.91771E-02 -4.23604E-02
 -1.93164E-02 -4.79640E-02 -8.37853E-03 -5.10890E-02 +2.98001E-03 -5.15428E-02 +1.40760E-02 -4.93115E-02
 +2.42484E-02 -4.45600E-02 +3.29058E-02 -3.76192E-02 +3.95674E-02 -2.89601E-02 +4.38966E-02 -1.91583E-02
 +4.57222E-02 -8.85094E-03 +4.50476E-02 +1.31084E-03 +4.20467E-02 +1.07094E-02 +3.70463E-02 +1.88046E-02
 +3.04981E-02 +2.51721E-02 +2.29408E-02 +2.95304E-02 +1.49570E-02 +3.17582E-02 +7.12733E-03 +3.18972E-02
 -1.46046E-05 +3.01436E-02 -6.02177E-03 +2.68267E-02 -1.05661E-02 +2.23776E-02 -1.34605E-02 +1.72908E-02
 -1.46687E-02 +1.20810E-02 -1.43029E-02 +7.23998E-03 -1.26091E-02 +3.19518E-03 -9.94208E-03 +2.75450E-04
 -6.73069E-03 -1.31500E-03 -3.43874E-03 -1.51159E-03 -5.22581E-04 -3.92323E-04 +1.60986E-03 +1.83130E-03
 +2.63568E-03 +4.83475E-03 +2.34609E-03 +8.21044E-03 +6.65685E-04 +1.15047E-02 -2.33968E-03 +1.42589E-02
 -6.46712E-03 +1.60505E-02 -1.13925E-02 +1.65320E-02 -1.66970E-02 +1.54635E-02 -2.19011E-02 +1.27362E-02
 -2.65051E-02 +8.38521E-03 -3.00310E-02 +2.59133E-03 -3.20634E-02 -4.33038E-03 -3.22859E-02 -1.19524E-02
 -3.05099E-02 -1.97665E-02 -2.66937E-02 -2.72216E-02 -2.09496E-02 -3.37671E-02 -1.35395E-02 -3.88952E-02
 -4.85835E-03 -4.21812E-02 +4.59305E-03 -4.33178E-02 +1.42436E-02 -4.21405E-02 +2.34930E-02 -3.86420E-02
 +3.17559E-02 -3.29752E-02 +3.85049E-02 -2.54437E-02 +4.33088E-02 -1.64805E-02 +4.58647E-02 -6.61805E-03
 +4.60196E-02 +3.55067E-03 +4.37814E-02 +1.34144E-02 +3.93168E-02 +2.23874E-02 +3.29386E-02 +2.99513E-02
 +2.50811E-02 +3.56912E-02 +1.62674E-02 +3.93240E-02 +7.06995E-03 +4.07159E-02 -1.93167E-03 +3.98894E-02
 -1.01933E-02 +3.70175E-02 -1.72446E-02 +3.24067E-02 -2.27223E-02 +2.64710E-02 -2.63928E-02 +1.96971E-02
 -2.81663E-02 +1.26055E-02 -2.80977E-02 +5.70951E-03 -2.63774E-02 -5.24061E-04 -2.33109E-02 -5.70979E-03
 -1.92904E-02 -9.57106E-03 -1.47592E-02 -1.19582E-02 -1.01738E-02 -1.28559E-02 -5.96513E-03 -1.23796E-02
 -2.50287E-03 -1.07610E-02 -6.57020E-05 -8.32455E-03 +1.18048E-03 -5.45638E-03 +1.19449E-03 -2.56855E-03
 +6.10088E-05 -6.17093E-05 -2.01892E-03 +1.71085E-03 -4.74720E-03 +2.47487E-03 -7.75623E-03 +2.05978E-03
 -1.06422E-02 +4.14496E-04 -1.30017E-02 -2.38713E-03 -1.44679E-02 -6.15137E-03 -1.47443E-02 -1.05800E-02
 -1.36325E-02 -1.52946E-02 -1.10519E-02 -1.98678E-02 -7.04965E-03 -2.38590E-02 -1.80058E-03 -2.68516E-02
 +4.40407E-03 -2.84884E-02 +1.11771E-02 -2.85033E-02 +1.80643E-02 -2.67456E-02 +2.45786E-02 -2.31947E-02
 +3.02379E-02 -1.79663E-02 +3.46026E-02 -1.13058E-02 +3.73105E-02 -3.57325E-03 +3.81057E-02 +4.78192E-03
 +3.68600E-02 +1.32529E-02 +3.35840E-02 +2.13123E-02 +2.84285E-02 +2.84506E-02 +2.16745E-02 +3.42134E-02
 +1.37138E-02 +3.82352E-02 +5.02115E-03 +4.02652E-02 -3.88009E-03 +4.01861E-02 -1.24554E-02 +3.80216E-02
 -2.01975E-02 +3.39336E-02 -2.66622E-02 +2.82095E-02 -3.14993E-02 +2.12401E-02 -3.44762E-02 +1.34892E-02
 -3.54921E-02 +5.45952E-03 -3.45826E-02 -2.34472E-03 -3.19130E-02 -9.45461E-03 -2.77634E-02 -1.54697E-02
 -2.25033E-02 -2.00854E-02 -1.65623E-02 -2.31127E-02 -1.03946E-02 -2.44879E-02 -4.44408E-03 -2.42732E-02
 +8.90007E-04 -2.26469E-02 +5.28234E-03 -1.98848E-02 +8.50457E-03 -1.63342E-02 +1.04399E-02 -1.23833E-02
 +1.10884E-02 -8.42758E-03 +1.05625E-02 -4.83627E-03 +9.07343E-03 -1.92220E-03 +6.90986E-03 +8.34096E-05
 +4.41032E-03 +1.04875E-03 +1.93202E-03 +9.50588E-04 -1.81542E-04 -1.25916E-04 -1.63135E-03 -1.99652E-03
 -2.18956E-03 -4.39560E-03 -1.71997E-03 -7.00071E-03 -1.90533E-04 -9.46182E-03 +2.32303E-03 -1.14329E-02
 +5.64278E-03 -1.26033E-02 +9.50282E-03 -1.27260E-02 +1.35711E-02 -1.16408E-02 +1.74770E-02 -9.29056E-03
 +2.08423E-02 -5.72846E-03 +2.33129E-02 -1.11674E-03 +2.45899E-02 +4.28398E-03 +2.44548E-02 +1.01333E-02
 +2.27904E-02 +1.60364E-02 +1.95924E-02 +2.15743E-02 +1.49729E-02 +2.63362E-02 +9.15441E-03 +2.99512E-02
 +2.45534E-03 +3.21182E-02 -4.73238E-03 +3.26298E-02 -1.19713E-02 +3.13891E-02 -1.88101E-02 +2.84193E-02
 -2.48167E-02 +2.38622E-02 -2.96101E-02 +1.79700E-02 -3.28878E-02 +1.10868E-02 -3.44479E-02 +3.62412E-03
 -3.42036E-02 -3.96833E-03 -3.21884E-02 -1.12354E-02 -2.85532E-02 -1.77489E-02 -2.35539E-02 -2.31377E-02
 -1.75317E-02 -2.71135E-02 -1.08870E-02 -2.94901E-02 -4.04958E-03 -3.01945E-02 +2.55327E-03 -2.92691E-02
 +8.52757E-03 -2.68660E-02 +1.35405E-02 -2.32326E-02 +1.73431E-02 -1.86897E-02 +1.97855E-02 -1.36058E-02
 +2.08251E-02 -8.36709E-03 +2.05254E-02 -3.34751E-03 +1.90467E-02 +1.11964E-03 +1.66301E-02 +4.76618E-03
 +1.35744E-02 +7.40772E-03 +1.02102E-02 +8.95511E-03 +6.87079E-03 +9.41795E-03 +3.86481E-03 +8.89991E-03
 +1.45064E-03 +7.58650E-03 -1.84018E-04 +5.72628E-03 -9.36409E-04 +3.60722E-03 -7.95558E-04 +1.53018E-03
 +1.58747E-04 -2.18232E-04 +1.76465E-03 -1.39135E-03 +3.79381E-03 -1.80429E-03 +5.97256E-03 -1.35051E-03
 +8.00674E-03 -1.14590E-05 +9.60833E-03 +2.14122E-03 +1.05214E-02 +4.95122E-03 +1.05457E-02 +8.19026E-03
 +9.55500E-03 +1.15769E-02 +7.51028E-03 +1.48002E-02 +4.46488E-03 +1.75453E-02 +5.62444E-04 +1.95209E-02
 -3.97263E-03 +2.04833E-02 -8.85152E-03 +2.02586E-02 -1.37426E-02 +1.87582E-02 -1.82969E-02 +1.59882E-02
 -2.21752E-02 +1.20515E-02 -2.50741E-02 +7.14163E-03 -2.67508E-02 +1.53003E-03 -2.70418E-02 -4.45293E-03
 -2.58768E-02 -1.04419E-02 -2.32850E-02 -1.60629E-02 -1.93941E-02 -2.09611E-02 -1.44214E-02 -2.48262E-02
 -8.65870E-03 -2.74153E-02 -2.45125E-03 -2.85706E-02 +3.82711E-03 -2.82300E-02 +9.80076E-03 -2.64315E-02
 +1.51191E-02 -2.33090E-02 +1.94813E-02 -1.90819E-02 +2.26566E-02 -1.40379E-02 +2.45001E-02 -8.51145E-03
 +2.49603E-02 -2.85832E-03 +2.40815E-02 +2.57027E-03 +2.19969E-02 +7.45301E-03 +1.89169E-02 +1.15211E-02
 +1.51104E-02 +1.45760E-02 +1.08832E-02 +1.65021E-02 +6.55337E-03 +1.72718E-02 +2.42676E-03 +1.69443E-02
 -1.22625E-03 +1.56576E-02 -4.19028E-03 +1.36141E-02 -6.31967E-03 +1.10619E-02 -7.54729E-03 +8.27301E-03
 -7.88669E-03 +5.51998E-03 -7.42773E-03 +3.05311E-03 -6.32600E-03 +1.08020E-03 -4.78710E-03 -2.49712E-04
 -3.04708E-03 -8.57462E-04 -1.35075E-03 -7.38733E-04 +7.03722E-05 +3.73600E-05 +1.01865E-03 +1.33588E-03
