 Created: 26-Mar-2021
 $NMID
 ID='D:\BASISSIMULATI'
 FMTDAT='(8E13.5)'
 VOLUME=   1.00000E+00
 TRAMP=   1.00000E+00
 $END
 +8.70079E-02 +4.05107E-04 +7.88158E-02 +3.56900E-02 +5.66030E-02 +6.38966E-02 +2.50105E-02 +7.97191E-02
 -9.50181E-03 +8.05493E-02 -4.01076E-02 +6.69730E-02 -6.11123E-02 +4.25325E-02 -6.91479E-02 +1.28264E-02
 -6.37942E-02 -1.58231E-02 -4.75008E-02 -3.78097E-02 -2.48530E-02 -4.94481E-02 -1.38398E-03 -4.96689E-02
 +1.77655E-02 -4.00630E-02 +2.90125E-02 -2.42949E-02 +3.10496E-02 -7.05917E-03 +2.49665E-02 +7.14293E-03
 +1.37764E-02 +1.50982E-02 +1.49714E-03 +1.55847E-02 -7.95994E-03 +9.52982E-03 -1.18054E-02 -3.85929E-04
 -9.04037E-03 -1.05503E-02 -6.28192E-04 -1.74360E-02 +1.08508E-02 -1.85440E-02 +2.19461E-02 -1.30370E-02
 +2.92774E-02 -1.91618E-03 +3.04175E-02 +1.22812E-02 +2.44983E-02 +2.61643E-02 +1.23985E-02 +3.63600E-02
 -3.51370E-03 +4.03417E-02 -1.99928E-02 +3.70125E-02 -3.37113E-02 +2.69084E-02 -4.20270E-02 +1.19959E-02
 -4.35342E-02 -4.85822E-03 -3.82789E-02 -2.05876E-02 -2.76113E-02 -3.26102E-02 -1.37481E-02 -3.93246E-02
 +8.16216E-04 -4.03144E-02 +1.38800E-02 -3.62409E-02 +2.39419E-02 -2.84928E-02 +3.03579E-02 -1.87181E-02
 +3.32394E-02 -8.38769E-03 +3.31647E-02 +1.48808E-03 +3.08194E-02 +1.04242E-02 +2.66993E-02 +1.83188E-02
 +2.09728E-02 +2.51810E-02 +1.35452E-02 +3.08459E-02 +4.29124E-03 +3.47972E-02 -6.63636E-03 +3.61754E-02
 -1.85456E-02 +3.39908E-02 -3.01060E-02 +2.74826E-02 -3.94783E-02 +1.65134E-02 -4.46696E-02 +1.86221E-03
 -4.40342E-02 -1.47015E-02 -3.67869E-02 -3.06242E-02 -2.33729E-02 -4.30372E-02 -5.56929E-03 -4.93884E-02
 +1.37467E-02 -4.80826E-02 +3.11362E-02 -3.89552E-02 +4.33314E-02 -2.34395E-02 +4.79886E-02 -4.35468E-03
 +4.42691E-02 +1.46571E-02 +3.30891E-02 +2.99247E-02 +1.69578E-02 +3.85858E-02 -5.76139E-04 +3.92585E-02
 -1.57442E-02 +3.23730E-02 -2.54492E-02 +2.00676E-02 -2.80047E-02 +5.66431E-03 -2.35335E-02 -7.15623E-03
 -1.39162E-02 -1.52758E-02 -2.29669E-03 -1.69258E-02 +7.74061E-03 -1.21368E-02 +1.31145E-02 -2.73001E-03
 +1.20735E-02 +8.15584E-03 +4.68999E-03 +1.68888E-02 -7.11197E-03 +2.03147E-02 -2.00116E-02 +1.66280E-02
 -3.01243E-02 +5.91666E-03 -3.40085E-02 -9.76521E-03 -2.95934E-02 -2.68291E-02 -1.67931E-02 -4.09903E-02
 +2.35757E-03 -4.83128E-02 +2.40894E-02 -4.62062E-02 +4.37242E-02 -3.41257E-02 +5.67467E-02 -1.38003E-02
 +5.98675E-02 +1.10779E-02 +5.18207E-02 +3.56328E-02 +3.37043E-02 +5.48745E-02 +8.78093E-03 +6.48071E-02
 -1.82171E-02 +6.33162E-02 -4.21125E-02 +5.06304E-02 -5.83988E-02 +2.92533E-02 -6.41891E-02 +3.39085E-03
 -5.87836E-02 -2.19839E-02 -4.37380E-02 -4.22070E-02 -2.24326E-02 -5.38890E-02 +7.38786E-04 -5.55554E-02
 +2.13589E-02 -4.78313E-02 +3.59208E-02 -3.31512E-02 +4.24943E-02 -1.50882E-02 +4.09899E-02 +2.51875E-03
 +3.29862E-02 +1.64240E-02 +2.11938E-02 +2.46217E-02 +8.71019E-03 +2.66438E-02 -1.73940E-03 +2.34684E-02
 -8.39231E-03 +1.70934E-02 -1.07406E-02 +9.91038E-03 -9.48057E-03 +4.04962E-03 -6.16369E-03 +8.64296E-04
 -2.66487E-03 +6.70882E-04 -6.21368E-04 +2.78940E-03 -9.90827E-04 +5.84630E-03 -3.83415E-03 +8.23747E-03
 -8.36193E-03 +8.61537E-03 -1.32106E-02 +6.26836E-03 -1.68563E-02 +1.29914E-03 -1.80449E-02 -5.42980E-03
 -1.61214E-02 -1.25514E-02 -1.11791E-02 -1.85658E-02 -4.00254E-03 -2.22198E-02 +4.16238E-03 -2.27925E-02
 +1.19336E-02 -2.02189E-02 +1.81171E-02 -1.50355E-02 +2.19417E-02 -8.18175E-03 +2.31518E-02 -7.29908E-04
 +2.19494E-02 +6.37091E-03 +1.88260E-02 +1.24632E-02 +1.43514E-02 +1.72234E-02 +8.99737E-03 +2.05837E-02
 +3.05423E-03 +2.25781E-02 -3.33703E-03 +2.31825E-02 -1.00568E-02 +2.22183E-02 -1.68394E-02 +1.93650E-02
 -2.31403E-02 +1.42891E-02 -2.81033E-02 +6.85236E-03 -3.06661E-02 -2.67198E-03 -2.97951E-02 -1.34562E-02
 -2.47957E-02 -2.41187E-02 -1.56114E-02 -3.28993E-02 -3.01604E-03 -3.79911E-02 +1.13783E-02 -3.79597E-02
 +2.53308E-02 -3.21449E-02 +3.63735E-02 -2.09351E-02 +4.23251E-02 -5.82327E-03 +4.17983E-02 +1.07935E-02
 +3.45720E-02 +2.60474E-02 +2.17256E-02 +3.71787E-02 +5.48375E-03 +4.21313E-02 -1.12081E-02 +4.00209E-02
 -2.52911E-02 +3.13582E-02 -3.42459E-02 +1.79636E-02 -3.66388E-02 +2.58244E-03 -3.24282E-02 -1.17163E-02
 -2.29546E-02 -2.22180E-02 -1.06119E-02 -2.71591E-02 +1.72352E-03 -2.60983E-02 +1.13703E-02 -1.99739E-02
 +1.64634E-02 -1.08320E-02 +1.63691E-02 -1.29538E-03 +1.17931E-02 +6.10022E-03 +4.55791E-03 +9.53514E-03
 -2.89320E-03 +8.34806E-03 -8.14249E-03 +3.18187E-03 -9.43116E-03 -4.20135E-03 -6.12295E-03 -1.13888E-02
 +1.11802E-03 -1.59513E-02 +1.04794E-02 -1.60855E-02 +1.94453E-02 -1.11025E-02 +2.54241E-02 -1.64336E-03
 +2.64046E-02 +1.04355E-02 +2.14798E-02 +2.24780E-02 +1.11099E-02 +3.16458E-02 -2.93902E-03 +3.55891E-02
 -1.79668E-02 +3.30101E-02 -3.09318E-02 +2.39850E-02 -3.91242E-02 +9.97233E-03 -4.07638E-02 -6.49253E-03
 -3.53839E-02 -2.23413E-02 -2.39207E-02 -3.46259E-02 -8.49331E-03 -4.11309E-02 +8.06417E-03 -4.08085E-02
 +2.28053E-02 -3.39472E-02 +3.32687E-02 -2.20477E-02 +3.79390E-02 -7.45195E-03 +3.64779E-02 +7.18102E-03
 +2.96913E-02 +1.94234E-02 +1.92609E-02 +2.75310E-02 +7.31972E-03 +3.07084E-02 -4.02029E-03 +2.91453E-02
 -1.30778E-02 +2.38430E-02 -1.88653E-02 +1.62910E-02 -2.11650E-02 +8.08827E-03 -2.04254E-02 +6.01039E-04
 -1.75282E-02 -5.26694E-03 -1.35013E-02 -9.15587E-03 -9.25685E-03 -1.11868E-02 -5.41487E-03 -1.17953E-02
 -2.24296E-03 -1.15227E-02 +2.92498E-04 -1.08296E-02 +2.39938E-03 -9.98024E-03 +4.30830E-03 -9.01809E-03
 +6.14802E-03 -7.82467E-03 +7.88394E-03 -6.22894E-03 +9.33157E-03 -4.12260E-03 +1.02314E-02 -1.54004E-03
 +1.03524E-02 +1.32238E-03 +9.58464E-03 +4.15081E-03 +7.98778E-03 +6.60266E-03 +5.77910E-03 +8.40607E-03
 +3.26677E-03 +9.43364E-03 +7.53361E-04 +9.72378E-03 -1.55500E-03 +9.44202E-03 -3.59965E-03 +8.79580E-03
 -5.45986E-03 +7.93378E-03 -7.28298E-03 +6.86786E-03 -9.17607E-03 +5.45052E-03 -1.10971E-02 +3.42308E-03
 -1.27873E-02 +5.27105E-04 -1.37780E-02 -3.35201E-03 -1.34828E-02 -8.05497E-03 -1.13607E-02 -1.30799E-02
 -7.10993E-03 -1.76096E-02 -8.37803E-04 -2.06449E-02 +6.84971E-03 -2.12226E-02 +1.48773E-02 -1.86711E-02
 +2.18602E-02 -1.28369E-02 +2.63699E-02 -4.21798E-03 +2.72515E-02 +6.04255E-03 +2.39173E-02 +1.63195E-02
 +1.65427E-02 +2.47996E-02 +6.10583E-03 +2.98491E-02 -5.75019E-03 +3.03722E-02 -1.70131E-02 +2.60762E-02
 -2.56968E-02 +1.75749E-02 -3.02493E-02 +6.29954E-03 -2.98817E-02 -5.77123E-03 -2.47400E-02 -1.65066E-02
 -1.58786E-02 -2.40576E-02 -5.03723E-03 -2.72322E-02 +5.72910E-03 -2.57279E-02 +1.44832E-02 -2.01679E-02
 +1.98050E-02 -1.19359E-02 +2.10655E-02 -2.84860E-03 +1.85179E-02 +5.25634E-03 +1.31865E-02 +1.09201E-02
 +6.58810E-03 +1.33592E-02 +3.53204E-04 +1.25930E-02 -4.15905E-03 +9.37841E-03 -6.16232E-03 +4.97475E-03
 -5.59182E-03 +8.00380E-04 -3.07084E-03 -1.93162E-03 +2.90179E-04 -2.51044E-03 +3.20698E-03 -8.87145E-04
 +4.56677E-03 +2.33734E-03 +3.71983E-03 +6.08742E-03 +6.47237E-04 +9.10340E-03 -4.03295E-03 +1.02730E-02
 -9.21871E-03 +8.92187E-03 -1.35952E-02 +4.99263E-03 -1.59561E-02 -9.27023E-04 -1.54964E-02 -7.73183E-03
 -1.20092E-02 -1.40472E-02 -5.94120E-03 -1.85376E-02 +1.69963E-03 -2.02013E-02 +9.56055E-03 -1.85851E-02
 +1.62292E-02 -1.38746E-02 +2.05217E-02 -6.84331E-03 +2.17109E-02 +1.31820E-03 +1.96471E-02 +9.25050E-03
 +1.47557E-02 +1.56917E-02 +7.91899E-03 +1.97042E-02 +2.79811E-04 +2.08181E-02 -6.98519E-03 +1.90695E-02
 -1.28726E-02 +1.49387E-02 -1.66991E-02 +9.21353E-03 -1.81683E-02 +2.81670E-03 -1.73556E-02 -3.36225E-03
 -1.46307E-02 -8.59679E-03 -1.05455E-02 -1.23972E-02 -5.71937E-03 -1.45267E-02 -7.44017E-04 -1.49715E-02
 +3.87585E-03 -1.38864E-02 +7.74835E-03 -1.15362E-02 +1.05950E-02 -8.24834E-03 +1.22409E-02 -4.38329E-03
 +1.26069E-02 -3.18889E-04 +1.17108E-02 +3.56062E-03 +9.67677E-03 +6.88193E-03 +6.74226E-03 +9.31303E-03
 +3.25343E-03 +1.06058E-02 -3.62594E-04 +1.06427E-02 -3.65062E-03 +9.47191E-03 -6.19937E-03 +7.31802E-03
 -7.71781E-03 +4.55585E-03 -8.09602E-03 +1.64795E-03 -7.43193E-03 -9.44766E-04 -6.01206E-03 -2.85936E-03
 -4.24620E-03 -3.90994E-03 -2.56853E-03 -4.12699E-03 -1.32881E-03 -3.74347E-03 -7.01689E-04 -3.12728E-03
 -6.40070E-04 -2.67485E-03 -8.87932E-04 -2.69214E-03 -1.05327E-03 -3.29497E-03 -7.25106E-04 -4.35757E-03
 +3.94586E-04 -5.52710E-03 +2.37930E-03 -6.30545E-03 +5.01921E-03 -6.18114E-03 +7.83560E-03 -4.77984E-03
 +1.01711E-02 -1.99455E-03 +1.13384E-02 +1.94088E-03 +1.07935E-02 +6.45879E-03 +8.29191E-03 +1.07503E-02
 +3.98630E-03 +1.39271E-02 -1.56232E-03 +1.52172E-02 -7.46837E-03 +1.41506E-02 -1.26867E-02 +1.06881E-02
 -1.62240E-02 +5.26229E-03 -1.73506E-02 -1.28439E-03 -1.57634E-02 -7.85424E-03 -1.16626E-02 -1.33086E-02
 -5.72272E-03 -1.66963E-02 +1.03724E-03 -1.74448E-02 +7.45585E-03 -1.54733E-02 +1.24600E-02 -1.12017E-02
 +1.52730E-02 -5.45590E-03 +1.55562E-02 +7.08957E-04 +1.34545E-02 +6.22613E-03 +9.53905E-03 +1.02277E-02
 +4.66507E-03 +1.22019E-02 -2.21554E-04 +1.20667E-02 -4.28270E-03 +1.01464E-02 -6.94795E-03 +7.06435E-03
 -8.00285E-03 +3.58029E-03 -7.59122E-03 +4.12680E-04 -6.13740E-03 -1.91200E-03 -4.21295E-03 -3.15097E-03
 -2.38343E-03 -3.36142E-03 -1.07294E-03 -2.84410E-03 -4.77261E-04 -2.03382E-03 -5.42454E-04 -1.36794E-03
 -1.00869E-03 -1.16687E-03 -1.50316E-03 -1.55521E-03 -1.65515E-03 -2.43990E-03 -1.20293E-03 -3.54689E-03
 -6.61140E-05 -4.50302E-03 +1.63226E-03 -4.93972E-03 +3.59634E-03 -4.59147E-03 +5.43004E-03 -3.36512E-03
 +6.73145E-03 -1.36505E-03 +7.18508E-03 +1.12913E-03 +6.63061E-03 +3.72371E-03 +5.09389E-03 +5.99420E-03
 +2.77650E-03 +7.56986E-03 +9.96494E-06 +8.20100E-03 -2.81159E-03 +7.79608E-03 -5.30347E-03 +6.42465E-03
 -7.15138E-03 +4.29032E-03 -8.15087E-03 +1.68423E-03 -8.22135E-03 -1.06783E-03 -7.39771E-03 -3.65291E-03
 -5.80724E-03 -5.80506E-03 -3.64089E-03 -7.32407E-03 -1.12677E-03 -8.08113E-03 +1.49010E-03 -8.01719E-03
 +3.96177E-03 -7.13977E-03 +6.04868E-03 -5.52185E-03 +7.53293E-03 -3.30307E-03 +8.23684E-03 -6.89597E-04
 +8.04717E-03 +2.05250E-03 +6.94098E-03 +4.61575E-03 +5.00614E-03 +6.68381E-03 +2.44816E-03 +7.97573E-03
 -4.23445E-04 +8.29488E-03 -3.23158E-03 +7.57200E-03 -5.58746E-03 +5.89069E-03 -7.15652E-03 +3.48640E-03
