 Created: 26-Mar-2021
 $NMID
 ID='D:\BASISSIMULATI'
 FMTDAT='(8E13.5)'
 VOLUME=   1.00000E+00
 TRAMP=   1.00000E+00
 $END
 +1.15077E-01 +6.85516E-05 +1.12927E-01 +1.92568E-02 +1.06632E-01 +3.75497E-02 +9.64940E-02 +5.41022E-02
 +8.29924E-02 +6.81589E-02 +6.67637E-02 +7.90915E-02 +4.85657E-02 +8.64305E-02 +2.92385E-02 +8.98865E-02
 +9.66041E-03 +8.93637E-02 -9.29656E-03 +8.49610E-02 -2.68109E-02 +7.69643E-02 -4.21519E-02 +6.58276E-02
 -5.47147E-02 +5.21468E-02 -6.40474E-02 +3.66254E-02 -6.98700E-02 +2.00359E-02 -7.20830E-02 +3.17814E-03
 -7.07664E-02 -1.31627E-02 -6.61694E-02 -2.82560E-02 -5.86905E-02 -4.14616E-02 -4.88513E-02 -5.22593E-02
 -3.72633E-02 -6.02718E-02 -2.45924E-02 -6.52777E-02 -1.15202E-02 -6.72168E-02 +1.29242E-03 -6.61854E-02
 +1.32399E-02 -6.24237E-02 +2.38021E-02 -5.62959E-02 +3.25678E-02 -4.82637E-02 +3.92510E-02 -3.88562E-02
 +4.36998E-02 -2.86368E-02 +4.58970E-02 -1.81709E-02 +4.59523E-02 -7.99342E-03 +4.40885E-02 +1.41849E-03
 +4.06213E-02 +9.66918E-03 +3.59348E-02 +1.64617E-02 +3.04544E-02 +2.16084E-02 +2.46182E-02 +2.50343E-02
 +1.88499E-02 +2.67739E-02 +1.35336E-02 +2.69612E-02 +8.99230E-03 +2.58146E-02 +5.47156E-03 +2.36172E-02
 +3.12866E-03 +2.06945E-02 +2.02784E-03 +1.73903E-02 +2.14152E-03 +1.40437E-02 +3.35727E-03 +1.09660E-02
 +5.48979E-03 +8.42271E-03 +8.29676E-03 +6.61732E-03 +1.14977E-02 +5.68140E-03 +1.47942E-02 +5.66893E-03
 +1.78907E-02 +6.55616E-03 +2.05136E-02 +8.24638E-03 +2.24287E-02 +1.05792E-02 +2.34555E-02 +1.33435E-02
 +2.34772E-02 +1.62930E-02 +2.24466E-02 +1.91637E-02 +2.03873E-02 +2.16917E-02 +1.73912E-02 +2.36303E-02
 +1.36109E-02 +2.47657E-02 +9.24952E-03 +2.49300E-02 +4.54774E-03 +2.40115E-02 -2.31233E-04 +2.19608E-02
 -4.81719E-03 +1.87936E-02 -8.94845E-03 +1.45893E-02 -1.23864E-02 +9.48640E-03 -1.49281E-02 +3.67464E-03
 -1.64169E-02 -2.61552E-03 -1.67498E-02 -9.12502E-03 -1.58820E-02 -1.55796E-02 -1.38280E-02 -2.17034E-02
 -1.06601E-02 -2.72324E-02 -6.50371E-03 -3.19266E-02 -1.53053E-03 -3.55805E-02 +4.05047E-03 -3.80321E-02
 +1.00032E-02 -3.91690E-02 +1.60753E-02 -3.89322E-02 +2.20098E-02 -3.73180E-02 +2.75560E-02 -3.43766E-02
 +3.24795E-02 -3.02092E-02 +3.65719E-02 -2.49630E-02 +3.96583E-02 -1.88245E-02 +4.16040E-02 -1.20118E-02
 +4.23184E-02 -4.76617E-03 +4.17587E-02 +2.65755E-03 +3.99300E-02 +1.00000E-02 +3.68855E-02 +1.70066E-02
 +3.27239E-02 +2.34366E-02 +2.75858E-02 +2.90708E-02 +2.16487E-02 +3.37196E-02 +1.51211E-02 +3.72292E-02
 +8.23526E-03 +3.94868E-02 +1.23910E-03 +4.04248E-02 -5.61207E-03 +4.00233E-02 -1.20646E-02 +3.83114E-02
 -1.78757E-02 +3.53667E-02 -2.28222E-02 +3.13131E-02 -2.67096E-02 +2.63169E-02 -2.93798E-02 +2.05818E-02
 -3.07181E-02 +1.43415E-02 -3.06588E-02 +7.85141E-03 -2.91897E-02 +1.37892E-03 -2.63534E-02 -4.80697E-03
 -2.22480E-02 -1.04469E-02 -1.70244E-02 -1.53021E-02 -1.08819E-02 -1.91656E-02 -4.06093E-03 -2.18716E-02
 +3.16600E-03 -2.33041E-02 +1.05052E-02 -2.34039E-02 +1.76543E-02 -2.21720E-02 +2.43156E-02 -1.96718E-02
 +3.02099E-02 -1.60273E-02 +3.50895E-02 -1.14186E-02 +3.87510E-02 -6.07487E-03 +4.10453E-02 -2.63850E-04
 +4.18863E-02 +5.72037E-03 +4.12558E-02 +1.15716E-02 +3.92057E-02 +1.69866E-02 +3.58566E-02 +2.16812E-02
 +3.13922E-02 +2.54045E-02 +2.60513E-02 +2.79534E-02 +2.01157E-02 +2.91833E-02 +1.38963E-02 +2.90174E-02
 +7.71676E-03 +2.74514E-02 +1.89692E-03 +2.45550E-02 -3.26469E-03 +2.04694E-02 -7.50685E-03 +1.54004E-02
 -1.06200E-02 +9.60851E-03 -1.24581E-02 +3.39495E-03 -1.29464E-02 -2.91389E-03 -1.20867E-02 -8.98420E-03
 -9.95664E-03 -1.44930E-02 -6.70582E-03 -1.91457E-02 -2.54760E-03 -2.26929E-02 +2.25303E-03 -2.49441E-02
 +7.39445E-03 -2.57786E-02 +1.25557E-02 -2.51522E-02 +1.74147E-02 -2.31001E-02 +2.16670E-02 -1.97346E-02
 +2.50435E-02 -1.52392E-02 +2.73256E-02 -9.85773E-03 +2.83583E-02 -3.88080E-03 +2.80587E-02 +2.37089E-03
 +2.64213E-02 +8.56480E-03 +2.35180E-02 +1.43753E-02 +1.94935E-02 +1.95022E-02 +1.45571E-02 +2.36873E-02
 +8.97061E-03 +2.67289E-02 +3.03238E-03 +2.84921E-02 -2.93948E-03 +2.89162E-02 -8.62573E-03 +2.80166E-02
 -1.37243E-02 +2.58828E-02 -1.79672E-02 +2.26720E-02 -2.11360E-02 +1.85987E-02 -2.30729E-02 +1.39208E-02
 -2.36894E-02 +8.92407E-03 -2.29700E-02 +3.90467E-03 -2.09718E-02 -8.48652E-04 -1.78194E-02 -5.07124E-03
 -1.36967E-02 -8.53758E-03 -8.83474E-03 -1.10736E-02 -3.49692E-03 -1.25658E-02 +2.03686E-03 -1.29658E-02
 +7.48697E-03 -1.22919E-02 +1.25903E-02 -1.06254E-02 +1.71149E-02 -8.10375E-03 +2.08724E-02 -4.91050E-03
 +2.37276E-02 -1.26217E-03 +2.56036E-02 +2.60606E-03 +2.64845E-02 +6.45561E-03 +2.64125E-02 +1.00595E-02
 +2.54835E-02 +1.32159E-02 +2.38372E-02 +1.57603E-02 +2.16467E-02 +1.75737E-02 +1.91053E-02 +1.85889E-02
 +1.64125E-02 +1.87923E-02 +1.37611E-02 +1.82225E-02 +1.13236E-02 +1.69656E-02 +9.24260E-03 +1.51471E-02
 +7.62150E-03 +1.29220E-02 +6.51983E-03 +1.04630E-02 +5.95098E-03 +7.94792E-03 +5.88346E-03 +5.54703E-03
 +6.24525E-03 +3.41187E-03 +6.93091E-03 +1.66520E-03 +7.81083E-03 +3.93516E-04 +8.74196E-03 -3.57700E-04
 +9.57925E-03 -5.85701E-04 +1.01870E-02 -3.29130E-04 +1.04492E-02 +3.36238E-04 +1.02784E-02 +1.30430E-03
 +9.62242E-03 +2.44744E-03 +8.46800E-03 +3.62672E-03 +6.84230E-03 +4.70268E-03 +4.81092E-03 +5.54600E-03
 +2.47350E-03 +6.04726E-03 -4.31815E-05 +6.12523E-03 -2.59394E-03 +5.73292E-03 -5.02519E-03 +4.86126E-03
 -7.18545E-03 +3.54001E-03 -8.93571E-03 +1.83589E-03 -1.01589E-02 -1.51753E-04 -1.07680E-02 -2.29769E-03
 -1.07116E-02 -4.45920E-03 -9.97765E-03 -6.48568E-03 -8.59457E-03 -8.22879E-03 -6.62912E-03 -9.55236E-03
 -4.18239E-03 -1.03416E-02 -1.38340E-03 -1.05105E-02 +1.61905E-03 -1.00081E-02 +4.66562E-03 -8.82128E-03
 +7.59621E-03 -6.97643E-03 +1.02597E-02 -4.53748E-03 +1.25227E-02 -1.60225E-03 +1.42775E-02 +1.70350E-03
 +1.54476E-02 +5.23361E-03 +1.59917E-02 +8.83023E-03 +1.59051E-02 +1.23330E-02 +1.52188E-02 +1.55881E-02
 +1.39965E-02 +1.84569E-02 +1.23298E-02 +2.08234E-02 +1.03314E-02 +2.25995E-02 +8.12773E-03 +2.37294E-02
 +5.85082E-03 +2.41910E-02 +3.63012E-03 +2.39955E-02 +1.58493E-03 +2.31854E-02 -1.82157E-04 +2.18300E-02
 -1.59047E-03 +2.00204E-02 -2.58483E-03 +1.78623E-02 -3.13723E-03 +1.54695E-02 -3.24680E-03 +1.29566E-02
 -2.93793E-03 +1.04327E-02 -2.25694E-03 +7.99532E-03 -1.26755E-03 +5.72580E-03 -4.55136E-05 +3.68650E-03
 +1.32716E-03 +1.91892E-03 +2.76793E-03 +4.43739E-04 +4.19904E-03 -7.37793E-04 +5.55207E-03 -1.64122E-03
 +6.77141E-03 -2.29525E-03 +7.81652E-03 -2.73759E-03 +8.66286E-03 -3.01039E-03 +9.30152E-03 -3.15593E-03
 +9.73768E-03 -3.21265E-03 +9.98810E-03 -3.21205E-03 +1.00779E-02 -3.17636E-03 +1.00367E-02 -3.11748E-03
 +9.89553E-03 -3.03690E-03 +9.68264E-03 -2.92674E-03 +9.42107E-03 -2.77171E-03 +9.12635E-03 -2.55176E-03
 +8.80534E-03 -2.24518E-03 +8.45593E-03 -1.83184E-03 +8.06789E-03 -1.29633E-03 +7.62453E-03 -6.30569E-04
 +7.10511E-03 +1.64144E-04 +6.48771E-03 +1.07602E-03 +5.75246E-03 +2.08260E-03 +4.88458E-03 +3.15153E-03
 +3.87717E-03 +4.24236E-03 +2.73343E-03 +5.30905E-03 +1.46801E-03 +6.30314E-03 +1.07490E-04 +7.17729E-03
 -1.31014E-03 +7.88885E-03 -2.73705E-03 +8.40326E-03 -4.11796E-03 +8.69694E-03 -5.39336E-03 +8.75954E-03
 -6.50319E-03 +8.59513E-03 -7.39075E-03 +8.22252E-03 -8.00664E-03 +7.67442E-03 -8.31233E-03 +6.99559E-03
 -8.28310E-03 +6.24009E-03 -7.91021E-03 +5.46777E-03 -7.20206E-03 +4.74031E-03 -6.18417E-03 +4.11701E-03
 -4.89816E-03 +3.65071E-03 -3.39956E-03 +3.38403E-03 -1.75475E-03 +3.34632E-03 -3.71347E-05 +3.55143E-03
 +1.67715E-03 +3.99655E-03 +3.31371E-03 +4.66216E-03 +4.80426E-03 +5.51306E-03 +6.09058E-03 +6.50057E-03
 +7.12782E-03 +7.56554E-03 +7.88690E-03 +8.64215E-03 +8.35586E-03 +9.66213E-03 +8.54009E-03 +1.05591E-02
 +8.46144E-03 +1.12731E-02 +8.15624E-03 +1.17538E-02 +7.67242E-03 +1.19647E-02 +7.06593E-03 +1.18843E-02
 +6.39671E-03 +1.15081E-02 +5.72446E-03 +1.08486E-02 +5.10455E-03 +9.93418E-03 +4.58434E-03 +8.80732E-03
 +4.20009E-03 +7.52159E-03 +3.97479E-03 +6.13822E-03 +3.91688E-03 +4.72210E-03 +4.02012E-03 +3.33769E-03
 +4.26437E-03 +2.04502E-03 +4.61748E-03 +8.96113E-04 +5.03786E-03 -6.79738E-05 +5.47777E-03 -8.19292E-04
 +5.88694E-03 -1.34420E-03 +6.21631E-03 -1.64358E-03 +6.42167E-03 -1.73201E-03 +6.46681E-03 -1.63607E-03
 +6.32618E-03 -1.39189E-03 +5.98665E-03 -1.04207E-03 +5.44846E-03 -6.32259E-04 +4.72514E-03 -2.07693E-04
 +3.84260E-03 +1.90196E-04 +2.83729E-03 +5.26746E-04 +1.75369E-03 +7.76458E-04 +6.41294E-04 +9.24641E-04
 -4.48750E-04 +9.68220E-04 -1.46700E-03 +9.15661E-04 -2.36893E-03 +7.86028E-04 -3.11780E-03 +6.07276E-04
 -3.68684E-03 +4.13894E-04 -4.06079E-03 +2.44095E-04 -4.23659E-03 +1.36752E-04 -4.22326E-03 +1.28305E-04
 -4.04087E-03 +2.49860E-04 -3.71892E-03 +5.24679E-04 -3.29396E-03 +9.66240E-04 -2.80688E-03 +1.57699E-03
 -2.29995E-03 +2.34786E-03 -1.81385E-03 +3.25861E-03 -1.38480E-03 +4.27889E-03 -1.04218E-03 +5.37005E-03
 -8.06604E-04 +6.48740E-03 -6.88683E-04 +7.58296E-03 -6.88482E-04 +8.60838E-03 -7.95734E-04 +9.51780E-03
 -9.90765E-04 +1.02706E-02 -1.24604E-03 +1.08339E-02 -1.52824E-03 +1.11841E-02 -1.80065E-03 +1.13083E-02
 -2.02582E-03 +1.12050E-02 -2.16814E-03 +1.08838E-02 -2.19633E-03 +1.03644E-02 -2.08554E-03 +9.67560E-03
 -1.81903E-03 +8.85299E-03 -1.38933E-03 +7.93704E-03 -7.98718E-04 +6.97047E-03 -5.91145E-05 +5.99583E-03
 +8.08594E-04 +5.05317E-03 +1.77580E-03 +4.17794E-03 +2.80782E-03 +3.39933E-03 +3.86589E-03 +2.73901E-03
 +4.90928E-03 +2.21046E-03 +5.89749E-03 +1.81877E-03 +6.79231E-03 +1.56102E-03 +7.55967E-03 +1.42706E-03
 +8.17116E-03 +1.40071E-03 +8.60519E-03 +1.46116E-03 +8.84763E-03 +1.58463E-03 +8.89211E-03 +1.74602E-03
 +8.73981E-03 +1.92046E-03 +8.39893E-03 +2.08480E-03 +7.88378E-03 +2.21875E-03 +7.21374E-03 +2.30582E-03
 +6.41198E-03 +2.33385E-03 +5.50424E-03 +2.29533E-03 +4.51753E-03 +2.18731E-03 +3.47906E-03 +2.01111E-03
 +2.41526E-03 +1.77181E-03 +1.35098E-03 +1.47758E-03 +3.09002E-04 +1.13900E-03 -6.90325E-04 +7.68291E-04
 -1.62926E-03 +3.78639E-04 -2.49265E-03 -1.63721E-05 -3.26786E-03 -4.03242E-04 -3.94462E-03 -7.68889E-04
 -4.51485E-03 -1.10086E-03 -4.97255E-03 -1.38744E-03 -5.31375E-03 -1.61770E-03 -5.53650E-03 -1.78145E-03
