 Created: 26-Mar-2021
 $NMID
 ID='D:\BASISSIMULATI'
 FMTDAT='(8E13.5)'
 VOLUME=   1.00000E+00
 TRAMP=   1.00000E+00
 $END
 +1.11800E-01 +9.95885E-05 +1.01639E-01 +1.31881E-02 +7.33612E-02 +2.47201E-02 +3.29654E-02 +3.32538E-02
 -1.10818E-02 +3.76232E-02 -4.97477E-02 +3.71257E-02 -7.54273E-02 +3.17173E-02 -8.35669E-02 +2.21572E-02
 -7.35534E-02 +1.00290E-02 -4.86879E-02 -2.41862E-03 -1.52825E-02 -1.26316E-02 +1.88755E-02 -1.82649E-02
 +4.63074E-02 -1.77508E-02 +6.14545E-02 -1.07760E-02 +6.17571E-02 +1.47582E-03 +4.79886E-02 +1.64228E-02
 +2.38233E-02 +3.05480E-02 -5.20327E-03 +4.01553E-02 -3.30493E-02 +4.22565E-02 -5.44965E-02 +3.53706E-02
 -6.61513E-02 +2.00206E-02 -6.69233E-02 -1.22987E-03 -5.79334E-02 -2.42484E-02 -4.19486E-02 -4.42312E-02
 -2.25437E-02 -5.68250E-02 -3.23256E-03 -5.92011E-02 +1.32196E-02 -5.08031E-02 +2.51651E-02 -3.35624E-02
 +3.20993E-02 -1.15016E-02 +3.44096E-02 +1.01971E-02 +3.29866E-02 +2.64395E-02 +2.88447E-02 +3.34751E-02
 +2.28715E-02 +2.98405E-02 +1.57568E-02 +1.67431E-02 +8.07796E-03 -2.22358E-03 +4.59178E-04 -2.19712E-02
 -6.29889E-03 -3.71925E-02 -1.12088E-02 -4.37007E-02 -1.32418E-02 -3.94869E-02 -1.16010E-02 -2.52246E-02
 -6.03703E-03 -4.09088E-03 +2.90826E-03 +1.90502E-02 +1.38362E-02 +3.88873E-02 +2.46605E-02 +5.10032E-02
 +3.29998E-02 +5.29686E-02 +3.67085E-02 +4.49092E-02 +3.44114E-02 +2.94045E-02 +2.58947E-02 +1.07549E-02
 +1.22362E-02 -6.17985E-03 -4.37395E-03 -1.72593E-02 -2.10890E-02 -2.01182E-02 -3.50270E-02 -1.47259E-02
 -4.39014E-02 -3.31181E-03 -4.64991E-02 +1.03098E-02 -4.28898E-02 +2.18210E-02 -3.43214E-02 +2.75892E-02
 -2.28429E-02 +2.56419E-02 -1.07709E-02 +1.61693E-02 -1.47233E-04 +1.42874E-03 +7.66450E-03 -1.49085E-02
 +1.21513E-02 -2.87806E-02 +1.35696E-02 -3.68426E-02 +1.26686E-02 -3.73558E-02 +1.03300E-02 -3.06210E-02
 +7.25552E-03 -1.88496E-02 +3.80752E-03 -5.51675E-03 +4.73655E-05 +5.61496E-03 -4.05745E-03 +1.15298E-02
 -8.35254E-03 +1.07695E-02 -1.22697E-02 +3.80391E-03 -1.47697E-02 -7.12825E-03 -1.45173E-02 -1.86555E-02
 -1.02690E-02 -2.72040E-02 -1.37088E-03 -2.99656E-02 +1.17906E-02 -2.56439E-02 +2.75564E-02 -1.47845E-02
 +4.31038E-02 +3.87322E-04 +5.49329E-02 +1.65631E-02 +5.96512E-02 +3.02123E-02 +5.48784E-02 +3.84719E-02
 +4.00303E-02 +3.98334E-02 +1.67471E-02 +3.44561E-02 -1.11988E-02 +2.40455E-02 -3.85516E-02 +1.13507E-02
 -5.96695E-02 -5.67663E-04 -6.98282E-02 -9.09646E-03 -6.64156E-02 -1.26607E-02 -4.97055E-02 -1.10090E-02
 -2.29836E-02 -5.14788E-03 +8.04658E-03 +3.02539E-03 +3.64733E-02 +1.12654E-02 +5.57344E-02 +1.75391E-02
 +6.11577E-02 +2.04583E-02 +5.11071E-02 +1.94921E-02 +2.74451E-02 +1.49386E-02 -4.81982E-03 +7.70678E-03
 -3.86314E-02 -9.95737E-04 -6.64777E-02 -9.96066E-03 -8.21014E-02 -1.81807E-02 -8.19216E-02 -2.49199E-02
 -6.58294E-02 -2.96733E-02 -3.71734E-02 -3.20759E-02 -1.95002E-03 -3.18343E-02 +3.25983E-02 -2.87391E-02
 +5.96299E-02 -2.27687E-02 +7.42036E-02 -1.42506E-02 +7.42821E-02 -4.00521E-03 +6.10254E-02 +6.61586E-03
 +3.83377E-02 +1.58609E-02 +1.18155E-02 +2.18912E-02 -1.26210E-02 +2.32246E-02 -3.00684E-02 +1.91967E-02
 -3.76376E-02 +1.03003E-02 -3.48990E-02 -1.72723E-03 -2.37162E-02 -1.41407E-02 -7.56655E-03 -2.37362E-02
 +9.43860E-03 -2.76045E-02 +2.35602E-02 -2.39093E-02 +3.22170E-02 -1.24798E-02 +3.43811E-02 +4.96171E-03
 +3.05389E-02 +2.50389E-02 +2.22874E-02 +4.34049E-02 +1.17304E-02 +5.57315E-02 +8.68861E-04 +5.87697E-02
 -8.84381E-03 +5.12114E-02 -1.66806E-02 +3.41192E-02 -2.25498E-02 +1.07894E-02 -2.67128E-02 -1.39452E-02
 -2.94447E-02 -3.48200E-02 -3.07754E-02 -4.73869E-02 -3.04090E-02 -4.90950E-02 -2.78488E-02 -3.99277E-02
 -2.26753E-02 -2.24262E-02 -1.48682E-02 -1.08289E-03 -5.04273E-03 +1.87493E-02 +5.50754E-03 +3.21619E-02
 +1.50042E-02 +3.58828E-02 +2.15818E-02 +2.90553E-02 +2.37837E-02 +1.34106E-02 +2.10116E-02 -7.20385E-03
 +1.37851E-02 -2.78121E-02 +3.71785E-03 -4.35566E-02 -6.80608E-03 -5.08813E-02 -1.51834E-02 -4.83545E-02
 -1.92306E-02 -3.69295E-02 -1.77398E-02 -1.95982E-02 -1.07985E-02 -5.43587E-04 +2.16779E-04 +1.59663E-02
 +1.29740E-02 +2.66491E-02 +2.47584E-02 +2.99638E-02 +3.31302E-02 +2.63680E-02 +3.64925E-02 +1.80338E-02
 +3.44213E-02 +8.12568E-03 +2.76808E-02 -1.41726E-04 +1.79334E-02 -4.39664E-03 +7.24364E-03 -3.71112E-03
 -2.47642E-03 +1.24328E-03 -9.91791E-03 +8.50650E-03 -1.46027E-02 +1.54976E-02 -1.68383E-02 +1.98310E-02
 -1.74385E-02 +2.00391E-02 -1.73170E-02 +1.59930E-02 -1.71011E-02 +8.90605E-03 -1.68966E-02 +9.30636E-04
 -1.62859E-02 -5.52491E-03 -1.45579E-02 -8.55134E-03 -1.10884E-02 -7.33990E-03 -5.73319E-03 -2.45182E-03
 +9.14779E-04 +4.32428E-03 +7.51852E-03 +1.04866E-02 +1.22753E-02 +1.35576E-02 +1.34227E-02 +1.18311E-02
 +9.83347E-03 +4.91401E-03 +1.51427E-03 -6.09615E-03 -1.01638E-02 -1.88524E-02 -2.26117E-02 -3.03535E-02
 -3.25503E-02 -3.77320E-02 -3.68107E-02 -3.90169E-02 -3.32079E-02 -3.36646E-02 -2.12475E-02 -2.27134E-02
 -2.45454E-03 -8.52436E-03 +1.98010E-02 +5.81862E-03 +4.09762E-02 +1.72833E-02 +5.63835E-02 +2.36312E-02
 +6.23295E-02 +2.39330E-02 +5.70749E-02 +1.87317E-02 +4.13582E-02 +9.82716E-03 +1.83283E-02 -2.43963E-04
 -7.11990E-03 -8.87833E-03 -2.94600E-02 -1.40420E-02 -4.38321E-02 -1.47086E-02 -4.72018E-02 -1.10015E-02
 -3.90913E-02 -4.02899E-03 -2.16943E-02 +4.51085E-03 +6.54965E-04 +1.28231E-02 +2.25291E-02 +1.94582E-02
 +3.87078E-02 +2.35851E-02 +4.54096E-02 +2.50397E-02 +4.11510E-02 +2.41698E-02 +2.70296E-02 +2.15581E-02
 +6.37704E-03 +1.77396E-02 -1.61142E-02 +1.30205E-02 -3.55548E-02 +7.45979E-03 -4.80133E-02 +1.01106E-03
 -5.13758E-02 -6.24114E-03 -4.57127E-02 -1.38573E-02 -3.30883E-02 -2.09398E-02 -1.68974E-02 -2.62215E-02
 -9.27988E-04 -2.83527E-02 +1.15895E-02 -2.63167E-02 +1.87016E-02 -1.98512E-02 +2.00515E-02 -9.72772E-03
 +1.67497E-02 +2.22927E-03 +1.08715E-02 +1.34346E-02 +4.75382E-03 +2.11080E-02 +3.06335E-04 +2.29830E-02
 -1.47018E-03 +1.79745E-02 -6.37090E-04 +6.60810E-03 +1.87115E-03 -8.93192E-03 +4.69091E-03 -2.51907E-02
 +6.56868E-03 -3.81991E-02 +6.81671E-03 -4.44272E-02 +5.54070E-03 -4.16973E-02 +3.57371E-03 -2.98134E-02
 +2.14586E-03 -1.07273E-02 +2.40449E-03 +1.18259E-02 +4.94606E-03 +3.31528E-02 +9.51824E-03 +4.86949E-02
 +1.49971E-02 +5.51193E-02 +1.96591E-02 +5.11325E-02 +2.16734E-02 +3.78058E-02 +1.96715E-02 +1.83243E-02
 +1.32199E-02 -2.78222E-03 +3.04736E-03 -2.07336E-02 -9.05289E-03 -3.16435E-02 -2.06325E-02 -3.34272E-02
 -2.92024E-02 -2.62458E-02 -3.28834E-02 -1.23874E-02 -3.09130E-02 +4.37400E-03 -2.38612E-02 +1.97637E-02
 -1.34947E-02 +3.00737E-02 -2.32229E-03 +3.30391E-02 +7.05292E-03 +2.83056E-02 +1.25977E-02 +1.73887E-02
 +1.33474E-02 +3.16005E-03 +9.60659E-03 -1.09782E-02 +2.80494E-03 -2.19962E-02 -4.94275E-03 -2.79700E-02
 -1.14393E-02 -2.84611E-02 -1.49972E-02 -2.44616E-02 -1.48534E-02 -1.79504E-02 -1.12990E-02 -1.12122E-02
 -5.49822E-03 -6.13112E-03 +9.30894E-04 -3.66736E-03 +6.44003E-03 -3.65977E-03 +1.00124E-02 -4.99770E-03
 +1.14236E-02 -6.09055E-03 +1.12273E-02 -5.47680E-03 +1.04785E-02 -2.37520E-03 +1.02928E-02 +2.99801E-03
 +1.13885E-02 +9.44755E-03 +1.37684E-02 +1.51510E-02 +1.66526E-02 +1.82381E-02 +1.86962E-02 +1.74198E-02
 +1.84321E-02 +1.24698E-02 +1.48056E-02 +4.40410E-03 +7.62936E-03 -4.71279E-03 -2.19714E-03 -1.22922E-02
 -1.27943E-02 -1.59366E-02 -2.17305E-02 -1.41449E-02 -2.66685E-02 -6.80229E-03 -2.60518E-02 +4.69218E-03
 -1.96322E-02 +1.77122E-02 -8.66987E-03 +2.90381E-02 +4.27460E-03 +3.56737E-02 +1.59259E-02 +3.56308E-02
 +2.31172E-02 +2.84668E-02 +2.36370E-02 +1.54309E-02 +1.68680E-02 -8.23468E-04 +4.03488E-03 -1.68848E-02
 -1.20227E-02 -2.94180E-02 -2.75095E-02 -3.59676E-02 -3.86050E-02 -3.55233E-02 -4.24267E-02 -2.87061E-02
 -3.77735E-02 -1.75417E-02 -2.54521E-02 -4.89275E-03 -8.09542E-03 +6.28547E-03 +1.04834E-02 +1.36644E-02
 +2.62336E-02 +1.60513E-02 +3.58629E-02 +1.35675E-02 +3.76274E-02 +7.47501E-03 +3.17154E-02 -2.75831E-04
 +2.01309E-02 -7.62834E-03 +6.11990E-03 -1.29603E-02 -6.69971E-03 -1.54348E-02 -1.52693E-02 -1.50800E-02
 -1.78335E-02 -1.26043E-02 -1.43099E-02 -9.03142E-03 -6.19936E-03 -5.29206E-03 +3.91629E-03 -1.91155E-03
 +1.31367E-02 +1.10500E-03 +1.90445E-02 +4.16108E-03 +2.03246E-02 +7.77992E-03 +1.70386E-02 +1.22504E-02
 +1.04948E-02 +1.73443E-02 +2.77243E-03 +2.22206E-02 -3.94748E-03 +2.55736E-02 -8.03986E-03 +2.59979E-02
 -8.88945E-03 +2.24679E-02 -7.01338E-03 +1.47819E-02 -3.82731E-03 +3.81456E-03 -1.13603E-03 -8.52568E-03
 -5.11161E-04 -1.96609E-02 -2.74948E-03 -2.69548E-02 -7.57958E-03 -2.84177E-02 -1.37085E-02 -2.33096E-02
 -1.91969E-02 -1.24609E-02 -2.20529E-02 +1.80228E-03 -2.08655E-02 +1.61382E-02 -1.52878E-02 +2.69707E-02
 -6.21829E-03 +3.13807E-02 +4.38028E-03 +2.78757E-02 +1.39841E-02 +1.68281E-02 +2.01935E-02 +4.55342E-04
 +2.14087E-02 -1.76683E-02 +1.73011E-02 -3.34548E-02 +8.94322E-03 -4.32889E-02 -1.44612E-03 -4.49088E-02
 -1.10761E-02 -3.79520E-02 -1.73214E-02 -2.40300E-02 -1.84219E-02 -6.31139E-03 -1.39503E-02 +1.12732E-02
 -4.92361E-03 +2.49970E-02 +6.47339E-03 +3.22239E-02 +1.74710E-02 +3.19903E-02 +2.54422E-02 +2.51451E-02
 +2.85757E-02 +1.40258E-02 +2.63110E-02 +1.77670E-03 +1.94272E-02 -8.49753E-03 +9.77008E-03 -1.45114E-02
 -2.92306E-04 -1.53082E-02 -8.52502E-03 -1.13792E-02 -1.34052E-02 -4.38533E-03 -1.44663E-02 +3.41756E-03
 -1.23210E-02 +9.86761E-03 -8.37521E-03 +1.34983E-02 -4.33005E-03 +1.38834E-02 -1.63340E-03 +1.16405E-02
 -1.04680E-03 +8.11298E-03 -2.45644E-03 +4.84516E-03 -4.97747E-03 +3.02487E-03 -7.30947E-03 +3.07170E-03
 -8.22354E-03 +4.50074E-03 -7.02087E-03 +6.10359E-03 -3.81249E-03 +6.38791E-03 +4.74665E-04 +4.13493E-03
 +4.37404E-03 -1.10491E-03 +6.35717E-03 -8.74275E-03 +5.36576E-03 -1.72068E-02 +1.22846E-03 -2.43233E-02
 -5.17765E-03 -2.79234E-02 -1.20878E-02 -2.65033E-02 -1.73035E-02 -1.97419E-02 -1.88191E-02 -8.71286E-03
 -1.54440E-02 +4.28790E-03 -7.23377E-03 +1.62721E-02 +4.40712E-03 +2.43127E-02 +1.70005E-02 +2.63226E-02
 +2.75893E-02 +2.16425E-02 +3.34998E-02 +1.12717E-02 +3.30674E-02 -2.33143E-03 +2.61223E-02 -1.58377E-02
 +1.40945E-02 -2.58730E-02 -3.02616E-04 -2.98673E-02 -1.37352E-02 -2.67043E-02 -2.30872E-02 -1.69994E-02
