 Created: 26-Mar-2021
 $NMID
 ID='D:\BASISSIMULATI'
 FMTDAT='(8E13.5)'
 VOLUME=   1.00000E+00
 TRAMP=   1.00000E+00
 $END
 +8.01100E-02 +1.75509E-04 +7.32664E-02 +3.12447E-02 +5.40568E-02 +5.63546E-02 +2.63749E-02 +7.07408E-02
 -4.19017E-03 +7.18729E-02 -3.15341E-02 +5.99720E-02 -5.03223E-02 +3.79408E-02 -5.71033E-02 +1.07263E-02
 -5.10132E-02 -1.57475E-02 -3.39245E-02 -3.58441E-02 -1.00113E-02 -4.54053E-02 +1.51710E-02 -4.26139E-02
 +3.58871E-02 -2.83467E-02 +4.74477E-02 -5.95027E-03 +4.71945E-02 +1.95068E-02 +3.50388E-02 +4.23368E-02
 +1.34456E-02 +5.74514E-02 -1.31253E-02 +6.14311E-02 -3.91908E-02 +5.32241E-02 -5.94152E-02 +3.43287E-02
 -6.97253E-02 +8.43373E-03 -6.81355E-02 -1.93958E-02 -5.51123E-02 -4.38032E-02 -3.34135E-02 -6.02589E-02
 -7.45069E-03 -6.59724E-02 +1.76768E-02 -6.04127E-02 +3.72609E-02 -4.53360E-02 +4.79437E-02 -2.43320E-02
 +4.83569E-02 -2.00209E-03 +3.93173E-02 +1.70443E-02 +2.35536E-02 +2.91529E-02 +5.04035E-03 +3.23450E-02
 -1.19007E-02 +2.66511E-02 -2.35328E-02 +1.40034E-02 -2.74672E-02 -2.27032E-03 -2.31022E-02 -1.82252E-02
 -1.16611E-02 -3.01692E-02 +4.16161E-03 -3.54354E-02 +2.08475E-02 -3.28940E-02 +3.48412E-02 -2.31095E-02
 +4.33003E-02 -8.12898E-03 +4.46489E-02 +9.03220E-03 +3.88274E-02 +2.50780E-02 +2.72043E-02 +3.71332E-02
 +1.21910E-02 +4.33062E-02 -3.33607E-03 +4.30018E-02 -1.66669E-02 +3.69329E-02 -2.58007E-02 +2.68531E-02
 -2.97893E-02 +1.50890E-02 -2.88208E-02 +3.99379E-03 -2.40485E-02 -4.55137E-03 -1.72266E-02 -9.48041E-03
 -1.02519E-02 -1.06675E-02 -4.72641E-03 -8.82724E-03 -1.63789E-03 -5.23493E-03 -1.22252E-03 -1.35218E-03
 -3.02124E-03 +1.54446E-03 -6.09566E-03 +2.64195E-03 -9.33269E-03 +1.71860E-03 -1.17515E-02 -8.94015E-04
 -1.27340E-02 -4.48640E-03 -1.21260E-02 -8.22244E-03 -1.01973E-02 -1.13902E-02 -7.48454E-03 -1.35825E-02
 -4.57475E-03 -1.47616E-02 -1.89886E-03 -1.51985E-02 +4.02323E-04 -1.53148E-02 +2.50015E-03 -1.54801E-02
 +4.78363E-03 -1.58340E-02 +7.67904E-03 -1.61899E-02 +1.14407E-02 -1.60554E-02 +1.59804E-02 -1.47703E-02
 +2.07933E-02 -1.17252E-02 +2.50143E-02 -6.59973E-03 +2.75997E-02 +4.50709E-04 +2.75952E-02 +8.72260E-03
 +2.44216E-02 +1.70395E-02 +1.80995E-02 +2.39709E-02 +9.34475E-03 +2.81508E-02 -5.04296E-04 +2.86214E-02
 -9.72747E-03 +2.51144E-02 -1.65847E-02 +1.81922E-02 -1.97201E-02 +9.19975E-03 -1.85110E-02 +2.31656E-05
 -1.32729E-02 -7.30278E-03 -5.25792E-03 -1.10541E-02 +3.56654E-03 -1.02393E-02 +1.09232E-02 -4.88087E-03
 +1.47304E-02 +3.92009E-03 +1.35956E-02 +1.41639E-02 +7.18286E-03 +2.33506E-02 -3.63935E-03 +2.90173E-02
 -1.69147E-02 +2.92991E-02 -2.99679E-02 +2.33860E-02 -3.99546E-02 +1.17696E-02 -4.44771E-02 -3.78897E-03
 -4.21310E-02 -2.05718E-02 -3.28590E-02 -3.54424E-02 -1.80238E-02 -4.54977E-02 -1.76922E-04 -4.86934E-02
 +1.74390E-02 -4.43070E-02 +3.15515E-02 -3.31290E-02 +3.95455E-02 -1.73361E-02 +4.00262E-02 -6.26768E-05
 +3.31341E-02 +1.52408E-02 +2.05381E-02 +2.55309E-02 +5.10132E-03 +2.88195E-02 -9.71239E-03 +2.46074E-02
 -2.05696E-02 +1.40058E-02 -2.49796E-02 -4.83894E-04 -2.18359E-02 -1.54901E-02 -1.16683E-02 -2.74817E-02
 +3.45054E-03 -3.35208E-02 +2.03274E-02 -3.18960E-02 +3.53121E-02 -2.25018E-02 +4.50631E-02 -6.88068E-03
 +4.72531E-02 +1.20813E-02 +4.10652E-02 +3.07432E-02 +2.73750E-02 +4.54582E-02 +8.57979E-03 +5.33250E-02
 -1.18886E-02 +5.27851E-02 -3.02646E-02 +4.39399E-02 -4.32158E-02 +2.85234E-02 -4.85158E-02 +9.53835E-03
 -4.54833E-02 -9.36578E-03 -3.50988E-02 -2.46417E-02 -1.97783E-02 -3.35626E-02 -2.85488E-03 -3.47614E-02
 +1.21199E-02 -2.84825E-02 +2.21077E-02 -1.64977E-02 +2.51962E-02 -1.70896E-03 +2.09687E-02 +1.24724E-02
 +1.05593E-02 +2.28404E-02 -3.61223E-03 +2.70515E-02 -1.83634E-02 +2.40916E-02 -3.04175E-02 +1.44609E-02
 -3.70766E-02 +4.46926E-05 -3.67619E-02 -1.62948E-02 -2.93136E-02 -3.13156E-02 -1.59967E-02 -4.20557E-02
 +7.80821E-04 -4.64193E-02 +1.79717E-02 -4.35727E-02 +3.25058E-02 -3.40767E-02 +4.18928E-02 -1.97367E-02
 +4.46881E-02 -3.21070E-03 +4.07367E-02 +1.25372E-02 +3.11520E-02 +2.48233E-02 +1.80461E-02 +3.17519E-02
 +4.07506E-03 +3.25461E-02 -8.10287E-03 +2.76443E-02 -1.63440E-02 +1.85536E-02 -1.94104E-02 +7.50047E-03
 -1.71648E-02 -3.04207E-03 -1.05395E-02 -1.08525E-02 -1.29833E-03 -1.43837E-02 +8.35179E-03 -1.30332E-02
 +1.62152E-02 -7.21448E-03 +2.05362E-02 +1.77128E-03 +2.03196E-02 +1.20290E-02 +1.54890E-02 +2.14617E-02
 +6.86016E-03 +2.81795E-02 -4.05196E-03 +3.08473E-02 -1.53478E-02 +2.89085E-02 -2.51106E-02 +2.26510E-02
 -3.17553E-02 +1.31129E-02 -3.42952E-02 +1.85727E-03 -3.24833E-02 -9.33392E-03 -2.68111E-02 -1.87850E-02
 -1.83768E-02 -2.52103E-02 -8.65508E-03 -2.79091E-02 +7.81361E-04 -2.68437E-02 +8.53665E-03 -2.25971E-02
 +1.36150E-02 -1.62268E-02 +1.55585E-02 -9.04886E-03 +1.44826E-02 -2.39565E-03 +1.10134E-02 +2.61142E-03
 +6.14329E-03 +5.23594E-03 +1.03803E-03 +5.22445E-03 -3.17207E-03 +2.81824E-03 -5.58086E-03 -1.31594E-03
 -5.64751E-03 -6.21935E-03 -3.27183E-03 -1.08138E-02 +1.20369E-03 -1.40848E-02 +7.06098E-03 -1.52468E-02
 +1.33295E-02 -1.38680E-02 +1.89450E-02 -9.93647E-03 +2.29196E-02 -3.86229E-03 +2.44991E-02 +3.58630E-03
 +2.32830E-02 +1.14002E-02 +1.92923E-02 +1.84848E-02 +1.29721E-02 +2.38290E-02 +5.12876E-03 +2.66652E-02
 -3.19015E-03 +2.65932E-02 -1.08574E-02 +2.36495E-02 -1.68439E-02 +1.83078E-02 -2.03861E-02 +1.14092E-02
 -2.11134E-02 +4.02958E-03 -1.91145E-02 -2.69618E-03 -1.49269E-02 -7.76496E-03 -9.44936E-03 -1.04793E-02
 -3.78785E-03 -1.05727E-02 +9.39494E-04 -8.26261E-03 +3.80583E-03 -4.21713E-03 +4.25045E-03 +5.60788E-04
 +2.19167E-03 +4.91510E-03 -1.94585E-03 +7.75276E-03 -7.29797E-03 +8.25521E-03 -1.27132E-02 +6.04530E-03
 -1.69651E-02 +1.27617E-03 -1.89856E-02 -5.37783E-03 -1.80771E-02 -1.28298E-02 -1.40609E-02 -1.97718E-02
 -7.33089E-03 -2.49143E-02 +1.19915E-03 -2.72302E-02 +1.02494E-02 -2.61559E-02 +1.84013E-02 -2.17096E-02
 +2.43565E-02 -1.45029E-02 +2.71794E-02 -5.63888E-03 +2.64743E-02 +3.48317E-03 +2.24637E-02 +1.14235E-02
 +1.59505E-02 +1.69679E-02 +8.16906E-03 +1.93535E-02 +5.53190E-04 +1.84102E-02 -5.53537E-03 +1.45902E-02
 -9.06552E-03 +8.87759E-03 -9.53256E-03 +2.59542E-03 -7.05268E-03 -2.85256E-03 -2.33723E-03 -6.25675E-03
 +3.44866E-03 -6.83916E-03 +8.91606E-03 -4.40728E-03 +1.27265E-02 +6.05677E-04 +1.38572E-02 +7.22236E-03
 +1.18060E-02 +1.41092E-02 +6.69519E-03 +1.98340E-02 -7.43960E-04 +2.31443E-02 -9.30565E-03 +2.32110E-02
 -1.75349E-02 +1.97925E-02 -2.40011E-02 +1.32856E-02 -2.75678E-02 +4.65534E-03 -2.76052E-02 -4.74329E-03
 -2.41069E-02 -1.34171E-02 -1.76884E-02 -2.00111E-02 -9.46809E-03 -2.35569E-02 -8.54448E-04 -2.36465E-02
 +6.71824E-03 -2.04979E-02 +1.20564E-02 -1.49035E-02 +1.44244E-02 -8.06906E-03 +1.36720E-02 -1.37888E-03
 +1.02488E-02 +3.87048E-03 +5.10581E-03 +6.71503E-03 -4.98520E-04 +6.70135E-03 -5.24641E-03 +3.96468E-03
 -8.01752E-03 -8.06398E-04 -8.10456E-03 -6.51039E-03 -5.34748E-03 -1.18506E-02 -1.61992E-04 -1.55878E-02
 +6.54177E-03 -1.67794E-02 +1.35338E-02 -1.49608E-02 +1.94978E-02 -1.02345E-02 +2.32796E-02 -3.25175E-03
 +2.41027E-02 +4.90848E-03 +2.17123E-02 +1.29395E-02 +1.64200E-02 +1.95476E-02 +9.04426E-03 +2.36878E-02
 +7.56430E-04 +2.47511E-02 -7.13507E-03 +2.26688E-02 -1.34235E-02 +1.79157E-02 -1.72198E-02 +1.14137E-02
 -1.81065E-02 +4.35414E-03 -1.62016E-02 -2.02639E-03 -1.21229E-02 -6.67393E-03 -6.85920E-03 -8.90718E-03
 -1.57625E-03 -8.53447E-03 +2.60766E-03 -5.87713E-03 +4.83272E-03 -1.69645E-03 +4.65670E-03 +2.96081E-03
 +2.13305E-03 +6.96812E-03 -2.20552E-03 +9.33726E-03 -7.45363E-03 +9.40753E-03 -1.25089E-02 +6.97130E-03
 -1.62829E-02 +2.31312E-03 -1.79084E-02 -3.84386E-03 -1.69026E-02 -1.04733E-02 -1.32586E-02 -1.64366E-02
 -7.44686E-03 -2.06932E-02 -3.28768E-04 -2.24915E-02 +7.00140E-03 -2.15042E-02 +1.34158E-02 -1.78846E-02
 +1.79563E-02 -1.22338E-02 +2.00035E-02 -5.48662E-03 +1.93820E-02 +1.26282E-03 +1.63817E-02 +6.96083E-03
 +1.16937E-02 +1.07835E-02 +6.27356E-03 +1.22800E-02 +1.15845E-03 +1.14439E-02 -2.72692E-03 +8.70118E-03
 -4.73961E-03 +4.81760E-03 -4.63153E-03 +7.44921E-04 -2.58647E-03 -2.56482E-03 +8.24748E-04 -4.34155E-03
 +4.76118E-03 -4.14199E-03 +8.27768E-03 -1.93054E-03 +1.05081E-02 +1.91781E-03 +1.08312E-02 +6.69199E-03
 +8.98846E-03 +1.14816E-02 +5.13273E-03 +1.53497E-02 -2.00586E-04 +1.75081E-02 -6.19304E-03 +1.74641E-02
 -1.18940E-02 +1.51098E-02 -1.63939E-02 +1.07403E-02 -1.89880E-02 +4.99749E-03 -1.92996E-02 -1.24905E-03
 -1.73421E-02 -7.06006E-03 -1.35085E-02 -1.15946E-02 -8.49257E-03 -1.42567E-02 -3.15690E-03 -1.47940E-02
 +1.62614E-03 -1.33318E-02 +5.13144E-03 -1.03376E-02 +6.90691E-03 -6.52378E-03 +6.84599E-03 -2.70852E-03
 +5.19471E-03 +3.38922E-04 +2.49366E-03 +2.03996E-03 -5.32861E-04 +2.10939E-03 -3.11907E-03 +6.01312E-04
 -4.60425E-03 -2.10885E-03 -4.55678E-03 -5.40160E-03 -2.85333E-03 -8.53430E-03 +3.00362E-04 -1.07828E-02
 +4.40962E-03 -1.15775E-02 +8.78354E-03 -1.06088E-02 +1.26622E-02 -7.88429E-03 +1.53548E-02 -3.72666E-03
 +1.63634E-02 +1.28453E-03 +1.54707E-02 +6.41675E-03 +1.27760E-02 +1.09142E-02 +8.67444E-03 +1.41296E-02
 +3.78429E-03 +1.56345E-02 -1.16378E-03 +1.52890E-02 -5.45531E-03 +1.32591E-02 -8.51482E-03 +9.97997E-03
 -1.00015E-02 +6.07186E-03 -9.86082E-03 +2.22619E-03 -8.32479E-03 -9.18955E-04 -5.86039E-03 -2.89075E-03
 -3.07774E-03 -3.46136E-03 -6.14257E-04 -2.68200E-03 +9.83659E-04 -8.65929E-04 +1.36048E-03 +1.47576E-03
 +4.15075E-04 +3.73330E-03 -1.68283E-03 +5.31420E-03 -4.52583E-03 +5.75495E-03 -7.54518E-03 +4.80835E-03
 -1.01161E-02 +2.49117E-03 -1.16734E-02 -9.16373E-04 -1.18156E-02 -4.91894E-03 -1.03804E-02 -8.89323E-03
 -7.47681E-03 -1.21984E-02 -3.46832E-03 -1.42898E-02 +1.08870E-03 -1.48156E-02 +5.54155E-03 -1.36793E-02
 +9.25465E-03 -1.10564E-02 +1.17197E-02 -7.36322E-03 +1.26430E-02 -3.18247E-03 +1.19937E-02 +8.40197E-04
 +1.00055E-02 +4.11027E-03 +7.12980E-03 +6.18844E-03 +3.95119E-03 +6.86592E-03 +1.07851E-03 +6.19719E-03
 -9.67131E-04 +4.48455E-03 -1.84751E-03 +2.21710E-03 -1.46801E-03 -2.43325E-05 +7.35828E-06 -1.67890E-03
 +2.18924E-03 -2.31343E-03 +4.53865E-03 -1.70596E-03 +6.47089E-03 +1.10376E-04 +7.46848E-03 +2.85143E-03
