 Created: 26-Mar-2021
 $NMID
 ID='D:\BASISSIMULATI'
 FMTDAT='(8E13.5)'
 VOLUME=   1.00000E+00
 TRAMP=   1.00000E+00
 $END
 +3.47321E-02 -6.88830E-09 +3.39732E-02 +7.16821E-03 +3.17515E-02 +1.40232E-02 +2.81635E-02 +2.02698E-02
 +2.33647E-02 +2.56395E-02 +1.75626E-02 +2.99014E-02 +1.10076E-02 +3.28727E-02 +3.98263E-03 +3.44262E-02
 -3.20948E-03 +3.44960E-02 -1.02588E-02 +3.30798E-02 -1.68619E-02 +3.02397E-02 -2.27345E-02 +2.60989E-02
 -2.76242E-02 +2.08366E-02 -3.13210E-02 +1.46801E-02 -3.36663E-02 +7.89509E-03 -3.45602E-02 +7.74324E-04
 -3.39648E-02 -6.37532E-03 -3.19069E-02 -1.32459E-02 -2.84760E-02 -1.95416E-02 -2.38206E-02 -2.49916E-02
 -1.81422E-02 -2.93618E-02 -1.16860E-02 -3.24645E-02 -4.73040E-03 -3.41670E-02 +2.42454E-03 -3.43967E-02
 +9.47056E-03 -3.31447E-02 +1.61042E-02 -3.04659E-02 +2.20401E-02 -2.64766E-02 +2.70229E-02 -2.13493E-02
 +3.08386E-02 -1.53056E-02 +3.33237E-02 -8.60656E-03 +3.43718E-02 -1.54097E-03 +3.39388E-02 +5.58655E-03
 +3.20442E-02 +1.24690E-02 +2.87706E-02 +1.88100E-02 +2.42599E-02 +2.43368E-02 +1.87070E-02 +2.88120E-02
 +1.23519E-02 +3.20433E-02 +5.46870E-03 +3.38924E-02 -1.64570E-03 +3.42805E-02 -8.68474E-03 +3.31918E-02
 -1.53453E-02 +3.06741E-02 -2.13407E-02 +2.68368E-02 -2.64131E-02 +2.18460E-02 -3.03447E-02 +1.59174E-02
 -3.29668E-02 +9.30686E-03 -3.41673E-02 +2.29963E-03 -3.38953E-02 -4.80226E-03 -3.21636E-02 -1.16928E-02
 -2.90475E-02 -1.80754E-02 -2.46823E-02 -2.36755E-02 -1.92567E-02 -2.82523E-02 -1.30051E-02 -3.16093E-02
 -6.19722E-03 -3.36026E-02 +8.73300E-04 -3.41474E-02 +7.90177E-03 -3.32211E-02 +1.45855E-02 -3.08644E-02
 +2.06367E-02 -2.71797E-02 +2.57953E-02 -2.23267E-02 +2.98396E-02 -1.65151E-02 +3.25961E-02 -9.99575E-03
 +3.39468E-02 -3.04997E-03 +3.38345E-02 +4.02282E-03 +3.22650E-02 +1.09179E-02 +2.93067E-02 +1.73384E-02
 +2.50879E-02 +2.30080E-02 +1.97912E-02 +2.76831E-02 +1.36454E-02 +3.11628E-02 +6.91568E-03 +3.32981E-02
 -1.07694E-04 +3.39978E-02 -7.12201E-03 +3.32328E-02 -1.38252E-02 +3.10367E-02 -1.99286E-02 +2.75052E-02
 -2.51699E-02 +2.27913E-02 -2.93237E-02 +1.70986E-02 -3.22119E-02 +1.06730E-02 -3.37108E-02 +3.79168E-03
 -3.37567E-02 -3.24860E-03 -3.23487E-02 -1.01445E-02 -2.95481E-02 -1.65992E-02 -2.54767E-02 -2.23348E-02
 -2.03104E-02 -2.71048E-02 -1.42726E-02 -3.07043E-02 -7.62378E-03 -3.29791E-02 -6.50786E-04 -3.38319E-02
 +6.34586E-03 -3.32270E-02 +1.30648E-02 -3.11913E-02 +1.92168E-02 -2.78134E-02 +2.45371E-02 -2.32396E-02
 +2.87973E-02 -1.76676E-02 +3.18144E-02 -1.13382E-02 +3.34593E-02 -4.52445E-03 +3.36620E-02 +2.47994E-03
 +3.24147E-02 +9.37312E-03 +2.97719E-02 +1.58582E-02 +2.58485E-02 +2.16562E-02 +2.08141E-02 +2.65178E-02
 +1.48864E-02 +3.02341E-02 +8.32127E-03 +3.26458E-02 +1.40181E-03 +3.36499E-02 -5.57368E-03 +3.32040E-02
 -1.23047E-02 +3.13281E-02 -1.85015E-02 +2.81041E-02 -2.38976E-02 +2.36715E-02 -2.82609E-02 +1.82222E-02
 -3.14041E-02 +1.19914E-02 -3.31928E-02 +5.24799E-03 -3.35506E-02 -1.71720E-03 -3.24631E-02 -8.60406E-03
 -2.99781E-02 -1.51160E-02 -2.62033E-02 -2.09727E-02 -2.13023E-02 -2.59225E-02 -1.54868E-02 -2.97525E-02
 -9.00788E-03 -3.22987E-02 -2.14506E-03 -3.34521E-02 +4.80584E-03 -3.31638E-02 +1.15454E-02 -3.14473E-02
 +1.77834E-02 -2.83774E-02 +2.32515E-02 -2.40871E-02 +2.77147E-02 -1.87620E-02 +3.09813E-02 -1.26321E-02
 +3.29115E-02 -5.96201E-03 +3.34228E-02 +9.60725E-04 +3.24942E-02 +7.83773E-03 +3.01666E-02 +1.43728E-02
 +2.65411E-02 +2.02847E-02 +2.17747E-02 +2.53192E-02 +1.60734E-02 +2.92600E-02 +9.68335E-03 +3.19380E-02
 +2.88022E-03 +3.32386E-02 -4.04269E-03 +3.31068E-02 -1.07871E-02 +3.15490E-02 -1.70627E-02 +2.86334E-02
 -2.25994E-02 +2.44862E-02 -2.71592E-02 +1.92870E-02 -3.05463E-02 +1.32603E-02 -3.26156E-02 +6.66622E-03
 -3.32788E-02 -2.10841E-04 -3.25081E-02 -7.07450E-03 -3.03377E-02 -1.36291E-02 -2.68620E-02 -1.95926E-02
 -2.22314E-02 -2.47084E-02 -1.66461E-02 -2.87568E-02 -1.03474E-02 -3.15640E-02 -3.60698E-03 -3.30098E-02
 +3.28459E-03 -3.30330E-02 +1.00304E-02 -3.16333E-02 +1.63399E-02 -2.88720E-02 +2.19416E-02 -2.48688E-02
 +2.65947E-02 -1.97970E-02 +3.00995E-02 -1.38756E-02 +3.23055E-02 -7.36034E-03 +3.31187E-02 -5.32119E-04
 +3.25049E-02 +6.31474E-03 +3.04913E-02 +1.28853E-02 +2.71658E-02 +1.88967E-02 +2.26722E-02 +2.40905E-02
 +1.72048E-02 +2.82433E-02 +1.09999E-02 +3.11770E-02 +4.32504E-03 +3.27660E-02 -2.53190E-03 +3.29427E-02
 -9.27547E-03 +3.17003E-02 -1.56153E-02 +2.90933E-02 -2.12785E-02 +2.52348E-02 -2.60217E-02 +2.02919E-02
 -2.96411E-02 +1.44780E-02 -3.19815E-02 +8.04412E-03 -3.29429E-02 +1.26783E-03 -3.24847E-02 -5.55881E-03
 -3.06276E-02 -1.21417E-02 -2.74525E-02 -1.81975E-02 -2.30970E-02 -2.34657E-02 -1.77493E-02 -2.77199E-02
 -1.16405E-02 -3.07774E-02 -5.03411E-03 -3.25073E-02 +1.78494E-03 -3.28360E-02 +8.52282E-03 -3.17502E-02
 +1.48894E-02 -2.92974E-02 +2.06106E-02 -2.55843E-02 +2.54405E-02 -2.07715E-02 +2.91716E-02 -1.50671E-02
 +3.16438E-02 -8.71729E-03 +3.27515E-02 -1.99598E-03 +3.24478E-02 +4.80707E-03 +3.07467E-02 +1.13988E-02
 +2.77223E-02 +1.74954E-02 +2.35058E-02 +2.28346E-02 +1.82794E-02 +2.71869E-02 +1.22690E-02 +3.03655E-02
 +5.73391E-03 +3.22342E-02 -1.04405E-03 +3.27132E-02 -7.77279E-03 +3.17830E-02 -1.41625E-02 +2.94843E-02
 -1.99382E-02 +2.59171E-02 -2.48515E-02 +2.12359E-02 -2.86912E-02 +1.56429E-02 -3.12928E-02 +9.37959E-03
 -3.25448E-02 +2.71626E-03 -3.23943E-02 -4.05988E-03 -3.08486E-02 -1.06569E-02 -2.79751E-02 -1.67908E-02
 -2.38985E-02 -2.21975E-02 -1.87950E-02 -2.66448E-02 -1.28852E-02 -2.99416E-02 -6.42415E-03 -3.19467E-02
 +3.09577E-04 -3.25745E-02 +7.02574E-03 -3.17989E-02 +1.34351E-02 -2.96541E-02 +1.92617E-02 -2.62333E-02
 +2.42550E-02 -2.16848E-02 +2.82004E-02 -1.62051E-02 +3.09287E-02 -1.00308E-02 +3.23232E-02 -3.42837E-03
 +3.23244E-02 +3.31759E-03 +3.09334E-02 +9.91640E-03 +2.82109E-02 +1.60840E-02 +2.42750E-02 +2.15548E-02
 +1.92960E-02 +2.60939E-02 +1.34890E-02 +2.95061E-02 +7.10456E-03 +3.16454E-02 +4.18172E-04 +3.24202E-02
 -6.28203E-03 +3.17981E-02 -1.27074E-02 +2.98068E-02 -1.85815E-02 +2.65328E-02 -2.36515E-02 +2.21181E-02
 -2.76995E-02 +1.67535E-02 -3.05520E-02 +1.06707E-02 -3.20867E-02 +4.13200E-03 -3.22384E-02 -2.58052E-03
 -3.10014E-02 -9.17768E-03 -2.84298E-02 -1.53754E-02 -2.46354E-02 -2.09069E-02 -1.97822E-02 -2.55345E-02
 -1.40800E-02 -2.90593E-02 -7.77489E-03 -3.13303E-02 -1.13888E-03 -3.22503E-02 +5.54202E-03 -3.17807E-02
 +1.19800E-02 -2.99425E-02 +1.78980E-02 -2.68157E-02 +2.30413E-02 -2.25359E-02 +2.71889E-02 -1.72881E-02
 +3.01628E-02 -1.12990E-02 +3.18357E-02 -4.82689E-03 +3.21363E-02 +1.84902E-03 +3.10525E-02 +8.44110E-03
 +2.86319E-02 +1.46654E-02 +2.49795E-02 +2.02542E-02 +2.02535E-02 +2.49671E-02 +1.46581E-02 +2.86016E-02
 +8.43487E-03 +3.10018E-02 +1.85223E-03 +3.20653E-02 -4.80606E-03 +3.17469E-02 -1.12532E-02 +3.00613E-02
 -1.72115E-02 +2.70820E-02 -2.24248E-02 +2.29380E-02 -2.66689E-02 +1.78087E-02 -2.97616E-02 +1.19155E-02
 -3.15705E-02 +5.51273E-03 -3.20184E-02 -1.12342E-03 -3.10869E-02 -7.70702E-03 -2.88171E-02 -1.39545E-02
 -2.53074E-02 -1.95970E-02 -2.07098E-02 -2.43919E-02 -1.52232E-02 -2.81332E-02 -9.08426E-03 -3.06603E-02
 -2.55792E-03 -3.18652E-02 +4.07450E-03 -3.16969E-02 +1.05273E-02 -3.01634E-02 +1.65225E-02 -2.73316E-02
 +2.18024E-02 -2.33244E-02 +2.61398E-02 -1.83150E-02 +2.93486E-02 -1.25200E-02 +3.12913E-02 -6.18927E-03
 +3.18849E-02 +4.04042E-04 +3.11048E-02 +6.97581E-03 +2.89855E-02 +1.32430E-02 +2.56190E-02 +1.89358E-02
 +2.11511E-02 +2.38095E-02 +1.57750E-02 +2.76545E-02 +9.72283E-03 +3.03060E-02 +3.25566E-03 +3.16504E-02
 -3.34768E-03 +3.16308E-02 -9.80268E-03 +3.02487E-02 -1.58314E-02 +2.75646E-02 -2.11744E-02 +2.36950E-02
 -2.56021E-02 +1.88071E-02 -2.89242E-02 +1.31123E-02 -3.09984E-02 +6.85623E-03 -3.17361E-02 +3.08800E-04
 -3.11064E-02 -6.24782E-03 -2.91372E-02 -1.25312E-02 -2.59143E-02 -1.82709E-02 -2.15772E-02 -2.32200E-02
 -1.63134E-02 -2.71659E-02 -1.03503E-02 -2.99392E-02 -3.94515E-03 -3.14212E-02 +2.62593E-03 -3.15488E-02
 +9.07978E-03 -3.03175E-02 +1.51385E-02 -2.77811E-02 +2.05413E-02 -2.40497E-02 +2.50560E-02 -1.92848E-02
 +2.84886E-02 -1.36922E-02 +3.06920E-02 -7.51337E-03 +3.15721E-02 -1.01479E-03 +3.10916E-02 +5.52341E-03
 +2.92723E-02 +1.18196E-02 +2.61933E-02 +1.76027E-02 +2.19880E-02 +2.26240E-02 +1.68383E-02 +2.66677E-02
 +1.09665E-02 +2.95602E-02 +4.62612E-03 +3.11776E-02 -1.90958E-03 +3.14512E-02 -8.35893E-03 +3.03698E-02
 -1.44442E-02 +2.79811E-02 -1.99035E-02 +2.43886E-02 -2.45020E-02 +1.97479E-02 -2.80423E-02 +1.42595E-02
 -3.03726E-02 +8.16041E-03 -3.13931E-02 +1.71364E-03 -3.10608E-02 -4.80290E-03 -2.93909E-02 -1.11085E-02
 -2.64561E-02 -1.69316E-02 -2.23835E-02 -2.20218E-02 -1.73495E-02 -2.61603E-02 -1.15713E-02 -2.91694E-02
 -5.29829E-03 -3.09201E-02 +1.19896E-03 -3.13380E-02 +7.64048E-03 -3.04058E-02 +1.37489E-02 -2.81646E-02
 +1.92612E-02 -2.47116E-02 +2.39405E-02 -2.01964E-02 +2.75856E-02 -1.48141E-02 +3.00403E-02 -8.79714E-03
 +3.11995E-02 -2.40503E-03 +3.10141E-02 +4.08665E-03 +2.94930E-02 +1.03982E-02 +2.67026E-02 +1.62580E-02
 +2.27637E-02 +2.14138E-02 +1.78468E-02 +2.56440E-02 +1.21643E-02 +2.87670E-02 +5.96139E-03 +3.06489E-02
 -4.94372E-04 +3.12096E-02 -6.92479E-03 +3.04256E-02 -1.30529E-02 +2.83316E-02 -1.86149E-02 +2.50186E-02
 -2.33717E-02 +2.06301E-02 -2.71188E-02 +1.53558E-02 -2.96954E-02 +9.42330E-03 -3.09914E-02 +3.08868E-03
 -3.09517E-02 -3.37499E-03 -2.95788E-02 -9.68924E-03 -2.69328E-02 -1.55822E-02 -2.31284E-02 -2.08003E-02
 -1.83301E-02 -2.51191E-02 -1.27454E-02 -2.83533E-02 -6.61516E-03 -3.03643E-02 -2.03861E-04 -3.10661E-02
 +6.21219E-03 -3.04294E-02 +1.23566E-02 -2.84824E-02 +1.79650E-02 -2.53098E-02 +2.27960E-02 -2.10490E-02
 +2.66422E-02 -1.58843E-02 +2.93383E-02 -1.00387E-02 +3.07691E-02 -3.76431E-03 +3.08737E-02 +2.66825E-03
 +2.96484E-02 +8.98184E-03 +2.71468E-02 +1.49046E-02 +2.34776E-02 +2.01816E-02 +1.87994E-02 +2.45861E-02
 +1.33144E-02 +2.79288E-02 +7.25935E-03 +3.00665E-02 +8.95439E-04 +3.09077E-02 -5.50305E-03 +3.04172E-02
 -1.16605E-02 +2.86168E-02 -1.73118E-02 +2.55850E-02 -2.22139E-02 +2.14530E-02 -2.61561E-02 +1.63996E-02
