 Created: 26-Mar-2021
 $NMID
 ID='D:\BASISSIMULATI'
 FMTDAT='(8E13.5)'
 VOLUME=   1.00000E+00
 TRAMP=   1.00000E+00
 $END
 +3.07691E-01 -1.36981E-05 +3.00100E-01 +6.37407E-02 +2.78024E-01 +1.23790E-01 +2.42856E-01 +1.76720E-01
 +1.96806E-01 +2.19587E-01 +1.42742E-01 +2.50118E-01 +8.39983E-02 +2.66846E-01 +2.41474E-02 +2.69207E-01
 -3.32409E-02 +2.57562E-01 -8.48390E-02 +2.33164E-01 -1.27781E-01 +1.98052E-01 -1.59849E-01 +1.54905E-01
 -1.79608E-01 +1.06844E-01 -1.86491E-01 +5.72106E-02 -1.80816E-01 +9.33171E-03 -1.63742E-01 -3.37117E-02
 -1.37169E-01 -6.92932E-02 -1.03584E-01 -9.54139E-02 -6.58670E-02 -1.10829E-01 -2.70764E-02 -1.15115E-01
 +9.77896E-03 -1.08680E-01 +4.19578E-02 -9.27104E-02 +6.71818E-02 -6.90636E-02 +8.37930E-02 -4.01109E-02
 +9.08632E-02 -8.54736E-03 +8.82464E-02 +2.28204E-02 +7.65729E-02 +5.12914E-02 +5.71841E-02 +7.44764E-02
 +3.20150E-02 +9.04773E-02 +3.43294E-03 +9.80268E-02 -2.59547E-02 +9.65792E-02 -5.35097E-02 +8.63442E-02
 -7.67721E-02 +6.82627E-02 -9.36544E-02 +4.39263E-02 -1.02606E-01 +1.54477E-02 -1.02736E-01 -1.47095E-02
 -9.38817E-02 -4.39271E-02 -7.66269E-02 -6.96407E-02 -5.22553E-02 -8.95434E-02 -2.26542E-02 -1.01771E-01
 +9.82981E-03 -1.05051E-01 +4.25711E-02 -9.88119E-02 +7.28679E-02 -8.32323E-02 +9.81523E-02 -5.92378E-02
 +1.16191E-01 -2.84387E-02 +1.25262E-01 +6.98444E-03 +1.24295E-01 +4.44400E-02 +1.12964E-01 +8.11168E-02
 +9.17198E-02 +1.14194E-01 +6.17721E-02 +1.41056E-01 +2.50080E-02 +1.59486E-01 -1.61381E-02 +1.67846E-01
 -5.88569E-02 +1.65200E-01 -1.00167E-01 +1.51398E-01 -1.37133E-01 +1.27096E-01 -1.67078E-01 +9.37193E-02
 -1.87787E-01 +5.33676E-02 -1.97673E-01 +8.67148E-03 -1.95895E-01 -3.73930E-02 -1.82433E-01 -8.17162E-02
 -1.58096E-01 -1.21278E-01 -1.24469E-01 -1.53367E-01 -8.38087E-02 -1.75776E-01 -3.88877E-02 -1.86970E-01
 +7.20367E-03 -1.86197E-01 +5.12741E-02 -1.73547E-01 +9.02604E-02 -1.49956E-01 +1.21447E-01 -1.17141E-01
 +1.42662E-01 -7.74822E-02 +1.52437E-01 -3.38575E-02 +1.50114E-01 +1.05616E-02 +1.35897E-01 +5.25342E-02
 +1.10841E-01 +8.89808E-02 +7.67827E-02 +1.17204E-01 +3.62093E-02 +1.35081E-01 -7.91199E-03 +1.41219E-01
 -5.23449E-02 +1.35054E-01 -9.38126E-02 +1.16896E-01 -1.29229E-01 +8.79080E-02 -1.55917E-01 +5.00273E-02
 -1.71801E-01 +5.83021E-03 -1.75550E-01 -4.16483E-02 -1.66674E-01 -8.91273E-02 -1.45562E-01 -1.33310E-01
 -1.13448E-01 -1.71114E-01 -7.23305E-02 -1.99888E-01 -2.48272E-02 -2.17594E-01 +2.60065E-02 -2.22949E-01
 +7.68930E-02 -2.15511E-01 +1.24561E-01 -1.95707E-01 +1.65973E-01 -1.64795E-01 +1.98533E-01 -1.24772E-01
 +2.20267E-01 -7.82324E-02 +2.29951E-01 -2.81764E-02 +2.27187E-01 +2.21999E-02 +2.12425E-01 +6.97309E-02
 +1.86915E-01 +1.11502E-01 +1.52613E-01 +1.45051E-01 +1.12026E-01 +1.68534E-01 +6.80318E-02 +1.80843E-01
 +2.36628E-02 +1.81675E-01 -1.81104E-02 +1.71536E-01 -5.45918E-02 +1.51689E-01 -8.35497E-02 +1.24048E-01
 -1.03368E-01 +9.10255E-02 -1.13155E-01 +5.53448E-02 -1.12790E-01 +1.98321E-02 -1.02917E-01 -1.27952E-02
 -8.48860E-02 -4.01304E-02 -6.06298E-02 -6.02534E-02 -3.25106E-02 -7.18679E-02 -3.13001E-03 -7.43898E-02
 +2.48765E-02 -6.79815E-02 +4.90444E-02 -5.35284E-02 +6.72720E-02 -3.25606E-02 +7.79814E-02 -7.12591E-03
 +8.02400E-02 +2.03761E-02 +7.38307E-02 +4.73871E-02 +5.92673E-02 +7.13937E-02 +3.77530E-02 +9.01284E-02
 +1.10862E-02 +1.01751E-01 -1.84803E-02 +1.04997E-01 -4.84157E-02 +9.92849E-02 -7.61098E-02 +8.47645E-02
 -9.90788E-02 +6.23178E-02 -1.15163E-01 +3.34974E-02 -1.22701E-01 +4.14720E-04 -1.20668E-01 -3.44144E-02
 -1.08768E-01 -6.82584E-02 -8.74693E-02 -9.83759E-02 -5.79822E-02 -1.22226E-01 -2.21863E-02 -1.37663E-01
 +1.75004E-02 -1.43111E-01 +5.82898E-02 -1.37687E-01 +9.72236E-02 -1.21289E-01 +1.31388E-01 -9.46121E-02
 +1.58126E-01 -5.91174E-02 +1.75238E-01 -1.69399E-02 +1.81149E-01 +2.92528E-02 +1.75028E-01 +7.64431E-02
 +1.56865E-01 +1.21472E-01 +1.27481E-01 +1.61261E-01 +8.84827E-02 +1.93030E-01 +4.21596E-02 +2.14495E-01
 -8.66775E-03 +2.24036E-01 -6.08391E-02 +2.20812E-01 -1.11070E-01 +2.04829E-01 -1.56180E-01 +1.76942E-01
 -1.93308E-01 +1.38805E-01 -2.20115E-01 +9.27558E-02 -2.34943E-01 +4.16570E-02 -2.36929E-01 -1.12975E-02
 -2.26066E-01 -6.28051E-02 -2.03197E-01 -1.09680E-01 -1.69957E-01 -1.49072E-01 -1.28652E-01 -1.78662E-01
 -8.21019E-02 -1.96817E-01 -3.34335E-02 -2.02698E-01 +1.41336E-02 -1.96308E-01 +5.75147E-02 -1.78490E-01
 +9.39728E-02 -1.50851E-01 +1.21307E-01 -1.15643E-01 +1.37999E-01 -7.55978E-02 +1.43315E-01 -3.37242E-02
 +1.37342E-01 +6.90774E-03 +1.20974E-01 +4.33878E-02 +9.58318E-02 +7.31715E-02 +6.41418E-02 +9.42592E-02
 +2.85601E-02 +1.05333E-01 -8.02423E-03 +1.05841E-01 -4.27044E-02 +9.60320E-02 -7.27695E-02 +7.69213E-02
 -9.59025E-02 +5.02089E-02 -1.10347E-01 +1.81447E-02 -1.15030E-01 -1.66455E-02 -1.09638E-01 -5.13590E-02
 -9.46298E-02 -8.32283E-02 -7.11965E-02 -1.09728E-01 -4.11662E-02 -1.28762E-01 -6.86161E-03 -1.38820E-01
 +2.90778E-02 -1.39085E-01 +6.38970E-02 -1.29492E-01 +9.49338E-02 -1.10734E-01 +1.19820E-01 -8.41977E-02
 +1.36657E-01 -5.18652E-02 +1.44165E-01 -1.61580E-02 +1.41768E-01 +2.02445E-02 +1.29648E-01 +5.46089E-02
 +1.08723E-01 +8.43532E-02 +8.05812E-02 +1.07243E-01 +4.73626E-02 +1.21558E-01 +1.15965E-02 +1.26227E-01
 -2.39875E-02 +1.20903E-01 -5.66640E-02 +1.05999E-01 -8.39175E-02 +8.26532E-02 -1.03631E-01 +5.26478E-02
 -1.14248E-01 +1.82785E-02 -1.14890E-01 -1.78159E-02 -1.05425E-01 -5.28500E-02 -8.64839E-02 -8.40983E-02
 -5.94132E-02 -1.09100E-01 -2.61817E-02 -1.25842E-01 +1.07631E-02 -1.32914E-01 +4.86747E-02 -1.29614E-01
 +8.47083E-02 -1.16007E-01 +1.16132E-01 -9.29217E-02 +1.40526E-01 -6.18992E-02 +1.55969E-01 -2.50790E-02
 +1.61176E-01 +1.49519E-02 +1.55601E-01 +5.53466E-02 +1.39480E-01 +9.32053E-02 +1.13817E-01 +1.25787E-01
 +8.03204E-02 +1.50710E-01 +4.12763E-02 +1.66129E-01 -6.10143E-04 +1.70870E-01 -4.24105E-02 +1.64520E-01
 -8.11841E-02 +1.47462E-01 -1.14190E-01 +1.20848E-01 -1.39088E-01 +8.65237E-02 -1.54105E-01 +4.68926E-02
 -1.58170E-01 +4.74893E-03 -1.50988E-01 -3.69235E-02 -1.33069E-01 -7.51655E-02 -1.05689E-01 -1.07255E-01
 -7.08010E-02 -1.30902E-01 -3.08979E-02 -1.44414E-01 +1.11667E-02 -1.46820E-01 +5.23831E-02 -1.37935E-01
 +8.97993E-02 -1.18382E-01 +1.20733E-01 -8.95377E-02 +1.42964E-01 -5.34414E-02 +1.54889E-01 -1.26447E-02
 +1.55640E-01 +2.99704E-02 +1.45140E-01 +7.13981E-02 +1.24109E-01 +1.08724E-01 +9.40122E-02 +1.39333E-01
 +5.69474E-02 +1.61093E-01 +1.54967E-02 +1.72511E-01 -2.74622E-02 +1.72830E-01 -6.89628E-02 +1.62084E-01
 -1.06164E-01 +1.41088E-01 -1.36551E-01 +1.11379E-01 -1.58118E-01 +7.50951E-02 -1.69502E-01 +3.48234E-02
 -1.70085E-01 -6.59452E-03 -1.60026E-01 -4.62681E-02 -1.40247E-01 -8.14675E-02 -1.12356E-01 -1.09821E-01
 -7.85312E-02 -1.29484E-01 -4.13481E-02 -1.39271E-01 -3.59432E-03 -1.38733E-01 +3.19401E-02 -1.28190E-01
 +6.26668E-02 -1.08695E-01 +8.63904E-02 -8.19567E-02 +1.01466E-01 -5.02013E-02 +1.06920E-01 -1.60087E-02
 +1.02517E-01 +1.78849E-02 +8.87726E-02 +4.87909E-02 +6.69111E-02 +7.42706E-02 +3.87719E-02 +9.23159E-02
 +6.66722E-03 +1.01500E-01 -2.67920E-02 +1.01081E-01 -5.88942E-02 +9.10591E-02 -8.70309E-02 +7.21743E-02
 -1.08894E-01 +4.58504E-02 -1.22651E-01 +1.40885E-02 -1.27079E-01 -2.06826E-02 -1.21666E-01 -5.57890E-02
 -1.06645E-01 -8.85115E-02 -8.29818E-02 -1.16290E-01 -5.23056E-02 -1.36916E-01 -1.67903E-02 -1.48701E-01
 +2.10052E-02 -1.50600E-01 +5.83258E-02 -1.42303E-01 +9.24233E-02 -1.24251E-01 +1.20761E-01 -9.76178E-02
 +1.41203E-01 -6.42203E-02 +1.52172E-01 -2.63934E-02 +1.52774E-01 +1.31813E-02 +1.42863E-01 +5.16686E-02
 +1.23061E-01 +8.62882E-02 +9.47135E-02 +1.14517E-01 +5.97986E-02 +1.34275E-01 +2.07852E-02 +1.44081E-01
 -1.95435E-02 +1.43161E-01 -5.82896E-02 +1.31509E-01 -9.26504E-02 +1.09892E-01 -1.20121E-01 +7.97991E-02
 -1.38675E-01 +4.33335E-02 -1.46915E-01 +3.06650E-03 -1.44172E-01 -3.81461E-02 -1.30557E-01 -7.73694E-02
 -1.06957E-01 -1.11798E-01 -7.49681E-02 -1.38959E-01 -3.67863E-02 -1.56887E-01 +4.95033E-03 -1.64266E-01
 +4.73497E-02 -1.60524E-01 +8.74722E-02 -1.45873E-01 +1.22540E-01 -1.21293E-01 +1.50136E-01 -8.84598E-02
 +1.68372E-01 -4.96268E-02 +1.76026E-01 -7.45986E-03 +1.72626E-01 +3.51534E-02 +1.58476E-01 +7.53095E-02
 +1.34637E-01 +1.10298E-01 +1.02842E-01 +1.37794E-01 +6.53723E-02 +1.56021E-01 +2.48859E-02 +1.63874E-01
 -1.57729E-02 +1.61000E-01 -5.37805E-02 +1.47808E-01 -8.65377E-02 +1.25442E-01 -1.11856E-01 +9.56897E-02
 -1.28111E-01 +6.08448E-02 -1.34358E-01 +2.35387E-02 -1.30395E-01 -1.34542E-02 -1.16768E-01 -4.74225E-02
 -9.47262E-02 -7.59141E-02 -6.61257E-02 -9.69159E-02 -3.32849E-02 -1.08998E-01 +1.18927E-03 -1.11414E-01
 +3.45979E-02 -1.04155E-01 +6.43510E-02 -8.79381E-02 +8.81605E-02 -6.41557E-02 +1.04209E-01 -3.47625E-02
 +1.11286E-01 -2.12756E-03 +1.08872E-01 +3.11454E-02 +9.71786E-02 +6.24156E-02 +7.71290E-02 +8.92031E-02
 +5.02877E-02 +1.09377E-01 +1.87405E-02 +1.21315E-01 -1.50618E-02 +1.24026E-01 -4.84897E-02 +1.17226E-01
 -7.89320E-02 +1.01360E-01 -1.03995E-01 +7.75686E-02 -1.21680E-01 +4.76086E-02 -1.30541E-01 +1.37178E-02
 -1.29792E-01 -2.15479E-02 -1.19369E-01 -5.55066E-02 -9.99424E-02 -8.55500E-02 -7.28694E-02 -1.09340E-01
 -4.00967E-02 -1.24983E-01 -4.02123E-03 -1.31179E-01 +3.26859E-02 -1.27316E-01 +6.72742E-02 -1.13527E-01
 +9.71179E-02 -9.06828E-02 +1.19909E-01 -6.03339E-02 +1.33830E-01 -2.46031E-02 +1.37693E-01 +1.39655E-02
 +1.31028E-01 +5.25900E-02 +1.14125E-01 +8.84501E-02 +8.80202E-02 +1.18893E-01 +5.44224E-02 +1.41626E-01
 +1.55979E-02 +1.54884E-01 -2.57913E-02 +1.57563E-01 -6.68749E-02 +1.49297E-01 -1.04780E-01 +1.30497E-01
 -1.36836E-01 +1.02317E-01 -1.60765E-01 +6.65798E-02 -1.74847E-01 +2.56489E-02 -1.78042E-01 -1.77400E-02
 -1.70068E-01 -6.06708E-02 -1.51418E-01 -1.00254E-01 -1.23326E-01 -1.33832E-01 -8.76834E-02 -1.59166E-01
 -4.68982E-02 -1.74593E-01 -3.72825E-03 -1.79145E-01 +3.89177E-02 -1.72615E-01 +7.81850E-02 -1.55564E-01
 +1.11477E-01 -1.29285E-01 +1.36635E-01 -9.57026E-02 +1.52092E-01 -5.72321E-02 +1.56980E-01 -1.66076E-02
 +1.51186E-01 +2.33178E-02 +1.35351E-01 +5.97762E-02 +1.10827E-01 +9.02823E-02 +7.95628E-02 +1.12810E-01
