 Created: 26-Mar-2021
 $NMID
 ID='D:\BASISSIMULATI'
 FMTDAT='(8E13.5)'
 VOLUME=   1.00000E+00
 TRAMP=   1.00000E+00
 $END
 +1.95412E-01 +7.13437E-05 +1.81232E-01 +2.48262E-02 +1.42274E-01 +5.06364E-02 +8.81038E-02 +7.69265E-02
 +3.13414E-02 +1.00695E-01 -1.60727E-02 +1.17033E-01 -4.61258E-02 +1.20831E-01 -5.64692E-02 +1.08997E-01
 -5.01992E-02 +8.22424E-02 -3.39661E-02 +4.56046E-02 -1.52648E-02 +7.36779E-03 +3.44622E-05 -2.33199E-02
 +9.07493E-03 -3.92991E-02 +1.19976E-02 -3.76778E-02 +1.07953E-02 -2.06924E-02 +7.72740E-03 +5.15421E-03
 +4.07551E-03 +3.13370E-02 -2.39520E-04 +5.00868E-02 -6.12111E-03 +5.66941E-02 -1.42360E-02 +5.05612E-02
 -2.40602E-02 +3.47512E-02 -3.35863E-02 +1.43647E-02 -3.99010E-02 -5.50705E-03 -4.03985E-02 -2.14227E-02
 -3.40557E-02 -3.22568E-02 -2.21316E-02 -3.87934E-02 -7.88950E-03 -4.26206E-02 +4.62000E-03 -4.49599E-02
 +1.22338E-02 -4.60178E-02 +1.40841E-02 -4.51301E-02 +1.20893E-02 -4.15396E-02 +1.02495E-02 -3.53156E-02
 +1.29809E-02 -2.78427E-02 +2.31591E-02 -2.15178E-02 +4.06964E-02 -1.87015E-02 +6.22899E-02 -2.03780E-02
 +8.24982E-02 -2.51932E-02 +9.57499E-02 -2.94388E-02 +9.84767E-02 -2.81723E-02 +9.04942E-02 -1.71465E-02
 +7.50433E-02 +5.18952E-03 +5.74584E-02 +3.64810E-02 +4.29962E-02 +7.06647E-02 +3.47235E-02 +9.96583E-02
 +3.23420E-02 +1.16013E-01 +3.24491E-02 +1.15569E-01 +3.01332E-02 +9.90815E-02 +2.12424E-02 +7.21415E-02
 +4.37142E-03 +4.33386E-02 -1.82779E-02 +2.13042E-02 -4.15494E-02 +1.17148E-02 -5.92534E-02 +1.53726E-02
 -6.65836E-02 +2.80811E-02 -6.20379E-02 +4.23502E-02 -4.80525E-02 +5.02757E-02 -3.00777E-02 +4.64960E-02
 -1.44668E-02 +3.01262E-02 -6.03100E-03 +4.98208E-03 -6.25089E-03 -2.19242E-02 -1.28610E-02 -4.29818E-02
 -2.09575E-02 -5.26547E-02 -2.51573E-02 -4.92448E-02 -2.19110E-02 -3.51615E-02 -1.10203E-02 -1.57307E-02
 +4.25202E-03 +2.87479E-03 +1.85124E-02 +1.57153E-02 +2.64497E-02 +2.03969E-02 +2.50287E-02 +1.72345E-02
 +1.47854E-02 +8.39893E-03 -2.75724E-04 -3.40478E-03 -1.41095E-02 -1.60508E-02 -2.07917E-02 -2.84038E-02
 -1.65619E-02 -3.99363E-02 -9.89597E-04 -4.98813E-02 +2.30991E-02 -5.64969E-02 +5.07819E-02 -5.69684E-02
 +7.67206E-02 -4.81595E-02 +9.66521E-02 -2.79807E-02 +1.08150E-01 +3.21284E-03 +1.10512E-01 +4.18808E-02
 +1.04037E-01 +8.16871E-02 +8.92436E-02 +1.15038E-01 +6.65149E-02 +1.35291E-01 +3.64147E-02 +1.38833E-01
 +4.87953E-04 +1.26225E-01 -3.79589E-02 +1.01945E-01 -7.36848E-02 +7.28051E-02 -1.00314E-01 +4.56342E-02
 -1.12033E-01 +2.51278E-02 -1.05653E-01 +1.26640E-02 -8.22082E-02 +6.50025E-03 -4.73422E-02 +3.18305E-03
 -1.01265E-02 -4.94806E-04 +1.94598E-02 -5.86499E-03 +3.35869E-02 -1.17973E-02 +2.90993E-02 -1.54008E-02
 +8.56738E-03 -1.36798E-02 -2.05698E-02 -5.37894E-03 -4.85096E-02 +7.85562E-03 -6.63591E-02 +2.15939E-02
 -6.90106E-02 +3.00698E-02 -5.65995E-02 +2.84246E-02 -3.40678E-02 +1.48366E-02 -9.06654E-03 -8.37467E-03
 +1.09557E-02 -3.51965E-02 +2.13632E-02 -5.78351E-02 +2.16936E-02 -6.94067E-02 +1.53455E-02 -6.63877E-02
 +7.83708E-03 -4.98796E-02 +4.41839E-03 -2.51920E-02 +8.01951E-03 +9.84162E-05 +1.83137E-02 +1.88708E-02
 +3.21724E-02 +2.69301E-02 +4.52024E-02 +2.43111E-02 +5.36354E-02 +1.49741E-02 +5.57477E-02 +5.08598E-03
 +5.22500E-02 +6.06917E-04 +4.55692E-02 +5.13537E-03 +3.84372E-02 +1.87991E-02 +3.24845E-02 +3.85211E-02
 +2.74962E-02 +5.94250E-02 +2.16588E-02 +7.67168E-02 +1.26519E-02 +8.72545E-02 -9.52206E-04 +9.02260E-02
 -1.86625E-02 +8.67943E-02 -3.79270E-02 +7.90273E-02 -5.49760E-02 +6.87130E-02 -6.62988E-02 +5.66491E-02
 -7.00971E-02 +4.27115E-02 -6.70519E-02 +2.65895E-02 -6.00346E-02 +8.72896E-03 -5.28567E-02 -9.09164E-03
 -4.85925E-02 -2.39547E-02 -4.82129E-02 -3.27842E-02 -5.01537E-02 -3.37185E-02 -5.10432E-02 -2.72313E-02
 -4.73026E-02 -1.64014E-02 -3.69356E-02 -6.06770E-03 -2.07113E-02 -1.09493E-03 -2.17941E-03 -4.40483E-03
 +1.35525E-02 -1.55987E-02 +2.18163E-02 -3.08194E-02 +2.03371E-02 -4.40246E-02 +1.03103E-02 -4.92628E-02
 -3.88862E-03 -4.30942E-02 -1.62934E-02 -2.61833E-02 -2.16211E-02 -3.37084E-03 -1.73165E-02 +1.78932E-02
 -4.52728E-03 +3.02212E-02 +1.24010E-02 +2.90756E-02 +2.77142E-02 +1.46037E-02 +3.65962E-02 -8.20400E-03
 +3.71042E-02 -3.11259E-02 +3.08906E-02 -4.55098E-02 +2.24008E-02 -4.52306E-02 +1.68707E-02 -2.87277E-02
 +1.79460E-02 +5.93117E-04 +2.59157E-02 +3.56709E-02 +3.73096E-02 +6.82552E-02 +4.60631E-02 +9.15621E-02
 +4.58167E-02 +1.02150E-01 +3.24562E-02 +1.00407E-01 +5.89877E-03 +8.96360E-02 -2.95760E-02 +7.42566E-02
 -6.65786E-02 +5.79527E-02 -9.69640E-02 +4.25315E-02 -1.14399E-01 +2.78749E-02 -1.16206E-01 +1.28582E-02
 -1.03869E-01 -3.31891E-03 -8.21202E-02 -2.00907E-02 -5.70877E-02 -3.53075E-02 -3.42662E-02 -4.59622E-02
 -1.70867E-02 -4.95244E-02 -6.51318E-03 -4.52476E-02 -1.62841E-03 -3.48106E-02 -7.60453E-04 -2.19431E-02
 -2.52651E-03 -1.11414E-02 -6.29810E-03 -5.99431E-03 -1.19397E-02 -7.82836E-03 -1.90725E-02 -1.52598E-02
 -2.63727E-02 -2.48538E-02 -3.14063E-02 -3.26142E-02 -3.12348E-02 -3.56612E-02 -2.36176E-02 -3.33722E-02
 -8.28862E-03 -2.74908E-02 +1.23345E-02 -2.11653E-02 +3.34720E-02 -1.73508E-02 +4.93719E-02 -1.73030E-02
 +5.53256E-02 -1.98575E-02 +4.95370E-02 -2.18566E-02 +3.40499E-02 -1.95695E-02 +1.42661E-02 -1.05051E-02
 -2.86935E-03 +5.19447E-03 -1.13904E-02 +2.44350E-02 -8.58647E-03 +4.21445E-02 +3.86693E-03 +5.31981E-02
 +2.04074E-02 +5.45214E-02 +3.35729E-02 +4.64826E-02 +3.67474E-02 +3.29432E-02 +2.66261E-02 +1.98713E-02
 +4.45962E-03 +1.30195E-02 -2.43941E-02 +1.55750E-02 -5.24236E-02 +2.67357E-02 -7.26596E-02 +4.18198E-02
 -8.10708E-02 +5.39149E-02 -7.77636E-02 +5.64586E-02 -6.65752E-02 +4.57620E-02 -5.32950E-02 +2.25007E-02
 -4.32740E-02 -8.40522E-03 -3.93933E-02 -3.94707E-02 -4.11738E-02 -6.32343E-02 -4.53125E-02 -7.47672E-02
 -4.73442E-02 -7.31726E-02 -4.36788E-02 -6.15629E-02 -3.31545E-02 -4.56097E-02 -1.74859E-02 -3.13044E-02
 -4.80766E-04 -2.28311E-02 +1.35807E-02 -2.13516E-02 +2.16771E-02 -2.50803E-02 +2.31500E-02 -3.04851E-02
 +1.97477E-02 -3.40110E-02 +1.46544E-02 -3.35608E-02 +1.09875E-02 -2.91413E-02 +1.04575E-02 -2.24937E-02
 +1.27799E-02 -1.59875E-02 +1.60671E-02 -1.13626E-02 +1.79726E-02 -8.93017E-03 +1.70184E-02 -7.58736E-03
 +1.34570E-02 -5.58827E-03 +9.24350E-03 -1.64716E-03 +7.10809E-03 +4.21299E-03 +9.14901E-03 +1.05272E-02
 +1.56042E-02 +1.50800E-02 +2.44052E-02 +1.61148E-02 +3.17795E-02 +1.34721E-02 +3.37006E-02 +9.05254E-03
 +2.75875E-02 +6.27759E-03 +1.35148E-02 +8.67452E-03 -5.62618E-03 +1.81392E-02 -2.51365E-02 +3.36420E-02
 -4.03073E-02 +5.10222E-02 -4.82647E-02 +6.41007E-02 -4.90742E-02 +6.67924E-02 -4.56101E-02 +5.54507E-02
 -4.22092E-02 +3.05155E-02 -4.26541E-02 -3.23857E-03 -4.83394E-02 -3.80420E-02 -5.74255E-02 -6.56219E-02
 -6.53944E-02 -7.99472E-02 -6.68393E-02 -7.92030E-02 -5.77928E-02 -6.62552E-02 -3.76409E-02 -4.74388E-02
 -9.80620E-03 -3.01473E-02 +1.91441E-02 -2.01553E-02 +4.16805E-02 -1.96894E-02 +5.19723E-02 -2.69450E-02
 +4.80106E-02 -3.71672E-02 +3.23675E-02 -4.47922E-02 +1.12954E-02 -4.57555E-02 -7.49339E-03 -3.90405E-02
 -1.75202E-02 -2.68911E-02 -1.56972E-02 -1.36760E-02 -3.17175E-03 -3.94020E-03 +1.53919E-02 -4.89681E-04
 +3.37348E-02 -3.30035E-03 +4.63312E-02 -9.66547E-03 +5.02182E-02 -1.54611E-02 +4.56815E-02 -1.69458E-02
 +3.56484E-02 -1.23127E-02 +2.41653E-02 -2.34915E-03 +1.46694E-02 +1.00288E-02 +8.78183E-03 +2.11135E-02
 +6.05846E-03 +2.79931E-02 +4.68201E-03 +2.96879E-02 +2.66661E-03 +2.73618E-02 -1.04780E-03 +2.35615E-02
 -6.13227E-03 +2.08731E-02 -1.12206E-02 +2.06340E-02 -1.48488E-02 +2.22993E-02 -1.64647E-02 +2.37469E-02
 -1.69496E-02 +2.23699E-02 -1.83339E-02 +1.64354E-02 -2.27809E-02 +6.06074E-03 -3.12976E-02 -6.67095E-03
 -4.28026E-02 -1.85446E-02 -5.40714E-02 -2.66392E-02 -6.07080E-02 -2.97007E-02 -5.88279E-02 -2.88083E-02
 -4.67811E-02 -2.69804E-02 -2.61626E-02 -2.78280E-02 -1.60508E-03 -3.38117E-02 +2.06692E-02 -4.48683E-02
 +3.50355E-02 -5.80583E-02 +3.85540E-02 -6.84771E-02 +3.21107E-02 -7.11334E-02 +2.01179E-02 -6.30628E-02
 +8.84022E-03 -4.47982E-02 +3.97524E-03 -2.05392E-02 +8.42789E-03 +3.13125E-03 +2.11642E-02 +1.95443E-02
 +3.76087E-02 +2.43890E-02 +5.14407E-02 +1.73444E-02 +5.70841E-02 +2.24166E-03 +5.19092E-02 -1.43353E-02
 +3.72794E-02 -2.54856E-02 +1.80360E-02 -2.65305E-02 +6.40048E-04 -1.66821E-02 -9.28569E-03 +7.86995E-04
 -9.04446E-03 +1.99081E-02 +2.19483E-04 +3.43532E-02 +1.40977E-02 +3.98143E-02 +2.67074E-02 +3.55076E-02
 +3.29477E-02 +2.42576E-02 +3.03211E-02 +1.11920E-02 +1.96365E-02 +1.62642E-03 +4.39051E-03 -9.93520E-04
 -1.08327E-02 +3.71021E-03 -2.22259E-02 +1.31244E-02 -2.81081E-02 +2.28757E-02 -2.92433E-02 +2.86403E-02
 -2.80841E-02 +2.77635E-02 -2.73543E-02 +2.00560E-02 -2.86485E-02 +7.52673E-03 -3.16803E-02 -6.72171E-03
 -3.44895E-02 -1.98685E-02 -3.44709E-02 -3.03858E-02 -2.97181E-02 -3.82686E-02 -2.00400E-02 -4.44586E-02
 -7.17318E-03 -4.98302E-02 +5.91297E-03 -5.43034E-02 +1.62968E-02 -5.65778E-02 +2.23745E-02 -5.46680E-02
 +2.45238E-02 -4.70109E-02 +2.48352E-02 -3.36100E-02 +2.60177E-02 -1.66135E-02 +2.99713E-02 +5.09126E-05
 +3.66966E-02 +1.19477E-02 +4.40797E-02 +1.58416E-02 +4.87140E-02 +1.11304E-02 +4.74481E-02 +3.43731E-04
 +3.89947E-02 -1.15935E-02 +2.48662E-02 -1.91278E-02 +9.15168E-03 -1.82160E-02 -2.86876E-03 -7.98164E-03
 -6.77009E-03 +8.80829E-03 -8.66935E-04 +2.66949E-02 +1.28657E-02 +3.95773E-02 +2.92808E-02 +4.30749E-02
 +4.18402E-02 +3.62681E-02 +4.50380E-02 +2.21083E-02 +3.65270E-02 +6.31264E-03 +1.81021E-02 -4.83832E-03
 -4.87645E-03 -6.94012E-03 -2.54228E-02 +8.20274E-04 -3.74912E-02 +1.53474E-02 -3.81811E-02 +3.08365E-02
 -2.87333E-02 +4.10071E-02 -1.39472E-02 +4.14836E-02 -2.68041E-04 +3.13952E-02 +6.69365E-03 +1.35905E-02
 +4.24160E-03 -6.57079E-03 -6.51043E-03 -2.33277E-02 -2.12249E-02 -3.26654E-02 -3.41162E-02 -3.36579E-02
 -4.01719E-02 -2.85202E-02 -3.69389E-02 -2.14238E-02 -2.52131E-02 -1.66267E-02 -8.44789E-03 -1.67170E-02
 +8.78257E-03 -2.16791E-02 +2.25708E-02 -2.91117E-02 +3.09746E-02 -3.54276E-02 +3.43488E-02 -3.74655E-02
 +3.46778E-02 -3.38009E-02 +3.43112E-02 -2.52155E-02 +3.47314E-02 -1.41810E-02 +3.59216E-02 -3.65170E-03
