 Created: 26-Mar-2021
 $NMID
 ID='D:\BASISSIMULATI'
 FMTDAT='(8E13.5)'
 VOLUME=   1.00000E+00
 TRAMP=   1.00000E+00
 $END
 +1.68027E-01 +3.15996E-04 +1.53528E-01 +2.60566E-02 +1.14217E-01 +5.02175E-02 +5.94621E-02 +7.08306E-02
 +1.75863E-03 +8.52198E-02 -4.67557E-02 +9.04759E-02 -7.74649E-02 +8.44637E-02 -8.71533E-02 +6.69481E-02
 -7.81245E-02 +4.02996E-02 -5.66940E-02 +9.35486E-03 -3.07166E-02 -1.96765E-02 -7.06574E-03 -4.09638E-02
 +1.01074E-02 -5.08614E-02 +1.98801E-02 -4.90824E-02 +2.38759E-02 -3.87446E-02 +2.48663E-02 -2.52060E-02
 +2.53250E-02 -1.40727E-02 +2.65160E-02 -9.10469E-03 +2.83848E-02 -1.08137E-02 +3.01339E-02 -1.63106E-02
 +3.10706E-02 -2.04923E-02 +3.12295E-02 -1.81414E-02 +3.14313E-02 -6.14893E-03 +3.27420E-02 +1.50001E-02
 +3.56231E-02 +4.10752E-02 +3.92364E-02 +6.53802E-02 +4.13321E-02 +8.10191E-02 +3.88906E-02 +8.33186E-02
 +2.93450E-02 +7.15096E-02 +1.19048E-02 +4.90384E-02 -1.15973E-02 +2.23900E-02 -3.67765E-02 -1.14221E-03
 -5.77789E-02 -1.59186E-02 -6.90612E-02 -1.97478E-02 -6.72425E-02 -1.43816E-02 -5.23344E-02 -4.56884E-03
 -2.78570E-02 +3.93070E-03 +2.42425E-04 +6.60020E-03 +2.54932E-02 +1.84230E-03 +4.29379E-02 -8.52010E-03
 +5.05502E-02 -2.00525E-02 +4.95245E-02 -2.74654E-02 +4.33640E-02 -2.66201E-02 +3.61664E-02 -1.60300E-02
 +3.08170E-02 +2.66401E-03 +2.78292E-02 +2.53463E-02 +2.53046E-02 +4.68792E-02 +2.00216E-02 +6.27547E-02
 +9.19363E-03 +7.03231E-02 -7.85197E-03 +6.92087E-02 -2.88112E-02 +6.08836E-02 -4.87817E-02 +4.77166E-02
 -6.18135E-02 +3.19933E-02 -6.30814E-02 +1.53483E-02 -5.08549E-02 -1.19691E-03 -2.74816E-02 -1.67219E-02
 +1.04916E-03 -2.98057E-02 +2.68697E-02 -3.82741E-02 +4.27298E-02 -3.95751E-02 +4.43493E-02 -3.17409E-02
 +3.17913E-02 -1.45699E-02 +9.37836E-03 +9.52728E-03 -1.58016E-02 +3.55183E-02 -3.62477E-02 +5.67895E-02
 -4.64181E-02 +6.70255E-02 -4.43076E-02 +6.23362E-02 -3.17449E-02 +4.28555E-02 -1.34055E-02 +1.31533E-02
 +5.00031E-03 -1.88171E-02 +1.86482E-02 -4.39892E-02 +2.49388E-02 -5.49644E-02 +2.38534E-02 -4.83702E-02
 +1.73411E-02 -2.59765E-02 +8.12739E-03 +5.83650E-03 -1.48237E-03 +3.80923E-02 -1.03015E-02 +6.20292E-02
 -1.82361E-02 +7.17533E-02 -2.56629E-02 +6.58473E-02 -3.26138E-02 +4.74422E-02 -3.82460E-02 +2.28137E-02
 -4.09193E-02 -9.20771E-04 -3.88990E-02 -1.81402E-02 -3.13714E-02 -2.62774E-02 -1.92714E-02 -2.61203E-02
 -5.45604E-03 -2.08829E-02 +5.98526E-03 -1.45302E-02 +1.11161E-02 -1.00826E-02 +7.73227E-03 -8.57236E-03
 -3.51359E-03 -9.00235E-03 -1.89678E-02 -9.22176E-03 -3.29870E-02 -7.25242E-03 -3.98250E-02 -2.43522E-03
 -3.57428E-02 +4.12534E-03 -2.05547E-02 +1.00127E-02 +2.01504E-03 +1.26354E-02 +2.53648E-02 +1.05327E-02
 +4.21297E-02 +4.24656E-03 +4.66472E-02 -3.66064E-03 +3.68960E-02 -9.50436E-03 +1.52054E-02 -9.95662E-03
 -1.25274E-02 -3.50884E-03 -3.88268E-02 +8.69456E-03 -5.71139E-02 +2.30276E-02 -6.37761E-02 +3.45369E-02
 -5.91061E-02 +3.86609E-02 -4.68190E-02 +3.28633E-02 -3.23891E-02 +1.75588E-02 -2.08798E-02 -4.01871E-03
 -1.50998E-02 -2.69369E-02 -1.47645E-02 -4.62258E-02 -1.69272E-02 -5.84295E-02 -1.74467E-02 -6.24653E-02
 -1.28680E-02 -5.95057E-02 -1.95560E-03 -5.20127E-02 +1.37103E-02 -4.23959E-02 +3.02770E-02 -3.19160E-02
 +4.30464E-02 -2.03261E-02 +4.81926E-02 -6.40899E-03 +4.40923E-02 +1.08408E-02 +3.17715E-02 +3.09533E-02
 +1.43506E-02 +5.12710E-02 -4.22358E-03 +6.72178E-02 -2.05997E-02 +7.35809E-02 -3.30098E-02 +6.63914E-02
 -4.14537E-02 +4.46944E-02 -4.70737E-02 +1.14773E-02 -5.10719E-02 -2.67076E-02 -5.37137E-02 -6.14116E-02
 -5.39129E-02 -8.47445E-02 -4.96250E-02 -9.17887E-02 -3.89010E-02 -8.21213E-02 -2.11369E-02 -5.98954E-02
 +2.06484E-03 -3.24341E-02 +2.68733E-02 -7.82475E-03 +4.81631E-02 +7.65121E-03 +6.11133E-02 +1.13697E-02
 +6.28794E-02 +4.89164E-03 +5.36760E-02 -6.94901E-03 +3.68058E-02 -1.79964E-02 +1.75702E-02 -2.30151E-02
 +1.43476E-03 -1.94162E-02 -7.87123E-03 -7.90354E-03 -9.59848E-03 +8.08986E-03 -6.08229E-03 +2.38466E-02
 -1.66218E-03 +3.50696E-02 -8.31058E-04 +3.91879E-02 -6.33267E-03 +3.58325E-02 -1.79508E-02 +2.64270E-02
 -3.24680E-02 +1.32082E-02 -4.48162E-02 -1.80608E-03 -4.99784E-02 -1.74174E-02 -4.49063E-02 -3.31792E-02
 -2.97148E-02 -4.87709E-02 -7.69876E-03 -6.32051E-02 +1.58242E-02 -7.43595E-02 +3.53850E-02 -7.91869E-02
 +4.72211E-02 -7.46417E-02 +5.04107E-02 -5.90097E-02 +4.68732E-02 -3.30854E-02 +4.02800E-02 -6.33573E-04
 +3.43517E-02 +3.21911E-02 +3.12498E-02 +5.83950E-02 +3.07209E-02 +7.21936E-02 +3.03316E-02 +7.08429E-02
 +2.66857E-02 +5.55741E-02 +1.71100E-02 +3.12478E-02 +1.10480E-03 +4.80603E-03 -1.90531E-02 -1.69514E-02
 -3.88285E-02 -2.94848E-02 -5.28901E-02 -3.17784E-02 -5.69649E-02 -2.63187E-02 -4.93736E-02 -1.78393E-02
 -3.16628E-02 -1.13375E-02 -8.10101E-03 -1.01322E-02 +1.57523E-02 -1.46924E-02 +3.48502E-02 -2.26494E-02
 +4.61525E-02 -2.99351E-02 +4.92821E-02 -3.25553E-02 +4.61614E-02 -2.82677E-02 +3.98611E-02 -1.75000E-02
 +3.31896E-02 -3.15930E-03 +2.76262E-02 +1.05591E-02 +2.30153E-02 +1.98562E-02 +1.80939E-02 +2.28105E-02
 +1.15503E-02 +2.00539E-02 +3.08293E-03 +1.43801E-02 -6.06839E-03 +9.46277E-03 -1.34072E-02 +8.22616E-03
 -1.61973E-02 +1.15492E-02 -1.27846E-02 +1.78459E-02 -3.62698E-03 +2.37031E-02 +8.47819E-03 +2.53208E-02
 +1.91626E-02 +2.01695E-02 +2.40321E-02 +8.18560E-03 +2.04188E-02 -7.99535E-03 +8.63781E-03 -2.38788E-02
 -7.80014E-03 -3.47100E-02 -2.31903E-02 -3.72087E-02 -3.15498E-02 -3.07636E-02 -2.87745E-02 -1.76249E-02
 -1.42420E-02 -2.02956E-03 +8.75905E-03 +1.13850E-02 +3.39680E-02 +1.92497E-02 +5.41542E-02 +2.05683E-02
 +6.34794E-02 +1.68484E-02 +5.93839E-02 +1.12491E-02 +4.33383E-02 +7.13175E-03 +2.02209E-02 +6.62787E-03
 -3.41352E-03 +9.81450E-03 -2.15191E-02 +1.48207E-02 -3.04063E-02 +1.87907E-02 -2.96237E-02 +1.92695E-02
 -2.16383E-02 +1.54004E-02 -1.05439E-02 +8.40540E-03 -3.70504E-04 +1.12748E-03 +6.32008E-03 -3.18777E-03
 +9.04178E-03 -2.35785E-03 +9.04331E-03 +3.65408E-03 +8.27291E-03 +1.25286E-02 +8.17746E-03 +2.03862E-02
 +8.90377E-03 +2.33077E-02 +9.26317E-03 +1.89793E-02 +7.46074E-03 +7.79036E-03 +2.23530E-03 -7.09309E-03
 -6.14258E-03 -2.07577E-02 -1.55225E-02 -2.83130E-02 -2.24126E-02 -2.67326E-02 -2.32539E-02 -1.60526E-02
 -1.59437E-02 +5.55453E-04 -9.75018E-04 +1.78863E-02 +1.83244E-02 +3.05733E-02 +3.66329E-02 +3.50259E-02
 +4.83094E-02 +3.06965E-02 +4.93109E-02 +2.01978E-02 +3.86416E-02 +8.23671E-03 +1.87789E-02 -2.18944E-04
 -5.10258E-03 -1.83080E-03 -2.68356E-02 +3.88165E-03 -4.12701E-02 +1.44294E-02 -4.58569E-02 +2.53747E-02
 -4.12419E-02 +3.20633E-02 -3.06993E-02 +3.13865E-02 -1.86711E-02 +2.28966E-02 -9.01855E-03 +8.87681E-03
 -3.67298E-03 -6.61697E-03 -2.18844E-03 -1.93201E-02 -2.31739E-03 -2.62898E-02 -1.30979E-03 -2.68048E-02
 +2.65014E-03 -2.23181E-02 +9.49574E-03 -1.55479E-02 +1.72245E-02 -9.14177E-03 +2.27580E-02 -4.51146E-03
 +2.33425E-02 -1.33872E-03 +1.78781E-02 +2.04910E-03 +7.58942E-03 +7.62226E-03 -4.28555E-03 +1.64004E-02
 -1.36997E-02 +2.75944E-02 -1.74251E-02 +3.85607E-02 -1.44417E-02 +4.56458E-02 -6.49612E-03 +4.56102E-02
 +2.44049E-03 +3.70551E-02 +7.64901E-03 +2.12428E-02 +5.52464E-03 +1.92212E-03 -4.89600E-03 -1.58330E-02
 -2.13529E-02 -2.73666E-02 -3.89822E-02 -3.01044E-02 -5.19355E-02 -2.44877E-02 -5.54100E-02 -1.37954E-02
 -4.73431E-02 -2.89830E-03 -2.91488E-02 +3.59241E-03 -5.23950E-03 +3.07712E-03 +1.84675E-02 -4.05084E-03
 +3.64866E-02 -1.45727E-02 +4.54274E-02 -2.36951E-02 +4.48012E-02 -2.69001E-02 +3.67420E-02 -2.16843E-02
 +2.48407E-02 -8.52422E-03 +1.26184E-02 +9.28681E-03 +2.27487E-03 +2.68428E-02 -5.81096E-03 +3.93868E-02
 -1.26928E-02 +4.39406E-02 -1.98304E-02 +4.01896E-02 -2.79414E-02 +3.03183E-02 -3.62850E-02 +1.79219E-02
 -4.27286E-02 +6.47758E-03 -4.45936E-02 -1.97953E-03 -3.99202E-02 -7.43967E-03 -2.85855E-02 -1.15530E-02
 -1.27476E-02 -1.65118E-02 +3.64528E-03 -2.36965E-02 +1.61517E-02 -3.27014E-02 +2.14593E-02 -4.11963E-02
 +1.86877E-02 -4.57220E-02 +9.82429E-03 -4.31205E-02 -9.31098E-04 -3.20134E-02 -8.70514E-03 -1.36988E-02
 -9.80911E-03 +7.94847E-03 -3.20396E-03 +2.75964E-02 +9.00597E-03 +4.02073E-02 +2.22656E-02 +4.27690E-02
 +3.12087E-02 +3.53429E-02 +3.16389E-02 +2.10201E-02 +2.21081E-02 +4.79252E-03 +4.50196E-03 -8.23761E-03
 -1.65821E-02 -1.46336E-02 -3.54218E-02 -1.37233E-02 -4.71161E-02 -7.62797E-03 -4.91668E-02 -2.45553E-04
 -4.21271E-02 +4.38125E-03 -2.91232E-02 +3.65957E-03 -1.44950E-02 -2.61524E-03 -2.12519E-03 -1.23153E-02
 +5.87496E-03 -2.19613E-02 +9.63596E-03 -2.81922E-02 +1.10291E-02 -2.91040E-02 +1.24718E-02 -2.49133E-02
 +1.55931E-02 -1.76981E-02 +2.03514E-02 -1.03600E-02 +2.49904E-02 -5.27858E-03 +2.68455E-02 -3.25344E-03
 +2.36480E-02 -3.19994E-03 +1.47464E-02 -2.73881E-03 +1.69301E-03 +5.69279E-04 -1.20980E-02 +7.88126E-03
 -2.25281E-02 +1.82231E-02 -2.63732E-02 +2.85474E-02 -2.25951E-02 +3.47403E-02 -1.28541E-02 +3.32183E-02
 -9.80548E-04 +2.24927E-02 +8.42409E-03 +4.05499E-03 +1.17287E-02 -1.78166E-02 +7.68159E-03 -3.73216E-02
 -2.07141E-03 -4.90408E-02 -1.35766E-02 -4.97866E-02 -2.20538E-02 -3.97114E-02 -2.37054E-02 -2.22536E-02
 -1.71581E-02 -2.93604E-03 -3.98585E-03 +1.25372E-02 +1.18773E-02 +2.01855E-02 +2.55966E-02 +1.89647E-02
 +3.31946E-02 +1.08761E-02 +3.29297E-02 -1.86772E-05 +2.57805E-02 -9.25115E-03 +1.48842E-02 -1.36081E-02
 +4.19067E-03 -1.21720E-02 -3.10170E-03 -6.38341E-03 -5.69712E-03 +8.28702E-04 -4.49538E-03 +6.42959E-03
 -1.94684E-03 +8.57250E-03 -7.78972E-04 +7.26596E-03 -2.65907E-03 +4.16395E-03 -7.37479E-03 +1.61147E-03
 -1.28880E-02 +1.39640E-03 -1.62427E-02 +3.78115E-03 -1.49406E-02 +7.26273E-03 -8.18941E-03 +9.19211E-03
 +2.52735E-03 +7.00534E-03 +1.38410E-02 -4.59257E-04 +2.17294E-02 -1.21437E-02 +2.31151E-02 -2.48509E-02
 +1.71853E-02 -3.42577E-02 +5.87922E-03 -3.65058E-02 -6.69360E-03 -2.97572E-02 -1.57163E-02 -1.50855E-02
 -1.74655E-02 +3.68626E-03 -1.07584E-02 +2.11884E-02 +2.52041E-03 +3.23270E-02 +1.80317E-02 +3.40540E-02
 +3.05141E-02 +2.64203E-02 +3.56625E-02 +1.25157E-02 +3.16476E-02 -2.68072E-03 +1.97121E-02 -1.41019E-02
 +3.64010E-03 -1.83658E-02 -1.16723E-02 -1.48642E-02 -2.19800E-02 -5.78445E-03 -2.51083E-02 +4.89891E-03
