 Created: 26-Mar-2021
 $NMID
 ID='D:\BASISSIMULATI'
 FMTDAT='(8E13.5)'
 VOLUME=   1.00000E+00
 TRAMP=   1.00000E+00
 $END
 +6.51056E-02 -1.46681E-05 +5.53387E-02 +3.08651E-02 +3.00316E-02 +5.03948E-02 -1.18921E-03 +5.16885E-02
 -2.65038E-02 +3.48442E-02 -3.64300E-02 +6.89007E-03 -2.74506E-02 -2.09235E-02 -3.35018E-03 -3.74468E-02
 +2.62490E-02 -3.59086E-02 +4.95865E-02 -1.65086E-02 +5.72778E-02 +1.36636E-02 +4.59119E-02 +4.33520E-02
 +1.93549E-02 +6.14495E-02 -1.27361E-02 +6.12510E-02 -3.86162E-02 +4.30143E-02 -4.89497E-02 +1.38493E-02
 -4.03777E-02 -1.50172E-02 -1.67899E-02 -3.25499E-02 +1.21828E-02 -3.21322E-02 +3.48736E-02 -1.40941E-02
 +4.20592E-02 +1.44267E-02 +3.04957E-02 +4.22325E-02 +4.15802E-03 +5.83651E-02 -2.72894E-02 +5.63081E-02
 -5.21995E-02 +3.64804E-02 -6.14043E-02 +6.06925E-03 -5.17199E-02 -2.37292E-02 -2.71535E-02 -4.20012E-02
 +2.64618E-03 -4.22907E-02 +2.60969E-02 -2.50604E-02 +3.41254E-02 +2.50283E-03 +2.36406E-02 +2.92588E-02
 -1.29195E-03 +4.43946E-02 -3.10195E-02 +4.15733E-02 -5.40110E-02 +2.13603E-02 -6.12802E-02 -8.99883E-03
 -4.98261E-02 -3.83602E-02 -2.37756E-02 -5.59521E-02 +7.20629E-03 -5.54968E-02 +3.16251E-02 -3.76031E-02
 +4.05599E-02 -9.51698E-03 +3.10717E-02 +1.76695E-02 +7.31398E-03 +3.32781E-02 -2.10761E-02 +3.11373E-02
 -4.26856E-02 +1.19410E-02 -4.87070E-02 -1.70281E-02 -3.63137E-02 -4.46994E-02 -9.73870E-03 -6.04623E-02
 +2.13545E-02 -5.82308E-02 +4.55778E-02 -3.87680E-02 +5.41790E-02 -9.38271E-03 +4.43846E-02 +1.88803E-02
 +2.04459E-02 +3.54762E-02 -8.00753E-03 +3.43953E-02 -2.96715E-02 +1.64537E-02 -3.59053E-02 -1.10367E-02
 -2.40404E-02 -3.70860E-02 +1.60509E-03 -5.12483E-02 +3.13915E-02 -4.76280E-02 +5.40587E-02 -2.71348E-02
 +6.10413E-02 +2.87207E-03 +4.97442E-02 +3.14101E-02 +2.45242E-02 +4.80818E-02 -4.99143E-03 +4.70514E-02
 -2.76034E-02 +2.92654E-02 -3.48318E-02 +2.07130E-03 -2.41572E-02 -2.36152E-02 +2.85074E-05 -3.75043E-02
 +2.81215E-02 -3.38770E-02 +4.89993E-02 -1.37715E-02 +5.42887E-02 +1.54242E-02 +4.15717E-02 +4.28120E-02
 +1.53050E-02 +5.81626E-02 -1.48971E-02 +5.58298E-02 -3.79506E-02 +3.69023E-02 -4.55457E-02 +8.77094E-03
 -3.53183E-02 -1.77167E-02 -1.17381E-02 -3.24189E-02 +1.56242E-02 -2.97832E-02 +3.57789E-02 -1.09627E-02
 +4.05357E-02 +1.66412E-02 +2.76400E-02 +4.22298E-02 +1.62894E-03 +5.57526E-02 -2.79167E-02 +5.17593E-02
 -5.00493E-02 +3.14806E-02 -5.66467E-02 +2.34598E-03 -4.55140E-02 -2.48714E-02 -2.12080E-02 -4.01843E-02
 +6.72581E-03 -3.82103E-02 +2.74224E-02 -2.02183E-02 +3.28636E-02 +6.37779E-03 +2.09439E-02 +3.08778E-02
 -3.73606E-03 +4.34069E-02 -3.16474E-02 +3.87012E-02 -5.19947E-02 +1.81193E-02 -5.68551E-02 -1.08887E-02
 -4.42086E-02 -3.76433E-02 -1.87002E-02 -5.23295E-02 +1.01519E-02 -4.97489E-02 +3.16102E-02 -3.12968E-02
 +3.78296E-02 -4.40781E-03 +2.68515E-02 +2.03092E-02 +3.33593E-03 +3.31448E-02 -2.32442E-02 +2.90083E-02
 -4.22473E-02 +9.36850E-03 -4.59469E-02 -1.83231E-02 -3.24894E-02 -4.35001E-02 -6.59424E-03 -5.65353E-02
 +2.22637E-02 -5.24259E-02 +4.34903E-02 -3.26990E-02 +4.94272E-02 -4.81192E-03 +3.82730E-02 +2.07169E-02
 +1.47540E-02 +3.43417E-02 -1.17062E-02 +3.11407E-02 -3.06122E-02 +1.26861E-02 -3.44224E-02 -1.35779E-02
 -2.14336E-02 -3.72044E-02 +3.57904E-03 -4.87574E-02 +3.12048E-02 -4.34268E-02 +5.10114E-02 -2.28639E-02
 +5.55420E-02 +5.46295E-03 +4.31622E-02 +3.11390E-02 +1.86706E-02 +4.47940E-02 -8.55540E-03 +4.16837E-02
 -2.81627E-02 +2.34895E-02 -3.27885E-02 -2.34723E-03 -2.08709E-02 -2.54945E-02 +2.77092E-03 -3.66987E-02
 +2.88011E-02 -3.13302E-02 +4.69580E-02 -1.11473E-02 +4.99898E-02 +1.63905E-02 +3.64272E-02 +4.09914E-02
 +1.11344E-02 +5.34780E-02 -1.65667E-02 +4.92960E-02 -3.64741E-02 +3.02444E-02 -4.14108E-02 +3.76753E-03
 -2.99599E-02 -1.99123E-02 -6.98678E-03 -3.17175E-02 +1.82463E-02 -2.71881E-02 +3.56440E-02 -8.17636E-03
 +3.81510E-02 +1.78812E-02 +2.44498E-02 +4.08291E-02 -5.47291E-04 +5.16913E-02 -2.75923E-02 +4.61077E-02
 -4.66521E-02 +2.59934E-02 -5.07495E-02 -1.20922E-03 -3.86227E-02 -2.53934E-02 -1.51902E-02 -3.76617E-02
 +1.03537E-02 -3.37259E-02 +2.80729E-02 -1.55313E-02 +3.10989E-02 +9.51031E-03 +1.82518E-02 +3.13799E-02
 -5.52340E-03 +4.12993E-02 -3.10690E-02 +3.50939E-02 -4.85343E-02 +1.47817E-02 -5.11503E-02 -1.22136E-02
 -3.78146E-02 -3.59169E-02 -1.34977E-02 -4.76253E-02 +1.26761E-02 -4.32330E-02 +3.09324E-02 -2.47857E-02
 +3.45886E-02 +3.24466E-04 +2.25999E-02 +2.22085E-02 -6.15575E-05 +3.22776E-02 -2.43325E-02 +2.65297E-02
 -4.05457E-02 +7.06970E-03 -4.21378E-02 -1.87145E-02 -2.81565E-02 -4.09961E-02 -3.61214E-03 -5.12796E-02
 +2.24552E-02 -4.56492E-02 +4.04458E-02 -2.62547E-02 +4.38733E-02 -4.69355E-04 +3.18347E-02 +2.19479E-02
 +9.33424E-03 +3.25954E-02 -1.46551E-02 +2.76387E-02 -3.06432E-02 +9.26214E-03 -3.22615E-02 -1.51903E-02
 -1.86936E-02 -3.60462E-02 +5.02761E-03 -4.50194E-02 +2.99641E-02 -3.83811E-02 +4.67058E-02 -1.83769E-02
 +4.89741E-02 +7.64928E-03 +3.60143E-02 +3.00797E-02 +1.28660E-02 +4.07086E-02 -1.15858E-02 +3.58753E-02
 -2.80251E-02 +1.78465E-02 -3.02718E-02 -6.07530E-03 -1.76364E-02 -2.63685E-02 +4.83642E-03 -3.49490E-02
 +2.83205E-02 -2.82633E-02 +4.36028E-02 -8.63741E-03 +4.46140E-02 +1.66314E-02 +3.07451E-02 +3.80827E-02
 +7.06401E-03 +4.77201E-02 -1.76405E-02 +4.20654E-02 -3.42333E-02 +2.34733E-02 -3.67274E-02 -7.92228E-04
 -2.45617E-02 -2.13563E-02 -2.79265E-03 -3.03303E-02 +1.98652E-02 -2.43268E-02 +3.43918E-02 -5.73986E-03
 +3.49201E-02 +1.81928E-02 +2.09738E-02 +3.81790E-02 -2.36575E-03 +4.64384E-02 -2.64220E-02 +3.96771E-02
 -4.22546E-02 +2.03351E-02 -4.40801E-02 -4.36686E-03 -3.14722E-02 -2.52057E-02 -9.50325E-03 -3.44914E-02
 +1.32200E-02 -2.90022E-02 +2.78651E-02 -1.11980E-02 +2.87576E-02 +1.17458E-02 +1.55419E-02 +3.07057E-02
 -6.70189E-03 +3.81139E-02 -2.94228E-02 +3.08527E-02 -4.38859E-02 +1.14352E-02 -4.45174E-02 -1.29753E-02
 -3.10272E-02 -3.33208E-02 -8.50158E-03 -4.21206E-02 +1.45631E-02 -3.63255E-02 +2.95233E-02 -1.84654E-02
 +3.08957E-02 +4.34318E-03 +1.84412E-02 +2.31414E-02 -2.76654E-03 +3.05663E-02 -2.43067E-02 +2.36649E-02
 -3.76508E-02 +5.00898E-03 -3.74308E-02 -1.83104E-02 -2.34848E-02 -3.74136E-02 -9.01604E-04 -4.50386E-02
 +2.19445E-02 -3.83137E-02 +3.66092E-02 -1.98400E-02 +3.78069E-02 +3.32587E-03 +2.54189E-02 +2.23894E-02
 +4.51437E-03 +3.01901E-02 -1.66134E-02 +2.39344E-02 -2.96371E-02 +6.24529E-03 -2.93852E-02 -1.58660E-02
 -1.58109E-02 -3.37036E-02 +6.00933E-03 -4.02247E-02 +2.78379E-02 -3.27314E-02 +4.14409E-02 -1.38881E-02
 +4.17387E-02 +9.31769E-03 +2.87360E-02 +2.82647E-02 +7.49887E-03 +3.60011E-02 -1.38061E-02 +2.98958E-02
 -2.70499E-02 +1.26235E-02 -2.72516E-02 -8.88386E-03 -1.44708E-02 -2.61113E-02 +6.23807E-03 -3.22294E-02
 +2.67827E-02 -2.47034E-02 +3.91451E-02 -6.24740E-03 +3.84516E-02 +1.62346E-02 +2.48268E-02 +3.43073E-02
 +3.32654E-03 +4.12371E-02 -1.80160E-02 +3.45603E-02 -3.12752E-02 +1.70062E-02 -3.16630E-02 -4.57129E-03
 -1.93447E-02 -2.18356E-02 +6.48847E-04 -2.81647E-02 +2.03712E-02 -2.11783E-02 +3.20173E-02 -3.62909E-03
 +3.09122E-02 +1.76735E-02 +1.72895E-02 +3.44887E-02 -3.81820E-03 +4.03053E-02 -2.45240E-02 +3.28273E-02
 -3.71160E-02 +1.48347E-02 -3.70054E-02 -6.90152E-03 -2.44666E-02 -2.42270E-02 -4.50818E-03 -3.07287E-02
 +1.50671E-02 -2.41787E-02 +2.66623E-02 -7.36514E-03 +2.57935E-02 +1.30006E-02 +1.27916E-02 +2.88729E-02
 -7.34589E-03 +3.39598E-02 -2.68896E-02 +2.61249E-02 -3.83489E-02 +8.18822E-03 -3.73376E-02 -1.31739E-02
 -2.42384E-02 -2.99996E-02 -4.03491E-03 -3.60917E-02 +1.56166E-02 -2.93785E-02 +2.73280E-02 -1.26846E-02
 +2.68037E-02 +7.37527E-03 +1.44674E-02 +2.29477E-02 -4.72457E-03 +2.79533E-02 -2.32042E-02 +2.04054E-02
 -3.37024E-02 +3.15154E-03 -3.20318E-02 -1.72390E-02 -1.86755E-02 -3.30066E-02 +1.41785E-03 -3.81760E-02
 +2.07477E-02 -3.08340E-02 +3.21418E-02 -1.38406E-02 +3.14965E-02 +6.28779E-03 +1.93293E-02 +2.18902E-02
 +5.55304E-04 +2.70970E-02 -1.74176E-02 +2.00657E-02 -2.75380E-02 +3.66390E-03 -2.58087E-02 -1.56527E-02
 -1.28023E-02 -3.03311E-02 +6.58022E-03 -3.46177E-02 +2.50053E-02 -2.67528E-02 +3.55245E-02 -9.62490E-03
 +3.42306E-02 +1.03563E-02 +2.17353E-02 +2.57285E-02 +2.91197E-03 +3.08356E-02 -1.49920E-02 +2.39792E-02
 -2.51399E-02 +8.04635E-03 -2.37194E-02 -1.06222E-02 -1.13841E-02 -2.46781E-02 +7.02107E-03 -2.85839E-02
 +2.43366E-02 -2.07245E-02 +3.38414E-02 -4.00501E-03 +3.18231E-02 +1.52829E-02 +1.89834E-02 +2.98853E-02
 +1.47223E-04 +3.43648E-02 -1.76038E-02 +2.71699E-02 -2.76512E-02 +1.12063E-02 -2.63674E-02 -7.30001E-03
 -1.44846E-02 -2.12035E-02 +3.21094E-03 -2.51781E-02 +1.97350E-02 -1.77448E-02 +2.85911E-02 -1.81568E-03
 +2.62554E-02 +1.64447E-02 +1.35096E-02 +2.99966E-02 -4.88041E-03 +3.36239E-02 -2.20087E-02 +2.59198E-02
 -3.14816E-02 +9.80455E-03 -2.98593E-02 -8.61540E-03 -1.79533E-02 -2.24002E-02 -4.90356E-04 -2.64349E-02
 +1.57196E-02 -1.93735E-02 +2.44010E-02 -4.13101E-03 +2.22112E-02 +1.32588E-02 +1.00023E-02 +2.59712E-02
 -7.52914E-03 +2.90077E-02 -2.36613E-02 +2.10990E-02 -3.22302E-02 +5.17033E-03 -2.99845E-02 -1.28006E-02
 -1.78126E-02 -2.60869E-02 -3.77939E-04 -2.97882E-02 +1.56861E-02 -2.26927E-02 +2.43247E-02 -7.71681E-03
 +2.23733E-02 +9.23665E-03 +1.07489E-02 +2.15558E-02 -5.92702E-03 +2.44541E-02 -2.11199E-02 +1.67909E-02
 -2.88951E-02 +1.48625E-03 -2.61857E-02 -1.56209E-02 -1.39491E-02 -2.80232E-02 +3.22221E-03 -3.10382E-02
 +1.88789E-02 -2.35874E-02 +2.71913E-02 -8.58644E-03 +2.51733E-02 +8.19530E-03 +1.38055E-02 +2.03588E-02
 -2.36699E-03 +2.33266E-02 -1.69970E-02 +1.60807E-02 -2.43757E-02 +1.52892E-03 -2.16131E-02 -1.46340E-02
 -9.72647E-03 -2.61232E-02 +6.77344E-03 -2.84726E-02 +2.16292E-02 -2.07321E-02 +2.92409E-02 -5.80960E-03
 +2.68024E-02 +1.06655E-02 +1.53563E-02 +2.25114E-02 -6.30952E-04 +2.53606E-02 -1.50001E-02 +1.83164E-02
 -2.22656E-02 +4.27150E-03 -1.97092E-02 -1.12255E-02 -8.40005E-03 -2.21109E-02 +7.23999E-03 -2.41300E-02
 +2.11508E-02 -1.64530E-02 +2.79635E-02 -1.97031E-03 +2.50496E-02 +1.38374E-02 +1.35085E-02 +2.50117E-02
 -2.27791E-03 +2.73976E-02 -1.63424E-02 +2.02189E-02 -2.34244E-02 +6.35128E-03 -2.09752E-02 -8.80393E-03
