 Created: 26-Mar-2021
 $NMID
 ID='D:\BASISSIMULATI'
 FMTDAT='(8E13.5)'
 VOLUME=   1.00000E+00
 TRAMP=   1.00000E+00
 $END
 +9.66296E-02 +6.73051E-05 +9.46181E-02 +1.89229E-02 +8.87932E-02 +3.69288E-02 +7.94308E-02 +5.32984E-02
 +6.69705E-02 +6.73263E-02 +5.19927E-02 +7.84220E-02 +3.51894E-02 +8.61379E-02 +1.73286E-02 +9.01896E-02
 -7.83323E-04 +9.04680E-02 -1.83423E-02 +8.70418E-02 -3.45854E-02 +8.01513E-02 -4.88272E-02 +7.01935E-02
 -6.04919E-02 +5.76998E-02 -6.91388E-02 +4.33069E-02 -7.44806E-02 +2.77234E-02 -7.63938E-02 +1.16933E-02
 -7.49197E-02 -4.04118E-03 -7.02581E-02 -1.87757E-02 -6.27523E-02 -3.18770E-02 -5.28682E-02 -4.28116E-02
 -4.11669E-02 -5.11683E-02 -2.82744E-02 -5.66739E-02 -1.48486E-02 -5.92012E-02 -1.54601E-03 -5.87701E-02
 +1.10101E-02 -5.55402E-02 +2.22585E-02 -4.97973E-02 +3.17245E-02 -4.19346E-02 +3.90390E-02 -3.24285E-02
 +4.39518E-02 -2.18120E-02 +4.63373E-02 -1.06466E-02 +4.61954E-02 +5.06161E-04 +4.36444E-02 +1.11114E-02
 +3.89098E-02 +2.06845E-02 +3.23080E-02 +2.88118E-02 +2.42266E-02 +3.51656E-02 +1.51027E-02 +3.95147E-02
 +5.39955E-03 +4.17298E-02 -4.41526E-03 +4.17829E-02 -1.38915E-02 +3.97431E-02 -2.26150E-02 +3.57672E-02
 -3.02235E-02 +3.00877E-02 -3.64184E-02 +2.29978E-02 -4.09739E-02 +1.48353E-02 -4.37410E-02 +5.96574E-03
 -4.46480E-02 -3.23435E-03 -4.36987E-02 -1.23927E-02 -4.09664E-02 -2.11551E-02 -3.65868E-02 -2.91976E-02
 -3.07484E-02 -3.62354E-02 -2.36826E-02 -4.20301E-02 -1.56531E-02 -4.63943E-02 -6.94542E-03 -4.91941E-02
 +2.14284E-03 -5.03493E-02 +1.13114E-02 -4.98330E-02 +2.02653E-02 -4.76687E-02 +2.87225E-02 -4.39276E-02
 +3.64195E-02 -3.87247E-02 +4.31176E-02 -3.22147E-02 +4.86071E-02 -2.45874E-02 +5.27120E-02 -1.60635E-02
 +5.52933E-02 -6.88900E-03 +5.62527E-02 +2.66919E-03 +5.55358E-02 +1.23295E-02 +5.31344E-02 +2.18018E-02
 +4.90887E-02 +3.07941E-02 +4.34885E-02 +3.90202E-02 +3.64734E-02 +4.62080E-02 +2.82314E-02 +5.21080E-02
 +1.89963E-02 +5.65026E-02 +9.04300E-03 +5.92149E-02 -1.31919E-03 +6.01172E-02 -1.17549E-02 +5.91389E-02
 -2.19135E-02 +5.62722E-02 -3.14408E-02 +5.15768E-02 -3.99928E-02 +4.51812E-02 -4.72498E-02 +3.72818E-02
 -5.29304E-02 +2.81392E-02 -5.68053E-02 +1.80700E-02 -5.87095E-02 +7.43719E-03 -5.85524E-02 -3.36373E-03
 -5.63250E-02 -1.39201E-02 -5.21038E-02 -2.38196E-02 -4.60509E-02 -3.26688E-02 -3.84092E-02 -4.01114E-02
 -2.94947E-02 -4.58461E-02 -1.96838E-02 -4.96419E-02 -9.39751E-03 -5.13510E-02 +9.17216E-04 -5.09181E-02
 +1.08083E-02 -4.83852E-02 +1.98399E-02 -4.38915E-02 +2.76143E-02 -3.76690E-02 +3.37918E-02 -3.00320E-02
 +3.81082E-02 -2.13640E-02 +4.03897E-02 -1.20986E-02 +4.05620E-02 -2.69878E-03 +3.86556E-02 +6.36594E-03
 +3.48050E-02 +1.46436E-02 +2.92431E-02 +2.17231E-02 +2.22896E-02 +2.72552E-02 +1.43351E-02 +3.09717E-02
 +5.82112E-03 +3.26991E-02 -2.78260E-03 +3.23687E-02 -1.10028E-02 +3.00200E-02 -1.83874E-02 +2.57995E-02
 -2.45297E-02 +1.99529E-02 -2.90898E-02 +1.28121E-02 -3.18127E-02 +4.77808E-03 -3.25421E-02 -3.70073E-03
 -3.12283E-02 -1.21522E-02 -2.79311E-02 -2.01057E-02 -2.28162E-02 -2.71171E-02 -1.61463E-02 -3.27925E-02
 -8.26690E-03 -3.68087E-02 +4.12776E-04 -3.89305E-02 +9.44136E-03 -3.90227E-02 +1.83497E-02 -3.70562E-02
 +2.66756E-02 -3.31095E-02 +3.39885E-02 -2.73633E-02 +3.99112E-02 -2.00902E-02 +4.41398E-02 -1.16395E-02
 +4.64580E-02 -2.41797E-03 +4.67480E-02 +7.13208E-03 +4.49945E-02 +1.65564E-02 +4.12841E-02 +2.54123E-02
 +3.57990E-02 +3.32916E-02 +2.88056E-02 +3.98410E-02 +2.06389E-02 +4.47788E-02 +1.16836E-02 +4.79076E-02
 +2.35345E-03 +4.91226E-02 -6.93133E-03 +4.84141E-02 -1.57653E-02 +4.58647E-02 -2.37781E-02 +4.16428E-02
 -3.06522E-02 +3.59902E-02 -3.61372E-02 +2.92073E-02 -4.00595E-02 +2.16354E-02 -4.23284E-02 +1.36373E-02
 -4.29363E-02 +5.57800E-03 -4.19557E-02 -2.19469E-03 -3.95310E-02 -9.36669E-03 -3.58670E-02 -1.56723E-02
 -3.12153E-02 -2.09053E-02 -2.58577E-02 -2.49260E-02 -2.00901E-02 -2.76647E-02 -1.42056E-02 -2.91206E-02
 -8.47916E-03 -2.93571E-02 -3.15390E-03 -2.84941E-02 +1.56947E-03 -2.66973E-02 +5.54065E-03 -2.41654E-02
 +8.66405E-03 -2.11170E-02 +1.08998E-02 -1.77762E-02 +1.22614E-02 -1.43599E-02 +1.28104E-02 -1.10655E-02
 +1.26488E-02 -8.06171E-03 +1.19095E-02 -5.48056E-03 +1.07453E-02 -3.41306E-03 +9.31849E-03 -1.90728E-03
 +7.78959E-03 -9.69309E-04 +6.30773E-03 -5.66622E-04 +5.00234E-03 -6.33612E-04 +3.97671E-03 -1.07869E-03
 +3.30373E-03 -1.79244E-03 +3.02390E-03 -2.65617E-03 +3.14552E-03 -3.55041E-03 +3.64691E-03 -4.36262E-03
 +4.48031E-03 -4.99393E-03 +5.57719E-03 -5.36426E-03 +6.85427E-03 -5.41594E-03 +8.22006E-03 -5.11548E-03
 +9.58118E-03 -4.45361E-03 +1.08484E-02 -3.44385E-03 +1.19413E-02 -2.11971E-03 +1.27930E-02 -5.30921E-04
 +1.33517E-02 +1.26095E-03 +1.35832E-02 +3.18715E-03 +1.34702E-02 +5.17628E-03 +1.30115E-02 +7.15841E-03
 +1.22204E-02 +9.06851E-03 +1.11216E-02 +1.08491E-02 +9.74876E-03 +1.24518E-02 +8.14127E-03 +1.38383E-02
 +6.34155E-03 +1.49802E-02 +4.39267E-03 +1.58578E-02 +2.33655E-03 +1.64595E-02 +2.12801E-04 +1.67797E-02
 -1.94176E-03 +1.68174E-02 -4.09299E-03 +1.65744E-02 -6.20882E-03 +1.60549E-02 -8.25836E-03 +1.52639E-02
 -1.02109E-02 +1.42079E-02 -1.20347E-02 +1.28950E-02 -1.36970E-02 +1.13356E-02 -1.51629E-02 +9.54410E-03
 -1.63964E-02 +7.54012E-03 -1.73612E-02 +5.34983E-03 -1.80220E-02 +3.00721E-03 -1.83466E-02 +5.54717E-04
 -1.83088E-02 -1.95658E-03 -1.78903E-02 -4.46770E-03 -1.70837E-02 -6.91319E-03 -1.58947E-02 -9.22339E-03
 -1.43435E-02 -1.13274E-02 -1.24657E-02 -1.31568E-02 -1.03129E-02 -1.46490E-02 -7.95053E-03 -1.57520E-02
 -5.45659E-03 -1.64274E-02 -2.91797E-03 -1.66542E-02 -4.26439E-04 -1.64308E-02 +1.92607E-03 -1.57764E-02
 +4.05265E-03 -1.47315E-02 +5.87668E-03 -1.33563E-02 +7.33666E-03 -1.17284E-02 +8.39051E-03 -9.93881E-03
 +9.01884E-03 -8.08702E-03 +9.22691E-03 -6.27541E-03 +9.04513E-03 -4.60293E-03 +8.52799E-03 -3.15876E-03
 +7.75132E-03 -2.01640E-03 +6.80806E-03 -1.22833E-03 +5.80274E-03 -8.21952E-04 +4.84493E-03 -7.96875E-04
 +4.04208E-03 -1.12396E-03 +3.49219E-03 -1.74617E-03 +3.27670E-03 -2.58130E-03 +3.45429E-03 -3.52650E-03
 +4.05577E-03 -4.46423E-03 +5.08057E-03 -5.26964E-03 +6.49515E-03 -5.81852E-03 +8.23347E-03 -5.99578E-03
 +1.01995E-02 -5.70358E-03 +1.22717E-02 -4.86879E-03 +1.43096E-02 -3.44923E-03 +1.61617E-02 -1.43820E-03
 +1.76740E-02 +1.13291E-03 +1.86998E-02 +4.19439E-03 +1.91090E-02 +7.64013E-03 +1.87968E-02 +1.13320E-02
 +1.76915E-02 +1.51062E-02 +1.57603E-02 +1.87814E-02 +1.30132E-02 +2.21684E-02 +9.50473E-03 +2.50803E-02
 +5.33276E-03 +2.73430E-02 +6.35116E-04 +2.88054E-02 -4.41626E-03 +2.93488E-02 -9.62329E-03 +2.88941E-02
 -1.47713E-02 +2.74076E-02 -1.96399E-02 +2.49042E-02 -2.40141E-02 +2.14480E-02 -2.76959E-02 +1.71504E-02
 -3.05142E-02 +1.21651E-02 -3.23348E-02 +6.68148E-03 -3.30673E-02 +9.15378E-04 -3.26702E-02 -4.90135E-03
 -3.11537E-02 -1.05323E-02 -2.85797E-02 -1.57483E-02 -2.50584E-02 -2.03387E-02 -2.07433E-02 -2.41222E-02
 -1.58237E-02 -2.69554E-02 -1.05148E-02 -2.87400E-02 -5.04698E-03 -2.94274E-02 +3.45538E-04 -2.90205E-02
 +5.43653E-03 -2.75730E-02 +1.00188E-02 -2.51862E-02 +1.39142E-02 -2.20032E-02 +1.69820E-02 -1.82009E-02
 +1.91252E-02 -1.39806E-02 +2.02943E-02 -9.55751E-03 +2.04890E-02 -5.14952E-03 +1.97568E-02 -9.66241E-04
 +1.81896E-02 +2.80140E-03 +1.59177E-02 +5.99028E-03 +1.31022E-02 +8.47266E-03 +9.92610E-03 +1.01617E-02
 +6.58435E-03 +1.10147E-02 +3.27337E-03 +1.10340E-02 +1.81164E-04 +1.02658E-02 -2.52215E-03 +8.79631E-03
 -4.69247E-03 +6.74634E-03 -6.21840E-03 +4.26417E-03 -7.02599E-03 +1.51724E-03 -7.08149E-03 -1.31686E-03
 -6.39207E-03 -4.05962E-03 -5.00436E-03 -6.54060E-03 -3.00117E-03 -8.60575E-03 -4.96564E-04 -1.01247E-02
 +2.37050E-03 -1.09965E-02 +5.44347E-03 -1.11540E-02 +8.55607E-03 -1.05662E-02 +1.15404E-02 -9.23926E-03
 +1.42350E-02 -7.21505E-03 +1.64918E-02 -4.56880E-03 +1.81830E-02 -1.40494E-03 +1.92059E-02 +2.14812E-03
 +1.94877E-02 +5.94405E-03 +1.89873E-02 +9.82526E-03 +1.76970E-02 +1.36298E-02 +1.56418E-02 +1.71981E-02
 +1.28783E-02 +2.03795E-02 +9.49154E-03 +2.30381E-02 +5.59135E-03 +2.50580E-02 +1.30761E-03 +2.63471E-02
 -3.21491E-03 +2.68405E-02 -7.82214E-03 +2.65023E-02 -1.23565E-02 +2.53267E-02 -1.66624E-02 +2.33376E-02
 -2.05921E-02 +2.05875E-02 -2.40103E-02 +1.71554E-02 -2.67988E-02 +1.31437E-02 -2.88607E-02 +8.67458E-03
 -3.01228E-02 +3.88583E-03 -3.05385E-02 -1.07387E-03 -3.00890E-02 -6.04984E-03 -2.87838E-02 -1.08866E-02
 -2.66608E-02 -1.54327E-02 -2.37842E-02 -1.95462E-02 -2.02436E-02 -2.30988E-02 -1.61503E-02 -2.59805E-02
 -1.16341E-02 -2.81034E-02 -6.83886E-03 -2.94044E-02 -1.91810E-03 -2.98482E-02 +2.97050E-03 -2.94280E-02
 +7.67038E-03 -2.81666E-02 +1.20317E-02 -2.61157E-02 +1.59165E-02 -2.33545E-02 +1.92043E-02 -1.99868E-02
 +2.17961E-02 -1.61377E-02 +2.36188E-02 -1.19494E-02 +2.46282E-02 -7.57541E-03 +2.48104E-02 -3.17528E-03
 +2.41835E-02 +1.09185E-03 +2.27965E-02 +5.07353E-03 +2.07278E-02 +8.63014E-03 +1.80825E-02 +1.16408E-02
 +1.49874E-02 +1.40085E-02 +1.15868E-02 +1.56643E-02 +8.03556E-03 +1.65705E-02 +4.49279E-03 +1.67224E-02
 +1.11481E-03 +1.61489E-02 -1.95198E-03 +1.49109E-02 -4.57771E-03 +1.30988E-02 -6.65512E-03 +1.08287E-02
 -8.10461E-03 +8.23678E-03 -8.87813E-03 +5.47316E-03 -8.96155E-03 +2.69455E-03 -8.37551E-03 +5.69117E-05
 -7.17452E-03 -2.29220E-03 -5.44448E-03 -4.22090E-03 -3.29864E-03 -5.61956E-03 -8.72052E-04 -6.40639E-03
 +1.68494E-03 -6.53175E-03 +4.21418E-03 -5.98081E-03 +6.55754E-03 -4.77463E-03 +8.56493E-03 -2.96940E-03
 +1.01019E-02 -6.53931E-04 +1.10565E-02 +2.05445E-03 +1.13454E-02 +5.01554E-03 +1.09180E-02 +8.07300E-03
 +9.75953E-03 +1.10620E-02 +7.89227E-03 +1.38174E-02 +5.37465E-03 +1.61816E-02 +2.29891E-03 +1.80128E-02
 -1.21310E-03 +1.91919E-02 -5.01552E-03 +1.96282E-02 -8.94530E-03 +1.92647E-02 -1.28298E-02 +1.80803E-02
 -1.64950E-02 +1.60917E-02 -1.97735E-02 +1.33526E-02 -2.25124E-02 +9.95107E-03 -2.45807E-02 +6.00619E-03
 -2.58747E-02 +1.66219E-03 -2.63233E-02 -2.91799E-03 -2.58910E-02 -7.56003E-03 -2.45789E-02 -1.20861E-02
 -2.24252E-02 -1.63228E-02 -1.95023E-02 -2.01087E-02 -1.59143E-02 -2.33012E-02 -1.17913E-02 -2.57828E-02
