 Created: 26-Mar-2021
 $NMID
 ID='D:\BASISSIMULATI'
 FMTDAT='(8E13.5)'
 VOLUME=   1.00000E+00
 TRAMP=   1.00000E+00
 $END
 +1.16286E-01 +2.32892E-04 +1.04529E-01 +2.80121E-02 +7.22718E-02 +5.13334E-02 +2.75667E-02 +6.62989E-02
 -1.85940E-02 +7.01585E-02 -5.51860E-02 +6.18576E-02 -7.39925E-02 +4.24443E-02 -7.15982E-02 +1.51765E-02
 -5.00234E-02 -1.48178E-02 -1.58832E-02 -4.13834E-02 +2.16191E-02 -5.85930E-02 +5.32479E-02 -6.21629E-02
 +7.21013E-02 -5.06601E-02 +7.51548E-02 -2.61232E-02 +6.36279E-02 +6.16727E-03 +4.21807E-02 +3.88147E-02
 +1.72812E-02 +6.41029E-02 -4.71396E-03 +7.60118E-02 -1.91982E-02 +7.18877E-02 -2.42498E-02 +5.32579E-02
 -2.06964E-02 +2.55037E-02 -1.14166E-02 -3.57457E-03 -1.97000E-04 -2.59241E-02 +9.45374E-03 -3.55281E-02
 +1.51860E-02 -3.01387E-02 +1.61873E-02 -1.19269E-02 +1.30534E-02 +1.31710E-02 +7.30482E-03 +3.72353E-02
 +7.81858E-04 +5.27526E-02 -4.86826E-03 +5.48979E-02 -8.48711E-03 +4.30152E-02 -9.47693E-03 +2.08373E-02
 -7.73299E-03 -4.63067E-03 -3.55246E-03 -2.52341E-02 +2.39928E-03 -3.41575E-02 +9.06168E-03 -2.80260E-02
 +1.49660E-02 -7.98123E-03 +1.83462E-02 +2.05926E-02 +1.74535E-02 +4.96092E-02 +1.10628E-02 +7.06240E-02
 -9.52491E-04 +7.72807E-02 -1.71900E-02 +6.71417E-02 -3.46584E-02 +4.23771E-02 -4.92328E-02 +9.13634E-03
 -5.66092E-02 -2.41849E-02 -5.35541E-02 -4.92548E-02 -3.90910E-02 -6.00211E-02 -1.52196E-02 -5.42188E-02
 +1.31515E-02 -3.37910E-02 +3.91666E-02 -4.17469E-03 +5.57082E-02 +2.72739E-02 +5.73825E-02 +5.32239E-02
 +4.22319E-02 +6.81353E-02 +1.26278E-02 +6.94013E-02 -2.50042E-02 +5.76467E-02 -6.16450E-02 +3.62173E-02
 -8.79878E-02 +1.01082E-02 -9.69705E-02 -1.53112E-02 -8.58101E-02 -3.54329E-02 -5.69253E-02 -4.71703E-02
 -1.74371E-02 -4.92664E-02 +2.26573E-02 -4.22088E-02 +5.31478E-02 -2.78963E-02 +6.63685E-02 -9.20148E-03
 +5.92652E-02 +1.04732E-02 +3.41849E-02 +2.76233E-02 -1.83586E-03 +3.90783E-02 -3.90672E-02 +4.24719E-02
 -6.77865E-02 +3.67198E-02 -8.09057E-02 +2.24089E-02 -7.57873E-02 +1.94725E-03 -5.47639E-02 -2.06709E-02
 -2.42626E-02 -4.05526E-02 +7.15644E-03 -5.29743E-02 +3.12444E-02 -5.46063E-02 +4.22775E-02 -4.45582E-02
 +3.84320E-02 -2.48978E-02 +2.19910E-02 -4.00452E-04 -1.59066E-03 +2.25077E-02 -2.54121E-02 +3.73987E-02
 -4.30951E-02 +3.96553E-02 -5.04256E-02 +2.79191E-02 -4.62460E-02 +4.70513E-03 -3.24354E-02 -2.40721E-02
 -1.30878E-02 -5.06007E-02 +6.78215E-03 -6.73231E-02 +2.25919E-02 -6.91317E-02 +3.12313E-02 -5.49574E-02
 +3.15690E-02 -2.82457E-02 +2.43957E-02 +3.86815E-03 +1.19383E-02 +3.24907E-02 -2.83038E-03 +4.94731E-02
 -1.68635E-02 +4.97625E-02 -2.75475E-02 +3.29058E-02 -3.30030E-02 +3.24968E-03 -3.22227E-02 -3.12391E-02
 -2.51270E-02 -6.12005E-02 -1.25917E-02 -7.85095E-02 +3.55919E-03 -7.85447E-02 +2.06619E-02 -6.14416E-02
 +3.55094E-02 -3.19827E-02 +4.48832E-02 +1.82178E-03 +4.62732E-02 +3.10258E-02 +3.86310E-02 +4.82327E-02
 +2.29203E-02 +4.95593E-02 +2.22843E-03 +3.55387E-02 -1.87090E-02 +1.07549E-02 -3.45485E-02 -1.76257E-02
 -4.07253E-02 -4.19477E-02 -3.48162E-02 -5.61581E-02 -1.74515E-02 -5.73065E-02 +7.56023E-03 -4.60803E-02
 +3.40293E-02 -2.63045E-02 +5.49554E-02 -3.63922E-03 +6.44706E-02 +1.60859E-02 +5.95964E-02 +2.84005E-02
 +4.12707E-02 +3.11830E-02 +1.42836E-02 +2.49083E-02 -1.39259E-02 +1.21901E-02 -3.53134E-02 -3.15249E-03
 -4.35429E-02 -1.71759E-02 -3.58900E-02 -2.67325E-02 -1.41485E-02 -3.00272E-02 +1.57621E-02 -2.67570E-02
 +4.54116E-02 -1.79129E-02 +6.62490E-02 -5.39194E-03 +7.20746E-02 +8.42752E-03 +6.08690E-02 +2.10587E-02
 +3.54308E-02 +3.02087E-02 +2.62719E-03 +3.40484E-02 -2.85317E-02 +3.14942E-02 -4.94340E-02 +2.24983E-02
 -5.42865E-02 +8.27903E-03 -4.17178E-02 -8.63104E-03 -1.51177E-02 -2.46462E-02 +1.83623E-02 -3.57531E-02
 +4.98288E-02 -3.84378E-02 +7.10898E-02 -3.07096E-02 +7.68219E-02 -1.29263E-02 +6.58702E-02 +1.18897E-02
 +4.13656E-02 +3.84463E-02 +9.69338E-03 +6.02994E-02 -2.13309E-02 +7.14723E-02 -4.45296E-02 +6.81591E-02
 -5.50993E-02 +5.00131E-02 -5.15862E-02 +2.05858E-02 -3.59199E-02 -1.33034E-02 -1.26058E-02 -4.31807E-02
 +1.26113E-02 -6.11248E-02 +3.41967E-02 -6.19664E-02 +4.80093E-02 -4.48410E-02 +5.19742E-02 -1.36088E-02
 +4.61835E-02 +2.40309E-02 +3.25283E-02 +5.85304E-02 +1.40601E-02 +8.10510E-02 -5.70494E-03 +8.58726E-02
 -2.33879E-02 +7.19617E-02 -3.61909E-02 +4.32440E-02 -4.21954E-02 +7.49600E-03 -4.05624E-02 -2.58262E-02
 -3.16620E-02 -4.81964E-02 -1.71132E-02 -5.43181E-02 +3.33512E-04 -4.34669E-02 +1.71432E-02 -1.95169E-02
 +2.96030E-02 +1.03186E-02 +3.46224E-02 +3.76293E-02 +3.05580E-02 +5.51877E-02 +1.78232E-02 +5.88808E-02
 -9.54110E-04 +4.86614E-02 -2.13674E-02 +2.83032E-02 -3.82373E-02 +4.09707E-03 -4.69718E-02 -1.70732E-02
 -4.49149E-02 -2.96854E-02 -3.22716E-02 -3.10060E-02 -1.22762E-02 -2.16243E-02 +9.52526E-03 -5.01725E-03
 +2.67425E-02 +1.36476E-02 +3.39738E-02 +2.90617E-02 +2.84731E-02 +3.72088E-02 +1.11292E-02 +3.62974E-02
 -1.35871E-02 +2.69965E-02 -3.87558E-02 +1.19992E-02 -5.69383E-02 -4.87160E-03 -6.23607E-02 -1.97093E-02
 -5.27044E-02 -2.94247E-02 -2.99462E-02 -3.23049E-02 +4.00377E-05 -2.81681E-02 +2.90460E-02 -1.81808E-02
 +4.88262E-02 -4.47326E-03 +5.34702E-02 +1.03058E-02 +4.11529E-02 +2.34025E-02 +1.47411E-02 +3.23119E-02
 -1.89367E-02 +3.50954E-02 -5.09530E-02 +3.06879E-02 -7.27450E-02 +1.91854E-02 -7.84703E-02 +2.04206E-03
 -6.65859E-02 -1.79350E-02 -4.02143E-02 -3.69016E-02 -6.21780E-03 -5.06432E-02 +2.67256E-02 -5.55174E-02
 +5.04763E-02 -4.94680E-02 +5.95490E-02 -3.28217E-02 +5.24189E-02 -8.57603E-03 +3.17044E-02 +1.80090E-02
 +3.24447E-03 +4.05179E-02 -2.56027E-02 +5.29642E-02 -4.79241E-02 +5.14484E-02 -5.89318E-02 +3.54108E-02
 -5.69403E-02 +8.06476E-03 -4.34595E-02 -2.41954E-02 -2.24822E-02 -5.33293E-02 +7.47545E-04 -7.17518E-02
 +2.10969E-02 -7.44311E-02 +3.46757E-02 -6.03732E-02 +3.94973E-02 -3.30346E-02 +3.56011E-02 +5.03663E-04
 +2.47212E-02 +3.14055E-02 +9.68616E-03 +5.14871E-02 -6.25225E-03 +5.54809E-02 -2.00091E-02 +4.25049E-02
 -2.91050E-02 +1.63050E-02 -3.19536E-02 -1.58049E-02 -2.80346E-02 -4.50045E-02 -1.79760E-02 -6.34337E-02
 -3.53446E-03 -6.63571E-02 +1.25779E-02 -5.34101E-02 +2.70717E-02 -2.85885E-02 +3.66752E-02 +9.87513E-04
 +3.88736E-02 +2.71493E-02 +3.26322E-02 +4.29780E-02 +1.88836E-02 +4.46651E-02 +5.73799E-04 +3.24250E-02
 -1.78452E-02 +1.02454E-02 -3.14332E-02 -1.53959E-02 -3.60696E-02 -3.74293E-02 -2.96993E-02 -5.01391E-02
 -1.31322E-02 -5.06104E-02 +9.90466E-03 -3.93116E-02 +3.35631E-02 -1.97220E-02 +5.13670E-02 +2.81293E-03
 +5.80194E-02 +2.26137E-02 +5.10093E-02 +3.51350E-02 +3.15193E-02 +3.79840E-02 +4.31599E-03 +3.12777E-02
 -2.34131E-02 +1.73329E-02 -4.39898E-02 -1.30636E-04 -5.14127E-02 -1.69982E-02 -4.31335E-02 -2.96933E-02
 -2.09044E-02 -3.58339E-02 +9.58421E-03 -3.45260E-02 +4.02064E-02 -2.63250E-02 +6.26330E-02 -1.29660E-02
 +7.06618E-02 +3.02194E-03 +6.19720E-02 +1.87315E-02 +3.87941E-02 +3.12908E-02 +7.29782E-03 +3.82715E-02
 -2.41251E-02 +3.80941E-02 -4.71866E-02 +3.03944E-02 -5.59691E-02 +1.62700E-02 -4.84935E-02 -1.70685E-03
 -2.71613E-02 -1.98074E-02 +2.02250E-03 -3.38229E-02 +3.11874E-02 -4.00110E-02 +5.27762E-02 -3.61084E-02
 +6.15397E-02 -2.21244E-02 +5.58058E-02 -6.39312E-04 +3.77156E-02 +2.35682E-02 +1.24265E-02 +4.45621E-02
 -1.34275E-02 +5.67423E-02 -3.35454E-02 +5.64090E-02 -4.35294E-02 +4.29435E-02 -4.18193E-02 +1.92192E-02
 -2.98085E-02 -8.94725E-03 -1.12046E-02 -3.42239E-02 +9.11048E-03 -4.97165E-02 +2.63593E-02 -5.09103E-02
 +3.69478E-02 -3.70342E-02 +3.91094E-02 -1.14210E-02 +3.30373E-02 +1.92856E-02 +2.05744E-02 +4.68909E-02
 +4.62577E-03 +6.38987E-02 -1.15188E-02 +6.56127E-02 -2.47979E-02 +5.14812E-02 -3.28466E-02 +2.52864E-02
 -3.43004E-02 -5.88864E-03 -2.89559E-02 -3.36266E-02 -1.78061E-02 -5.05144E-02 -2.94379E-03 -5.21846E-02
 +1.26953E-02 -3.84805E-02 +2.57786E-02 -1.34260E-02 +3.31969E-02 +1.59698E-02 +3.27760E-02 +4.17094E-02
 +2.39199E-02 +5.70194E-02 +7.99040E-03 +5.81507E-02 -1.17543E-02 +4.52776E-02 -3.07424E-02 +2.22821E-02
 -4.41252E-02 -4.46192E-03 -4.80438E-02 -2.79167E-02 -4.07881E-02 -4.22804E-02 -2.34909E-02 -4.44342E-02
 -9.01585E-05 -3.45749E-02 +2.35136E-02 -1.59252E-02 +4.09412E-02 +6.32149E-03 +4.70838E-02 +2.64702E-02
 +3.96259E-02 +3.97797E-02 +1.98743E-02 +4.35255E-02 -7.39623E-03 +3.74472E-02 -3.51010E-02 +2.35477E-02
 -5.57238E-02 +5.38731E-03 -6.34072E-02 -1.28770E-02 -5.56543E-02 -2.74394E-02 -3.41364E-02 -3.55705E-02
 -4.34166E-03 -3.60146E-02 +2.58655E-02 -2.90531E-02 +4.83840E-02 -1.63069E-02 +5.71146E-02 -3.69773E-04
 +4.96582E-02 +1.56441E-02 +2.79881E-02 +2.85890E-02 -2.09785E-03 +3.57848E-02 -3.25838E-02 +3.54926E-02
 -5.54409E-02 +2.73145E-02 -6.48018E-02 +1.24255E-02 -5.84965E-02 -6.46243E-03 -3.85366E-02 -2.54815E-02
 -1.04452E-02 -4.03359E-02 +1.83418E-02 -4.72681E-02 +4.05242E-02 -4.40541E-02 +5.08514E-02 -3.07529E-02
 +4.73859E-02 -9.95484E-03 +3.18111E-02 +1.36249E-02 +8.76129E-03 +3.41826E-02 -1.55738E-02 +4.62780E-02
 -3.51406E-02 +4.63293E-02 -4.55338E-02 +3.37247E-02 -4.49462E-02 +1.11920E-02 -3.43668E-02 -1.57426E-02
 -1.70591E-02 -4.01197E-02 +2.45973E-03 -5.53960E-02 +1.96162E-02 -5.72723E-02 +3.08324E-02 -4.49707E-02
 +3.42009E-02 -2.15672E-02 +2.96875E-02 +6.75679E-03 +1.89022E-02 +3.23629E-02 +4.57375E-03 +4.82591E-02
 -1.01014E-02 +5.00609E-02 -2.20880E-02 +3.72456E-02 -2.90219E-02 +1.33281E-02 -2.95602E-02 -1.51028E-02
 -2.35679E-02 -4.02193E-02 -1.21449E-02 -5.51367E-02 +2.51187E-03 -5.58222E-02 +1.74264E-02 -4.21865E-02
 +2.93422E-02 -1.80609E-02 +3.53633E-02 +9.91894E-03 +3.36400E-02 +3.41861E-02 +2.39404E-02 +4.83285E-02
 +7.93242E-03 +4.87988E-02 -1.09719E-02 +3.57864E-02 -2.82568E-02 +1.30394E-02 -3.93400E-02 -1.32663E-02
 -4.07789E-02 -3.62586E-02 -3.13237E-02 -5.01954E-02 -1.24918E-02 -5.18903E-02 +1.15662E-02 -4.13809E-02
 +3.49523E-02 -2.17185E-02 +5.14845E-02 +1.99449E-03 +5.63691E-02 +2.40048E-02 +4.76173E-02 +3.93443E-02
 +2.67778E-02 +4.49363E-02 -1.27600E-03 +4.01366E-02 -2.95029E-02 +2.66465E-02 -5.05176E-02 +7.90619E-03
 -5.85935E-02 -1.18161E-02 -5.12819E-02 -2.83881E-02 -3.01735E-02 -3.86174E-02 -5.58277E-04 -4.07643E-02
