 Created: 26-Mar-2021
 $NMID
 ID='D:\BASISSIMULATI'
 FMTDAT='(8E13.5)'
 VOLUME=   1.00000E+00
 TRAMP=   1.00000E+00
 $END
 +1.81086E-01 +3.69893E-04 +1.64947E-01 +6.83526E-02 +1.20458E-01 +1.21772E-01 +5.74182E-02 +1.49407E-01
 -1.03545E-02 +1.45808E-01 -6.81530E-02 +1.12489E-01 -1.03693E-01 +5.75087E-02 -1.09839E-01 -6.41388E-03
 -8.61323E-02 -6.48336E-02 -3.87758E-02 -1.04859E-01 +2.08986E-02 -1.18027E-01 +7.91014E-02 -1.02115E-01
 +1.22766E-01 -6.14946E-02 +1.42493E-01 -5.96267E-03 +1.34585E-01 +5.16370E-02 +1.01717E-01 +9.84357E-02
 +5.21226E-02 +1.24485E-01 -2.48210E-03 +1.24944E-01 -4.97227E-02 +1.01019E-01 -7.94564E-02 +5.94646E-02
 -8.60512E-02 +1.08074E-02 -6.95352E-02 -3.32610E-02 -3.53758E-02 -6.26808E-02 +7.02019E-03 -7.13460E-02
 +4.66950E-02 -5.84128E-02 +7.38228E-02 -2.83130E-02 +8.20401E-02 +1.04975E-02 +6.98750E-02 +4.77195E-02
 +4.09568E-02 +7.37749E-02 +2.98494E-03 +8.21278E-02 -3.42627E-02 +7.08095E-02 -6.13798E-02 +4.27969E-02
 -7.16385E-02 +5.17979E-03 -6.25975E-02 -3.26577E-02 -3.66365E-02 -6.13816E-02 -3.08268E-04 -7.40021E-02
 +3.73163E-02 -6.75633E-02 +6.68923E-02 -4.38308E-02 +8.10852E-02 -8.82562E-03 +7.63452E-02 +2.86653E-02
 +5.37514E-02 +5.92322E-02 +1.87366E-02 +7.51157E-02 -2.02279E-02 +7.20670E-02 -5.36616E-02 +5.03566E-02
 -7.33279E-02 +1.47017E-02 -7.41757E-02 -2.68548E-02 -5.55155E-02 -6.48392E-02 -2.11651E-02 -9.05593E-02
 +2.14562E-02 -9.81130E-02 +6.30585E-02 -8.57291E-02 +9.46222E-02 -5.61379E-02 +1.09449E-01 -1.59040E-02
 +1.04651E-01 +2.61094E-02 +8.17475E-02 +6.07734E-02 +4.62478E-02 +8.07510E-02 +6.34344E-03 +8.21073E-02
 -2.89796E-02 +6.51181E-02 -5.19625E-02 +3.41118E-02 -5.77687E-02 -3.59364E-03 -4.54801E-02 -3.93957E-02
 -1.81875E-02 -6.53498E-02 +1.78144E-02 -7.59063E-02 +5.45213E-02 -6.90591E-02 +8.40433E-02 -4.66663E-02
 +1.00339E-01 -1.39009E-02 +1.00477E-01 +2.20152E-02 +8.51524E-02 +5.34834E-02 +5.83875E-02 +7.42184E-02
 +2.64940E-02 +8.05768E-02 -3.42196E-03 +7.22419E-02 -2.50709E-02 +5.21386E-02 -3.43364E-02 +2.56303E-02
 -3.00859E-02 -7.94116E-04 -1.42780E-02 -2.10231E-02 +8.62779E-03 -3.06735E-02 +3.27951E-02 -2.79911E-02
 +5.23927E-02 -1.41191E-02 +6.29120E-02 +7.29908E-03 +6.21263E-02 +3.10618E-02 +5.04904E-02 +5.16619E-02
 +3.09164E-02 +6.45527E-02 +8.00076E-03 +6.71404E-02 -1.30966E-02 +5.92900E-02 -2.78551E-02 +4.32515E-02
 -3.33998E-02 +2.30448E-02 -2.90926E-02 +3.46685E-03 -1.65892E-02 -1.10398E-02 +6.30767E-04 -1.73933E-02
 +1.81321E-02 -1.45311E-02 +3.15803E-02 -3.58083E-03 +3.77367E-02 +1.24749E-02 +3.51689E-02 +2.95481E-02
 +2.45228E-02 +4.34223E-02 +8.31024E-03 +5.07279E-02 -9.72508E-03 +4.96909E-02 -2.55035E-02 +4.04933E-02
 -3.55547E-02 +2.51729E-02 -3.77931E-02 +7.10117E-03 -3.19524E-02 -9.82976E-03 -1.95872E-02 -2.21132E-02
 -3.65654E-03 -2.74175E-02 +1.22044E-02 -2.50792E-02 +2.45445E-02 -1.61947E-02 +3.08869E-02 -3.29950E-03
 +3.02660E-02 +1.02761E-02 +2.33924E-02 +2.12176E-02 +1.24183E-02 +2.70055E-02 +3.67878E-04 +2.64816E-02
 -9.62167E-03 +2.00706E-02 -1.50623E-02 +9.61559E-03 -1.46972E-02 -2.12663E-03 -8.76461E-03 -1.21988E-02
 +1.11437E-03 -1.81869E-02 +1.23898E-02 -1.88104E-02 +2.22614E-02 -1.42149E-02 +2.84079E-02 -5.89681E-03
 +2.95850E-02 +3.71696E-03 +2.59382E-02 +1.19271E-02 +1.89525E-02 +1.64893E-02 +1.10494E-02 +1.62235E-02
 +4.93213E-03 +1.13487E-02 +2.84477E-03 +3.44933E-03 +5.93740E-03 -4.92183E-03 +1.39041E-02 -1.09119E-02
 +2.49962E-02 -1.21400E-02 +3.64206E-02 -7.37564E-03 +4.50318E-02 +3.05609E-03 +4.81533E-02 +1.72584E-02
 +4.43190E-02 +3.21573E-02 +3.37422E-02 +4.42236E-02 +1.83787E-02 +5.03537E-02 +1.54865E-03 +4.86926E-02
 -1.28095E-02 +3.91888E-02 -2.10838E-02 +2.37274E-02 -2.09058E-02 +5.78854E-03 -1.18105E-02 -1.03090E-02
 +4.53559E-03 -2.04105E-02 +2.46151E-02 -2.15402E-02 +4.38039E-02 -1.26812E-02 +5.74172E-02 +4.88049E-03
 +6.18176E-02 +2.77492E-02 +5.53195E-02 +5.11243E-02 +3.86660E-02 +6.98679E-02 +1.49465E-02 +7.96904E-02
 -1.10412E-02 +7.81771E-02 -3.38524E-02 +6.54031E-02 -4.86375E-02 +4.39815E-02 -5.22760E-02 +1.85149E-02
 -4.41290E-02 -5.43059E-03 -2.62243E-02 -2.25982E-02 -2.81812E-03 -2.92619E-02 +2.05736E-02 -2.41047E-02
 +3.84514E-02 -8.54092E-03 +4.66180E-02 +1.36038E-02 +4.31654E-02 +3.69847E-02 +2.89250E-02 +5.59970E-02
 +7.26807E-03 +6.61019E-02 -1.67024E-02 +6.49037E-02 -3.73766E-02 +5.27141E-02 -4.99873E-02 +3.24661E-02
 -5.17572E-02 +8.99294E-03 -4.25639E-02 -1.21565E-02 -2.49560E-02 -2.60778E-02 -3.51376E-03 -2.97156E-02
 +1.62931E-02 -2.26150E-02 +2.94731E-02 -7.03034E-03 +3.27679E-02 +1.26407E-02 +2.54822E-02 +3.09629E-02
 +9.67700E-03 +4.28400E-02 -1.03292E-02 +4.48211E-02 -2.90377E-02 +3.60091E-02 -4.11617E-02 +1.83371E-02
 -4.29917E-02 -3.86807E-03 -3.33892E-02 -2.49375E-02 -1.41521E-02 -3.92773E-02 +1.03533E-02 -4.28028E-02
 +3.42198E-02 -3.40309E-02 +5.14446E-02 -1.45492E-02 +5.74434E-02 +1.12724E-02 +5.02571E-02 +3.72754E-02
 +3.11433E-02 +5.69845E-02 +4.38875E-03 +6.52072E-02 -2.36331E-02 +5.93699E-02 -4.59503E-02 +4.02537E-02
 -5.66759E-02 +1.19333E-02 -5.24832E-02 -1.90891E-02 -3.35061E-02 -4.53676E-02 -3.43304E-03 -6.02697E-02
 +3.12523E-02 -5.95924E-02 +6.27203E-02 -4.26428E-02 +8.36067E-02 -1.25126E-02 +8.87602E-02 +2.45390E-02
 +7.65108E-02 +6.04664E-02 +4.91460E-02 +8.72717E-02 +1.24682E-02 +9.88665E-02 -2.54802E-02 +9.25230E-02
 -5.62372E-02 +6.95653E-02 -7.28684E-02 +3.51279E-02 -7.15869E-02 -2.97554E-03 -5.26621E-02 -3.60200E-02
 -2.03979E-02 -5.63664E-02 +1.78230E-02 -5.92262E-02 +5.32147E-02 -4.37800E-02 +7.75979E-02 -1.33844E-02
 +8.52780E-02 +2.51831E-02 +7.43557E-02 +6.32731E-02 +4.71639E-02 +9.23466E-02 +9.72726E-03 +1.05933E-01
 -2.96298E-02 +1.01109E-01 -6.22026E-02 +7.91550E-02 -8.09085E-02 +4.52367E-02 -8.19044E-02 +7.19341E-03
 -6.54473E-02 -2.62899E-02 -3.57999E-02 -4.76933E-02 -2.07385E-04 -5.23894E-02 +3.28095E-02 -3.96876E-02
 +5.54454E-02 -1.29542E-02 +6.24186E-02 +2.12115E-02 +5.21761E-02 +5.45476E-02 +2.72186E-02 +7.90747E-02
 -6.52380E-03 +8.89576E-02 -4.11113E-02 +8.18506E-02 -6.84732E-02 +5.94139E-02 -8.23004E-02 +2.68885E-02
 -7.95093E-02 -8.16503E-03 -6.09380E-02 -3.76604E-02 -3.11164E-02 -5.48891E-02 +2.82839E-03 -5.60849E-02
 +3.28675E-02 -4.12862E-02 +5.19654E-02 -1.42983E-02 +5.57284E-02 +1.82281E-02 +4.34212E-02 +4.83815E-02
 +1.81181E-02 +6.88590E-02 -1.40413E-02 +7.46819E-02 -4.53114E-02 +6.43555E-02 -6.81681E-02 +4.02051E-02
 -7.70753E-02 +7.81508E-03 -6.97754E-02 -2.52926E-02 -4.78068E-02 -5.14266E-02 -1.61312E-02 -6.45254E-02
 +1.80370E-02 -6.15658E-02 +4.69207E-02 -4.32565E-02 +6.39923E-02 -1.38573E-02 +6.54857E-02 +1.98265E-02
 +5.12570E-02 +5.00374E-02 +2.47990E-02 +6.98700E-02 -7.58929E-03 +7.48672E-02 -3.82781E-02 +6.40381E-02
 -6.00819E-02 +4.00665E-02 -6.79195E-02 +8.66563E-03 -5.99745E-02 -2.27621E-02 -3.80931E-02 -4.68477E-02
 -7.33167E-03 -5.79559E-02 +2.52329E-02 -5.34726E-02 +5.21498E-02 -3.43834E-02 +6.73129E-02 -5.01689E-03
 +6.73529E-02 +2.79802E-02 +5.23867E-02 +5.71930E-02 +2.59551E-02 +7.61495E-02 -5.82656E-03 +8.07975E-02
 -3.57026E-02 +7.04082E-02 -5.69572E-02 +4.77044E-02 -6.49516E-02 +1.81925E-02 -5.81648E-02 -1.11389E-02
 -3.85035E-02 -3.34460E-02 -1.08186E-02 -4.36037E-02 +1.82508E-02 -3.93638E-02 +4.18311E-02 -2.18353E-02
 +5.44018E-02 +4.81639E-03 +5.30500E-02 +3.43702E-02 +3.81068E-02 +6.00120E-02 +1.30257E-02 +7.59137E-02
 -1.64573E-02 +7.85637E-02 -4.36802E-02 +6.75425E-02 -6.26052E-02 +4.55741E-02 -6.92038E-02 +1.78486E-02
 -6.23548E-02 -9.21525E-03 -4.40579E-02 -2.94738E-02 -1.89196E-02 -3.84767E-02 +6.95712E-03 -3.44701E-02
 +2.74137E-02 -1.87602E-02 +3.76687E-02 +4.64080E-03 +3.54076E-02 +2.99920E-02 +2.12831E-02 +5.11892E-02
 -1.28441E-03 +6.31936E-02 -2.69481E-02 +6.31922E-02 -4.97137E-02 +5.12195E-02 -6.43506E-02 +3.01063E-02
 -6.76033E-02 +4.77459E-03 -5.89240E-02 -1.89471E-02 -4.05586E-02 -3.57032E-02 -1.69776E-02 -4.18599E-02
 +6.20845E-03 -3.63326E-02 +2.35855E-02 -2.08025E-02 +3.12091E-02 +7.21108E-04 +2.75135E-02 +2.28804E-02
 +1.36484E-02 +4.02545E-02 -6.82933E-03 +4.86433E-02 -2.88291E-02 +4.60473E-02 -4.69529E-02 +3.31162E-02
 -5.67795E-02 +1.29645E-02 -5.59049E-02 -9.59349E-03 -4.44928E-02 -2.92039E-02 -2.52123E-02 -4.12495E-02
 -2.58168E-03 -4.29393E-02 +1.81196E-02 -3.39552E-02 +3.21095E-02 -1.65065E-02 +3.62339E-02 +5.21469E-03
 +2.97005E-02 +2.60438E-02 +1.42476E-02 +4.10760E-02 -6.28768E-03 +4.68265E-02 -2.68960E-02 +4.20454E-02
 -4.25915E-02 +2.79965E-02 -4.95929E-02 +8.13890E-03 -4.62096E-02 -1.27088E-02 -3.32264E-02 -2.95188E-02
 -1.36988E-02 -3.82441E-02 +7.78578E-03 -3.67670E-02 +2.62032E-02 -2.53832E-02 +3.72800E-02 -6.71066E-03
 +3.84928E-02 +1.49477E-02 +2.96440E-02 +3.46341E-02 +1.28822E-02 +4.79082E-02 -7.83087E-03 +5.18854E-02
 -2.76764E-02 +4.58940E-02 -4.21240E-02 +3.16024E-02 -4.79945E-02 +1.25906E-02 -4.41880E-02 -6.52451E-03
 -3.19098E-02 -2.11968E-02 -1.43445E-02 -2.80259E-02 +4.13321E-03 -2.55430E-02 +1.90205E-02 -1.45250E-02
 +2.67606E-02 +2.23160E-03 +2.55744E-02 +2.06164E-02 +1.58523E-02 +3.62129E-02 +1.93801E-05 +4.53643E-02
 -1.80872E-02 +4.60379E-02 -3.41708E-02 +3.82848E-02 -4.45248E-02 +2.41874E-02 -4.69213E-02 +7.31540E-03
 -4.11282E-02 -8.17246E-03 -2.89312E-02 -1.85573E-02 -1.36608E-02 -2.14679E-02 +6.52876E-04 -1.64468E-02
 +1.02898E-02 -5.03859E-03 +1.27628E-02 +9.61681E-03 +7.42852E-03 +2.35825E-02 -4.36286E-03 +3.31162E-02
 -1.96140E-02 +3.56086E-02 -3.44357E-02 +3.02384E-02 -4.50239E-02 +1.81807E-02 -4.86167E-02 +2.31915E-03
 -4.41949E-02 -1.34696E-02 -3.27511E-02 -2.52816E-02 -1.70596E-02 -3.01645E-02 -1.00194E-03 -2.68676E-02
 +1.13896E-02 -1.61756E-02 +1.69360E-02 -7.41386E-04 +1.41151E-02 +1.55458E-02 +3.46707E-03 +2.85060E-02
 -1.25044E-02 +3.46978E-02 -2.99141E-02 +3.22815E-02 -4.44257E-02 +2.15008E-02 -5.23055E-02 +4.66273E-03
 -5.13456E-02 -1.43865E-02 -4.14298E-02 -3.11679E-02 -2.46001E-02 -4.16437E-02 -4.60200E-03 -4.31997E-02
 +1.39878E-02 -3.52986E-02 +2.68461E-02 -1.96421E-02 +3.09412E-02 +2.02767E-04 +2.52748E-02 +1.96291E-02
 +1.11458E-02 +3.40749E-02 -8.13145E-03 +4.01088E-02 -2.79932E-02 +3.62578E-02 -4.36973E-02 +2.33769E-02
