 Created: 26-Mar-2021
 $NMID
 ID='D:\BASISSIMULATI'
 FMTDAT='(8E13.5)'
 VOLUME=   1.00000E+00
 TRAMP=   1.00000E+00
 $END
 +1.35095E-01 +4.57751E-05 +1.22603E-01 -3.16797E-02 +8.80265E-02 -5.30942E-02 +3.95513E-02 -5.67095E-02
 -1.14939E-02 -3.98814E-02 -5.34841E-02 -5.59341E-03 -7.73954E-02 +3.82398E-02 -7.90141E-02 +8.07727E-02
 -5.98917E-02 +1.11019E-01 -2.68139E-02 +1.20710E-01 +1.00716E-02 +1.06478E-01 +3.99729E-02 +7.08055E-02
 +5.43087E-02 +2.14740E-02 +4.89554E-02 -3.03322E-02 +2.53080E-02 -7.27994E-02 -1.01208E-02 -9.64189E-02
 -4.74502E-02 -9.63346E-02 -7.60732E-02 -7.35063E-02 -8.74967E-02 -3.43967E-02 -7.76395E-02 +1.07303E-02
 -4.79857E-02 +5.04567E-02 -5.28980E-03 +7.51172E-02 +4.00939E-02 +7.92184E-02 +7.68299E-02 +6.27540E-02
 +9.54940E-02 +3.10863E-02 +9.09937E-02 -6.56272E-03 +6.38944E-02 -3.96069E-02 +2.03095E-02 -5.89228E-02
 -2.96166E-02 -5.92699E-02 -7.42423E-02 -4.06738E-02 -1.03329E-01 -8.41751E-03 -1.10569E-01 +2.83546E-02
 -9.50908E-02 +5.90524E-02 -6.15801E-02 +7.44439E-02 -1.89805E-02 +6.91186E-02 +2.18661E-02 +4.29674E-02
 +5.10292E-02 +1.29464E-03 +6.20217E-02 -4.64677E-02 +5.34017E-02 -8.91142E-02 +2.90428E-02 -1.16483E-01
 -2.98650E-03 -1.22012E-01 -3.26299E-02 -1.04379E-01 -5.05535E-02 -6.78155E-02 -5.06499E-02 -2.10091E-02
 -3.16848E-02 +2.51035E-02 +2.34186E-03 +6.00921E-02 +4.32078E-02 +7.66244E-02 +8.05890E-02 +7.22341E-02
 +1.04735E-01 +4.98230E-02 +1.09007E-01 +1.67827E-02 +9.16151E-02 -1.70210E-02 +5.61203E-02 -4.18695E-02
 +1.05610E-02 -5.07335E-02 -3.45588E-02 -4.10800E-02 -6.89032E-02 -1.54831E-02 -8.48831E-02 +1.91074E-02
 -7.95207E-02 +5.32387E-02 -5.51305E-02 +7.74718E-02 -1.86525E-02 +8.48838E-02 +2.01782E-02 +7.29046E-02
 +5.13448E-02 +4.40145E-02 +6.70951E-02 +5.12637E-03 +6.38667E-02 -3.41817E-02 +4.31078E-02 -6.41216E-02
 +1.07946E-02 -7.72014E-02 -2.42107E-02 -7.01376E-02 -5.25241E-02 -4.46842E-02 -6.67057E-02 -7.17313E-03
 -6.31871E-02 +3.31079E-02 -4.31681E-02 +6.62754E-02 -1.22595E-02 +8.43393E-02 +2.10213E-02 +8.31822E-02
 +4.75026E-02 +6.35316E-02 +5.97675E-02 +3.06858E-02 +5.40938E-02 -6.91733E-03 +3.14269E-02 -3.99090E-02
 -2.86016E-03 -6.03978E-02 -4.03470E-02 -6.39563E-02 -7.17242E-02 -5.06832E-02 -8.91676E-02 -2.50795E-02
 -8.83158E-02 +5.21009E-03 -6.93500E-02 +3.14516E-02 -3.69053E-02 +4.61284E-02 +1.14854E-03 +4.49010E-02
 +3.57339E-02 +2.77171E-02 +5.88703E-02 -1.20479E-03 +6.56653E-02 -3.45024E-02 +5.54861E-02 -6.36008E-02
 +3.20248E-02 -8.09423E-02 +2.25735E-03 -8.19342E-02 -2.54195E-02 -6.61156E-02 -4.33812E-02 -3.72510E-02
 -4.67313E-02 -2.33869E-03 -3.45191E-02 +3.01996E-02 -9.91967E-03 +5.26725E-02 +2.06554E-02 +6.00592E-02
 +4.92688E-02 +5.12424E-02 +6.85364E-02 +2.92272E-02 +7.35332E-02 +3.03779E-04 +6.30356E-02 -2.76144E-02
 +3.97906E-02 -4.70404E-02 +9.75710E-03 -5.28190E-02 -1.94709E-02 -4.34033E-02 -4.06393E-02 -2.11851E-02
 -4.86932E-02 +8.18910E-03 -4.20431E-02 +3.73219E-02 -2.29210E-02 +5.89903E-02 +3.25139E-03 +6.79888E-02
 +2.93049E-02 +6.24210E-02 +4.81914E-02 +4.41164E-02 +5.47934E-02 +1.80839E-02 +4.72089E-02 -8.84102E-03
 +2.71934E-02 -2.97901E-02 -3.42913E-04 -3.96286E-02 -2.86353E-02 -3.62390E-02 -5.08165E-02 -2.10020E-02
 -6.16623E-02 +1.63475E-03 -5.88854E-02 +2.53701E-02 -4.36548E-02 +4.37186E-02 -2.02238E-02 +5.16951E-02
 +5.21971E-03 +4.70812E-02 +2.61701E-02 +3.09547E-02 +3.74640E-02 +7.35920E-03 +3.65571E-02 -1.77840E-02
 +2.41011E-02 -3.82288E-02 +3.68778E-03 -4.90131E-02 -1.91531E-02 -4.77095E-02 -3.84262E-02 -3.50034E-02
 -4.92253E-02 -1.44647E-02 -4.89655E-02 +8.41246E-03 -3.79869E-02 +2.76419E-02 -1.93860E-02 +3.82716E-02
 +1.86013E-03 +3.76134E-02 +2.02356E-02 +2.58695E-02 +3.11348E-02 +6.00977E-03 +3.20435E-02 -1.70482E-02
 +2.31506E-02 -3.77303E-02 +7.24777E-03 -5.12248E-02 -1.10429E-02 -5.46639E-02 -2.64985E-02 -4.77735E-02
 -3.46568E-02 -3.28394E-02 -3.29554E-02 -1.40218E-02 -2.13630E-02 +3.78729E-03 -2.35216E-03 +1.62548E-02
 +1.97631E-02 +2.07080E-02 +3.99400E-02 +1.67678E-02 +5.36750E-02 +6.36484E-03 +5.81007E-02 -6.84842E-03
 +5.26375E-02 -1.85195E-02 +3.90501E-02 -2.47739E-02 +2.09137E-02 -2.32399E-02 +2.64495E-03 -1.36580E-02
 -1.16370E-02 +2.07158E-03 -1.91256E-02 +2.04018E-02 -1.89616E-02 +3.70654E-02 -1.23396E-02 +4.81672E-02
 -2.08078E-03 +5.11566E-02 +8.19775E-03 +4.54371E-02 +1.50851E-02 +3.24673E-02 +1.62840E-02 +1.53445E-02
 +1.11902E-02 -2.00720E-03 +1.00470E-03 -1.58227E-02 -1.16355E-02 -2.34021E-02 -2.33941E-02 -2.37095E-02
 -3.11369E-02 -1.75267E-02 -3.27578E-02 -7.14313E-03 -2.77170E-02 +4.31739E-03 -1.71609E-02 +1.37437E-02
 -3.60606E-03 +1.88315E-02 +9.71758E-03 +1.86234E-02 +1.96848E-02 +1.36668E-02 +2.40401E-02 +5.76895E-03
 +2.19180E-02 -2.56838E-03 +1.39954E-02 -8.86988E-03 +2.25628E-03 -1.13666E-02 -1.05560E-02 -9.45723E-03
 -2.16425E-02 -3.83792E-03 -2.88239E-02 +3.71970E-03 -3.10156E-02 +1.08700E-02 -2.83959E-02 +1.53318E-02
 -2.22426E-02 +1.54909E-02 -1.45015E-02 +1.08118E-02 -7.21745E-03 +1.95850E-03 -1.98528E-03 -9.39295E-03
 +4.35832E-04 -2.09901E-02 +2.52895E-04 -3.05630E-02 -1.50394E-03 -3.63591E-02 -3.34240E-03 -3.75193E-02
 -3.77653E-03 -3.42093E-02 -1.76925E-03 -2.74914E-02 +2.96977E-03 -1.89854E-02 +9.90433E-03 -1.04252E-02
 +1.78208E-02 -3.23085E-03 +2.51546E-02 +1.79219E-03 +3.03985E-02 +4.55934E-03 +3.24789E-02 +5.60891E-03
 +3.10038E-02 +5.84527E-03 +2.63250E-02 +6.20882E-03 +1.94094E-02 +7.37199E-03 +1.15687E-02 +9.54525E-03
 +4.12718E-03 +1.24401E-02 -1.87812E-03 +1.53879E-02 -5.89058E-03 +1.75684E-02 -7.87922E-03 +1.82747E-02
 -8.24054E-03 +1.71330E-02 -7.60117E-03 +1.42170E-02 -6.58955E-03 +1.00271E-02 -5.64760E-03 +5.35064E-03
 -4.93478E-03 +1.04762E-03 -4.34429E-03 -2.16915E-03 -3.61428E-03 -3.89701E-03 -2.48815E-03 -4.10563E-03
 -8.64624E-04 -3.08858E-03 +1.11541E-03 -1.32821E-03 +3.07560E-03 +6.76704E-04 +4.50255E-03 +2.56266E-03
 +4.90351E-03 +4.18420E-03 +3.97085E-03 +5.60457E-03 +1.69790E-03 +7.00265E-03 -1.59415E-03 +8.53327E-03
 -5.33074E-03 +1.01938E-02 -8.83936E-03 +1.17491E-02 -1.15391E-02 +1.27470E-02 -1.31050E-02 +1.26288E-02
 -1.35534E-02 +1.09040E-02 -1.32199E-02 +7.33600E-03 -1.26314E-02 +2.07886E-03 -1.23108E-02 -4.28808E-03
 -1.25746E-02 -1.08478E-02 -1.33893E-02 -1.65425E-02 -1.43377E-02 -2.04307E-02 -1.47148E-02 -2.19344E-02
 -1.37333E-02 -2.10024E-02 -1.07842E-02 -1.81387E-02 -5.67389E-03 -1.42781E-02 +1.23427E-03 -1.05371E-02
 +9.02920E-03 -7.90392E-03 +1.64217E-02 -6.95459E-03 +2.20400E-02 -7.67733E-03 +2.47781E-02 -9.46144E-03
 +2.41020E-02 -1.12620E-02 +2.02250E-02 -1.19021E-02 +1.40966E-02 -1.04323E-02 +7.19499E-03 -6.44675E-03
 +1.16878E-03 -2.62627E-04 -2.58071E-03 +7.09714E-03 -3.26794E-03 +1.41252E-02 -9.39300E-04 +1.92054E-02
 +3.52737E-03 +2.10463E-02 +8.64813E-03 +1.90575E-02 +1.27299E-02 +1.35593E-02 +1.43368E-02 +5.76089E-03
 +1.27011E-02 -2.50029E-03 +7.96344E-03 -9.19929E-03 +1.17127E-03 -1.26351E-02 -5.97410E-03 -1.18792E-02
 -1.15618E-02 -7.03855E-03 -1.39932E-02 +7.42440E-04 -1.24416E-02 +9.55218E-03 -7.12224E-03 +1.71904E-02
 +7.08192E-04 +2.17346E-02 +9.03351E-03 +2.20476E-02 +1.55768E-02 +1.80878E-02 +1.83904E-02 +1.09365E-02
 +1.63837E-02 +2.52741E-03 +9.64506E-03 -4.85894E-03 -5.33322E-04 -9.20384E-03 -1.19445E-02 -9.30443E-03
 -2.20029E-02 -5.12233E-03 -2.83944E-02 +2.17143E-03 -2.96714E-02 +1.04754E-02 -2.56366E-02 +1.72953E-02
 -1.74104E-02 +2.04032E-02 -7.15607E-03 +1.84474E-02 +2.47131E-03 +1.13487E-02 +9.01232E-03 +3.72090E-04
 +1.08503E-02 -1.21523E-02 +7.64632E-03 -2.33967E-02 +4.43248E-04 -3.07488E-02 -8.59312E-03 -3.24861E-02
 -1.67356E-02 -2.82363E-02 -2.14164E-02 -1.90970E-02 -2.09202E-02 -7.37785E-03 -1.48657E-02 +3.97482E-03
 -4.34567E-03 +1.21270E-02 +8.31989E-03 +1.50869E-02 +2.01582E-02 +1.22251E-02 +2.83027E-02 +4.44739E-03
 +3.07404E-02 -6.03081E-03 +2.68521E-02 -1.62542E-02 +1.76010E-02 -2.32972E-02 +5.31340E-03 -2.50355E-02
 -6.89686E-03 -2.07166E-02 -1.59166E-02 -1.11793E-02 -1.94324E-02 +1.34183E-03 -1.65338E-02 +1.37802E-02
 -7.96025E-03 +2.30268E-02 +4.07523E-03 +2.67424E-02 +1.64451E-02 +2.39817E-02 +2.59087E-02 +1.54616E-02
 +2.99491E-02 +3.40124E-03 +2.74307E-02 -9.03044E-03 +1.89024E-02 -1.85223E-02 +6.46756E-03 -2.24755E-02
 -6.75261E-03 -1.96841E-02 -1.74232E-02 -1.06639E-02 -2.28628E-02 +2.45961E-03 -2.17478E-02 +1.64800E-02
 -1.44690E-02 +2.79215E-02 -3.04609E-03 +3.39271E-02 +9.38383E-03 +3.29928E-02 +1.93724E-02 +2.53596E-02
 +2.40557E-02 +1.29568E-02 +2.19073E-02 -1.08899E-03 +1.31522E-02 -1.32564E-02 -2.68064E-04 -2.05366E-02
 -1.51737E-02 -2.12111E-02 -2.79488E-02 -1.52996E-02 -3.54617E-02 -4.55757E-03 -3.58676E-02 +7.97499E-03
 -2.90859E-02 +1.87617E-02 -1.68269E-02 +2.46909E-02 -2.16037E-03 +2.38920E-02 +1.12665E-02 +1.62359E-02
 +2.01604E-02 +3.38732E-03 +2.24238E-02 -1.16065E-02 +1.76895E-02 -2.50874E-02 +7.41126E-03 -3.37210E-02
 -5.51642E-03 -3.53534E-02 -1.75097E-02 -2.95707E-02 -2.52264E-02 -1.78144E-02 -2.64357E-02 -3.02186E-03
 -2.06024E-02 +1.11166E-02 -9.03378E-03 +2.10954E-02 +5.45005E-03 +2.44848E-02 +1.92379E-02 +2.05475E-02
 +2.88568E-02 +1.04220E-02 +3.18695E-02 -3.17489E-03 +2.75085E-02 -1.66488E-02 +1.68835E-02 -2.64534E-02
 +2.70640E-03 -3.00009E-02 -1.13952E-02 -2.63254E-02 -2.18011E-02 -1.63270E-02 -2.58224E-02 -2.53580E-03
 -2.23880E-02 +1.15449E-02 -1.23191E-02 +2.23448E-02 +1.87924E-03 +2.71502E-02 +1.66558E-02 +2.48065E-02
 +2.83166E-02 +1.60188E-02 +3.39621E-02 +3.17289E-03 +3.22191E-02 -1.02767E-02 +2.35802E-02 -2.06955E-02
 +1.02658E-02 -2.52054E-02 -4.35543E-03 -2.24286E-02 -1.66363E-02 -1.28491E-02 -2.35879E-02 +1.30232E-03
 -2.36424E-02 +1.66089E-02 -1.70467E-02 +2.93311E-02 -5.78737E-03 +3.63510E-02 +6.93239E-03 +3.59584E-02
 +1.75287E-02 +2.82761E-02 +2.29692E-02 +1.52199E-02 +2.15625E-02 +3.54338E-06 +1.34019E-02 -1.36823E-02
 +3.49979E-04 -2.26059E-02 -1.44308E-02 -2.48071E-02 -2.72816E-02 -2.00777E-02 -3.49776E-02 -9.99220E-03
 -3.55491E-02 +2.51867E-03 -2.87820E-02 +1.39384E-02 -1.62728E-02 +2.10796E-02 -1.02469E-03 +2.19086E-02
 +1.33107E-02 +1.60683E-02 +2.33515E-02 +4.96650E-03 +2.68293E-02 -8.59030E-03 +2.31460E-02 -2.11227E-02
