 Created: 26-Mar-2021
 $NMID
 ID='D:\BASISSIMULATI'
 FMTDAT='(8E13.5)'
 VOLUME=   1.00000E+00
 TRAMP=   1.00000E+00
 $END
 +2.20634E-01 +2.92803E-07 +2.14123E-01 +5.03147E-02 +1.95253E-01 +9.72696E-02 +1.65335E-01 +1.37786E-01
 +1.26446E-01 +1.69241E-01 +8.12724E-02 +1.89657E-01 +3.29190E-02 +1.97834E-01 -1.53113E-02 +1.93434E-01
 -6.01549E-02 +1.77001E-01 -9.86188E-02 +1.49918E-01 -1.28192E-01 +1.14298E-01 -1.47022E-01 +7.28339E-02
 -1.54042E-01 +2.85992E-02 -1.49038E-01 -1.51769E-02 -1.32664E-01 -5.53410E-02 -1.06378E-01 -8.90429E-02
 -7.23371E-02 -1.13938E-01 -3.32298E-02 -1.28353E-01 +7.92214E-03 -1.31400E-01 +4.79873E-02 -1.23035E-01
 +8.39543E-02 -1.04050E-01 +1.13151E-01 -7.60099E-02 +1.33437E-01 -4.11298E-02 +1.43356E-01 -2.10370E-03
 +1.42236E-01 +3.80966E-02 +1.30235E-01 +7.64442E-02 +1.08314E-01 +1.10082E-01 +7.81693E-02 +1.36534E-01
 +4.20902E-02 +1.53883E-01 +2.78933E-03 +1.60913E-01 -3.68058E-02 +1.57194E-01 -7.37732E-02 +1.43104E-01
 -1.05415E-01 +1.19800E-01 -1.29461E-01 +8.91230E-02 -1.44234E-01 +5.34550E-02 -1.48774E-01 +1.55371E-02
 -1.42910E-01 -2.17405E-02 -1.27265E-01 -5.55581E-02 -1.03209E-01 -8.33800E-02 -7.27500E-02 -1.03147E-01
 -3.83820E-02 -1.13432E-01 -2.89219E-03 -1.13547E-01 +3.08510E-02 -1.03596E-01 +6.01171E-02 -8.44678E-02
 +8.25224E-02 -5.77677E-02 +9.62126E-02 -2.56970E-02 +1.00006E-01 +9.11280E-03 +9.34878E-02 +4.37998E-02
 +7.70424E-02 +7.54884E-02 +5.18314E-02 +1.01508E-01 +1.97098E-02 +1.19598E-01 -1.69104E-02 +1.28080E-01
 -5.52373E-02 +1.25993E-01 -9.23074E-02 +1.13168E-01 -1.25206E-01 +9.02501E-02 -1.51287E-01 +5.86578E-02
 -1.68371E-01 +2.04826E-02 -1.74917E-01 -2.16588E-02 -1.70138E-01 -6.48142E-02 -1.54066E-01 -1.05911E-01
 -1.27564E-01 -1.41980E-01 -9.22605E-02 -1.70379E-01 -5.04466E-02 -1.88982E-01 -4.90776E-03 -1.96345E-01
 +4.12722E-02 -1.91815E-01 +8.49333E-02 -1.75580E-01 +1.23068E-01 -1.48665E-01 +1.53037E-01 -1.12864E-01
 +1.72768E-01 -7.06107E-02 +1.80900E-01 -2.48097E-02 +1.76889E-01 +2.13703E-02 +1.61050E-01 +6.47234E-02
 +1.34535E-01 +1.02236E-01 +9.92551E-02 +1.31304E-01 +5.77454E-02 +1.49919E-01 +1.29819E-02 +1.56813E-01
 -3.18283E-02 +1.51550E-01 -7.34771E-02 +1.34558E-01 -1.08985E-01 +1.07098E-01 -1.35812E-01 +7.11731E-02
 -1.52042E-01 +2.93833E-02 -1.56515E-01 -1.52589E-02 -1.48911E-01 -5.95461E-02 -1.29767E-01 -1.00306E-01
 -1.00442E-01 -1.34626E-01 -6.30103E-02 -1.60064E-01 -2.01128E-02 -1.74819E-01 +2.52338E-02 -1.77857E-01
 +6.98568E-02 -1.68979E-01 +1.10655E-01 -1.48836E-01 +1.44821E-01 -1.18871E-01 +1.70041E-01 -8.12131E-02
 +1.84657E-01 -3.85197E-02 +1.87783E-01 +6.22143E-03 +1.79360E-01 +4.99089E-02 +1.60154E-01 +8.95534E-02
 +1.31695E-01 +1.22493E-01 +9.61563E-02 +1.46584E-01 +5.61907E-02 +1.60352E-01 +1.47320E-02 +1.63092E-01
 -2.52223E-02 +1.54914E-01 -6.08322E-02 +1.36725E-01 -8.96231E-02 +1.10157E-01 -1.09665E-01 +7.74350E-02
 -1.19710E-01 +4.12091E-02 -1.19281E-01 +4.35289E-03 -1.08696E-01 -3.02540E-02 -8.90419E-02 -5.99410E-02
 -6.20847E-02 -8.24457E-02 -3.01318E-02 -9.60813E-02 +4.14573E-03 -9.98608E-02 +3.79173E-02 -9.35665E-02
 +6.84083E-02 -7.77639E-02 +9.31107E-02 -5.37551E-02 +1.09973E-01 -2.34776E-02 +1.17554E-01 +1.06449E-02
 +1.15135E-01 +4.58869E-02 +1.02770E-01 +7.94296E-02 +8.12854E-02 +1.08575E-01 +5.22170E-02 +1.30952E-01
 +1.76936E-02 +1.44695E-01 -1.97220E-02 +1.48593E-01 -5.72259E-02 +1.42176E-01 -9.19856E-02 +1.25758E-01
 -1.21353E-01 +1.00417E-01 -1.43066E-01 +6.79171E-02 -1.55421E-01 +3.05767E-02 -1.57404E-01 -8.89956E-03
 -1.48773E-01 -4.76233E-02 -1.30077E-01 -8.27371E-02 -1.02624E-01 -1.11629E-01 -6.83851E-02 -1.32129E-01
 -2.98563E-02 -1.42674E-01 +1.01273E-02 -1.42427E-01 +4.85983E-02 -1.31347E-01 +8.26753E-02 -1.10194E-01
 +1.09778E-01 -8.04837E-02 +1.27817E-01 -4.43746E-02 +1.35355E-01 -4.51894E-03 +1.31713E-01 +3.61319E-02
 +1.17030E-01 +7.45402E-02 +9.22535E-02 +1.07805E-01 +5.90777E-02 +1.33373E-01 +1.98256E-02 +1.49229E-01
 -2.27173E-02 +1.54044E-01 -6.55021E-02 +1.47277E-01 -1.05436E-01 +1.29217E-01 -1.39604E-01 +1.00968E-01
 -1.65485E-01 +6.43717E-02 -1.81127E-01 +2.18784E-02 -1.85298E-01 -2.36267E-02 -1.77568E-01 -6.90293E-02
 -1.58350E-01 -1.11209E-01 -1.28866E-01 -1.47261E-01 -9.10629E-02 -1.74708E-01 -4.74734E-02 -1.91670E-01
 -1.03511E-03 -1.97006E-01 +4.51195E-02 -1.90390E-01 +8.78866E-02 -1.72335E-01 +1.24413E-01 -1.44151E-01
 +1.52298E-01 -1.07855E-01 +1.69764E-01 -6.60166E-02 +1.75781E-01 -2.15790E-02 +1.70133E-01 +2.23584E-02
 +1.53435E-01 +6.27606E-02 +1.27079E-01 +9.68754E-02 +9.31280E-02 +1.22428E-01 +5.41681E-02 +1.37785E-01
 +1.31120E-02 +1.42061E-01 -2.70108E-02 +1.35184E-01 -6.32758E-02 +1.17890E-01 -9.30749E-02 +9.16622E-02
 -1.14304E-01 +5.86208E-02 -1.25511E-01 +2.13589E-02 -1.25999E-01 -1.72496E-02 -1.15870E-01 -5.42627E-02
 -9.60104E-02 -8.68882E-02 -6.80193E-02 -1.12687E-01 -3.40862E-02 -1.29753E-01 +3.17702E-03 -1.36846E-01
 +4.09315E-02 -1.33482E-01 +7.63253E-02 -1.19962E-01 +1.06704E-01 -9.73468E-02 +1.29809E-01 -6.73698E-02
 +1.43943E-01 -3.23057E-02 +1.48093E-01 +5.20364E-03 +1.42004E-01 +4.23485E-02 +1.26192E-01 +7.63631E-02
 +1.01905E-01 +1.04733E-01 +7.10250E-02 +1.25382E-01 +3.59216E-02 +1.36830E-01 -7.23981E-04 +1.38298E-01
 -3.61245E-02 +1.29770E-01 -6.75961E-02 +1.11990E-01 -9.27620E-02 +8.64034E-02 -1.09731E-01 +5.50514E-02
 -1.17240E-01 +2.04126E-02 -1.14752E-01 -1.47821E-02 -1.02495E-01 -4.77568E-02 -8.14473E-02 -7.59000E-02
 -5.32660E-02 -9.69627E-02 -2.01622E-02 -1.09229E-01 +1.52626E-02 -1.11650E-01 +5.02119E-02 -1.03920E-01
 +8.19031E-02 -8.65110E-02 +1.07778E-01 -6.06348E-02 +1.25694E-01 -2.81597E-02 +1.34091E-01 +8.52655E-03
 +1.32109E-01 +4.66917E-02 +1.19656E-01 +8.34603E-02 +9.74233E-02 +1.16027E-01 +6.68390E-02 +1.41865E-01
 +2.99659E-02 +1.58915E-01 -1.06444E-02 +1.65743E-01 -5.21373E-02 +1.61644E-01 -9.15617E-02 +1.46707E-01
 -1.26086E-01 +1.21808E-01 -1.53207E-01 +8.85550E-02 -1.70932E-01 +4.91702E-02 -1.77929E-01 +6.33685E-03
 -1.73626E-01 -3.69961E-02 -1.58256E-01 -7.78257E-02 -1.32844E-01 -1.13312E-01 -9.91350E-02 -1.40985E-01
 -5.94727E-02 -1.58921E-01 -1.66292E-02 -1.65888E-01 +2.63917E-02 -1.61431E-01 +6.65713E-02 -1.45908E-01
 +1.01092E-01 -1.20469E-01 +1.27543E-01 -8.69646E-02 +1.44089E-01 -4.78231E-02 +1.49606E-01 -5.86956E-03
 +1.43761E-01 +3.58755E-02 +1.27032E-01 +7.44136E-02 +1.00678E-01 +1.06984E-01 +6.66397E-02 +1.31263E-01
 +2.74046E-02 +1.45527E-01 -1.41772E-02 +1.48779E-01 -5.50985E-02 +1.40814E-01 -9.24118E-02 +1.22235E-01
 -1.23443E-01 +9.44026E-02 -1.45980E-01 +5.93371E-02 -1.58436E-01 +1.95668E-02 -1.59955E-01 -2.20556E-02
 -1.50474E-01 -6.25616E-02 -1.30721E-01 -9.90824E-02 -1.02160E-01 -1.29056E-01 -6.68773E-02 -1.50413E-01
 -2.74285E-02 -1.61720E-01 +1.33520E-02 -1.62286E-01 +5.25588E-02 -1.52200E-01 +8.74291E-02 -1.32326E-01
 +1.15543E-01 -1.04232E-01 +1.34998E-01 -7.00668E-02 +1.44547E-01 -3.24032E-02 +1.43683E-01 +5.95763E-03
 +1.32673E-01 +4.21937E-02 +1.12532E-01 +7.36706E-02 +8.49422E-02 +9.81361E-02 +5.21257E-02 +1.13884E-01
 +1.66729E-02 +1.19878E-01 -1.86505E-02 +1.15826E-01 -5.11124E-02 +1.02196E-01 -7.82181E-02 +8.01776E-02
 -9.78963E-02 +5.15910E-02 -1.08653E-01 +1.87461E-02 -1.09682E-01 -1.57317E-02 -1.00924E-01 -4.91010E-02
 -8.30671E-02 -7.87103E-02 -5.74978E-02 -1.02198E-01 -2.61925E-02 -1.17671E-01 +8.43028E-03 -1.23846E-01
 +4.36923E-02 -1.20146E-01 +7.68573E-02 -1.06748E-01 +1.05337E-01 -8.45665E-02 +1.26886E-01 -5.51882E-02
 +1.39772E-01 -2.07543E-02 +1.42908E-01 +1.61984E-02 +1.35932E-01 +5.29277E-02 +1.19243E-01 +8.66894E-02
 +9.39698E-02 +1.14944E-01 +6.18911E-02 +1.35545E-01 +2.53052E-02 +1.46903E-01 -1.31382E-02 +1.48107E-01
 -5.06339E-02 +1.38993E-01 -8.44285E-02 +1.20159E-01 -1.12025E-01 +9.29289E-02 -1.31368E-01 +5.92540E-02
 -1.40999E-01 +2.15734E-02 -1.40167E-01 -1.73648E-02 -1.28884E-01 -5.47031E-02 -1.07933E-01 -8.76856E-02
 -7.88090E-02 -1.13860E-01 -4.36159E-02 -1.31260E-01 -4.91264E-03 -1.38550E-01 +3.44709E-02 -1.35127E-01
 +7.16400E-02 -1.21167E-01 +1.03846E-01 -9.76153E-02 +1.28688E-01 -6.61182E-02 +1.44288E-01 -2.89097E-02
 +1.49428E-01 +1.13530E-02 +1.43643E-01 +5.17787E-02 +1.27255E-01 +8.94535E-02 +1.01351E-01 +1.21650E-01
 +6.77068E-02 +1.46026E-01 +2.86592E-02 +1.60796E-01 -1.30629E-02 +1.64856E-01 -5.45348E-02 +1.57871E-01
 -9.28469E-02 +1.40291E-01 -1.25315E-01 +1.13326E-01 -1.49672E-01 +7.88534E-02 -1.64236E-01 +3.92828E-02
 -1.68022E-01 -2.61708E-03 -1.60821E-01 -4.39206E-02 -1.43204E-01 -8.17550E-02 -1.16488E-01 -1.13509E-01
 -8.26289E-02 -1.37020E-01 -4.40849E-02 -1.50727E-01 -3.63261E-03 -1.53785E-01 +3.58334E-02 -1.46117E-01
 +7.15123E-02 -1.28423E-01 +1.00899E-01 -1.02118E-01 +1.21965E-01 -6.92312E-02 +1.33303E-01 -3.22517E-02
 +1.34228E-01 +6.05495E-03 +1.24820E-01 +4.28498E-02 +1.05915E-01 +7.54294E-02 +7.90416E-02 +1.01422E-01
 +4.63017E-02 +1.18962E-01 +1.02137E-02 +1.26821E-01 -2.64746E-02 +1.24498E-01 -6.09909E-02 +1.12249E-01
 -9.07423E-02 +9.10670E-02 -1.13507E-01 +6.26039E-02 -1.27597E-01 +2.90445E-02 -1.31981E-01 -7.05787E-03
 -1.26356E-01 -4.29718E-02 -1.11170E-01 -7.59926E-02 -8.75849E-02 -1.03642E-01 -5.73861E-02 -1.23854E-01
 -2.28488E-02 -1.35124E-01 +1.34328E-02 -1.36624E-01 +4.87409E-02 -1.28259E-01 +8.04359E-02 -1.10674E-01
 +1.06155E-01 -8.52035E-02 +1.23986E-01 -5.37735E-02 +1.32613E-01 -1.87531E-02 +1.31411E-01 +1.72199E-02
 +1.20493E-01 +5.14385E-02 +1.00705E-01 +8.13271E-02 +7.35559E-02 +1.04636E-01 +4.11124E-02 +1.19606E-01
 +5.84050E-03 +1.25108E-01 -2.95775E-02 +1.20717E-01 -6.24418E-02 +1.06757E-01 -9.02382E-02 +8.42665E-02
 -1.10824E-01 +5.49327E-02 -1.22593E-01 +2.09607E-02 -1.24589E-01 -1.50868E-02 -1.16587E-01 -5.04799E-02
 -9.91075E-02 -8.25234E-02 -7.33824E-02 -1.08758E-01 -4.12641E-02 -1.27141E-01 -5.09269E-03 -1.36205E-01
 +3.24770E-02 -1.35161E-01 +6.86688E-02 -1.23965E-01 +1.00791E-01 -1.03322E-01 +1.26435E-01 -7.46373E-02
 +1.43651E-01 -3.99147E-02 +1.51096E-01 -1.61364E-03 +1.48133E-01 +3.75314E-02 +1.34882E-01 +7.47095E-02
 +1.12209E-01 +1.07239E-01 +8.16709E-02 +1.32762E-01 +4.53986E-02 +1.49422E-01 +5.94601E-03 +1.55994E-01
