 Created: 26-Mar-2021
 $NMID
 ID='D:\BASISSIMULATI'
 FMTDAT='(8E13.5)'
 VOLUME=   1.00000E+00
 TRAMP=   1.00000E+00
 $END
 +1.21563E-01 -1.42739E-08 +1.15528E-01 +5.88704E-03 +9.84044E-02 +1.30693E-02 +7.27264E-02 +2.23789E-02
 +4.21867E-02 +3.38391E-02 +1.09692E-02 +4.65375E-02 -1.69784E-02 +5.87526E-02 -3.85852E-02 +6.83096E-02
 -5.20875E-02 +7.30832E-02 -5.71752E-02 +7.15283E-02 -5.48467E-02 +6.31090E-02 -4.70287E-02 +4.85187E-02
 -3.60650E-02 +2.96330E-02 -2.41992E-02 +9.19839E-03 -1.31711E-02 -9.67866E-03 -4.00506E-03 -2.41298E-02
 +2.98202E-03 -3.20785E-02 +7.98390E-03 -3.26287E-02 +1.13975E-02 -2.62045E-02 +1.35071E-02 -1.44179E-02
 +1.42603E-02 +2.98985E-04 +1.32041E-02 +1.52066E-02 +9.60438E-03 +2.77963E-02 +2.71576E-03 +3.62342E-02
 -7.87522E-03 +3.96167E-02 -2.19353E-02 +3.79964E-02 -3.83986E-02 +3.21912E-02 -5.53796E-02 +2.34449E-02
 -7.04075E-02 +1.30385E-02 -8.08457E-02 +1.96085E-03 -8.44115E-02 -9.27529E-03 -7.96788E-02 -2.06282E-02
 -6.64446E-02 -3.23434E-02 -4.58654E-02 -4.46520E-02 -2.03202E-02 -5.74477E-02 +6.98158E-03 -7.00466E-02
 +3.25709E-02 -8.11153E-02 +5.33474E-02 -8.88103E-02 +6.71319E-02 -9.11156E-02 +7.30233E-02 -8.63089E-02
 +7.14869E-02 -7.34487E-02 +6.41580E-02 -5.27593E-02 +5.34148E-02 -2.58058E-02 +4.18195E-02 +4.60434E-03
 +3.15611E-02 +3.47971E-02 +2.40251E-02 +6.08229E-02 +1.95841E-02 +7.91499E-02 +1.76487E-02 +8.73169E-02
 +1.69547E-02 +8.44078E-02 +1.60045E-02 +7.12451E-02 +1.35472E-02 +5.02559E-02 +8.97296E-03 +2.50373E-02
 +2.52031E-03 -2.90646E-04 -4.75524E-03 -2.18124E-02 -1.12448E-02 -3.64763E-02 -1.52148E-02 -4.25579E-02
 -1.52933E-02 -3.98441E-02 -1.08899E-02 -2.95193E-02 -2.43983E-03 -1.37988E-02 +8.59237E-03 +4.59234E-03
 +1.99613E-02 +2.29702E-02 +2.90867E-02 +3.91506E-02 +3.35985E-02 +5.17246E-02 +3.18544E-02 +6.01113E-02
 +2.33123E-02 +6.44067E-02 +8.67162E-03 +6.50958E-02 -1.02494E-02 +6.27275E-02 -3.08686E-02 +5.76511E-02
 -5.03453E-02 +4.98949E-02 -6.61209E-02 +3.92169E-02 -7.63721E-02 +2.53110E-02 -8.02816E-02 +8.10228E-03
 -7.80739E-02 -1.19637E-02 -7.08256E-02 -3.37351E-02 -6.01090E-02 -5.53450E-02 -4.75696E-02 -7.44114E-02
 -3.45471E-02 -8.84175E-02 -2.18350E-02 -9.51997E-02 -9.63354E-03 -9.34306E-02 +2.30348E-03 -8.29811E-02
 +1.43788E-02 -6.50660E-02 +2.68099E-02 -4.21210E-02 +3.93412E-02 -1.74239E-02 +5.11030E-02 +5.47308E-03
 +6.06715E-02 +2.33826E-02 +6.63330E-02 +3.40591E-02 +6.64946E-02 +3.65912E-02 +6.01466E-02 +3.15238E-02
 +4.72545E-02 +2.06882E-02 +2.89736E-02 +6.77894E-03 +7.61178E-03 -7.22434E-03 -1.36750E-02 -1.86615E-02
 -3.14074E-02 -2.56902E-02 -4.24262E-02 -2.75722E-02 -4.45203E-02 -2.46956E-02 -3.69023E-02 -1.83419E-02
 -2.04248E-02 -1.02663E-02 +2.51656E-03 -2.20296E-03 +2.83800E-02 +4.58050E-03 +5.30964E-02 +9.57074E-03
 +7.27837E-02 +1.30718E-02 +8.44133E-02 +1.60354E-02 +8.62958E-02 +1.97079E-02 +7.82947E-02 +2.51914E-02
 +6.17412E-02 +3.30348E-02 +3.90826E-02 +4.29660E-02 +1.33576E-02 +5.38383E-02 -1.23806E-02 +6.38121E-02
 -3.55663E-02 +7.07336E-02 -5.44511E-02 +7.26213E-02 -6.82089E-02 +6.81456E-02 -7.68235E-02 +5.69831E-02
 -8.08178E-02 +3.99605E-02 -8.09170E-02 +1.89473E-02 -7.77497E-02 -3.47872E-03 -7.16700E-02 -2.45198E-02
 -6.27452E-02 -4.16889E-02 -5.09040E-02 -5.32634E-02 -3.61889E-02 -5.85606E-02 -1.90282E-02 -5.79804E-02
 -4.29311E-04 -5.28138E-02 +1.79822E-02 -4.48737E-02 +3.41167E-02 -3.60429E-02 +4.57533E-02 -2.78544E-02
 +5.09855E-02 -2.12032E-02 +4.86777E-02 -1.62550E-02 +3.88189E-02 -1.25646E-02 +2.26761E-02 -9.35992E-03
 +2.69045E-03 -5.90792E-03 -1.78811E-02 -1.85411E-03 -3.55187E-02 +2.56306E-03 -4.70766E-02 +6.49001E-03
 -5.03736E-02 +8.64383E-03 -4.46083E-02 +7.66560E-03 -3.05101E-02 +2.55374E-03 -1.01915E-02 -6.93639E-03
 +1.32681E-02 -2.00380E-02 +3.64151E-02 -3.49449E-02 +5.60657E-02 -4.90384E-02 +6.98632E-02 -5.93374E-02
 +7.66349E-02 -6.30841E-02 +7.64817E-02 -5.83382E-02 +7.05968E-02 -4.44490E-02 +6.08700E-02 -2.22934E-02
 +4.93820E-02 +5.78290E-03 +3.79132E-02 +3.63170E-02 +2.75825E-02 +6.53086E-02 +1.86956E-02 +8.89108E-02
 +1.08262E-02 +1.04091E-01 +3.09678E-03 +1.09128E-01 -5.42649E-03 +1.03855E-01 -1.53339E-02 +8.95946E-02
 -2.65785E-02 +6.88336E-02 -3.83693E-02 +4.47001E-02 -4.92836E-02 +2.03747E-02 -5.75733E-02 -1.44162E-03
 -6.15906E-02 -1.88963E-02 -6.02258E-02 -3.11305E-02 -5.32444E-02 -3.81957E-02 -4.14355E-02 -4.07926E-02
 -2.65261E-02 -3.99204E-02 -1.08758E-02 -3.65404E-02 +2.98307E-03 -3.13443E-02 +1.28546E-02 -2.46814E-02
 +1.73211E-02 -1.66524E-02 +1.60154E-02 -7.32462E-03 +9.66305E-03 +3.00921E-03 -1.12790E-04 +1.36230E-02
 -1.11733E-02 +2.32808E-02 -2.13403E-02 +3.03383E-02 -2.88522E-02 +3.30190E-02 -3.26936E-02 +2.98106E-02
 -3.27249E-02 +1.98888E-02 -2.95893E-02 +3.45890E-03 -2.44314E-02 -1.80833E-02 -1.85078E-02 -4.22328E-02
 -1.27961E-02 -6.57073E-02 -7.70835E-03 -8.49758E-02 -2.98729E-03 -9.68848E-02 +2.18514E-03 -9.92520E-02
 +8.89306E-03 -9.12991E-02 +1.80822E-02 -7.38286E-02 +3.01534E-02 -4.91006E-02 +4.46680E-02 -2.04307E-02
 +6.02518E-02 +8.40719E-03 +7.47416E-02 +3.38513E-02 +8.55571E-02 +5.31552E-02 +9.02220E-02 +6.48027E-02
 +8.69236E-02 +6.86572E-02 +7.49790E-02 +6.58270E-02 +5.50963E-02 +5.82928E-02 +2.93622E-02 +4.83946E-02
 +9.44057E-04 +3.83012E-02 -2.64373E-02 +2.95834E-02 -4.91594E-02 +2.29815E-02 -6.43403E-02 +1.84063E-02
 -7.03373E-02 +1.51538E-02 -6.70033E-02 +1.22615E-02 -5.56522E-02 +8.90356E-03 -3.87506E-02 +4.71423E-03
 -1.94108E-02 -4.77206E-05 -7.99096E-04 -4.53713E-03 +1.44135E-02 -7.55234E-03 +2.44463E-02 -7.89484E-03
 +2.85828E-02 -4.76153E-03 +2.71073E-02 +1.93752E-03 +2.10483E-02 +1.14259E-02 +1.18106E-02 +2.21215E-02
 +8.01890E-04 +3.19081E-02 -1.08516E-02 +3.85587E-02 -2.24348E-02 +4.02158E-02 -3.36024E-02 +3.58143E-02
 -4.41972E-02 +2.53449E-02 -5.40018E-02 +9.89356E-03 -6.25132E-02 -8.55580E-03 -6.88266E-02 -2.75126E-02
 -7.16807E-02 -4.44742E-02 -6.96748E-02 -5.74110E-02 -6.16141E-02 -6.51308E-02 -4.68995E-02 -6.74419E-02
 -2.58591E-02 -6.50833E-02 +8.00839E-05 -5.94468E-02 +2.84441E-02 -5.21669E-02 +5.60074E-02 -4.46834E-02
 +7.92874E-02 -3.78893E-02 +9.51482E-02 -3.19515E-02 +1.01387E-01 -2.63478E-02 +9.71812E-02 -2.01072E-02
 +8.32839E-02 -1.21899E-02 +6.19331E-02 -1.90300E-03 +3.64696E-02 +1.07600E-02 +1.07485E-02 +2.49529E-02
 -1.15426E-02 +3.90379E-02 -2.75164E-02 +5.08730E-02 -3.55452E-02 +5.82655E-02 -3.54571E-02 +5.94911E-02
 -2.84409E-02 +5.37525E-02 -1.66944E-02 +4.14667E-02 -2.90408E-03 +2.43015E-02 +1.03195E-02 +4.94191E-03
 +2.09286E-02 -1.33741E-02 +2.77441E-02 -2.74552E-02 +3.05295E-02 -3.47662E-02 +2.98377E-02 -3.39168E-02
 +2.66904E-02 -2.49267E-02 +2.21854E-02 -9.21156E-03 +1.71440E-02 +1.07009E-02 +1.18879E-02 +3.16606E-02
 +6.20255E-03 +5.04807E-02 -5.09991E-04 +6.44934E-02 -8.93936E-03 +7.19633E-02 -1.95207E-02 +7.22817E-02
 -3.21370E-02 +6.59197E-02 -4.59598E-02 +5.41739E-02 -5.94834E-02 +3.87850E-02 -7.07572E-02 +2.15311E-02
 -7.77698E-02 +3.89818E-03 -7.88952E-02 -1.31008E-02 -7.32934E-02 -2.89286E-02 -6.11652E-02 -4.33716E-02
 -4.37914E-02 -5.62959E-02 -2.33380E-02 -6.74024E-02 -2.46564E-03 -7.60668E-02 +1.61732E-02 -8.13284E-02
 +3.04370E-02 -8.20466E-02 +3.90843E-02 -7.71954E-02 +4.19621E-02 -6.62213E-02 +3.99543E-02 -4.93681E-02
 +3.47064E-02 -2.78671E-02 +2.81965E-02 -3.92223E-03 +2.22564E-02 +1.95357E-02 +1.81607E-02 +3.92976E-02
 +1.63777E-02 +5.24427E-02 +1.65413E-02 +5.69083E-02 +1.76428E-02 +5.19366E-02 +1.83891E-02 +3.82942E-02
 +1.76312E-02 +1.82044E-02 +1.47513E-02 -5.00346E-03 +9.90228E-03 -2.74659E-02 +4.03674E-03 -4.54651E-02
 -1.29182E-03 -5.60789E-02 -4.30965E-03 -5.76709E-02 -3.49569E-03 -5.01256E-02 +1.96999E-03 -3.47874E-02
 +1.18961E-02 -1.41279E-02 +2.49918E-02 +8.77611E-03 +3.90338E-02 +3.08374E-02 +5.12595E-02 +4.94955E-02
 +5.89076E-02 +6.30891E-02 +5.97872E-02 +7.09985E-02 +5.27496E-02 +7.35490E-02 +3.79592E-02 +7.17247E-02
 +1.69007E-02 +6.67808E-02 -7.87668E-03 +5.98623E-02 -3.32238E-02 +5.17281E-02 -5.59608E-02 +4.26439E-02
 -7.34303E-02 +3.24619E-02 -8.39186E-02 +2.08496E-02 -8.68645E-02 +7.59370E-03 -8.28249E-02 -7.11747E-03
 -7.32260E-02 -2.25239E-02 -5.99708E-02 -3.72952E-02 -4.50091E-02 -4.97190E-02 -2.99710E-02 -5.80375E-02
 -1.59464E-02 -6.08556E-02 -3.44706E-03 -5.75157E-02 +7.46062E-03 -4.83426E-02 +1.69101E-02 -3.46849E-02
 +2.49631E-02 -1.87301E-02 +3.14025E-02 -3.12290E-03 +3.56598E-02 +9.53427E-03 +3.69096E-02 +1.71895E-02
 +3.43110E-02 +1.87442E-02 +2.73345E-02 +1.42584E-02 +1.60808E-02 +4.91167E-03 +1.49417E-03 -7.27175E-03
 -1.46081E-02 -1.98695E-02 -2.97251E-02 -3.05768E-02 -4.10626E-02 -3.76730E-02 -4.60534E-02 -4.03337E-02
 -4.28998E-02 -3.87204E-02 -3.10151E-02 -3.38358E-02 -1.12588E-02 -2.71863E-02 +1.41011E-02 -2.03415E-02
 +4.17065E-02 -1.45031E-02 +6.76542E-02 -1.01924E-02 +8.81632E-02 -7.13430E-03 +1.00231E-01 -4.36705E-03
 +1.02146E-01 -5.49117E-04 +9.37543E-02 +5.61472E-03 +7.64333E-02 +1.49371E-02 +5.27808E-02 +2.74149E-02
 +2.60990E-02 +4.20892E-02 -2.18545E-04 +5.71411E-02 -2.32620E-02 +7.02122E-02 -4.10319E-02 +7.88793E-02
 -5.26384E-02 +8.11793E-02 -5.82546E-02 +7.60621E-02 -5.88598E-02 +6.36666E-02 -5.58553E-02 +4.53536E-02
 -5.06575E-02 +2.34848E-02 -4.43724E-02 +9.95149E-04 -3.76234E-02 -1.91486E-02 -3.05636E-02 -3.44846E-02
 -2.30476E-02 -4.34738E-02 -1.48990E-02 -4.57141E-02 -6.18303E-03 -4.19147E-02 +2.60546E-03 -3.36494E-02
 +1.05047E-02 -2.29587E-02 +1.62218E-02 -1.19007E-02 +1.84168E-02 -2.15688E-03 +1.60641E-02 +5.22018E-03
 +8.79901E-03 +9.87102E-03 -2.85133E-03 +1.20093E-02 -1.74222E-02 +1.21692E-02 -3.26832E-02 +1.09029E-02
 -4.60047E-02 +8.52380E-03 -5.48453E-02 +4.97141E-03 -5.72582E-02 -1.59015E-04 -5.22998E-02 -7.42796E-03
 -4.02471E-02 -1.72574E-02 -2.25701E-02 -2.96166E-02 -1.65887E-03 -4.37849E-02 +1.96349E-02 -5.82749E-02
 +3.85440E-02 -7.09601E-02 +5.28989E-02 -7.94028E-02 +6.14959E-02 -8.13218E-02 +6.42436E-02 -7.51027E-02
 +6.20619E-02 -6.02330E-02 +5.65659E-02 -3.75535E-02 +4.96171E-02 -9.25476E-03 +4.28526E-02 +2.13995E-02
 +3.73067E-02 +5.05798E-02 +3.32128E-02 +7.45325E-02 +3.00304E-02 +9.02293E-02 +2.66817E-02 +9.58919E-02
