 Created: 26-Mar-2021
 $NMID
 ID='D:\BASISSIMULATI'
 FMTDAT='(8E13.5)'
 VOLUME=   1.00000E+00
 TRAMP=   1.00000E+00
 $END
 +6.60741E-02 +3.02265E-07 +6.45944E-02 +1.30162E-02 +6.02721E-02 +2.53183E-02 +5.33774E-02 +3.62459E-02
 +4.43380E-02 +4.52311E-02 +3.37089E-02 +5.18363E-02 +2.21338E-02 +5.57823E-02 +1.03002E-02 +5.69651E-02
 -1.10787E-03 +5.54605E-02 -1.14569E-02 +5.15154E-02 -2.02065E-02 +4.55282E-02 -2.69453E-02 +3.80169E-02
 -3.14165E-02 +2.95809E-02 -3.35333E-02 +2.08560E-02 -3.33805E-02 +1.24680E-02 -3.12044E-02 +4.98758E-03
 -2.73910E-02 -1.11065E-03 -2.24341E-02 -5.48113E-03 -1.68956E-02 -7.93071E-03 -1.13614E-02 -8.43039E-03
 -6.39596E-03 -7.11470E-03 -2.49870E-03 -4.26891E-03 -6.55877E-05 -3.04924E-04 +6.41228E-04 +4.27215E-03
 -4.86417E-04 +8.90441E-03 -3.39422E-03 +1.30254E-02 -7.86922E-03 +1.61052E-02 -1.35556E-02 +1.76921E-02
 -1.99814E-02 +1.74498E-02 -2.65939E-02 +1.51844E-02 -3.28015E-02 +1.08623E-02 -3.80183E-02 +4.61505E-03
 -4.17095E-02 -3.26702E-03 -4.34321E-02 -1.23540E-02 -4.28705E-02 -2.21053E-02 -3.98617E-02 -3.19075E-02
 -3.44106E-02 -4.11172E-02 -2.66928E-02 -4.91072E-02 -1.70454E-02 -5.53112E-02 -5.94525E-03 -5.92646E-02
 +6.02163E-03 -6.06387E-02 +1.81997E-02 -5.92648E-02 +2.99078E-02 -5.51477E-02 +4.04860E-02 -4.84665E-02
 +4.93398E-02 -3.95632E-02 +5.59809E-02 -2.89203E-02 +6.00600E-02 -1.71279E-02 +6.13897E-02 -4.84408E-03
 +5.99562E-02 +7.25038E-03 +5.59189E-02 +1.84975E-02 +4.95976E-02 +2.83064E-02 +4.14485E-02 +3.61926E-02
 +3.20314E-02 +4.18092E-02 +2.19690E-02 +4.49682E-02 +1.19030E-02 +4.56504E-02 +2.44854E-03 +4.40031E-02
 -5.84791E-03 +4.03260E-02 -1.25462E-02 +3.50463E-02 -1.73414E-02 +2.86847E-02 -2.00829E-02 +2.18157E-02
 -2.07815E-02 +1.50236E-02 -1.96052E-02 +8.85901E-03 -1.68630E-02 +3.79804E-03 -1.29786E-02 +2.07383E-04
 -8.45570E-03 -1.68192E-03 -3.83784E-03 -1.79042E-03 +3.34749E-04 -1.94792E-04 +3.56762E-03 +2.87958E-03
 +5.45097E-03 +7.07705E-03 +5.69205E-03 +1.19400E-02 +4.13865E-03 +1.69450E-02 +7.91981E-04 +2.15434E-02
 -4.19197E-03 +2.52047E-02 -1.05128E-02 +2.74580E-02 -1.77467E-02 +2.79295E-02 -2.53773E-02 +2.63730E-02
 -3.28332E-02 +2.26909E-02 -3.95298E-02 +1.69442E-02 -4.49128E-02 +9.35152E-03 -4.84995E-02 +2.75570E-04
 -4.99153E-02 -9.80002E-03 -4.89227E-02 -2.03035E-02 -4.54405E-02 -3.06143E-02 -3.95518E-02 -4.01055E-02
 -3.15007E-02 -4.81882E-02 -2.16770E-02 -5.43521E-02 -1.05911E-02 -5.82013E-02 +1.16030E-03 -5.94826E-02
 +1.29342E-02 -5.81027E-02 +2.40848E-02 -5.41351E-02 +3.40066E-02 -4.78147E-02 +4.21758E-02 -3.95216E-02
 +4.81842E-02 -2.97545E-02 +5.17662E-02 -1.90959E-02 +5.28150E-02 -8.17208E-03 +5.13873E-02 +2.39049E-03
 +4.76972E-02 +1.20075E-02 +4.20984E-02 +2.01761E-02 +3.50569E-02 +2.65085E-02 +2.71161E-02 +3.07558E-02
 +1.88570E-02 +3.28229E-02 +1.08555E-02 +3.27715E-02 +3.64154E-03 +3.08115E-02 -2.33861E-03 +2.72827E-02
 -6.75305E-03 +2.26262E-02 -9.40641E-03 +1.73494E-02 -1.02516E-02 +1.19862E-02 -9.39037E-03 +7.05625E-03
 -7.06298E-03 +3.02456E-03 -3.62743E-03 +2.66738E-04 +4.69934E-04 -9.59499E-04 +4.73023E-03 -5.33557E-04
 +8.64168E-03 +1.51920E-03 +1.17201E-02 +5.02968E-03 +1.35471E-02 +9.69811E-03 +1.38038E-02 +1.51170E-02
 +1.22962E-02 +2.08021E-02 +8.97214E-03 +2.62294E-02 +3.92727E-03 +3.08753E-02 -2.60015E-03 +3.42566E-02
 -1.02448E-02 +3.59680E-02 -1.85394E-02 +3.57142E-02 -2.69477E-02 +3.33335E-02 -3.49028E-02 +2.88126E-02
 -4.18471E-02 +2.22900E-02 -4.72737E-02 +1.40486E-02 -5.07620E-02 +4.49831E-03 -5.20095E-02 -5.85159E-03
 -5.08542E-02 -1.64263E-02 -4.72869E-02 -2.66247E-02 -4.14534E-02 -3.58604E-02 -3.36457E-02 -4.36020E-02
 -2.42820E-02 -4.94093E-02 -1.38793E-02 -5.29628E-02 -3.01761E-03 -5.40859E-02 +7.69897E-03 -5.27551E-02
 +1.76833E-02 -4.91014E-02 +2.64048E-02 -4.33993E-02 +3.34244E-02 -3.60471E-02 +3.84231E-02 -2.75375E-02
 +4.12221E-02 -1.84227E-02 +4.17919E-02 -9.27526E-03 +4.02520E-02 -6.48002E-04 +3.68586E-02 +6.96407E-03
 +3.19839E-02 +1.31574E-02 +2.60865E-02 +1.76463E-02 +1.96765E-02 +2.02808E-02 +1.32773E-02 +2.10543E-02
 +7.38613E-03 +2.01003E-02 +2.43844E-03 +1.76797E-02 -1.22414E-03 +1.41580E-02 -3.37764E-03 +9.97566E-03
 -3.93094E-03 +5.61279E-03 -2.93080E-03 +1.55156E-03 -5.56603E-04 -1.76154E-03 +2.89494E-03 -3.95039E-03
 +7.03373E-03 -4.73840E-03 +1.14072E-02 -3.97015E-03 +1.55360E-02 -1.62378E-03 +1.89514E-02 +2.18664E-03
 +2.12321E-02 +7.21902E-03 +2.20375E-02 +1.31208E-02 +2.11353E-02 +1.94546E-02 +1.84204E-02 +2.57309E-02
 +1.39253E-02 +3.14437E-02 +7.81964E-03 +3.61091E-02 +4.00354E-04 +3.93006E-02 -7.92827E-03 +4.06825E-02
 -1.66821E-02 +4.00349E-02 -2.53304E-02 +3.72718E-02 -3.33335E-02 +3.24491E-02 -4.01801E-02 +2.57626E-02
 -4.54235E-02 +1.75359E-02 -4.87132E-02 +8.19907E-03 -4.98198E-02 -1.74002E-03 -4.86509E-02 -1.17300E-02
 -4.52583E-02 -2.12137E-02 -3.98339E-02 -2.96654E-02 -3.26968E-02 -3.66267E-02 -2.42707E-02 -4.17371E-02
 -1.50550E-02 -4.47575E-02 -5.58977E-03 -4.55852E-02 +3.58120E-03 -4.42591E-02 +1.19474E-02 -4.09549E-02
 +1.90661E-02 -3.59710E-02 +2.45915E-02 -2.97054E-02 +2.82966E-02 -2.26263E-02 +3.00868E-02 -1.52377E-02
 +3.00030E-02 -8.04289E-03 +2.82162E-02 -1.50893E-03 +2.50112E-02 +3.96633E-03 +2.07638E-02 +8.08144E-03
 +1.59109E-02 +1.06512E-02 +1.09161E-02 +1.16180E-02 +6.23491E-03 +1.10529E-02 +2.28011E-03 +9.14833E-03
 -6.09224E-04 +6.20064E-03 -2.19264E-03 +2.58600E-03 -2.34584E-03 -1.26996E-03 -1.06930E-03 -4.92581E-03
 +1.51251E-03 -7.95906E-03 +5.16125E-03 -9.99919E-03 +9.54329E-03 -1.07568E-02 +1.42556E-02 -1.00467E-02
 +1.88566E-02 -7.80271E-03 +2.29001E-02 -4.08412E-03 +2.59698E-02 +9.27526E-04 +2.77111E-02 +6.94070E-03
 +2.78591E-02 +1.35744E-02 +2.62597E-02 +2.03853E-02 +2.28830E-02 +2.68998E-02 +1.78269E-02 +3.26480E-02
 +1.13126E-02 +3.71983E-02 +3.66989E-03 +4.01884E-02 -4.68451E-03 +4.13527E-02 -1.32754E-02 +4.05415E-02
 -2.16019E-02 +3.77331E-02 -2.91715E-02 +3.30362E-02 -3.55348E-02 +2.66831E-02 -4.03157E-02 +1.90144E-02
 -4.32376E-02 +1.04559E-02 -4.41420E-02 +1.48959E-03 -4.29988E-02 -7.37916E-03 -3.99077E-02 -1.56561E-02
 -3.50903E-02 -2.28912E-02 -2.88738E-02 -2.87092E-02 -2.16675E-02 -3.28336E-02 -1.39333E-02 -3.51044E-02
 -6.15356E-03 -3.54868E-02 +1.20276E-03 -3.40718E-02 +7.71243E-03 -3.10666E-02 +1.30265E-02 -2.67779E-02
 +1.68933E-02 -2.15883E-02 +1.91741E-02 -1.59265E-02 +1.98502E-02 -1.02360E-02 +1.90217E-02 -4.94231E-03
 +1.68974E-02 -4.21876E-04 +1.37763E-02 +3.02446E-03 +1.00239E-02 +5.19252E-03 +6.04287E-03 +5.98834E-03
 +2.24182E-03 +5.43337E-03 -9.96344E-04 +3.66104E-03 -3.34369E-03 +9.05075E-04 -4.55215E-03 -2.51972E-03
 -4.47243E-03 -6.24250E-03 -3.06524E-03 -9.86561E-03 -4.04346E-04 -1.29956E-02 +3.32897E-03 -1.52738E-02
 +7.85936E-03 -1.64047E-02 +1.28381E-02 -1.61789E-02 +1.78689E-02 -1.44898E-02 +2.25380E-02 -1.13437E-02
 +2.64447E-02 -6.85961E-03 +2.92316E-02 -1.26287E-03 +3.06121E-02 +5.13075E-03 +3.03916E-02 +1.19367E-02
 +2.84837E-02 +1.87286E-02 +2.49171E-02 +2.50686E-02 +1.98352E-02 +3.05381E-02 +1.34871E-02 +3.47677E-02
 +6.21112E-03 +3.74636E-02 -1.58822E-03 +3.84283E-02 -9.46776E-03 +3.75746E-02 -1.69760E-02 +3.49323E-02
 -2.36841E-02 +3.06460E-02 -2.92147E-02 +2.49648E-02 -3.32681E-02 +1.82255E-02 -3.56412E-02 +1.08285E-02
 -3.62412E-02 +3.21053E-03 -3.50902E-02 -4.18569E-03 -3.23226E-02 -1.09416E-02 -2.81738E-02 -1.66913E-02
 -2.29626E-02 -2.11454E-02 -1.70674E-02 -2.41099E-02 -1.08987E-02 -2.54977E-02 -4.86981E-03 -2.53324E-02
 +6.32737E-04 -2.37439E-02 +5.27583E-03 -2.09571E-02 +8.80263E-03 -1.72731E-02 +1.10494E-02 -1.30457E-02
 +1.19553E-02 -8.65428E-03 +1.15648E-02 -4.47496E-03 +1.00218E-02 -8.52744E-04 +7.55707E-03 +1.92399E-03
 +4.46907E-03 +3.64436E-03 +1.10010E-03 +4.18994E-03 -2.19066E-03 +3.54264E-03 -5.05509E-03 +1.78506E-03
 -7.18305E-03 -9.06670E-04 -8.32625E-03 -4.27703E-03 -8.31743E-03 -8.01108E-03 -7.08340E-03 -1.17589E-02
 -4.65094E-03 -1.51622E-02 -1.14536E-03 -1.78825E-02 +3.21840E-03 -1.96263E-02 +8.15124E-03 -2.01683E-02
 +1.33109E-02 -1.93689E-02 +1.83269E-02 -1.71854E-02 +2.28276E-02 -1.36768E-02 +2.64676E-02 -8.99985E-03
 +2.89527E-02 -3.39944E-03 +3.00619E-02 +2.80840E-03 +2.96640E-02 +9.25828E-03 +2.77270E-02 +1.55609E-02
 +2.43218E-02 +2.13300E-02 +1.96174E-02 +2.62098E-02 +1.38693E-02 +2.98990E-02 +7.40254E-03 +3.21724E-02
 +5.89030E-04 +3.28956E-02 -6.17799E-03 +3.20344E-02 -1.25109E-02 +2.96566E-02 -1.80538E-02 +2.59263E-02
 -2.25072E-02 +2.10922E-02 -2.56468E-02 +1.54695E-02 -2.73388E-02 +9.41744E-03 -2.75469E-02 +3.31394E-03
 -2.63337E-02 -2.47064E-03 -2.38543E-02 -7.59917E-03 -2.03436E-02 -1.17904E-02 -1.60979E-02 -1.48378E-02
 -1.14531E-02 -1.66220E-02 -6.75948E-03 -1.71178E-02 -2.35626E-03 -1.63936E-02 +1.45271E-03 -1.46041E-02
 +4.42038E-03 -1.19774E-02 +6.37347E-03 -8.79612E-03 +7.22385E-03 -5.37546E-03 +6.97342E-03 -2.03888E-03
 +5.71240E-03 +9.06595E-04 +3.61100E-03 +3.19338E-03 +9.05354E-04 +4.61331E-03 -2.12144E-03 +5.03293E-03
 -5.16144E-03 +4.40312E-03 -7.90589E-03 +2.76237E-03 -1.00689E-02 +2.33479E-04 -1.14096E-02 -2.98602E-03
 -1.17505E-02 -6.63891E-03 -1.09913E-02 -1.04278E-02 -9.11723E-03 -1.40375E-02 -6.20007E-03 -1.71589E-02
 -2.39402E-03 -1.95117E-02 +2.07540E-03 -2.08664E-02 +6.92725E-03 -2.10606E-02 +1.18453E-02 -2.00125E-02
 +1.65006E-02 -1.77269E-02 +2.05752E-02 -1.42957E-02 +2.37848E-02 -9.89207E-03 +2.58989E-02 -4.75875E-03
 +2.67580E-02 +8.08945E-04 +2.62839E-02 +6.48334E-03 +2.44863E-02 +1.19272E-02 +2.14615E-02 +1.68172E-02
 +1.73859E-02 +2.08658E-02 +1.25032E-02 +2.38412E-02 +7.10789E-03 +2.55827E-02 +1.52413E-03 +2.60113E-02
 -3.91643E-03 +2.51341E-02 -8.89756E-03 +2.30428E-02 -1.31399E-02 +1.99064E-02 -1.64197E-02 +1.59583E-02
 -1.85831E-02 +1.14790E-02 -1.95557E-02 +6.77581E-03 -1.93463E-02 +2.16080E-03 -1.80441E-02 -2.07112E-03
 -1.58109E-02 -5.66273E-03 -1.28680E-02 -8.41194E-03 -9.47877E-03 -1.01850E-02 -5.92878E-03 -1.09248E-02
 -2.50434E-03 -1.06529E-02 +5.28426E-04 -9.46667E-03 +2.94297E-03 -7.53010E-03 +4.56835E-03 -5.06047E-03
 +5.30112E-03 -2.31094E-03 +5.11195E-03 +4.49150E-04 +4.04682E-03 +2.95499E-03 +2.22250E-03 +4.96639E-03
