 Created: 26-Mar-2021
 $NMID
 ID='D:\BASISSIMULATI'
 FMTDAT='(8E13.5)'
 VOLUME=   1.00000E+00
 TRAMP=   1.00000E+00
 $END
 +1.04196E-01 -2.56789E-08 +1.00997E-01 +2.54873E-02 +9.16621E-02 +4.94097E-02 +7.67619E-02 +7.03140E-02
 +5.72057E-02 +8.69319E-02 +3.41851E-02 +9.82559E-02 +9.10124E-03 +1.03601E-01 -1.65200E-02 +1.02647E-01
 -4.11210E-02 +9.54543E-02 -6.32075E-02 +8.24651E-02 -8.14386E-02 +6.44721E-02 -9.47087E-02 +4.25721E-02
 -1.02214E-01 +1.80985E-02 -1.03503E-01 -7.45973E-03 -9.85008E-02 -3.25485E-02 -8.75150E-02 -5.56434E-02
 -7.12172E-02 -7.53419E-02 -5.06014E-02 -9.04491E-02 -2.69232E-02 -1.00050E-01 -1.62355E-03 -1.03564E-01
 +2.37589E-02 -1.00781E-01 +4.76814E-02 -9.18753E-02 +6.86909E-02 -7.73913E-02 +8.55126E-02 -5.82128E-02
 +9.71265E-02 -3.55084E-02 +1.02830E-01 -1.06602E-02 +1.02281E-01 +1.48202E-02 +9.55153E-02 +3.93840E-02
 +8.29491E-02 +6.15387E-02 +6.53495E-02 +7.99394E-02 +4.37892E-02 +9.34701E-02 +1.95812E-02 +1.01312E-01
 -5.80170E-03 +1.02991E-01 -3.08161E-02 +9.84097E-02 -5.39418E-02 +8.78505E-02 -7.37747E-02 +7.19586E-02
 -8.91113E-02 +5.17034E-02 -9.90226E-02 +2.83186E-02 -1.02909E-01 +3.22736E-03 -1.00539E-01 -2.20442E-02
 -9.20603E-02 -4.59602E-02 -7.79915E-02 -6.70679E-02 -5.91916E-02 -8.40862E-02 -3.68061E-02 -9.59834E-02
 -1.21977E-02 -1.02040E-01 +1.31366E-02 -1.01890E-01 +3.76565E-02 -9.55488E-02 +5.98725E-02 -8.34042E-02
 +7.84357E-02 -6.61982E-02 +9.22202E-02 -4.49797E-02 +1.00391E-01 -2.10409E-02 +1.02456E-01 +4.16172E-03
 +9.82922E-02 +2.90955E-02 +8.81574E-02 +5.22454E-02 +7.26711E-02 +7.22054E-02 +5.27779E-02 +8.77645E-02
 +2.96895E-02 +9.79799E-02 +4.81123E-03 +1.02234E-01 -2.03438E-02 +1.00272E-01 -4.42467E-02 +9.22173E-02
 -6.54453E-02 +7.85629E-02 -8.26532E-02 +6.01423E-02 -9.48269E-02 +3.80781E-02 -1.01230E-01 +1.37136E-02
 -1.01476E-01 -1.14692E-02 -9.55553E-02 -3.59390E-02 -8.38305E-02 -5.82093E-02 -6.70183E-02 -7.69278E-02
 -4.61434E-02 -9.09592E-02 -2.24773E-02 -9.94537E-02 +2.54004E-03 -1.01898E-01 +2.73873E-02 -9.81486E-02
 +5.05544E-02 -8.84360E-02 +7.06345E-02 -7.33548E-02 +8.64092E-02 -5.38248E-02 +9.69222E-02 -3.10359E-02
 +1.01538E-01 -6.37496E-03 +9.99801E-02 +1.86579E-02 +9.23466E-02 +4.25411E-02 +7.91055E-02 +6.38238E-02
 +6.10649E-02 +8.12141E-02 +3.93244E-02 +9.36577E-02 +1.52076E-02 +1.00401E-01 -9.81837E-03 +1.01039E-01
 -3.42319E-02 +9.55349E-02 -5.65496E-02 +8.42284E-02 -7.54164E-02 +6.78099E-02 -8.96878E-02 +4.72805E-02
 -9.84994E-02 +2.38904E-02 -1.01319E-01 -9.36887E-04 -9.79792E-02 -2.56917E-02 -8.86866E-02 -4.88695E-02
 -7.40099E-02 -6.90626E-02 -5.48443E-02 -8.50457E-02 -3.23576E-02 -9.58500E-02 -7.91836E-03 -1.00822E-01
 +1.69867E-02 -9.96636E-02 +4.08438E-02 -9.24486E-02 +6.22036E-02 -7.96195E-02 +7.97694E-02 -6.19595E-02
 +9.24761E-02 -4.05449E-02 +9.95546E-02 -1.66796E-02 +1.00578E-01 +8.18441E-03 +9.54881E-02 +3.25354E-02
 +8.45979E-02 +5.48937E-02 +6.85731E-02 +7.39018E-02 +4.83908E-02 +8.84064E-02 +2.52801E-02 +9.75290E-02
 +6.47498E-04 +1.00718E-01 -2.40090E-02 +9.77845E-02 -4.71908E-02 +8.89095E-02 -6.74900E-02 +7.46365E-02
 -8.36746E-02 +5.58364E-02 -9.47637E-02 +3.36545E-02 -1.00086E-01 +9.44122E-03 -9.93230E-02 -1.53307E-02
 -9.25235E-02 -3.91553E-02 -8.01052E-02 -6.05852E-02 -6.28261E-02 -7.83195E-02 -4.17396E-02 -9.12828E-02
 -1.81295E-02 -9.86900E-02 +6.56756E-03 -1.00095E-01 +3.08500E-02 -9.54151E-02 +5.32422E-02 -8.49395E-02
 +7.23845E-02 -6.93082E-02 +8.71155E-02 -4.94744E-02 +9.65427E-02 -2.66462E-02 +1.00097E-01 -2.21290E-03
 +9.75647E-02 +2.23395E-02 +8.91048E-02 +4.55188E-02 +7.52348E-02 +6.59171E-02 +5.68010E-02 +8.22964E-02
 +3.49267E-02 +9.36638E-02 +1.09434E-02 +9.93315E-02 -1.36900E-02 +9.89586E-02 -3.74758E-02 +9.25717E-02
 -5.89691E-02 +8.05627E-02 -7.68649E-02 +6.36649E-02 -9.00780E-02 +4.29084E-02 -9.78082E-02 +1.95571E-02
 -9.95891E-02 -4.96805E-03 -9.53163E-02 -2.91759E-02 -8.52532E-02 -5.15953E-02 -7.00151E-02 -7.08649E-02
 -5.05313E-02 -8.58155E-02 -2.79886E-02 -9.55412E-02 -3.75911E-03 -9.94542E-02 +2.06837E-02 -9.73202E-02
 +4.38540E-02 -8.92729E-02 +6.43445E-02 -7.58049E-02 +8.09116E-02 -5.77383E-02 +9.25507E-02 -3.61740E-02
 +9.85577E-02 -1.24246E-02 +9.85709E-02 +1.20649E-02 +9.25934E-02 +3.58058E-02 +8.09922E-02 +5.73557E-02
 +6.44759E-02 +7.54061E-02 +4.40513E-02 +8.88623E-02 +2.09623E-02 +9.69094E-02 -3.38614E-03 +9.90617E-02
 -2.75135E-02 +9.51920E-02 -4.99536E-02 +8.55393E-02 -6.93436E-02 +7.06940E-02 -8.45070E-02 +5.15615E-02
 -9.45248E-02 +2.93073E-02 -9.87916E-02 +5.28591E-03 -9.70514E-02 -1.90417E-02 -8.94140E-02 -4.21967E-02
 -7.63471E-02 -6.27726E-02 -5.86484E-02 -7.95205E-02 -3.73963E-02 -9.14250E-02 -1.38848E-02 -9.77655E-02
 +1.04558E-02 -9.81603E-02 +3.41456E-02 -9.25890E-02 +5.57453E-02 -8.13940E-02 +7.39435E-02 -6.52592E-02
 +8.76363E-02 -4.51684E-02 +9.59942E-02 -2.23450E-02 +9.85128E-02 +1.82206E-03 +9.50426E-02 +2.58632E-02
 +8.57982E-02 +4.83174E-02 +7.13451E-02 +6.78209E-02 +5.25651E-02 +8.31903E-02 +3.06022E-02 +9.34941E-02
 +6.79312E-03 +9.81092E-02 -1.74138E-02 +9.67587E-02 -4.05472E-02 +8.95284E-02 -6.12018E-02 +7.68615E-02
 -7.81237E-02 +5.95312E-02 -9.02870E-02 +3.85937E-02 -9.69554E-02 +1.53238E-02 -9.77270E-02 -8.86278E-03
 -9.25587E-02 -3.24956E-02 -8.17682E-02 -5.41385E-02 -6.60150E-02 -7.24776E-02 -4.62596E-02 -8.64002E-02
 -2.37050E-02 -9.50631E-02 +2.76020E-04 -9.79429E-02 +2.42252E-02 -9.48683E-02 +4.66871E-02 -8.60300E-02
 +6.62974E-02 -7.19686E-02 +8.18661E-02 -5.35421E-02 +9.24495E-02 -3.18731E-02 +9.74075E-02 -8.28055E-03
 +9.64424E-02 +1.58004E-02 +8.96165E-02 +3.89060E-02 +7.73483E-02 +5.96324E-02 +6.03870E-02 +7.67217E-02
 +3.97661E-02 +8.91373E-02 +1.67415E-02 +9.61278E-02 -7.28623E-03 +9.72716E-02 -3.08560E-02 +9.25029E-02
 -5.25357E-02 +8.21152E-02 -7.10088E-02 +6.67434E-02 -8.51547E-02 +4.73248E-02 -9.41163E-02 +2.50423E-02
 -9.73523E-02 +1.25175E-03 -9.46696E-02 -2.25999E-02 -8.62349E-02 -4.50631E-02 -7.25645E-02 -6.47734E-02
 -5.44925E-02 -8.05346E-02 -3.31200E-02 -9.13914E-02 -9.74800E-03 -9.66869E-02 +1.42017E-02 -9.61028E-02
 +3.72733E-02 -8.96784E-02 +5.80651E-02 -7.78077E-02 +7.53148E-02 -6.12156E-02 +8.79764E-02 -4.09135E-02
 +9.52831E-02 -1.81376E-02 +9.67943E-02 +5.72635E-03 +9.24218E-02 +2.92273E-02 +8.24350E-02 +5.09371E-02
 +6.74444E-02 +6.95376E-02 +4.83643E-02 +8.39001E-02 +2.63567E-02 +9.31546E-02 +2.76103E-03 +9.67416E-02
 -2.09876E-02 +9.44468E-02 -4.34457E-02 +8.64133E-02 -6.32493E-02 +7.31330E-02 -7.91964E-02 +5.54164E-02
 -9.03202E-02 +3.43428E-02 -9.59478E-02 +1.11953E-02 -9.57405E-02 -1.26181E-02 -8.97145E-02 -3.56496E-02
 -7.82399E-02 -5.65001E-02 -6.20174E-02 -7.39036E-02 -4.20358E-02 -8.68046E-02 -1.95121E-02 -9.44218E-02
 +4.18338E-03 -9.62957E-02 +2.76097E-02 -9.23159E-02 +4.93433E-02 -8.27281E-02 +6.80644E-02 -6.81183E-02
 +8.26370E-02 -4.93778E-02 +9.21781E-02 -2.76481E-02 +9.61110E-02 -4.25163E-03 +9.42002E-02 +1.93885E-02
 +8.65654E-02 +4.18354E-02 +7.36744E-02 +6.17257E-02 +5.63138E-02 +7.78520E-02 +3.55416E-02 +8.92366E-02
 +1.26223E-02 +9.51906E-02 -1.10497E-02 +9.53556E-02 -3.40352E-02 +8.97251E-02 -5.49378E-02 +7.86451E-02
 -7.24884E-02 +6.27922E-02 -8.56224E-02 +4.31331E-02 -9.35443E-02 +2.08648E-02 -9.57760E-02 -2.65755E-03
 -9.21855E-02 -2.60036E-02 -8.29945E-02 -4.77546E-02 -6.87652E-02 -6.65896E-02 -5.03655E-02 -8.13657E-02
 -2.89164E-02 -9.11875E-02 -5.72336E-03 -9.54610E-02 +1.78030E-02 -9.39302E-02 +4.02325E-02 -8.66916E-02
 +6.02028E-02 -7.41887E-02 +7.65017E-02 -5.71848E-02 +8.81408E-02 -3.67162E-02 +9.44158E-02 -1.40289E-02
 +9.49486E-02 +9.49678E-03 +8.97105E-02 +3.24305E-02 +7.90234E-02 +5.33788E-02 +6.35403E-02 +7.10698E-02
 +4.42052E-02 +8.44303E-02 +2.21956E-02 +9.26511E-02 -1.14908E-03 +9.52358E-02 -2.44093E-02 +9.20307E-02
 -4.61714E-02 +8.32345E-02 -6.51137E-02 +6.93851E-02 -8.00868E-02 +5.13274E-02 -9.01831E-02 +3.01616E-02
 -9.47921E-02 +7.17602E-03 -9.36371E-02 -1.62313E-02 -8.67919E-02 -3.86374E-02 -7.46762E-02 -5.86812E-02
 -5.80295E-02 -7.51460E-02 -3.78665E-02 -8.70334E-02 -1.54148E-02 -9.36238E-02 +7.95967E-03 -9.45200E-02
 +3.08357E-02 -8.96710E-02 +5.18233E-02 -7.93752E-02 +6.96481E-02 -6.42618E-02 +8.32287E-02 -4.52523E-02
 +9.17426E-02 -2.35045E-02 +9.46753E-02 -3.41807E-04 +9.18521E-02 +2.28271E-02 +8.34484E-02 +4.45941E-02
 +6.99782E-02 +6.36372E-02 +5.22636E-02 +7.88007E-02 +3.13836E-02 +8.91654E-02 +8.60943E-03 +9.41046E-02
 -1.46737E-02 +9.33213E-02 -3.70504E-02 +8.68668E-02 -5.71613E-02 +7.51370E-02 -7.37855E-02 +5.88480E-02
 -8.59148E-02 +3.89926E-02 -9.28150E-02 +1.67800E-02 -9.40699E-02 -6.43857E-03 -8.96068E-02 -2.92512E-02
 -7.97006E-02 -5.02718E-02 -6.49567E-02 -6.82238E-02 -4.62743E-02 -8.20182E-02 -2.47912E-02 -9.08191E-02
 -1.81491E-03 -9.40949E-02 +2.12573E-02 -9.16500E-02 +4.30230E-02 -8.36364E-02 +6.21603E-02 -7.05448E-02
 +7.75077E-02 -5.31740E-02 +8.81349E-02 -3.25823E-02 +9.33989E-02 -1.00234E-02 +9.29832E-02 +1.31305E-02
 +8.69166E-02 +3.54719E-02 +7.55713E-02 +5.56434E-02 +5.96403E-02 +7.24204E-02 +4.00945E-02 +8.47855E-02
 +1.81243E-02 +9.19899E-02 -4.93373E-03 +9.35989E-02 -2.76774E-02 +8.95184E-02 -4.87246E-02 +7.99999E-02
 -6.67973E-02 +6.56252E-02 -8.07990E-02 +4.72712E-02 -8.98813E-02 +2.60557E-02 -9.34952E-02 +3.27002E-03
 -9.14246E-02 -1.97001E-02 -8.37988E-02 -4.14585E-02 -7.10849E-02 -6.06836E-02 -5.40587E-02 -7.62085E-02
 -3.37577E-02 -8.70919E-02 -1.14178E-02 -9.26755E-02 +1.16020E-02 -9.26230E-02 +3.39022E-02 -8.69414E-02
 +5.41279E-02 -7.59793E-02 +7.10513E-02 -6.04064E-02 +8.36458E-02 -4.11721E-02 +9.11488E-02 -1.94475E-02
 +9.31073E-02 +3.44536E-03 +8.94060E-02 +2.61144E-02 +8.02732E-02 +4.71822E-02 +6.62675E-02 +6.53691E-02
 +4.82431E-02 +7.95717E-02 +2.72980E-02 +8.89294E-02 +4.70694E-03 +9.28764E-02 -1.81560E-02 +9.11763E-02
 -3.99010E-02 +8.39359E-02 -5.92074E-02 +7.15987E-02 -7.49033E-02 +5.49178E-02 -8.60370E-02 +3.49097E-02
 -9.19347E-02 +1.27925E-02 -9.22413E-02 -1.00883E-02 -8.69416E-02 -3.23416E-02 -7.63613E-02 -5.26153E-02
 -6.11467E-02 -6.96785E-02 -4.22253E-02 -8.24963E-02 -2.07496E-02 -9.02922E-02 +1.97369E-03 -9.25955E-02
