 Created: 26-Mar-2021
 $NMID
 ID='D:\BASISSIMULATI'
 FMTDAT='(8E13.5)'
 VOLUME=   1.00000E+00
 TRAMP=   1.00000E+00
 $END
 +6.84329E-02 -3.01962E-08 +6.63484E-02 +1.68333E-02 +6.01698E-02 +3.26321E-02 +5.02821E-02 +4.64131E-02
 +3.73024E-02 +5.73200E-02 +2.20419E-02 +6.46778E-02 +5.45319E-03 +6.80349E-02 -1.14293E-02 +6.71917E-02
 -2.75555E-02 +6.22123E-02 -4.19258E-02 +5.34199E-02 -5.36545E-02 +4.13758E-02 -6.20247E-02 +2.68423E-02
 -6.65335E-02 +1.07346E-02 -6.69226E-02 -5.93856E-03 -6.31929E-02 -2.21388E-02 -5.56035E-02 -3.68639E-02
 -4.46533E-02 -4.92107E-02 -3.10480E-02 -5.84320E-02 -1.56537E-02 -6.39819E-02 +5.58795E-04 -6.55490E-02
 +1.65762E-02 -6.30743E-02 +3.14075E-02 -5.67519E-02 +4.41457E-02 -4.70152E-02 +5.40250E-02 -3.45061E-02
 +6.04669E-02 -2.00331E-02 +6.31151E-02 -4.51769E-03 +6.18552E-02 +1.10649E-02 +5.68189E-02 +2.57482E-02
 +4.83723E-02 +3.86352E-02 +3.70900E-02 +4.89543E-02 +2.37151E-02 +5.61061E-02 +9.11045E-03 +5.96990E-02
 -5.79839E-03 +5.95705E-02 -2.00823E-02 +5.57939E-02 -3.28677E-02 +4.86698E-02 -4.33906E-02 +3.87029E-02
 -5.10434E-02 +2.65665E-02 -5.54102E-02 +1.30569E-02 -5.62894E-02 -9.59807E-04 -5.37025E-02 -1.46038E-02
 -4.78878E-02 -2.70378E-02 -3.92811E-02 -3.75189E-02 -2.84830E-02 -4.54442E-02 -1.62178E-02 -5.03857E-02
 -3.28392E-03 -5.21133E-02 +9.49836E-03 -5.06050E-02 +2.13399E-02 -4.60427E-02 +3.15319E-02 -3.87958E-02
 +3.94894E-02 -2.93925E-02 +4.47850E-02 -1.84815E-02 +4.71719E-02 -6.78776E-03 +4.65943E-02 +4.93666E-03
 +4.31857E-02 +1.59613E-02 +3.72541E-02 +2.56236E-02 +2.92572E-02 +3.33692E-02 +1.97678E-02 +3.87845E-02
 +9.43323E-03 +4.16183E-02 -1.06905E-03 +4.17923E-02 -1.10762E-02 +3.94008E-02 -1.99826E-02 +3.46979E-02
 -2.72768E-02 +2.80749E-02 -3.25716E-02 +2.00301E-02 -3.56240E-02 +1.11321E-02 -3.63456E-02 +1.97941E-03
 -3.48021E-02 -6.83986E-03 -3.12023E-02 -1.47860E-02 -2.58781E-02 -2.14016E-02 -1.92569E-02 -2.63379E-02
 -1.18293E-02 -2.93728E-02 -4.11293E-03 -3.04203E-02 +3.38340E-03 -2.95292E-02 +1.01935E-02 -2.68732E-02
 +1.59230E-02 -2.27330E-02 +2.02730E-02 -1.74714E-02 +2.30545E-02 -1.15040E-02 +2.41961E-02 -5.26787E-03
 +2.37422E-02 +8.09895E-04 +2.18428E-02 +6.34176E-03 +1.87370E-02 +1.10044E-02 +1.47307E-02 +1.45581E-02
 +1.01701E-02 +1.68583E-02 +5.41452E-03 +1.78603E-02 +8.08863E-04 +1.76164E-02 -3.34086E-03 +1.62649E-02
 -6.78799E-03 +1.40144E-02 -9.35994E-03 +1.11233E-02 -1.09665E-02 +7.87559E-03 -1.16012E-02 +4.55762E-03
 -1.13359E-02 +1.43439E-03 -1.03098E-02 -1.27038E-03 -8.71265E-03 -3.39006E-03 -6.76570E-03 -4.82540E-03
 -4.70009E-03 -5.54868E-03 -2.73582E-03 -5.60167E-03 -1.06233E-03 -5.08757E-03 +1.77304E-04 -4.15805E-03
 +8.97683E-04 -2.99637E-03 +1.07678E-03 -1.79821E-03 +7.55840E-04 -7.51928E-04 +3.34161E-05 -1.98222E-05
 -9.45681E-04 +2.77864E-04 -2.00568E-03 +7.49152E-05 -2.95794E-03 -6.33951E-04 -3.62030E-03 -1.79184E-03
 -3.83599E-03 -3.28423E-03 -3.49043E-03 -4.94891E-03 -2.52446E-03 -6.59060E-03 -9.42855E-04 -7.99891E-03
 +1.18286E-03 -8.96823E-03 +3.71745E-03 -9.31794E-03 +6.47091E-03 -8.91101E-03 +9.21258E-03 -7.66958E-03
 +1.16895E-02 -5.58601E-03 +1.36474E-02 -2.72834E-03 +1.48531E-02 +7.60456E-04 +1.51158E-02 +4.66961E-03
 +1.43062E-02 +8.73369E-03 +1.23715E-02 +1.26509E-02 +9.34495E-03 +1.61052E-02 +5.34850E-03 +1.87910E-02
 +5.89355E-04 +2.04379E-02 -4.65104E-03 +2.08341E-02 -1.00341E-02 +1.98462E-02 -1.51862E-02 +1.74347E-02
 -1.97254E-02 +1.36620E-02 -2.32887E-02 +8.69367E-03 -2.55605E-02 +2.79227E-03 -2.62982E-02 -3.69684E-03
 -2.53534E-02 -1.03662E-02 -2.26878E-02 -1.67724E-02 -1.83812E-02 -2.24659E-02 -1.26316E-02 -2.70230E-02
 -5.74664E-03 -3.00765E-02 +1.87279E-03 -3.13446E-02 +9.75663E-03 -3.06538E-02 +1.73953E-02 -2.79556E-02
 +2.42730E-02 -2.33357E-02 +2.99035E-02 -1.70123E-02 +3.38639E-02 -9.32739E-03 +3.58261E-02 -7.27519E-04
 +3.55828E-02 +8.26264E-03 +3.30653E-02 +1.70730E-02 +2.83532E-02 +2.51248E-02 +2.16735E-02 +3.18696E-02
 +1.33907E-02 +3.68264E-02 +3.98633E-03 +3.96165E-02 -5.96977E-03 +3.99910E-02 -1.58544E-02 +3.78520E-02
 -2.50311E-02 +3.32623E-02 -3.28916E-02 +2.64465E-02 -3.88968E-02 +1.77794E-02 -4.26142E-02 +7.76625E-03
 -4.37484E-02 -2.98837E-03 -4.21641E-02 -1.38172E-02 -3.78983E-02 -2.40326E-02 -3.11616E-02 -3.29714E-02
 -2.23283E-02 -4.00382E-02 -1.19152E-02 -4.47458E-02 -5.50692E-04 -4.67488E-02 +1.10640E-02 -4.58686E-02
 +2.21988E-02 -4.21081E-02 +3.21416E-02 -3.56545E-02 +4.02446E-02 -2.68702E-02 +4.59672E-02 -1.62722E-02
 +4.89125E-02 -4.50088E-03 +4.88546E-02 +7.71922E-03 +4.57558E-02 +1.96251E-02 +3.97713E-02 +3.04638E-02
 +3.12415E-02 +3.95407E-02 +2.06725E-02 +4.62652E-02 +8.70532E-03 +5.01890E-02 -3.92364E-03 +5.10372E-02
 -1.64290E-02 +4.87266E-02 -2.80259E-02 +4.33735E-02 -3.79803E-02 +3.52875E-02 -4.56565E-02 +2.49537E-02
 -5.05577E-02 +1.30023E-02 -5.23593E-02 +1.70389E-04 -5.09302E-02 -1.27453E-02 -4.63427E-02 -2.49384E-02
 -3.88680E-02 -3.56438E-02 -2.89610E-02 -4.41872E-02 -1.72311E-02 -5.00278E-02 -4.40445E-03 -5.27932E-02
 +8.72185E-03 -5.23037E-02 +2.13303E-02 -4.85838E-02 +3.26347E-02 -4.18613E-02 +4.19301E-02 -3.25526E-02
 +4.86376E-02 -2.12370E-02 +5.23409E-02 -8.61960E-03 +5.28125E-02 +4.51333E-03 +5.00281E-02 +1.73442E-02
 +4.41677E-02 +2.90758E-02 +3.56036E-02 +3.89818E-02 +2.48768E-02 +4.64526E-02 +1.26618E-02 +5.10331E-02
 -2.76474E-04 +5.24514E-02 -1.31311E-02 +5.06346E-02 -2.51045E-02 +4.57131E-02 -3.54588E-02 +3.80107E-02
 -4.35622E-02 +2.80234E-02 -4.89278E-02 +1.63870E-02 -5.12436E-02 +3.83556E-03 -5.03909E-02 -8.84506E-03
 -4.64501E-02 -2.08676E-02 -3.96942E-02 -3.14930E-02 -3.05694E-02 -4.00763E-02 -1.96658E-02 -4.61071E-02
 -7.67828E-03 -4.92395E-02 +4.63805E-03 -4.93129E-02 +1.65164E-02 -4.63597E-02 +2.72268E-02 -4.06010E-02
 +3.61213E-02 -3.24306E-02 +4.26745E-02 -2.23875E-02 +4.65143E-02 -1.11205E-02 +4.74437E-02 +6.54595E-04
 +4.54505E-02 +1.22011E-02 +4.07053E-02 +2.28081E-02 +3.35480E-02 +3.18349E-02 +2.44635E-02 +3.87504E-02
 +1.40487E-02 +4.31647E-02 +2.97281E-03 +4.48512E-02 -8.06596E-03 +4.37581E-02 -1.83853E-02 +4.00087E-02
 -2.73615E-02 +3.38894E-02 -3.44676E-02 +2.58293E-02 -3.93048E-02 +1.63698E-02 -4.16250E-02 +6.12786E-03
 -4.13433E-02 -4.24437E-03 -3.85395E-02 -1.41018E-02 -3.34495E-02 -2.28468E-02 -2.64466E-02 -2.99664E-02
 -1.80146E-02 -3.50623E-02 -8.71401E-03 -3.78734E-02 +8.54831E-04 -3.82888E-02 +1.00915E-02 -3.63512E-02
 +1.84333E-02 -3.22496E-02 +2.53901E-02 -2.63035E-02 +3.05734E-02 -1.89387E-02 +3.37183E-02 -1.06571E-02
 +3.46963E-02 -2.00277E-03 +3.35197E-02 +6.47467E-03 +3.03359E-02 +1.42548E-02 +2.54141E-02 +2.08791E-02
 +1.91237E-02 +2.59780E-02 +1.19074E-02 +2.92914E-02 +4.24996E-03 +3.06822E-02 -3.35413E-03 +3.01398E-02
 -1.04331E-02 +2.77770E-02 -1.65674E-02 +2.38174E-02 -2.14147E-02 +1.85770E-02 -2.47291E-02 +1.24401E-02
 -2.63732E-02 +5.83170E-03 -2.63223E-02 -8.12265E-04 -2.46615E-02 -7.07331E-03 -2.15752E-02 -1.25772E-02
 -1.73305E-02 -1.70165E-02 -1.22561E-02 -2.01677E-02 -6.71750E-03 -2.19018E-02 -1.09105E-03 -2.21886E-02
 +4.26137E-03 -2.10937E-02 +9.01587E-03 -1.87693E-02 +1.29063E-02 -1.54392E-02 +1.57389E-02 -1.13805E-02
 +1.74016E-02 -6.90167E-03 +1.78672E-02 -2.31978E-03 +1.71901E-02 +2.06156E-03 +1.54978E-02 +5.97230E-03
 +1.29779E-02 +9.19264E-03 +9.86116E-03 +1.15653E-02 +6.40271E-03 +1.30027E-02 +2.86216E-03 +1.34885E-02
 -5.15109E-04 +1.30743E-02 -3.51480E-03 +1.18715E-02 -5.96726E-03 +1.00385E-02 -7.75692E-03 +7.76641E-03
 -8.82716E-03 +5.26178E-03 -9.18038E-03 +2.73024E-03 -8.87354E-03 +3.60458E-04 -8.00970E-03 -1.68939E-03
 -6.72637E-03 -3.30198E-03 -5.18187E-03 -4.40743E-03 -3.54058E-03 -4.98560E-03 -1.95866E-03 -5.06426E-03
 -5.71048E-04 -4.71326E-03 +5.18990E-04 -4.03554E-03 +1.24718E-03 -3.15567E-03 +1.59180E-03 -2.20697E-03
 +1.57342E-03 -1.31846E-03 +1.25079E-03 -6.02608E-04 +7.13490E-04 -1.44950E-04 +7.19317E-05 +3.55331E-06
 -5.54338E-04 -1.69161E-04 -1.04901E-03 -6.35597E-04 -1.31096E-03 -1.33171E-03 -1.26480E-03 -2.16329E-03
 -8.68969E-04 -3.01525E-03 -1.20878E-04 -3.76278E-03 +9.41572E-04 -4.28377E-03 +2.24212E-03 -4.47101E-03
 +3.67187E-03 -4.24352E-03 +5.09806E-03 -3.55572E-03 +6.37538E-03 -2.40372E-03 +7.35867E-03 -8.28237E-04
 +7.91622E-03 +1.08643E-03 +7.94238E-03 +3.21713E-03 +7.36848E-03 +5.41014E-03 +6.17116E-03 +7.49244E-03
 +4.37722E-03 +9.28508E-03 +2.06465E-03 +1.06176E-02 -6.40543E-04 +1.13427E-02 -3.57145E-03 +1.13490E-02
 -6.53100E-03 +1.05727E-02 -9.30559E-03 +9.00485E-03 -1.16805E-02 +6.69567E-03 -1.34564E-02 +3.75369E-03
 -1.44649E-02 +3.40957E-04 -1.45830E-02 -3.33618E-03 -1.37443E-02 -7.04006E-03 -1.19472E-02 -1.05175E-02
 -9.25734E-03 -1.35173E-02 -5.80678E-03 -1.58087E-02 -1.78724E-03 -1.71984E-02 +2.56081E-03 -1.75463E-02
 +6.96297E-03 -1.67772E-02 +1.11288E-02 -1.48892E-02 +1.47713E-02 -1.19563E-02 +1.76270E-02 -8.12674E-03
 +1.94751E-02 -3.61487E-03 +2.01537E-02 +1.31067E-03 +1.95736E-02 +6.34369E-03 +1.77261E-02 +1.11599E-02
 +1.46865E-02 +1.54383E-02 +1.06115E-02 +1.88831E-02 +5.73128E-03 +2.12442E-02 +3.35903E-04 +2.23352E-02
 -5.24224E-03 +2.20479E-02 -1.06495E-02 +2.03612E-02 -1.55340E-02 +1.73451E-02 -1.95688E-02 +1.31579E-02
 -2.24743E-02 +8.03830E-03 -2.40378E-02 +2.29093E-03 -2.41285E-02 -3.73188E-03 -2.27084E-02 -9.65242E-03
 -1.98362E-02 -1.50918E-02 -1.56654E-02 -1.96946E-02 -1.04359E-02 -2.31529E-02 -4.46023E-03 -2.52265E-02
 +1.89602E-03 -2.57602E-02 +8.23692E-03 -2.46952E-02 +1.41614E-02 -2.20739E-02 +1.92893E-02 -1.80391E-02
 +2.32860E-02 -1.28257E-02 +2.58849E-02 -6.74696E-03 +2.69050E-02 -1.75157E-04 +2.62641E-02 +6.48184E-03
 +2.39846E-02 +1.28063E-02 +2.01934E-02 +1.83976E-02 +1.51143E-02 +2.28977E-02 +9.05519E-03 +2.60150E-02
 +2.38817E-03 +2.75430E-02 -4.47330E-03 +2.73746E-02 -1.11008E-02 +2.55094E-02 -1.70780E-02 +2.20541E-02
 -2.20279E-02 +1.72166E-02 -2.56361E-02 +1.12931E-02 -2.76720E-02 +4.64961E-03 -2.80034E-02 -2.30140E-03
 -2.66050E-02 -9.12678E-03 -2.35607E-02 -1.54004E-02 -1.90579E-02 -2.07303E-02 -1.33762E-02 -2.47834E-02
 -6.86946E-03 -2.73069E-02 +5.68064E-05 -2.81443E-02 +6.97095E-03 -2.72450E-02 +1.34427E-02 -2.46678E-02
