 Created: 26-Mar-2021
 $NMID
 ID='D:\BASISSIMULATI'
 FMTDAT='(8E13.5)'
 VOLUME=   1.00000E+00
 TRAMP=   1.00000E+00
 $END
 +8.22252E-02 -2.95126E-06 +7.19381E-02 +3.39874E-02 +4.54680E-02 +5.63466E-02 +1.25749E-02 +6.00702E-02
 -1.47836E-02 +4.51994E-02 -2.70097E-02 +1.87512E-02 -2.05046E-02 -8.01546E-03 +1.00054E-03 -2.39478E-02
 +2.79274E-02 -2.22913E-02 +4.85727E-02 -3.28345E-03 +5.36408E-02 +2.59432E-02 +3.98468E-02 +5.41070E-02
 +1.12114E-02 +7.01173E-02 -2.24472E-02 +6.73431E-02 -4.92448E-02 +4.61764E-02 -5.97548E-02 +1.39088E-02
 -5.05932E-02 -1.80280E-02 -2.56924E-02 -3.83999E-02 +5.21651E-03 -4.04250E-02 +3.03318E-02 -2.43170E-02
 +4.02859E-02 +2.84898E-03 +3.17033E-02 +2.98947E-02 +8.45237E-03 +4.58560E-02 -1.98840E-02 +4.42056E-02
 -4.17277E-02 +2.53608E-02 -4.79845E-02 -3.47867E-03 -3.55657E-02 -3.10996E-02 -8.60488E-03 -4.65846E-02
 +2.30971E-02 -4.35106E-02 +4.77974E-02 -2.24274E-02 +5.62816E-02 +9.32962E-03 +4.53654E-02 +4.04201E-02
 +1.90919E-02 +5.98031E-02 -1.28321E-02 +6.09190E-02 -3.87548E-02 +4.41485E-02 -4.95286E-02 +1.66131E-02
 -4.19844E-02 -1.06014E-02 -2.01034E-02 -2.67285E-02 +6.55569E-03 -2.54685E-02 +2.65674E-02 -7.41118E-03
 +3.10616E-02 +2.01915E-02 +1.71612E-02 +4.62126E-02 -1.08807E-02 +5.99242E-02 -4.32778E-02 +5.51221E-02
 -6.84266E-02 +3.25180E-02 -7.73180E-02 -5.10517E-04 -6.69548E-02 -3.27165E-02 -4.14704E-02 -5.32512E-02
 -1.05245E-02 -5.57691E-02 +1.44036E-02 -4.08009E-02 +2.44030E-02 -1.54910E-02 +1.65191E-02 +9.19378E-03
 -5.15333E-03 +2.27086E-02 -3.10846E-02 +1.90002E-02 -5.00075E-02 -1.15749E-03 -5.32780E-02 -3.04540E-02
 -3.82261E-02 -5.78437E-02 -9.21455E-03 -7.27804E-02 +2.39977E-02 -6.92635E-02 +4.99572E-02 -4.81442E-02
 +5.98648E-02 -1.68139E-02 +5.09054E-02 +1.36042E-02 +2.72896E-02 +3.24804E-02 -1.38863E-03 +3.37034E-02
 -2.38420E-02 +1.79657E-02 -3.14126E-02 -7.56013E-03 -2.13701E-02 -3.20233E-02 +2.07328E-03 -4.50960E-02
 +2.94151E-02 -4.09615E-02 +4.95434E-02 -2.05611E-02 +5.40309E-02 +8.75706E-03 +4.03973E-02 +3.60494E-02
 +1.30901E-02 +5.09678E-02 -1.81881E-02 +4.77236E-02 -4.21624E-02 +2.73066E-02 -5.02667E-02 -2.88600E-03
 -3.98843E-02 -3.18653E-02 -1.53120E-02 -4.92299E-02 +1.39171E-02 -4.91065E-02 +3.67021E-02 -3.23471E-02
 +4.46274E-02 -6.14598E-03 +3.51703E-02 +1.87688E-02 +1.26372E-02 +3.22887E-02 -1.35227E-02 +2.88280E-02
 -3.23763E-02 +9.48210E-03 -3.57314E-02 -1.83827E-02 -2.13070E-02 -4.39468E-02 +6.36215E-03 -5.70787E-02
 +3.76318E-02 -5.22144E-02 +6.14072E-02 -3.04883E-02 +6.93524E-02 +6.95286E-04 +5.90398E-02 +3.04817E-02
 +3.48369E-02 +4.86933E-02 +6.19884E-03 +4.96838E-02 -1.59756E-02 +3.44459E-02 -2.35228E-02 +1.01717E-02
 -1.41285E-02 -1.25588E-02 +7.81230E-03 -2.38789E-02 +3.29139E-02 -1.84494E-02 +5.04321E-02 +2.47149E-03
 +5.24147E-02 +3.14955E-02 +3.67795E-02 +5.79238E-02 +8.14209E-03 +7.18355E-02 -2.39200E-02 +6.78781E-02
 -4.84977E-02 +4.73106E-02 -5.74848E-02 +1.75194E-02 -4.86335E-02 -1.08001E-02 -2.63660E-02 -2.77157E-02
 -3.80532E-05 -2.78220E-02 +1.96738E-02 -1.22590E-02 +2.48738E-02 +1.17830E-02 +1.34664E-02 +3.38734E-02
 -1.00609E-02 +4.43853E-02 -3.63834E-02 +3.82194E-02 -5.49412E-02 +1.67837E-02 -5.80117E-02 -1.25283E-02
 -4.36931E-02 -3.91545E-02 -1.66568E-02 -5.33947E-02 +1.36140E-02 -5.01111E-02 +3.64224E-02 -3.06806E-02
 +4.39125E-02 -2.46012E-03 +3.40293E-02 +2.40287E-02 +1.12559E-02 +3.91104E-02 -1.51480E-02 +3.76270E-02
 -3.47236E-02 +2.08658E-02 -3.98342E-02 -3.98776E-03 -2.85871E-02 -2.66549E-02 -5.54216E-03 -3.77464E-02
 +2.00595E-02 -3.23931E-02 +3.78613E-02 -1.21351E-02 +4.03830E-02 +1.56508E-02 +2.59071E-02 +4.05623E-02
 -8.41536E-04 +5.31398E-02 -3.04803E-02 +4.84722E-02 -5.25297E-02 +2.80614E-02 -5.93845E-02 -7.63890E-04
 -4.91768E-02 -2.76539E-02 -2.64399E-02 -4.31846E-02 -3.25764E-04 -4.24328E-02 +1.89345E-02 -2.68146E-02
 +2.39657E-02 -3.48765E-03 +1.30734E-02 +1.74440E-02 -9.12196E-03 +2.68473E-02 -3.34766E-02 +2.00947E-02
 -4.98504E-02 -1.13657E-03 -5.10129E-02 -2.94865E-02 -3.54329E-02 -5.47124E-02 -7.88484E-03 -6.75914E-02
 +2.23544E-02 -6.34294E-02 +4.50248E-02 -4.38363E-02 +5.27676E-02 -1.60926E-02 +4.38904E-02 +9.64354E-03
 +2.29586E-02 +2.42143E-02 -1.00518E-03 +2.29396E-02 -1.80163E-02 +7.36445E-03 -2.09757E-02 -1.53853E-02
 -8.39500E-03 -3.53854E-02 +1.50415E-02 -4.37604E-02 +4.02864E-02 -3.61202E-02 +5.74116E-02 -1.42695E-02
 +5.94266E-02 +1.44610E-02 +4.49686E-02 +3.99998E-02 +1.88389E-02 +5.33662E-02 -9.81625E-03 +5.00811E-02
 -3.09786E-02 +3.18524E-02 -3.75523E-02 +5.89741E-03 -2.80290E-02 -1.78330E-02 -7.00892E-03 -3.04599E-02
 +1.66137E-02 -2.75529E-02 +3.30989E-02 -1.07875E-02 +3.56166E-02 +1.27438E-02 +2.28711E-02 +3.32964E-02
 -4.06966E-04 +4.22480E-02 -2.52844E-02 +3.54338E-02 -4.20596E-02 +1.47665E-02 -4.39891E-02 -1.24753E-02
 -2.98781E-02 -3.64136E-02 -4.54756E-03 -4.83282E-02 +2.29966E-02 -4.39661E-02 +4.29858E-02 -2.51382E-02
 +4.85899E-02 +1.00000E-03 +3.84818E-02 +2.47038E-02 +1.72896E-02 +3.73674E-02 -6.22899E-03 +3.47982E-02
 -2.25827E-02 +1.87845E-02 -2.52081E-02 -3.63512E-03 -1.29929E-02 -2.29151E-02 +9.30113E-03 -3.07000E-02
 +3.28718E-02 -2.30570E-02 +4.82582E-02 -2.00762E-03 +4.89727E-02 +2.52254E-02 +3.39909E-02 +4.89608E-02
 +8.15099E-03 +6.07378E-02 -1.96844E-02 +5.65223E-02 -3.99966E-02 +3.82157E-02 -4.62149E-02 +1.28956E-02
 -3.71804E-02 -9.91295E-03 -1.75308E-02 -2.18865E-02 +4.13210E-03 -1.90718E-02 +1.85829E-02 -3.36578E-03
 +1.95359E-02 +1.82555E-02 +6.06700E-03 +3.64534E-02 -1.70305E-02 +4.31432E-02 -4.10859E-02 +3.46223E-02
 -5.68766E-02 +1.30133E-02 -5.81620E-02 -1.45261E-02 -4.40726E-02 -3.85190E-02 -1.94444E-02 -5.07662E-02
 +7.02431E-03 -4.74469E-02 +2.60818E-02 -3.05406E-02 +3.14283E-02 -7.03141E-03 +2.20770E-02 +1.37915E-02
 +2.67420E-03 +2.38986E-02 -1.83369E-02 +1.95822E-02 -3.19966E-02 +2.84832E-03 -3.22919E-02 -1.93906E-02
 -1.84760E-02 -3.80023E-02 +4.64063E-03 -4.51670E-02 +2.85330E-02 -3.73993E-02 +4.42267E-02 -1.69044E-02
 +4.57308E-02 +9.24706E-03 +3.23262E-02 +3.18028E-02 +8.83635E-03 +4.28403E-02 -1.62166E-02 +3.87607E-02
 -3.38573E-02 +2.16240E-02 -3.80607E-02 -1.67964E-03 -2.80111E-02 -2.20965E-02 -8.35822E-03 -3.18858E-02
 +1.26181E-02 -2.75748E-02 +2.62247E-02 -1.12627E-02 +2.67155E-02 +1.02192E-02 +1.35085E-02 +2.79602E-02
 -8.58546E-03 +3.44149E-02 -3.12048E-02 +2.63177E-02 -4.56372E-02 +5.95228E-03 -4.61499E-02 -1.97046E-02
 -3.21761E-02 -4.16309E-02 -8.52423E-03 -5.21820E-02 +1.64617E-02 -4.79765E-02 +3.40821E-02 -3.11454E-02
 +3.85796E-02 -8.47312E-03 +2.92961E-02 +1.12308E-02 +1.08681E-02 +2.05185E-02 -8.60519E-03 +1.61489E-02
 -2.07105E-02 +3.05651E-04 -1.99760E-02 -2.02722E-02 -5.98596E-03 -3.69055E-02 +1.64516E-02 -4.23283E-02
 +3.91411E-02 -3.34935E-02 +5.36320E-02 -1.27577E-02 +5.44428E-02 +1.30034E-02 +4.11463E-02 +3.50034E-02
 +1.85200E-02 +4.58750E-02 -5.28695E-03 +4.24467E-02 -2.18624E-02 +2.69072E-02 -2.57230E-02 +5.91973E-03
 -1.63677E-02 -1.19648E-02 +1.58483E-03 -1.96010E-02 +2.02210E-02 -1.39833E-02 +3.14095E-02 +2.62117E-03
 +2.99491E-02 +2.35679E-02 +1.55812E-02 +4.04089E-02 -6.90046E-03 +4.61524E-02 -2.94777E-02 +3.79577E-02
 -4.39675E-02 +1.82369E-02 -4.51394E-02 -6.25482E-03 -3.26982E-02 -2.69833E-02 -1.13783E-02 -3.68701E-02
 +1.08780E-02 -3.29587E-02 +2.59558E-02 -1.74950E-02 +2.86493E-02 +2.98113E-03 +1.86137E-02 +2.01786E-02
 +4.45128E-04 +2.72502E-02 -1.81314E-02 +2.14163E-02 -2.92653E-02 +5.01408E-03 -2.80185E-02 -1.54213E-02
 -1.42757E-02 -3.16847E-02 +7.20097E-03 -3.70637E-02 +2.85872E-02 -2.89225E-02 +4.19804E-02 -9.72149E-03
 +4.24074E-02 +1.39133E-02 +2.97056E-02 +3.37076E-02 +8.56374E-03 +4.28747E-02 -1.32857E-02 +3.86693E-02
 -2.80234E-02 +2.33875E-02 -3.07143E-02 +3.43735E-03 -2.11571E-02 -1.31550E-02 -3.91073E-03 -1.98407E-02
 +1.35030E-02 -1.40593E-02 +2.35238E-02 +1.79346E-03 +2.14801E-02 +2.13045E-02 +7.39764E-03 +3.65220E-02
 -1.39988E-02 +4.10176E-02 -3.50838E-02 +3.23599E-02 -4.82365E-02 +1.30524E-02 -4.87361E-02 -1.04147E-02
 -3.65424E-02 -3.00303E-02 -1.62856E-02 -3.92969E-02 +4.52358E-03 -3.56727E-02 +1.83691E-02 -2.14908E-02
 +2.05880E-02 -3.01292E-03 +1.11181E-02 +1.20114E-02 -5.52655E-03 +1.73381E-02 -2.20338E-02 +1.06271E-02
 -3.11367E-02 -5.67064E-03 -2.84274E-02 -2.52679E-02 -1.40649E-02 -4.04670E-02 +7.27325E-03 -4.51195E-02
 +2.81692E-02 -3.69870E-02 +4.12872E-02 -1.86012E-02 +4.21558E-02 +3.69940E-03 +3.08485E-02 +2.21800E-02
 +1.19243E-02 +3.06400E-02 -7.33946E-03 +2.67423E-02 -1.97380E-02 +1.28538E-02 -2.08829E-02 -4.91427E-03
 -1.08488E-02 -1.90909E-02 +5.89916E-03 -2.37339E-02 +2.22616E-02 -1.67146E-02 +3.12628E-02 -5.27571E-04
 +2.87504E-02 +1.86783E-02 +1.50030E-02 +3.34675E-02 -5.36531E-03 +3.79737E-02 -2.51590E-02 +3.01474E-02
 -3.73377E-02 +1.25391E-02 -3.76836E-02 -8.67449E-03 -2.63822E-02 -2.60425E-02 -7.91763E-03 -3.36640E-02
 +1.06691E-02 -2.94036E-02 +2.24833E-02 -1.56562E-02 +2.34041E-02 +1.62410E-03 +1.36319E-02 +1.52476E-02
 -2.43072E-03 +1.95708E-02 -1.79083E-02 +1.26680E-02 -2.61226E-02 -2.93579E-03 -2.31768E-02 -2.12425E-02
 -9.46349E-03 -3.50890E-02 +1.04744E-02 -3.88950E-02 +2.96703E-02 -3.07982E-02 +4.13813E-02 -1.33629E-02
 +4.16396E-02 +7.40212E-03 +3.07345E-02 +2.43323E-02 +1.30650E-02 +3.18232E-02 -4.57258E-03 +2.79328E-02
 -1.55973E-02 +1.50715E-02 -1.61538E-02 -9.75475E-04 -6.56051E-03 -1.33090E-02 +8.85147E-03 -1.65878E-02
 +2.34382E-02 -9.08666E-03 +3.08221E-02 +6.64399E-03 +2.73590E-02 +2.47628E-02 +1.35485E-02 +3.83809E-02
 -6.14649E-03 +4.22004E-02 -2.49952E-02 +3.45368E-02 -3.65539E-02 +1.79553E-02 -3.71003E-02 -1.71560E-03
 -2.70181E-02 -1.76072E-02 -1.06094E-02 -2.44154E-02 +5.58448E-03 -2.03894E-02 +1.53019E-02 -7.94953E-03
 +1.49533E-02 +7.29354E-03 +4.97152E-03 +1.87334E-02 -1.03893E-02 +2.13283E-02 -2.47196E-02 +1.35457E-02
 -3.19404E-02 -2.04949E-03 -2.86522E-02 -1.97826E-02 -1.54487E-02 -3.30449E-02 +3.30180E-03 -3.68207E-02
 +2.11164E-02 -2.95973E-02 +3.18580E-02 -1.39307E-02 +3.20511E-02 +4.54113E-03 +2.21706E-02 +1.92521E-02
 +6.41665E-03 +2.52001E-02 -8.92745E-03 +2.08224E-02 -1.79183E-02 +8.54351E-03 -1.72255E-02 -6.20600E-03
