 Created: 26-Mar-2021
 $NMID
 ID='D:\BASISSIMULATI'
 FMTDAT='(8E13.5)'
 VOLUME=   1.00000E+00
 TRAMP=   1.00000E+00
 $END
 +1.28743E-01 +6.28783E-05 +1.16861E-01 -3.12034E-02 +8.43218E-02 -5.20014E-02 +3.93040E-02 -5.49045E-02
 -7.09179E-03 -3.75599E-02 -4.38372E-02 -3.36699E-03 -6.29026E-02 +3.94480E-02 -6.13078E-02 +8.00881E-02
 -4.17477E-02 +1.08132E-01 -1.16514E-02 +1.16341E-01 +1.90287E-02 +1.02562E-01 +4.06505E-02 +7.02116E-02
 +4.65387E-02 +2.72544E-02 +3.47342E-02 -1.60123E-02 +8.38368E-03 -4.97156E-02 -2.52887E-02 -6.69411E-02
 -5.70903E-02 -6.53630E-02 -7.84265E-02 -4.75706E-02 -8.35993E-02 -2.00665E-02 -7.12244E-02 +8.71792E-03
 -4.44242E-02 +3.07943E-02 -9.81150E-03 +4.07087E-02 +2.43913E-02 +3.68028E-02 +5.05349E-02 +2.13601E-02
 +6.34239E-02 -3.21355E-04 +6.14152E-02 -2.15937E-02 +4.65061E-02 -3.63526E-02 +2.34789E-02 -4.06255E-02
 -1.58157E-03 -3.34546E-02 -2.29402E-02 -1.69033E-02 -3.65770E-02 +4.72669E-03 -4.09393E-02 +2.61748E-02
 -3.69597E-02 +4.26023E-02 -2.74349E-02 +5.06980E-02 -1.60240E-02 +4.92597E-02 -6.19055E-03 +3.91773E-02
 -3.78287E-04 +2.29218E-02 +4.03955E-04 +3.75750E-03 -3.44009E-03 -1.50643E-02 -1.04536E-02 -3.09257E-02
 -1.86485E-02 -4.21658E-02 -2.60098E-02 -4.81154E-02 -3.08586E-02 -4.89313E-02 -3.20334E-02 -4.53543E-02
 -2.89256E-02 -3.84941E-02 -2.14485E-02 -2.96844E-02 -1.00122E-02 -2.03893E-02 +4.46547E-03 -1.21041E-02
 +2.05404E-02 -6.19012E-03 +3.62848E-02 -3.62806E-03 +4.94644E-02 -4.73463E-03 +5.78832E-02 -8.93942E-03
 +5.98584E-02 -1.47389E-02 +5.47116E-02 -1.99110E-02 +4.31193E-02 -2.19986E-02 +2.71722E-02 -1.89702E-02
 +1.00571E-02 -9.88595E-03 -4.61289E-03 +4.64224E-03 -1.36775E-02 +2.23735E-02 -1.52863E-02 +3.98265E-02
 -9.47888E-03 +5.30777E-02 +1.71154E-03 +5.87815E-02 +1.47045E-02 +5.51338E-02 +2.52844E-02 +4.24924E-02
 +2.97482E-02 +2.34460E-02 +2.59711E-02 +2.27132E-03 +1.40802E-02 -1.61057E-02 -3.47808E-03 -2.73767E-02
 -2.25213E-02 -2.89993E-02 -3.82251E-02 -2.09005E-02 -4.64329E-02 -5.52519E-03 -4.48169E-02 +1.27990E-02
 -3.35609E-02 +2.90155E-02 -1.53646E-02 +3.86951E-02 +5.23994E-03 +3.92212E-02 +2.30735E-02 +3.04757E-02
 +3.36721E-02 +1.48381E-02 +3.44503E-02 -3.49457E-03 +2.53505E-02 -1.96706E-02 +8.80845E-03 -2.95016E-02
 -1.09391E-02 -3.05713E-02 -2.90023E-02 -2.28378E-02 -4.11165E-02 -8.58216E-03 -4.47056E-02 +8.26035E-03
 -3.94545E-02 +2.31813E-02 -2.72653E-02 +3.22854E-02 -1.16409E-02 +3.32610E-02 +3.30563E-03 +2.58913E-02
 +1.39321E-02 +1.19999E-02 +1.79500E-02 -5.11660E-03 +1.48960E-02 -2.15846E-02 +6.10719E-03 -3.39234E-02
 -5.75081E-03 -3.98380E-02 -1.74383E-02 -3.86544E-02 -2.59631E-02 -3.13273E-02 -2.92594E-02 -2.00689E-02
 -2.65795E-02 -7.73079E-03 -1.85425E-02 +2.88253E-03 -6.87665E-03 +9.60594E-03 +6.04346E-03 +1.12952E-02
 +1.77350E-02 +7.95244E-03 +2.61008E-02 +6.13972E-04 +2.97950E-02 -8.93852E-03 +2.84182E-02 -1.85630E-02
 +2.25397E-02 -2.61639E-02 +1.35667E-02 -3.00635E-02 +3.48891E-03 -2.92932E-02 -5.46705E-03 -2.37769E-02
 -1.12364E-02 -1.43756E-02 -1.23192E-02 -2.77481E-03 -8.12171E-03 +8.79548E-03 +8.36932E-04 +1.79843E-02
 +1.29265E-02 +2.28285E-02 +2.56554E-02 +2.22450E-02 +3.61567E-02 +1.63835E-02 +4.18326E-02 +6.72291E-03
 +4.10147E-02 -4.15946E-03 +3.34676E-02 -1.31369E-02 +2.05763E-02 -1.72983E-02 +5.12221E-03 -1.47468E-02
 -9.33994E-03 -5.21310E-03 -1.93747E-02 +9.71309E-03 -2.26044E-02 +2.68418E-02 -1.84287E-02 +4.21096E-02
 -8.30019E-03 +5.16123E-02 +4.56343E-03 +5.26750E-02 +1.59908E-02 +4.46563E-02 +2.19968E-02 +2.92351E-02
 +1.99429E-02 +1.00632E-02 +9.37908E-03 -8.15756E-03 -7.69528E-03 -2.09400E-02 -2.72642E-02 -2.52691E-02
 -4.43320E-02 -2.04884E-02 -5.42928E-02 -8.53976E-03 -5.42493E-02 +6.53984E-03 -4.38939E-02 +1.97454E-02
 -2.56794E-02 +2.65471E-02 -4.20312E-03 +2.42355E-02 +1.50394E-02 +1.27703E-02 +2.71864E-02 -5.13196E-03
 +2.93873E-02 -2.47183E-02 +2.16200E-02 -4.05365E-02 +6.69803E-03 -4.80081E-02 -1.05465E-02 -4.47808E-02
 -2.46756E-02 -3.14560E-02 -3.12453E-02 -1.14676E-02 -2.81198E-02 +9.86423E-03 -1.61113E-02 +2.68380E-02
 +1.25255E-03 +3.49950E-02 +1.87685E-02 +3.23891E-02 +3.11022E-02 +2.01241E-02 +3.43803E-02 +2.00204E-03
 +2.73566E-02 -1.66158E-02 +1.18049E-02 -3.03958E-02 -7.98027E-03 -3.55964E-02 -2.64279E-02 -3.11439E-02
 -3.83090E-02 -1.89057E-02 -4.02493E-02 -3.08141E-03 -3.16890E-02 +1.10961E-02 -1.50090E-02 +1.89586E-02
 +5.20605E-03 +1.78174E-02 +2.35399E-02 +7.77206E-03 +3.53361E-02 -8.32282E-03 +3.80330E-02 -2.57155E-02
 +3.18496E-02 -3.91749E-02 +1.96282E-02 -4.45389E-02 +5.89701E-03 -3.99282E-02 -4.55173E-03 -2.62703E-02
 -8.13135E-03 -6.98827E-03 -3.53591E-03 +1.30380E-02 +7.89553E-03 +2.89146E-02 +2.26208E-02 +3.71416E-02
 +3.59940E-02 +3.65694E-02 +4.36776E-02 +2.86293E-02 +4.29374E-02 +1.67907E-02 +3.34340E-02 +5.43033E-03
 +1.72867E-02 -1.52960E-03 -1.59121E-03 -1.79763E-03 -1.86656E-02 +4.64503E-03 -3.00994E-02 +1.56128E-02
 -3.38171E-02 +2.74510E-02 -3.00080E-02 +3.61929E-02 -2.09400E-02 +3.87764E-02 -1.01679E-02 +3.39492E-02
 -1.40004E-03 +2.26021E-02 +2.62081E-03 +7.45072E-03 +8.86254E-04 -7.81333E-03 -5.67596E-03 -1.96237E-02
 -1.45998E-02 -2.55524E-02 -2.27277E-02 -2.49339E-02 -2.72250E-02 -1.89342E-02 -2.64429E-02 -1.00736E-02
 -2.03741E-02 -1.37963E-03 -1.05829E-02 +4.55019E-03 +3.40299E-04 +6.28400E-03 +9.60445E-03 +3.87805E-03
 +1.50526E-02 -1.28596E-03 +1.57482E-02 -7.06349E-03 +1.21484E-02 -1.13050E-02 +5.83798E-03 -1.25552E-02
 -1.05917E-03 -1.04739E-02 -6.58132E-03 -5.86421E-03 -9.51074E-03 -3.24885E-04 -9.65733E-03 +4.33234E-03
 -7.77580E-03 +6.69243E-03 -5.17356E-03 +6.16939E-03 -3.16642E-03 +3.12800E-03 -2.58128E-03 -1.32553E-03
 -3.47750E-03 -5.79098E-03 -5.17361E-03 -9.08895E-03 -6.55480E-03 -1.06577E-02 -6.53789E-03 -1.06955E-02
 -4.51752E-03 -1.00069E-02 -6.27982E-04 -9.62007E-03 +4.27628E-03 -1.03225E-02 +8.91596E-03 -1.22913E-02
 +1.20524E-02 -1.49603E-02 +1.29550E-02 -1.71802E-02 +1.16982E-02 -1.76232E-02 +9.17280E-03 -1.52916E-02
 +6.79635E-03 -9.94987E-03 +6.01093E-03 -2.31813E-03 +7.73837E-03 +6.05828E-03 +1.19825E-02 +1.32376E-02
 +1.77271E-02 +1.74806E-02 +2.31820E-02 +1.78271E-02 +2.63172E-02 +1.44548E-02 +2.55210E-02 +8.69007E-03
 +2.01730E-02 +2.64743E-03 +1.09392E-02 -1.40280E-03 -3.21931E-04 -1.75014E-03 -1.10334E-02 +2.18227E-03
 -1.86219E-02 +9.59262E-03 -2.12769E-02 +1.84744E-02 -1.85116E-02 +2.61713E-02 -1.13510E-02 +3.01555E-02
 -2.07582E-03 +2.87992E-02 +6.41107E-03 +2.19043E-02 +1.14155E-02 +1.08261E-02 +1.12382E-02 -1.85687E-03
 +5.68256E-03 -1.30379E-02 -3.86614E-03 -1.99440E-02 -1.48192E-02 -2.09164E-02 -2.41115E-02 -1.58834E-02
 -2.90695E-02 -6.38957E-03 -2.81705E-02 +4.82847E-03 -2.14777E-02 +1.45958E-02 -1.06306E-02 +2.01693E-02
 +1.60381E-03 +1.99782E-02 +1.20861E-02 +1.40326E-02 +1.81519E-02 +3.89229E-03 +1.83174E-02 -7.78377E-03
 +1.26531E-02 -1.79739E-02 +2.73393E-03 -2.41064E-02 -8.80648E-03 -2.47280E-02 -1.89842E-02 -1.98531E-02
 -2.52387E-02 -1.09160E-02 -2.60660E-02 -3.55502E-04 -2.13542E-02 +9.04253E-03 -1.23510E-02 +1.48610E-02
 -1.29310E-03 +1.56419E-02 +9.18886E-03 +1.12080E-02 +1.67280E-02 +2.65520E-03 +1.97760E-02 -7.96324E-03
 +1.79284E-02 -1.81616E-02 +1.19615E-02 -2.56174E-02 +3.59278E-03 -2.86939E-02 -4.95869E-03 -2.67777E-02
 -1.14981E-02 -2.03690E-02 -1.43467E-02 -1.09256E-02 -1.26977E-02 -5.09439E-04 -6.77053E-03 +8.67550E-03
 +2.25390E-03 +1.47572E-02 +1.24956E-02 +1.65852E-02 +2.17758E-02 +1.39652E-02 +2.80772E-02 +7.69581E-03
 +2.99741E-02 -5.97595E-04 +2.69503E-02 -8.80321E-03 +1.95376E-02 -1.47752E-02 +9.23864E-03 -1.68128E-02
 -1.76386E-03 -1.40667E-02 -1.10654E-02 -6.78187E-03 -1.65784E-02 +3.69349E-03 -1.70355E-02 +1.51543E-02
 -1.23363E-02 +2.50080E-02 -3.63980E-03 +3.08751E-02 +6.84527E-03 +3.11863E-02 +1.63479E-02 +2.56252E-02
 +2.22013E-02 +1.52912E-02 +2.25322E-02 +2.51293E-03 +1.67946E-02 -9.66733E-03 +5.99500E-03 -1.82315E-02
 -7.47706E-03 -2.09661E-02 -2.03963E-02 -1.70807E-02 -2.95063E-02 -7.48461E-03 -3.23804E-02 +5.37374E-03
 -2.81087E-02 +1.80897E-02 -1.76113E-02 +2.71726E-02 -3.47292E-03 +2.99801E-02 +1.06818E-02 +2.54632E-02
 +2.11224E-02 +1.45075E-02 +2.50110E-02 -2.42190E-04 +2.11929E-02 -1.50443E-02 +1.05527E-02 -2.60468E-02
 -4.17802E-03 -3.03333E-02 -1.91233E-02 -2.67394E-02 -3.02957E-02 -1.62076E-02 -3.46787E-02 -1.56946E-03
 -3.10596E-02 +1.31969E-02 -2.03767E-02 +2.40362E-02 -5.47619E-03 +2.79198E-02 +9.65946E-03 +2.36784E-02
 +2.10012E-02 +1.23273E-02 +2.55796E-02 -3.20808E-03 +2.22980E-02 -1.88920E-02 +1.22266E-02 -3.06817E-02
 -1.70519E-03 -3.56257E-02 -1.55277E-02 -3.26509E-02 -2.53311E-02 -2.28229E-02 -2.83356E-02 -9.01248E-03
 -2.36345E-02 +4.93076E-03 -1.24082E-02 +1.52573E-02 +2.44068E-03 +1.93444E-02 +1.71174E-02 +1.63845E-02
 +2.79867E-02 +7.55200E-03 +3.25488E-02 -4.38487E-03 +3.00691E-02 -1.58803E-02 +2.16991E-02 -2.36144E-02
 +1.00742E-02 -2.53972E-02 -1.47881E-03 -2.07234E-02 -9.88521E-03 -1.08389E-02 -1.31475E-02 +1.67740E-03
 -1.08263E-02 +1.36772E-02 -4.06251E-03 +2.23206E-02 +4.84098E-03 +2.58161E-02 +1.31327E-02 +2.38267E-02
 +1.84031E-02 +1.74485E-02 +1.92238E-02 +8.79887E-03 +1.54685E-02 +3.57729E-04 +8.24626E-03 -5.73439E-03
 -5.00012E-04 -8.21961E-03 -8.59097E-03 -6.96872E-03 -1.42163E-02 -2.88777E-03 -1.63771E-02 +2.45461E-03
 -1.50552E-02 +7.34365E-03 -1.10927E-02 +1.04142E-02 -5.84824E-03 +1.09846E-02 -7.57807E-04 +9.15102E-03
 +3.05871E-03 +5.64518E-03 +5.03661E-03 +1.53004E-03 +5.20226E-03 -2.15170E-03 +4.02784E-03 -4.66146E-03
 +2.18161E-03 -5.70368E-03 +2.73567E-04 -5.40030E-03 -1.31658E-03 -4.13954E-03 -2.48404E-03 -2.37570E-03
 -3.32365E-03 -4.62803E-04 -3.98734E-03 +1.41887E-03 -4.54720E-03 +3.22911E-03 -4.92831E-03 +4.95856E-03
 -4.94072E-03 +6.50671E-03 -4.39532E-03 +7.61363E-03 -3.24954E-03 +7.88852E-03 -1.71273E-03 +6.93597E-03
 -2.52712E-04 +4.53668E-03 +5.18062E-04 +8.10158E-04 +5.01907E-05 -3.71474E-03 -1.90938E-03 -8.16879E-03
 -5.14599E-03 -1.15497E-02 -8.94309E-03 -1.30144E-02 -1.22196E-02 -1.21653E-02 -1.38157E-02 -9.22990E-03
 -1.28484E-02 -5.06099E-03 -9.02764E-03 -9.35732E-04 -2.82363E-03 +1.80061E-03 +4.58310E-03 +2.14657E-03
