 Created: 26-Mar-2021
 $NMID
 ID='D:\BASISSIMULATI'
 FMTDAT='(8E13.5)'
 VOLUME=   1.00000E+00
 TRAMP=   1.00000E+00
 $END
 +1.15723E-01 -1.69806E-07 +1.07587E-01 -1.68541E-02 +8.46179E-02 -2.87563E-02 +5.09155E-02 -3.18912E-02
 +1.24118E-02 -2.44344E-02 -2.42806E-02 -6.99666E-03 -5.31360E-02 +1.74575E-02 -6.98428E-02 +4.42016E-02
 -7.25653E-02 +6.77251E-02 -6.21956E-02 +8.28918E-02 -4.20551E-02 +8.60354E-02 -1.71208E-02 +7.57603E-02
 +7.05264E-03 +5.32797E-02 +2.54859E-02 +2.22211E-02 +3.47621E-02 -1.20633E-02 +3.36501E-02 -4.35348E-02
 +2.32456E-02 -6.66450E-02 +6.61599E-03 -7.74075E-02 -1.19582E-02 -7.41511E-02 -2.79729E-02 -5.78062E-02
 -3.77018E-02 -3.16758E-02 -3.89959E-02 -7.48616E-04 -3.17145E-02 +2.92961E-02 -1.77069E-02 +5.31847E-02
 -3.59543E-04 +6.70224E-02 +1.61819E-02 +6.89551E-02 +2.79399E-02 +5.93998E-02 +3.19793E-02 +4.08173E-02
 +2.70423E-02 +1.70974E-02 +1.38129E-02 -7.29903E-03 -5.23495E-03 -2.82506E-02 -2.63639E-02 -4.27495E-02
 -4.53540E-02 -4.93866E-02 -5.83651E-02 -4.84662E-02 -6.26995E-02 -4.17524E-02 -5.73089E-02 -3.19267E-02
 -4.29511E-02 -2.18949E-02 -2.19777E-02 -1.41070E-02 +2.18407E-03 -1.00388E-02 +2.57352E-02 -9.94043E-03
 +4.52365E-02 -1.28913E-02 +5.82176E-02 -1.71272E-02 +6.35439E-02 -2.05491E-02 +6.14854E-02 -2.12811E-02
 +5.34964E-02 -1.81470E-02 +4.17788E-02 -1.09545E-02 +2.87444E-02 -5.30194E-04 +1.65033E-02 +1.14907E-02
 +6.48976E-03 +2.30611E-02 -7.02195E-04 +3.22005E-02 -5.26027E-03 +3.74411E-02 -7.91062E-03 +3.81342E-02
 -9.57239E-03 +3.45529E-02 -1.10113E-02 +2.77747E-02 -1.25873E-02 +1.93830E-02 -1.41599E-02 +1.10704E-02
 -1.51709E-02 +4.24275E-03 -1.48729E-02 -2.74394E-04 -1.26340E-02 -2.36185E-03 -8.22612E-03 -2.53927E-03
 -2.01101E-03 -1.73175E-03 +5.03871E-03 -9.39256E-04 +1.15000E-02 -9.02435E-04 +1.58098E-02 -1.85818E-03
 +1.66526E-02 -3.45436E-03 +1.33258E-02 -4.85061E-03 +5.98620E-03 -4.98197E-03 -4.29627E-03 -2.91711E-03
 -1.57044E-02 +1.78561E-03 -2.60346E-02 +8.82555E-03 -3.31770E-02 +1.70902E-02 -3.56051E-02 +2.48048E-02
 -3.27578E-02 +2.98834E-02 -2.52166E-02 +3.04092E-02 -1.46234E-02 +2.51363E-02 -3.34547E-03 +1.38881E-02
 +6.04675E-03 -2.25310E-03 +1.13757E-02 -2.10301E-02 +1.13903E-02 -3.93727E-02 +6.10864E-03 -5.39749E-02
 -3.11887E-03 -6.19739E-02 -1.38554E-02 -6.15834E-02 -2.30908E-02 -5.25374E-02 -2.79167E-02 -3.62357E-02
 -2.62175E-02 -1.55405E-02 -1.72195E-02 +5.74689E-03 -1.76660E-03 +2.36333E-02 +1.77532E-02 +3.47519E-02
 +3.78307E-02 +3.70782E-02 +5.45311E-02 +3.03861E-02 +6.43195E-02 +1.63374E-02 +6.48422E-02 -1.82607E-03
 +5.54898E-02 -1.99334E-02 +3.76113E-02 -3.37494E-02 +1.43198E-02 -3.98732E-02 -1.00834E-02 -3.64805E-02
 -3.09565E-02 -2.37475E-02 -4.42631E-02 -3.85858E-03 -4.74200E-02 +1.94108E-02 -3.98639E-02 +4.14569E-02
 -2.32108E-02 +5.77991E-02 -9.65461E-04 +6.50219E-02 +2.21674E-02 +6.15081E-02 +4.12326E-02 +4.78047E-02
 +5.20414E-02 +2.65389E-02 +5.20431E-02 +1.89873E-03 +4.08692E-02 -2.12195E-02 +2.04327E-02 -3.82188E-02
 -5.44225E-03 -4.57543E-02 -3.17865E-02 -4.24312E-02 -5.34918E-02 -2.90996E-02 -6.63486E-02 -8.68335E-03
 -6.79020E-02 +1.44231E-02 -5.79481E-02 +3.52644E-02 -3.85688E-02 +4.93503E-02 -1.37004E-02 +5.35844E-02
 +1.16754E-02 +4.69017E-02 +3.25471E-02 +3.04825E-02 +4.48853E-02 +7.50114E-03 +4.64443E-02 -1.75374E-02
 +3.71888E-02 -3.97317E-02 +1.92644E-02 -5.47922E-02 -3.47626E-03 -5.99150E-02 -2.62865E-02 -5.43403E-02
 -4.45044E-02 -3.94836E-02 -5.44926E-02 -1.86176E-02 -5.43466E-02 +3.82323E-03 -4.42303E-02 +2.31663E-02
 -2.62796E-02 +3.54582E-02 -4.10437E-03 +3.82582E-02 +1.79960E-02 +3.11077E-02 +3.59328E-02 +1.55856E-02
 +4.66529E-02 -5.05145E-03 +4.87194E-02 -2.65611E-02 +4.25340E-02 -4.45878E-02 +3.01679E-02 -5.55332E-02
 +1.48488E-02 -5.72463E-02 +2.25684E-04 -4.93983E-02 -1.04262E-02 -3.34788E-02 -1.48898E-02 -1.24276E-02
 -1.24393E-02 +1.00056E-02 -3.93781E-03 +3.00310E-02 +8.40596E-03 +4.45529E-02 +2.15602E-02 +5.17211E-02
 +3.23481E-02 +5.11945E-02 +3.81321E-02 +4.40811E-02 +3.73585E-02 +3.25871E-02 +2.98528E-02 +1.94676E-02
 +1.68142E-02 +7.40947E-03 +5.23215E-04 -1.51651E-03 -1.61614E-02 -6.22267E-03 -3.03999E-02 -6.72278E-03
 -3.99327E-02 -3.99544E-03 -4.34881E-02 +3.57536E-04 -4.09614E-02 +4.56456E-03 -3.33428E-02 +7.13693E-03
 -2.24271E-02 +7.21522E-03 -1.03849E-02 +4.73515E-03 +7.00863E-04 +3.85161E-04 +9.22909E-03 -4.62131E-03
 +1.43259E-02 -8.89285E-03 +1.59001E-02 -1.12352E-02 +1.45176E-02 -1.09608E-02 +1.11439E-02 -8.05946E-03
 +6.83168E-03 -3.19243E-03 +2.44009E-03 +2.48068E-03 -1.54613E-03 +7.59477E-03 -5.05675E-03 +1.09146E-02
 -8.33658E-03 +1.16281E-02 -1.17451E-02 +9.52572E-03 -1.55209E-02 +5.02483E-03 -1.95846E-02 -9.62406E-04
 -2.34456E-02 -7.27913E-03 -2.62453E-02 -1.28243E-02 -2.69362E-02 -1.68241E-02 -2.45561E-02 -1.90032E-02
 -1.85255E-02 -1.96116E-02 -8.89174E-03 -1.93007E-02 +3.55501E-03 -1.88827E-02 +1.73353E-02 -1.90388E-02
 +3.05069E-02 -2.00573E-02 +4.10242E-02 -2.16776E-02 +4.71551E-02 -2.30913E-02 +4.78603E-02 -2.31123E-02
 +4.30462E-02 -2.04822E-02 +3.36238E-02 -1.42438E-02 +2.13510E-02 -4.08742E-03 +8.48466E-03 +9.42164E-03
 -2.68767E-03 +2.48045E-02 -1.03337E-02 +3.98494E-02 -1.34711E-02 +5.19898E-02 -1.21782E-02 +5.88105E-02
 -7.56721E-03 +5.85757E-02 -1.51987E-03 +5.06630E-02 +3.76101E-03 +3.57975E-02 +6.28592E-03 +1.60218E-02
 +4.77778E-03 -5.61036E-03 -9.80959E-04 -2.55672E-02 -1.00398E-02 -4.04974E-02 -2.04444E-02 -4.78819E-02
 -2.96479E-02 -4.65424E-02 -3.50852E-02 -3.68959E-02 -3.47857E-02 -2.08946E-02 -2.78888E-02 -1.65597E-03
 -1.49385E-02 +1.71457E-02 +2.11757E-03 +3.20050E-02 +2.02411E-02 +4.02787E-02 +3.58730E-02 +4.07016E-02
 +4.56490E-02 +3.36168E-02 +4.71141E-02 +2.08706E-02 +3.92826E-02 +5.39424E-03 +2.29204E-02 -9.44041E-03
 +4.80097E-04 -2.05524E-02 -2.43088E-02 -2.58156E-02 -4.71189E-02 -2.45104E-02 -6.38419E-02 -1.74678E-02
 -7.13793E-02 -6.87076E-03 -6.82459E-02 +4.24243E-03 -5.48633E-02 +1.26688E-02 -3.34813E-02 +1.57749E-02
 -7.74298E-03 +1.21164E-02 +1.80201E-02 +1.80523E-03 +3.96178E-02 -1.34561E-02 +5.37906E-02 -3.06879E-02
 +5.87984E-02 -4.62300E-02 +5.46936E-02 -5.65005E-02 +4.32298E-02 -5.87567E-02 +2.74321E-02 -5.16994E-02
 +1.09249E-02 -3.57910E-02 -2.83852E-03 -1.32190E-02 -1.12813E-02 +1.24898E-02 -1.31998E-02 +3.71291E-02
 -8.95244E-03 +5.66118E-02 -3.08132E-04 +6.77478E-02 +1.00026E-02 +6.88422E-02 +1.89329E-02 +5.99990E-02
 +2.38172E-02 +4.30706E-02 +2.29713E-02 +2.12713E-02 +1.60667E-02 -1.46362E-03 +4.20374E-03 -2.12366E-02
 -1.03290E-02 -3.49132E-02 -2.45509E-02 -4.06697E-02 -3.54335E-02 -3.82603E-02 -4.05519E-02 -2.89628E-02
 -3.86066E-02 -1.52275E-02 -2.97060E-02 -1.14886E-04 -1.53544E-02 +1.33539E-02 +1.84732E-03 +2.27952E-02
 +1.87224E-02 +2.68906E-02 +3.21471E-02 +2.55639E-02 +3.96584E-02 +1.98859E-02 +3.99161E-02 +1.17428E-02
 +3.29305E-02 +3.35201E-03 +2.00177E-02 -3.26011E-03 +3.50312E-03 -6.70420E-03 -1.37586E-02 -6.50403E-03
 -2.89398E-02 -3.15113E-03 -3.97574E-02 +2.06286E-03 -4.48514E-02 +7.38779E-03 -4.39557E-02 +1.10464E-02
 -3.78416E-02 +1.16557E-02 -2.80644E-02 +8.54385E-03 -1.65789E-02 +1.89777E-03 -5.31724E-03 -7.28550E-03
 +4.18089E-03 -1.74244E-02 +1.10102E-02 -2.66981E-02 +1.49757E-02 -3.34311E-02 +1.65023E-02 -3.64311E-02
 +1.64165E-02 -3.52086E-02 +1.56642E-02 -3.00384E-02 +1.50388E-02 -2.18577E-02 +1.49843E-02 -1.20348E-02
 +1.55163E-02 -2.06737E-03 +1.62707E-02 +6.71788E-03 +1.66579E-02 +1.33973E-02 +1.60741E-02 +1.75688E-02
 +1.41104E-02 +1.93407E-02 +1.07015E-02 +1.92055E-02 +6.17658E-03 +1.78433E-02 +1.19730E-03 +1.59088E-02
 -3.39804E-03 +1.38612E-02 -6.80356E-03 +1.18766E-02 -8.45254E-03 +9.86223E-03 -8.16720E-03 +7.56085E-03
 -6.21130E-03 +4.71033E-03 -3.23027E-03 +1.20795E-03 -9.23201E-05 -2.77186E-03 +2.33039E-03 -6.74560E-03
 +3.38522E-03 -9.99038E-03 +2.80976E-03 -1.17034E-02 +8.04482E-04 -1.12137E-02 -2.01430E-03 -8.19197E-03
 -4.77271E-03 -2.80070E-03 -6.57206E-03 +4.26043E-03 -6.73928E-03 +1.18373E-02 -5.03116E-03 +1.85232E-02
 -1.73808E-03 +2.29410E-02 +2.34500E-03 +2.40464E-02 +6.08068E-03 +2.13794E-02 +8.25224E-03 +1.52058E-02
 +7.86906E-03 +6.50598E-03 +4.44238E-03 -3.19479E-03 -1.83744E-03 -1.21238E-02 -1.00710E-02 -1.86275E-02
 -1.87845E-02 -2.15277E-02 -2.62080E-02 -2.03881E-02 -3.06423E-02 -1.56276E-02 -3.08371E-02 -8.45107E-03
 -2.62943E-02 -6.04841E-04 -1.74272E-02 +5.99408E-03 -5.53009E-03 +9.67765E-03 +7.44084E-03 +9.40449E-03
 +1.92388E-02 +5.01138E-03 +2.77738E-02 -2.72041E-03 +3.15441E-02 -1.22036E-02 +2.99582E-02 -2.13639E-02
 +2.34754E-02 -2.80743E-02 +1.35311E-02 -3.06151E-02 +2.25597E-03 -2.80582E-02 -7.95482E-03 -2.04941E-02
 -1.49349E-02 -9.04674E-03 -1.71994E-02 +4.32926E-03 -1.42614E-02 +1.72320E-02 -6.74242E-03 +2.72963E-02
 +3.74690E-03 +3.26792E-02 +1.49353E-02 +3.24426E-02 +2.43600E-02 +2.67538E-02 +2.98808E-02 +1.68573E-02
 +3.01295E-02 +4.82447E-03 +2.48032E-02 -6.86929E-03 +1.47371E-02 -1.58518E-02 +1.74236E-03 -2.03401E-02
 -1.17582E-02 -1.95032E-02 -2.32208E-02 -1.36270E-02 -3.04956E-02 -4.04633E-03 -3.22597E-02 +7.13983E-03
 -2.82795E-02 +1.75108E-02 -1.94483E-02 +2.48301E-02 -7.59518E-03 +2.75096E-02 +4.89425E-03 +2.49354E-02
 +1.55644E-02 +1.75885E-02 +2.23820E-02 +6.93758E-03 +2.41323E-02 -4.87173E-03 +2.06412E-02 -1.54648E-02
 +1.27795E-02 -2.27281E-02 +2.25462E-03 -2.52399E-02 -8.76241E-03 -2.25531E-02 -1.80933E-02 -1.52756E-02
 -2.39955E-02 -4.93357E-03 -2.55003E-02 +6.34907E-03 -2.25792E-02 +1.62857E-02 -1.61090E-02 +2.28854E-02
 -7.64976E-03 +2.48405E-02 +9.12029E-04 +2.17669E-02 +7.77574E-03 +1.42528E-02 +1.16055E-02 +3.71179E-03
 +1.17971E-02 -7.92091E-03 +8.58083E-03 -1.85840E-02 +2.94277E-03 -2.64910E-02 -3.61101E-03 -3.04572E-02
 -9.39399E-03 -3.00878E-02 -1.29063E-02 -2.57990E-02 -1.31517E-02 -1.86748E-02 -9.83940E-03 -1.02011E-02
 -3.43248E-03 -1.93738E-03 +4.96111E-03 +4.79913E-03 +1.38267E-02 +9.17378E-03 +2.15555E-02 +1.09524E-02
 +2.67632E-02 +1.04812E-02 +2.85506E-02 +8.54261E-03 +2.66534E-02 +6.12829E-03 +2.14602E-02 +4.18461E-03
 +1.38993E-02 +3.38992E-03 +5.22988E-03 +4.01137E-03 -3.21571E-03 +5.86858E-03 -1.02803E-02 +8.40586E-03
