 Created: 26-Mar-2021
 $NMID
 ID='D:\BASISSIMULATI'
 FMTDAT='(8E13.5)'
 VOLUME=   1.00000E+00
 TRAMP=   1.00000E+00
 $END
 +1.29397E-01 +8.38240E-04 +1.04655E-01 +7.24124E-02 +4.26262E-02 +1.13871E-01 -2.98349E-02 +1.09054E-01
 -8.19034E-02 +6.22053E-02 -9.24960E-02 -4.19537E-03 -5.94774E-02 -5.97463E-02 -2.45787E-04 -7.98675E-02
 +5.64874E-02 -5.67365E-02 +8.39163E-02 -2.49655E-03 +6.93115E-02 +5.66409E-02 +1.96183E-02 +9.26261E-02
 -4.20081E-02 +8.84965E-02 -8.70706E-02 +4.60842E-02 -9.49676E-02 -1.49877E-02 -6.25100E-02 -6.65099E-02
 -5.35795E-03 -8.48259E-02 +4.92637E-02 -6.18486E-02 +7.52109E-02 -8.88561E-03 +5.96085E-02 +4.84951E-02
 +8.97568E-03 +8.22154E-02 -5.35481E-02 +7.46779E-02 -9.86382E-02 +2.70457E-02 -1.04143E-01 -4.09985E-02
 -6.52827E-02 -9.99408E-02 +2.96535E-03 -1.23651E-01 +7.23984E-02 -1.01142E-01 +1.14097E-01 -4.15510E-02
 +1.11259E-01 +2.99159E-02 +6.65810E-02 +8.32145E-02 +8.70536E-04 +9.68028E-02 -5.64219E-02 +6.70640E-02
 -8.04412E-02 +9.60590E-03 -6.19354E-02 -4.80789E-02 -1.10925E-02 -7.91940E-02 +4.74505E-02 -6.97196E-02
 +8.60651E-02 -2.45286E-02 +8.67828E-02 +3.51711E-02 +4.93686E-02 +8.18085E-02 -8.81752E-03 +9.42096E-02
 -6.10331E-02 +6.72861E-02 -8.36112E-02 +1.42385E-02 -6.69191E-02 -3.96903E-02 -1.97878E-02 -6.89977E-02
 +3.46030E-02 -5.98042E-02 +6.94785E-02 -1.63693E-02 +6.69162E-02 +4.07552E-02 +2.62712E-02 +8.40958E-02
 -3.52938E-02 +9.18725E-02 -9.04373E-02 +5.80934E-02 -1.13969E-01 -4.48648E-03 -9.42780E-02 -6.99070E-02
 -3.86761E-02 -1.10546E-01 +2.97780E-02 -1.09438E-01 +8.25199E-02 -6.78114E-02 +9.81570E-02 -4.44857E-03
 +7.18640E-02 +5.27971E-02 +1.72888E-02 +7.94662E-02 -3.98254E-02 +6.53003E-02 -7.33532E-02 +1.85439E-02
 -6.84997E-02 -3.81244E-02 -2.82275E-02 -7.80980E-02 +2.84396E-02 -8.29532E-02 +7.53655E-02 -5.06594E-02
 +9.13472E-02 +3.79284E-03 +6.97345E-02 +5.55371E-02 +2.12630E-02 +8.14036E-02 -3.11262E-02 +7.05791E-02
 -6.30361E-02 +2.94792E-02 -5.99567E-02 -2.13620E-02 -2.39889E-02 -5.69096E-02 +2.71258E-02 -5.93069E-02
 +6.82030E-02 -2.62424E-02 +7.82719E-02 +2.78346E-02 +5.03428E-02 +7.82096E-02 -5.18629E-03 +1.01144E-01
 -6.50478E-02 +8.47340E-02 -1.03500E-01 +3.44443E-02 -1.03881E-01 -2.92037E-02 -6.60890E-02 -7.97338E-02
 -6.61942E-03 -9.64851E-02 +4.88375E-02 -7.37340E-02 +7.68589E-02 -2.30764E-02 +6.66337E-02 +3.19519E-02
 +2.45481E-02 +6.65293E-02 -2.89899E-02 +6.56308E-02 -6.89625E-02 +3.05477E-02 -7.70713E-02 -2.20344E-02
 -4.98430E-02 -6.78786E-02 +1.08072E-04 -8.63171E-02 +5.01340E-02 -6.95594E-02 +7.80705E-02 -2.59878E-02
 +7.23675E-02 +2.39821E-02 +3.72137E-02 +5.74908E-02 -9.63234E-03 +5.98272E-02 -4.52388E-02 +3.11590E-02
 -5.22200E-02 -1.36564E-02 -2.68408E-02 -5.20473E-02 +1.92066E-02 -6.42547E-02 +6.41471E-02 -4.25642E-02
 +8.61259E-02 +4.98913E-03 +7.32857E-02 +5.81326E-02 +2.93148E-02 +9.34799E-02 -2.80602E-02 +9.51066E-02
 -7.49444E-02 +6.17731E-02 -9.19341E-02 +7.52893E-03 -7.27384E-02 -4.45553E-02 -2.68879E-02 -7.26690E-02
 +2.46510E-02 -6.59051E-02 +5.89277E-02 -2.89371E-02 +6.12277E-02 +2.03230E-02 +3.14620E-02 +5.89502E-02
 -1.60938E-02 +6.93428E-02 -5.95003E-02 +4.69893E-02 -7.91755E-02 +2.20569E-03 -6.66618E-02 -4.48451E-02
 -2.81932E-02 -7.34887E-02 +1.84694E-02 -7.19275E-02 +5.23910E-02 -4.24150E-02 +5.91185E-02 +7.88953E-05
 +3.72140E-02 +3.50102E-02 -1.28697E-03 +4.58687E-02 -3.66335E-02 +2.78216E-02 -5.06360E-02 -1.00984E-02
 -3.51751E-02 -4.92242E-02 +3.95901E-03 -6.99273E-02 +4.96386E-02 -6.07347E-02 +8.11848E-02 -2.37160E-02
 +8.37985E-02 +2.63143E-02 +5.53358E-02 +6.84002E-02 +7.35486E-03 +8.48415E-02 -4.00205E-02 +6.91157E-02
 -6.70734E-02 +2.87543E-02 -6.32346E-02 -1.80952E-02 -3.16617E-02 -5.08243E-02 +1.23604E-02 -5.55304E-02
 +4.84121E-02 -3.10675E-02 +6.01150E-02 +1.06919E-02 +4.23437E-02 +5.04186E-02 +3.26443E-03 +7.01204E-02
 -3.96283E-02 +6.11598E-02 -6.75839E-02 +2.78972E-02 -6.90583E-02 -1.46028E-02 -4.47331E-02 -4.76551E-02
 -6.87754E-03 -5.75262E-02 +2.65549E-02 -4.15720E-02 +4.03142E-02 -9.18448E-03 +2.88562E-02 +2.28040E-02
 -1.22725E-03 +3.80762E-02 -3.44099E-02 +2.84582E-02 -5.35358E-02 -2.27884E-03 -4.78417E-02 -4.01544E-02
 -1.80129E-02 -6.74202E-02 +2.40280E-02 -7.07320E-02 +6.04769E-02 -4.73087E-02 +7.56888E-02 -6.28210E-03
 +6.32360E-02 +3.53571E-02 +2.87908E-02 +6.03527E-02 -1.24426E-02 +5.88629E-02 -4.25504E-02 +3.27665E-02
 -4.88778E-02 -5.31055E-03 -2.95555E-02 -3.77533E-02 +5.86398E-03 -4.98573E-02 +4.08735E-02 -3.62985E-02
 +5.94970E-02 -3.29775E-03 +5.33845E-02 +3.44137E-02 +2.53410E-02 +6.03676E-02 -1.22251E-02 +6.37505E-02
 -4.31295E-02 +4.40750E-02 -5.47918E-02 +1.10801E-02 -4.37996E-02 -1.99903E-02 -1.71690E-02 -3.54915E-02
 +1.11822E-02 -2.95855E-02 +2.70489E-02 -6.73583E-03 +2.25620E-02 +2.05827E-02 -2.13642E-04 +3.78379E-02
 -3.03149E-02 +3.52756E-02 -5.30217E-02 +1.24910E-02 -5.67059E-02 -2.13390E-02 -3.82377E-02 -5.16319E-02
 -4.48875E-03 -6.50469E-02 +3.07272E-02 -5.55539E-02 +5.28557E-02 -2.71734E-02 +5.31129E-02 +7.83329E-03
 +3.23630E-02 +3.44660E-02 +6.41425E-04 +4.16684E-02 -2.74145E-02 +2.71744E-02 -3.91245E-02 -1.63088E-03
 -2.93474E-02 -3.11630E-02 -2.60448E-03 -4.77851E-02 +2.91400E-02 -4.38525E-02 +5.19624E-02 -2.09522E-02
 +5.62003E-02 +1.10507E-02 +4.06076E-02 +3.86350E-02 +1.26268E-02 +5.07511E-02 -1.52431E-02 +4.36590E-02
 -3.12493E-02 +2.23289E-02 -2.96755E-02 -2.14324E-03 -1.32338E-02 -1.78325E-02 +8.46246E-03 -1.75203E-02
 +2.35626E-02 -1.93548E-03 +2.35811E-02 +2.07364E-02 +7.35556E-03 +3.87835E-02 -1.84306E-02 +4.24825E-02
 -4.23538E-02 +2.86478E-02 -5.35199E-02 +2.14284E-03 -4.65664E-02 -2.63058E-02 -2.41212E-02 -4.49584E-02
 +4.37710E-03 -4.63487E-02 +2.69248E-02 -3.06058E-02 +3.43153E-02 -5.33605E-03 +2.41906E-02 +1.78422E-02
 +1.98136E-03 +2.85079E-02 -2.16359E-02 +2.20305E-02 -3.55678E-02 +1.50451E-03 -3.32174E-02 -2.37858E-02
 -1.52887E-02 -4.26119E-02 +1.07181E-02 -4.68001E-02 +3.40119E-02 -3.47335E-02 +4.53690E-02 -1.18363E-02
 +4.11332E-02 +1.20908E-02 +2.45917E-02 +2.73956E-02 +4.18810E-03 +2.88678E-02 -1.05232E-02 +1.78748E-02
 -1.32826E-02 +1.43683E-03 -3.87878E-03 -1.12463E-02 +1.19579E-02 -1.31647E-02 +2.54004E-02 -2.74339E-03
 +2.87415E-02 +1.54968E-02 +1.90204E-02 +3.31124E-02 -5.92758E-04 +4.16959E-02 -2.22520E-02 +3.67771E-02
 -3.70234E-02 +1.98864E-02 -3.89397E-02 -2.13660E-03 -2.76757E-02 -2.02361E-02 -8.65048E-03 -2.72022E-02
 +9.45085E-03 -2.08545E-02 +1.85794E-02 -4.93189E-03 +1.48762E-02 +1.26718E-02 +2.94489E-04 +2.34835E-02
 -1.83888E-02 +2.22055E-02 -3.26722E-02 +8.97347E-03 -3.61046E-02 -1.08456E-02 -2.70421E-02 -2.91565E-02
 -9.19365E-03 -3.87557E-02 +1.02128E-02 -3.64243E-02 +2.37429E-02 -2.41364E-02 +2.70170E-02 -7.91430E-03
 +2.04621E-02 +5.06552E-03 +8.82894E-03 +9.75043E-03 -1.22184E-03 +5.37952E-03 -4.29723E-03 -4.39694E-03
 +1.25904E-03 -1.34262E-02 +1.27089E-02 -1.60496E-02 +2.43176E-02 -9.78096E-03 +3.01075E-02 +3.55115E-03
 +2.66708E-02 +1.86829E-02 +1.47499E-02 +2.93654E-02 -1.10823E-03 +3.12324E-02 -1.46301E-02 +2.37706E-02
 -2.06458E-02 +1.05152E-02 -1.73772E-02 -2.58178E-03 -7.16644E-03 -9.83724E-03 +4.64972E-03 -8.34864E-03
 +1.21697E-02 +7.86370E-04 +1.15464E-02 +1.30515E-02 +2.62694E-03 +2.25850E-02 -1.10809E-02 +2.47798E-02
 -2.40445E-02 +1.82444E-02 -3.11627E-02 +5.28523E-03 -2.99280E-02 -9.24402E-03 -2.13548E-02 -2.01449E-02
 -9.32372E-03 -2.41098E-02 +1.29023E-03 -2.10007E-02 +6.81129E-03 -1.36531E-02 +6.28405E-03 -6.37349E-03
 +1.67713E-03 -2.87235E-03 -3.25189E-03 -4.59569E-03 -4.84622E-03 -1.01903E-02 -1.29582E-03 -1.62905E-02
 +6.55257E-03 -1.92058E-02 +1.56534E-02 -1.66968E-02 +2.22287E-02 -9.02071E-03 +2.35334E-02 +1.20725E-03
 +1.91035E-02 +1.02326E-02 +1.09330E-02 +1.48711E-02 +2.53396E-03 +1.39179E-02 -2.65970E-03 +8.62908E-03
 -2.80776E-03 +2.09102E-03 +1.57642E-03 -2.20254E-03 +7.93075E-03 -1.90449E-03 +1.28369E-02 +3.19284E-03
 +1.35374E-02 +1.11382E-02 +9.09879E-03 +1.87376E-02 +7.31541E-04 +2.29589E-02 -8.82371E-03 +2.21871E-02
 -1.65197E-02 +1.67964E-02 -2.02659E-02 +8.83782E-03 -1.96809E-02 +1.04356E-03 -1.60505E-02 -4.36609E-03
 -1.15745E-02 -6.53683E-03 -8.29734E-03 -6.15045E-03 -7.22442E-03 -4.89853E-03 -8.00121E-03 -4.55881E-03
 -9.24922E-03 -6.12781E-03 -9.34724E-03 -9.39985E-03 -7.26100E-03 -1.31482E-02 -3.03427E-03 -1.57765E-02
 +2.26077E-03 -1.61031E-02 +7.05252E-03 -1.39065E-02 +1.00015E-02 -9.99525E-03 +1.05854E-02 -5.80343E-03
 +9.28135E-03 -2.72635E-03 +7.28975E-03 -1.51508E-03 +5.95775E-03 -1.99607E-03 +6.17915E-03 -3.21535E-03
 +8.03676E-03 -3.90902E-03 +1.08200E-02 -3.06680E-03 +1.33733E-02 -3.37984E-04 +1.45906E-02 +3.87456E-03
 +1.38324E-02 +8.63256E-03 +1.11028E-02 +1.28585E-02 +6.95466E-03 +1.57193E-02 +2.21084E-03 +1.68443E-02
 -2.34564E-03 +1.63257E-02 -6.17975E-03 +1.45552E-02 -9.05474E-03 +1.20118E-02 -1.09568E-02 +9.10730E-03
 -1.19786E-02 +6.13662E-03 -1.22406E-02 +3.30858E-03 -1.18810E-02 +7.91993E-04 -1.10845E-02 -1.27928E-03
 -1.00933E-02 -2.85240E-03 -9.15754E-03 -4.01189E-03 -8.43434E-03 -4.98534E-03 -7.89105E-03 -6.06258E-03
 -7.28514E-03 -7.44866E-03 -6.25899E-03 -9.12400E-03 -4.52284E-03 -1.07986E-02 -2.03797E-03 -1.20088E-02
 +9.04743E-04 -1.23279E-02 +3.77360E-03 -1.15932E-02 +6.02934E-03 -1.00226E-02 +7.39487E-03 -8.14166E-03
 +8.01719E-03 -6.53223E-03 +8.41637E-03 -5.51644E-03 +9.21850E-03 -4.94115E-03 +1.07869E-02 -4.19589E-03
 +1.29366E-02 -2.49061E-03 +1.48987E-02 +7.15513E-04 +1.55926E-02 +5.33751E-03 +1.41119E-02 +1.05436E-02
 +1.02088E-02 +1.49890E-02 +4.53508E-03 +1.73374E-02 -1.50903E-03 +1.68519E-02 -6.29049E-03 +1.37796E-02
 -8.61790E-03 +9.32686E-03 -8.27235E-03 +5.19746E-03 -6.13605E-03 +2.87568E-03 -3.83034E-03 +2.96683E-03
 -2.99974E-03 +4.90522E-03 -4.55383E-03 +7.18528E-03 -8.21630E-03 +8.03538E-03 -1.26053E-02 +6.24193E-03
 -1.58307E-02 +1.74655E-03 -1.63507E-02 -4.27181E-03 -1.36974E-02 -9.88818E-03 -8.72598E-03 -1.32874E-02
 -3.25311E-03 -1.35950E-02 +7.65890E-04 -1.12908E-02 +2.14857E-03 -7.99505E-03 +1.05596E-03 -5.70498E-03
 -1.06216E-03 -5.82685E-03 -2.14585E-03 -8.45521E-03 -5.29482E-04 -1.22553E-02 +4.19290E-03 -1.50314E-02
