 Created: 28-Mar-2021
 $NMID
 ID='D:\BASISSIMULATI'
 FMTDAT='(8E13.5)'
 VOLUME=   1.00000E+00
 TRAMP=   1.00000E+00
 $END
 +3.47321E-02 +4.26485E-09 +3.47212E-02 +4.26351E-09 +3.47103E-02 +4.26217E-09 +3.46994E-02 +4.26083E-09
 +3.46885E-02 +4.25949E-09 +3.46776E-02 +4.25815E-09 +3.46667E-02 +4.25682E-09 +3.46558E-02 +4.25548E-09
 +3.46449E-02 +4.25414E-09 +3.46341E-02 +4.25281E-09 +3.46232E-02 +4.25147E-09 +3.46123E-02 +4.25013E-09
 +3.46014E-02 +4.24880E-09 +3.45906E-02 +4.24746E-09 +3.45797E-02 +4.24613E-09 +3.45688E-02 +4.24480E-09
 +3.45580E-02 +4.24346E-09 +3.45471E-02 +4.24213E-09 +3.45363E-02 +4.24080E-09 +3.45254E-02 +4.23947E-09
 +3.45146E-02 +4.23813E-09 +3.45037E-02 +4.23680E-09 +3.44929E-02 +4.23547E-09 +3.44821E-02 +4.23414E-09
 +3.44712E-02 +4.23281E-09 +3.44604E-02 +4.23148E-09 +3.44496E-02 +4.23015E-09 +3.44388E-02 +4.22882E-09
 +3.44279E-02 +4.22750E-09 +3.44171E-02 +4.22617E-09 +3.44063E-02 +4.22484E-09 +3.43955E-02 +4.22351E-09
 +3.43847E-02 +4.22219E-09 +3.43739E-02 +4.22086E-09 +3.43631E-02 +4.21953E-09 +3.43523E-02 +4.21821E-09
 +3.43415E-02 +4.21688E-09 +3.43307E-02 +4.21556E-09 +3.43200E-02 +4.21424E-09 +3.43092E-02 +4.21291E-09
 +3.42984E-02 +4.21159E-09 +3.42876E-02 +4.21027E-09 +3.42769E-02 +4.20894E-09 +3.42661E-02 +4.20762E-09
 +3.42553E-02 +4.20630E-09 +3.42446E-02 +4.20498E-09 +3.42338E-02 +4.20366E-09 +3.42231E-02 +4.20234E-09
 +3.42123E-02 +4.20102E-09 +3.42016E-02 +4.19970E-09 +3.41908E-02 +4.19838E-09 +3.41801E-02 +4.19706E-09
 +3.41693E-02 +4.19574E-09 +3.41586E-02 +4.19442E-09 +3.41479E-02 +4.19311E-09 +3.41372E-02 +4.19179E-09
 +3.41264E-02 +4.19047E-09 +3.41157E-02 +4.18916E-09 +3.41050E-02 +4.18784E-09 +3.40943E-02 +4.18652E-09
 +3.40836E-02 +4.18521E-09 +3.40729E-02 +4.18390E-09 +3.40622E-02 +4.18258E-09 +3.40515E-02 +4.18127E-09
 +3.40408E-02 +4.17995E-09 +3.40301E-02 +4.17864E-09 +3.40194E-02 +4.17733E-09 +3.40087E-02 +4.17602E-09
 +3.39980E-02 +4.17470E-09 +3.39873E-02 +4.17339E-09 +3.39767E-02 +4.17208E-09 +3.39660E-02 +4.17077E-09
 +3.39553E-02 +4.16946E-09 +3.39447E-02 +4.16815E-09 +3.39340E-02 +4.16684E-09 +3.39233E-02 +4.16553E-09
 +3.39127E-02 +4.16423E-09 +3.39020E-02 +4.16292E-09 +3.38914E-02 +4.16161E-09 +3.38807E-02 +4.16030E-09
 +3.38701E-02 +4.15900E-09 +3.38595E-02 +4.15769E-09 +3.38488E-02 +4.15638E-09 +3.38382E-02 +4.15508E-09
 +3.38276E-02 +4.15377E-09 +3.38169E-02 +4.15247E-09 +3.38063E-02 +4.15116E-09 +3.37957E-02 +4.14986E-09
 +3.37851E-02 +4.14856E-09 +3.37745E-02 +4.14725E-09 +3.37639E-02 +4.14595E-09 +3.37532E-02 +4.14465E-09
 +3.37426E-02 +4.14335E-09 +3.37320E-02 +4.14204E-09 +3.37215E-02 +4.14074E-09 +3.37109E-02 +4.13944E-09
 +3.37003E-02 +4.13814E-09 +3.36897E-02 +4.13684E-09 +3.36791E-02 +4.13554E-09 +3.36685E-02 +4.13424E-09
 +3.36579E-02 +4.13295E-09 +3.36474E-02 +4.13165E-09 +3.36368E-02 +4.13035E-09 +3.36262E-02 +4.12905E-09
 +3.36157E-02 +4.12776E-09 +3.36051E-02 +4.12646E-09 +3.35946E-02 +4.12516E-09 +3.35840E-02 +4.12387E-09
 +3.35735E-02 +4.12257E-09 +3.35629E-02 +4.12128E-09 +3.35524E-02 +4.11998E-09 +3.35418E-02 +4.11869E-09
 +3.35313E-02 +4.11739E-09 +3.35208E-02 +4.11610E-09 +3.35102E-02 +4.11481E-09 +3.34997E-02 +4.11352E-09
 +3.34892E-02 +4.11222E-09 +3.34787E-02 +4.11093E-09 +3.34682E-02 +4.10964E-09 +3.34576E-02 +4.10835E-09
 +3.34471E-02 +4.10706E-09 +3.34366E-02 +4.10577E-09 +3.34261E-02 +4.10448E-09 +3.34156E-02 +4.10319E-09
 +3.34051E-02 +4.10190E-09 +3.33946E-02 +4.10061E-09 +3.33841E-02 +4.09932E-09 +3.33737E-02 +4.09804E-09
 +3.33632E-02 +4.09675E-09 +3.33527E-02 +4.09546E-09 +3.33422E-02 +4.09418E-09 +3.33317E-02 +4.09289E-09
 +3.33213E-02 +4.09161E-09 +3.33108E-02 +4.09032E-09 +3.33003E-02 +4.08903E-09 +3.32899E-02 +4.08775E-09
 +3.32794E-02 +4.08647E-09 +3.32690E-02 +4.08518E-09 +3.32585E-02 +4.08390E-09 +3.32481E-02 +4.08262E-09
 +3.32376E-02 +4.08134E-09 +3.32272E-02 +4.08005E-09 +3.32168E-02 +4.07877E-09 +3.32063E-02 +4.07749E-09
 +3.31959E-02 +4.07621E-09 +3.31855E-02 +4.07493E-09 +3.31750E-02 +4.07365E-09 +3.31646E-02 +4.07237E-09
 +3.31542E-02 +4.07109E-09 +3.31438E-02 +4.06981E-09 +3.31334E-02 +4.06853E-09 +3.31230E-02 +4.06726E-09
 +3.31126E-02 +4.06598E-09 +3.31022E-02 +4.06470E-09 +3.30918E-02 +4.06342E-09 +3.30814E-02 +4.06215E-09
 +3.30710E-02 +4.06087E-09 +3.30606E-02 +4.05960E-09 +3.30502E-02 +4.05832E-09 +3.30398E-02 +4.05705E-09
 +3.30295E-02 +4.05577E-09 +3.30191E-02 +4.05450E-09 +3.30087E-02 +4.05322E-09 +3.29983E-02 +4.05195E-09
 +3.29880E-02 +4.05068E-09 +3.29776E-02 +4.04941E-09 +3.29673E-02 +4.04813E-09 +3.29569E-02 +4.04686E-09
 +3.29465E-02 +4.04559E-09 +3.29362E-02 +4.04432E-09 +3.29259E-02 +4.04305E-09 +3.29155E-02 +4.04178E-09
 +3.29052E-02 +4.04051E-09 +3.28948E-02 +4.03924E-09 +3.28845E-02 +4.03797E-09 +3.28742E-02 +4.03670E-09
 +3.28638E-02 +4.03544E-09 +3.28535E-02 +4.03417E-09 +3.28432E-02 +4.03290E-09 +3.28329E-02 +4.03164E-09
 +3.28226E-02 +4.03037E-09 +3.28123E-02 +4.02910E-09 +3.28020E-02 +4.02784E-09 +3.27917E-02 +4.02657E-09
 +3.27814E-02 +4.02531E-09 +3.27711E-02 +4.02404E-09 +3.27608E-02 +4.02278E-09 +3.27505E-02 +4.02152E-09
 +3.27402E-02 +4.02025E-09 +3.27299E-02 +4.01899E-09 +3.27196E-02 +4.01773E-09 +3.27093E-02 +4.01646E-09
 +3.26991E-02 +4.01520E-09 +3.26888E-02 +4.01394E-09 +3.26785E-02 +4.01268E-09 +3.26683E-02 +4.01142E-09
 +3.26580E-02 +4.01016E-09 +3.26477E-02 +4.00890E-09 +3.26375E-02 +4.00764E-09 +3.26272E-02 +4.00638E-09
 +3.26170E-02 +4.00512E-09 +3.26067E-02 +4.00387E-09 +3.25965E-02 +4.00261E-09 +3.25863E-02 +4.00135E-09
 +3.25760E-02 +4.00009E-09 +3.25658E-02 +3.99884E-09 +3.25556E-02 +3.99758E-09 +3.25453E-02 +3.99633E-09
 +3.25351E-02 +3.99507E-09 +3.25249E-02 +3.99381E-09 +3.25147E-02 +3.99256E-09 +3.25045E-02 +3.99131E-09
 +3.24943E-02 +3.99005E-09 +3.24841E-02 +3.98880E-09 +3.24738E-02 +3.98755E-09 +3.24636E-02 +3.98629E-09
 +3.24535E-02 +3.98504E-09 +3.24433E-02 +3.98379E-09 +3.24331E-02 +3.98254E-09 +3.24229E-02 +3.98129E-09
 +3.24127E-02 +3.98004E-09 +3.24025E-02 +3.97879E-09 +3.23923E-02 +3.97754E-09 +3.23822E-02 +3.97629E-09
 +3.23720E-02 +3.97504E-09 +3.23618E-02 +3.97379E-09 +3.23517E-02 +3.97254E-09 +3.23415E-02 +3.97130E-09
 +3.23313E-02 +3.97005E-09 +3.23212E-02 +3.96880E-09 +3.23110E-02 +3.96755E-09 +3.23009E-02 +3.96631E-09
 +3.22907E-02 +3.96506E-09 +3.22806E-02 +3.96382E-09 +3.22704E-02 +3.96257E-09 +3.22603E-02 +3.96133E-09
 +3.22502E-02 +3.96008E-09 +3.22400E-02 +3.95884E-09 +3.22299E-02 +3.95760E-09 +3.22198E-02 +3.95635E-09
 +3.22097E-02 +3.95511E-09 +3.21996E-02 +3.95387E-09 +3.21894E-02 +3.95262E-09 +3.21793E-02 +3.95138E-09
 +3.21692E-02 +3.95014E-09 +3.21591E-02 +3.94890E-09 +3.21490E-02 +3.94766E-09 +3.21389E-02 +3.94642E-09
 +3.21288E-02 +3.94518E-09 +3.21187E-02 +3.94394E-09 +3.21086E-02 +3.94270E-09 +3.20986E-02 +3.94146E-09
 +3.20885E-02 +3.94023E-09 +3.20784E-02 +3.93899E-09 +3.20683E-02 +3.93775E-09 +3.20583E-02 +3.93651E-09
 +3.20482E-02 +3.93528E-09 +3.20381E-02 +3.93404E-09 +3.20281E-02 +3.93281E-09 +3.20180E-02 +3.93157E-09
 +3.20079E-02 +3.93034E-09 +3.19979E-02 +3.92910E-09 +3.19878E-02 +3.92787E-09 +3.19778E-02 +3.92663E-09
 +3.19677E-02 +3.92540E-09 +3.19577E-02 +3.92417E-09 +3.19477E-02 +3.92294E-09 +3.19376E-02 +3.92170E-09
 +3.19276E-02 +3.92047E-09 +3.19176E-02 +3.91924E-09 +3.19075E-02 +3.91801E-09 +3.18975E-02 +3.91678E-09
 +3.18875E-02 +3.91555E-09 +3.18775E-02 +3.91432E-09 +3.18675E-02 +3.91309E-09 +3.18575E-02 +3.91186E-09
 +3.18474E-02 +3.91063E-09 +3.18374E-02 +3.90940E-09 +3.18274E-02 +3.90817E-09 +3.18174E-02 +3.90695E-09
 +3.18075E-02 +3.90572E-09 +3.17975E-02 +3.90449E-09 +3.17875E-02 +3.90327E-09 +3.17775E-02 +3.90204E-09
 +3.17675E-02 +3.90081E-09 +3.17575E-02 +3.89959E-09 +3.17476E-02 +3.89836E-09 +3.17376E-02 +3.89714E-09
 +3.17276E-02 +3.89591E-09 +3.17176E-02 +3.89469E-09 +3.17077E-02 +3.89347E-09 +3.16977E-02 +3.89225E-09
 +3.16878E-02 +3.89102E-09 +3.16778E-02 +3.88980E-09 +3.16679E-02 +3.88858E-09 +3.16579E-02 +3.88735E-09
 +3.16480E-02 +3.88614E-09 +3.16380E-02 +3.88492E-09 +3.16281E-02 +3.88369E-09 +3.16182E-02 +3.88248E-09
 +3.16082E-02 +3.88126E-09 +3.15983E-02 +3.88004E-09 +3.15884E-02 +3.87882E-09 +3.15785E-02 +3.87760E-09
 +3.15685E-02 +3.87638E-09 +3.15586E-02 +3.87516E-09 +3.15487E-02 +3.87395E-09 +3.15388E-02 +3.87273E-09
 +3.15289E-02 +3.87151E-09 +3.15190E-02 +3.87030E-09 +3.15091E-02 +3.86908E-09 +3.14992E-02 +3.86786E-09
 +3.14893E-02 +3.86665E-09 +3.14794E-02 +3.86544E-09 +3.14695E-02 +3.86422E-09 +3.14596E-02 +3.86301E-09
 +3.14497E-02 +3.86180E-09 +3.14399E-02 +3.86058E-09 +3.14300E-02 +3.85937E-09 +3.14201E-02 +3.85816E-09
 +3.14102E-02 +3.85695E-09 +3.14004E-02 +3.85573E-09 +3.13905E-02 +3.85452E-09 +3.13807E-02 +3.85331E-09
 +3.13708E-02 +3.85210E-09 +3.13609E-02 +3.85089E-09 +3.13511E-02 +3.84968E-09 +3.13412E-02 +3.84847E-09
 +3.13314E-02 +3.84726E-09 +3.13216E-02 +3.84606E-09 +3.13117E-02 +3.84485E-09 +3.13019E-02 +3.84364E-09
 +3.12921E-02 +3.84243E-09 +3.12822E-02 +3.84123E-09 +3.12724E-02 +3.84002E-09 +3.12626E-02 +3.83881E-09
 +3.12528E-02 +3.83760E-09 +3.12429E-02 +3.83640E-09 +3.12331E-02 +3.83520E-09 +3.12233E-02 +3.83399E-09
 +3.12135E-02 +3.83279E-09 +3.12037E-02 +3.83158E-09 +3.11939E-02 +3.83038E-09 +3.11841E-02 +3.82918E-09
 +3.11743E-02 +3.82798E-09 +3.11645E-02 +3.82677E-09 +3.11547E-02 +3.82557E-09 +3.11449E-02 +3.82437E-09
 +3.11352E-02 +3.82317E-09 +3.11254E-02 +3.82197E-09 +3.11156E-02 +3.82077E-09 +3.11058E-02 +3.81956E-09
 +3.10961E-02 +3.81837E-09 +3.10863E-02 +3.81717E-09 +3.10765E-02 +3.81597E-09 +3.10668E-02 +3.81477E-09
 +3.10570E-02 +3.81357E-09 +3.10473E-02 +3.81237E-09 +3.10375E-02 +3.81118E-09 +3.10278E-02 +3.80998E-09
 +3.10180E-02 +3.80878E-09 +3.10083E-02 +3.80759E-09 +3.09985E-02 +3.80639E-09 +3.09888E-02 +3.80519E-09
 +3.09791E-02 +3.80400E-09 +3.09693E-02 +3.80280E-09 +3.09596E-02 +3.80161E-09 +3.09499E-02 +3.80041E-09
 +3.09401E-02 +3.79922E-09 +3.09304E-02 +3.79803E-09 +3.09207E-02 +3.79683E-09 +3.09110E-02 +3.79564E-09
 +3.09013E-02 +3.79445E-09 +3.08916E-02 +3.79326E-09 +3.08819E-02 +3.79207E-09 +3.08722E-02 +3.79087E-09
