 Created: 16-Jan-2021
 $NMID
 ID='D:\BASISSIMULATI'
 FMTDAT='(8E13.5)'
 VOLUME=   1.00000E+00
 TRAMP=   1.00000E+00
 $END
 +3.36035E+01 +1.02806E+00 +2.45794E+01 +2.11246E+01 +4.52119E+00 +2.86562E+01 -1.38213E+01 +1.98037E+01
 -1.91863E+01 +1.39351E+00 -9.14726E+00 -1.38268E+01 +8.56938E+00 -1.57179E+01 +2.15083E+01 -3.28436E+00
 +2.08073E+01 +1.50590E+01 +6.77958E+00 +2.73974E+01 -1.17889E+01 +2.61919E+01 -2.38005E+01 +1.28274E+01
 -2.30671E+01 -3.92596E+00 -1.17998E+01 -1.40804E+01 +1.59319E+00 -1.28303E+01 +8.44887E+00 -3.01371E+00
 +5.31239E+00 +7.55729E+00 -4.54750E+00 +1.16095E+01 -1.40697E+01 +6.87719E+00 -1.73162E+01 -3.20160E+00
 -1.29452E+01 -1.24709E+01 -4.24769E+00 -1.62482E+01 +3.69689E+00 -1.38475E+01 +7.40444E+00 -8.13486E+00
 +6.64587E+00 -2.99580E+00 +3.70157E+00 -7.93749E-01 +1.27343E+00 -1.45661E+00 +7.72735E-01 -3.35085E+00
 +2.01049E+00 -4.83322E+00 +4.04309E+00 -5.18970E+00 +6.13615E+00 -4.49736E+00 +8.01841E+00 -2.94202E+00
 +9.45198E+00 -4.57313E-01 +9.81830E+00 +2.95337E+00 +8.33954E+00 +6.63916E+00 +4.85529E+00 +9.22456E+00
 +4.24262E-01 +9.36027E+00 -2.96767E+00 +6.82717E+00 -3.60846E+00 +3.06037E+00 -1.36479E+00 +4.87090E-01
 +1.94941E+00 +9.70452E-01 +3.58188E+00 +4.41947E+00 +1.65365E+00 +8.62793E+00 -3.46261E+00 +1.05866E+01
 -9.21254E+00 +8.45321E+00 -1.24158E+01 +2.84457E+00 -1.13020E+01 -3.46158E+00 -6.66507E+00 -7.25413E+00
 -1.35814E+00 -6.90786E+00 +1.53004E+00 -3.36485E+00 +6.07403E-01 +5.41953E-01 -3.02887E+00 +1.93786E+00
 -6.59859E+00 -3.00657E-01 -7.45133E+00 -4.94069E+00 -4.68689E+00 -9.28199E+00 +4.09678E-01 -1.08815E+01
 +5.29010E+00 -8.98443E+00 +7.73662E+00 -4.81635E+00 +7.09800E+00 -6.76446E-01 +4.47053E+00 +1.49306E+00
 +1.84707E+00 +1.15160E+00 +8.69884E-01 -7.38869E-01 +1.96477E+00 -2.47741E+00 +4.28962E+00 -2.68111E+00
 +6.38832E+00 -9.92688E-01 +7.06080E+00 +1.88769E+00 +5.93757E+00 +4.73072E+00 +3.51931E+00 +6.47021E+00
 +7.84171E-01 +6.66942E+00 -1.33829E+00 +5.59022E+00 -2.34757E+00 +3.93954E+00 -2.28533E+00 +2.49454E+00
 -1.61704E+00 +1.78848E+00 -9.89763E-01 +1.94523E+00 -9.65636E-01 +2.67251E+00 -1.79967E+00 +3.39231E+00
 -3.31990E+00 +3.47686E+00 -4.96588E+00 +2.53021E+00 -6.00801E+00 +6.09111E-01 -5.88848E+00 -1.74006E+00
 -4.53118E+00 -3.69363E+00 -2.43962E+00 -4.54678E+00 -4.86390E-01 -4.09857E+00 +5.30690E-01 -2.79741E+00
 +3.32927E-01 -1.52885E+00 -6.59325E-01 -1.13317E+00 -1.54327E+00 -1.91633E+00 -1.44724E+00 -3.44733E+00
 -5.17781E-02 -4.78165E+00 +2.19377E+00 -4.99885E+00 +4.30144E+00 -3.74554E+00 +5.29826E+00 -1.46019E+00
 +4.78165E+00 +8.60709E-01 +3.14872E+00 +2.22274E+00 +1.36316E+00 +2.19225E+00 +3.97728E-01 +1.12659E+00
 +6.80766E-01 -5.49461E-02 +1.86844E+00 -4.18761E-01 +3.06738E+00 +4.41100E-01 +3.36735E+00 +2.17932E+00
 +2.36834E+00 +3.91282E+00 +4.00894E-01 +4.73463E+00 -1.67449E+00 +4.22497E+00 -2.95926E+00 +2.67048E+00
 -3.01108E+00 +8.79854E-01 -2.06300E+00 -2.83238E-01 -8.57434E-01 -3.76263E-01 -2.05305E-01 +4.03037E-01
 -5.28631E-01 +1.36445E+00 -1.64199E+00 +1.74067E+00 -2.88356E+00 +1.12693E+00 -3.50729E+00 -3.01371E-01
 -3.10610E+00 -1.90468E+00 -1.82837E+00 -2.95005E+00 -2.75648E-01 -3.01831E+00 +8.47008E-01 -2.21819E+00
 +1.12076E+00 -1.09691E+00 +6.22891E-01 -3.12135E-01 -1.51219E-01 -2.61630E-01 -5.94128E-01 -8.80179E-01
 -3.35574E-01 -1.70757E+00 +5.63049E-01 -2.17236E+00 +1.66666E+00 -1.91874E+00 +2.42662E+00 -9.92817E-01
 +2.48498E+00 +2.03114E-01 +1.85485E+00 +1.14483E+00 +8.90710E-01 +1.46843E+00 +8.19167E-02 +1.14804E+00
 -2.08775E-01 +4.85791E-01 +7.57519E-02 -6.58175E-02 +6.74247E-01 -1.47782E-01 +1.15685E+00 +3.20098E-01
 +1.15681E+00 +1.10110E+00 +5.68476E-01 +1.76668E+00 -3.87547E-01 +1.92381E+00 -1.26997E+00 +1.43209E+00
 -1.64804E+00 +4.96166E-01 -1.34296E+00 -4.26646E-01 -5.45743E-01 -8.69063E-01 +2.69171E-01 -6.22666E-01
 +6.04904E-01 +1.23102E-01 +2.38992E-01 +8.69364E-01 -6.22707E-01 +1.09284E+00 -1.44502E+00 +5.69089E-01
 -1.67621E+00 -4.66145E-01 -1.09410E+00 -1.43356E+00 +3.22732E-02 -1.75183E+00 +1.08127E+00 -1.20170E+00
 +1.44713E+00 -8.20971E-02 +9.16366E-01 +9.51798E-01 -1.85998E-01 +1.27983E+00 -1.18024E+00 +6.99403E-01
 -1.44006E+00 -4.40086E-01 -7.76375E-01 -1.43909E+00 +4.39227E-01 -1.66655E+00 +1.48832E+00 -9.42581E-01
 +1.72958E+00 +3.44781E-01 +9.81337E-01 +1.45836E+00 -3.61468E-01 +1.73763E+00 -1.54356E+00 +9.85244E-01
 -1.87598E+00 -4.06943E-01 -1.13325E+00 -1.66519E+00 +3.01792E-01 -2.06317E+00 +1.63243E+00 -1.33906E+00
 +2.08541E+00 +1.32375E-01 +1.35833E+00 +1.52087E+00 -1.74570E-01 +1.99474E+00 -1.63391E+00 +1.20910E+00
 -2.11684E+00 -4.51578E-01 -1.23515E+00 -2.04239E+00 +6.05839E-01 -2.57897E+00 +2.38355E+00 -1.63185E+00
 +3.02944E+00 +3.63094E-01 +2.08153E+00 +2.30031E+00 +1.71663E-02 +3.03470E+00 -1.97509E+00 +2.08900E+00
 -2.68882E+00 -4.55416E-03 -1.65333E+00 -1.97647E+00 +5.31295E-01 -2.57640E+00 +2.51954E+00 -1.35932E+00
 +3.03384E+00 +1.00147E+00 +1.66648E+00 +3.09728E+00 -8.43812E-01 +3.64217E+00 -3.05031E+00 +2.27082E+00
 -3.68300E+00 -2.31991E-01 -2.42152E+00 -2.41637E+00 -7.21407E-02 -3.05526E+00 +1.94775E+00 -1.87322E+00
 +2.47478E+00 +3.27755E-01 +1.26926E+00 +2.19191E+00 -9.00931E-01 +2.62580E+00 -2.76448E+00 +1.40026E+00
 -3.28936E+00 -7.89727E-01 -2.21673E+00 -2.77837E+00 -1.22463E-01 -3.57821E+00 +1.95244E+00 -2.85456E+00
 +3.04407E+00 -1.02104E+00 +2.69871E+00 +1.01552E+00 +1.13844E+00 +2.28616E+00 -8.53861E-01 +2.17865E+00
 -2.26148E+00 +7.10695E-01 -2.27346E+00 -1.42785E+00 -7.01184E-01 -3.11616E+00 +1.81535E+00 -3.30347E+00
 +3.99179E+00 -1.59976E+00 +4.50487E+00 +1.35856E+00 +2.77952E+00 +4.07383E+00 -5.03377E-01 +4.93821E+00
 -3.59741E+00 +3.22778E+00 -4.62275E+00 -2.77683E-01 -2.76412E+00 -3.55795E+00 +1.03875E+00 -4.49198E+00
 +4.47423E+00 -2.24196E+00 +5.22032E+00 +2.03477E+00 +2.48343E+00 +5.73060E+00 -2.32136E+00 +6.37109E+00
 -6.30918E+00 +3.26532E+00 -6.91507E+00 -1.89811E+00 -3.60325E+00 -6.00317E+00 +1.66901E+00 -6.47071E+00
 +5.62013E+00 -2.96832E+00 +5.73788E+00 +2.29666E+00 +1.93059E+00 +5.94955E+00 -3.37642E+00 +5.61584E+00
 -6.78784E+00 +1.45899E+00 -6.11794E+00 -3.92918E+00 -1.77014E+00 -7.20620E+00 +3.57058E+00 -6.40760E+00
 +6.69015E+00 -2.13658E+00 +5.86372E+00 +2.91579E+00 +1.83972E+00 +5.73457E+00 -2.77117E+00 +4.83768E+00
 -5.20591E+00 +1.05613E+00 -4.20615E+00 -3.15515E+00 -6.13901E-01 -5.31073E+00 +3.33435E+00 -4.33014E+00
 +5.43035E+00 -9.84996E-01 +4.70424E+00 +2.75873E+00 +1.77254E+00 +4.95089E+00 -1.70865E+00 +4.65602E+00
 -4.01455E+00 +2.26008E+00 -4.16908E+00 -9.09525E-01 -2.27198E+00 -3.30597E+00 +6.69960E-01 -3.84161E+00
 +3.22370E+00 -2.29648E+00 +4.12296E+00 +6.09660E-01 +2.81298E+00 +3.48148E+00 -2.23414E-01 +4.81368E+00
 -3.55155E+00 +3.71704E+00 -5.38124E+00 +4.95058E-01 -4.50580E+00 -3.31093E+00 -1.11084E+00 -5.60192E+00
 +3.10253E+00 -4.89019E+00 +5.72639E+00 -1.30854E+00 +5.04618E+00 +3.24267E+00 +1.20815E+00 +6.06579E+00
 -3.66105E+00 +5.28370E+00 -6.60608E+00 +1.11694E+00 -5.65217E+00 -4.06861E+00 -1.14168E+00 -7.10086E+00
 +4.32442E+00 -5.96670E+00 +7.40615E+00 -1.16045E+00 +6.10453E+00 +4.50399E+00 +1.07917E+00 +7.57483E+00
 -4.67990E+00 +6.11287E+00 -7.66822E+00 +9.43391E-01 -6.04433E+00 -4.81195E+00 -7.90235E-01 -7.65171E+00
 +4.88637E+00 -5.85950E+00 +7.53324E+00 -5.57142E-01 +5.57272E+00 +5.00485E+00 +2.41326E-01 +7.45779E+00
 -5.20878E+00 +5.36241E+00 -7.51678E+00 +3.70096E-02 -5.37135E+00 -5.30450E+00 -1.35736E-01 -7.52734E+00
 +5.05140E+00 -5.43395E+00 +7.19555E+00 -3.98546E-01 +5.19980E+00 +4.54544E+00 +4.22979E-01 +6.55261E+00
 -4.22604E+00 +4.61427E+00 -6.05146E+00 +5.44971E-02 -4.11769E+00 -4.35233E+00 +3.03467E-01 -6.05312E+00
 +4.57918E+00 -4.16643E+00 +6.29111E+00 +1.07882E-01 +4.59355E+00 +4.28897E+00 +5.94438E-01 +6.09111E+00
 -3.39106E+00 +4.69249E+00 -5.21358E+00 +1.09442E+00 -4.07062E+00 -2.56430E+00 -8.49405E-01 -4.27329E+00
 +2.49103E+00 -3.24475E+00 +4.07405E+00 -2.45607E-01 +3.11347E+00 +2.94480E+00 +2.42072E-01 +4.57167E+00
 -2.94509E+00 +3.82829E+00 -4.80418E+00 +1.19046E+00 -4.48493E+00 -1.94250E+00 -2.28326E+00 -4.03202E+00
 +6.07009E-01 -4.16774E+00 +2.74599E+00 -2.45297E+00 +3.15034E+00 +1.20771E-01 +1.72822E+00 +2.19383E+00
 -7.13074E-01 +2.69058E+00 -2.86069E+00 +1.32224E+00 -3.51694E+00 -1.26461E+00 -2.18892E+00 -3.76569E+00
 +6.18368E-01 -4.83057E+00 +3.57938E+00 -3.75631E+00 +5.17402E+00 -9.23252E-01 +4.49829E+00 +2.30215E+00
 +1.83455E+00 +4.23098E+00 -1.38983E+00 +3.78725E+00 -3.32528E+00 +1.19770E+00 -2.76213E+00 -2.02061E+00
 +8.03505E-02 -3.86117E+00 +3.56501E+00 -3.01266E+00 +5.52962E+00 +2.76723E-01 +4.58389E+00 +4.23441E+00
 +1.02311E+00 +6.55542E+00 -3.25222E+00 +5.79561E+00 -5.82750E+00 +2.30828E+00 -5.24277E+00 -1.89755E+00
 -1.92678E+00 -4.34109E+00 +2.01677E+00 -3.59053E+00 +4.07479E+00 -1.72304E-01 +2.87422E+00 +3.71945E+00
 -9.50377E-01 +5.55533E+00 -5.12244E+00 +4.02780E+00 -7.10578E+00 -1.33064E-01 -5.65214E+00 -4.59292E+00
 -1.56093E+00 -6.82781E+00 +2.81066E+00 -5.64886E+00 +4.97830E+00 -1.90681E+00 +3.82410E+00 +2.04207E+00
 +2.50534E-01 +3.77034E+00 -3.38669E+00 +2.23937E+00 -4.71005E+00 -1.58975E+00 -2.74999E+00 -5.34788E+00
 +1.47846E+00 -6.68528E+00 +5.58649E+00 -4.67826E+00 +7.23844E+00 -3.79662E-01 +5.54367E+00 +3.81019E+00
 +1.58531E+00 +5.57669E+00 -2.23163E+00 +4.07523E+00 -3.62928E+00 +4.36968E-01 -1.83793E+00 -2.91637E+00
 +1.92837E+00 -3.74835E+00 +5.20527E+00 -1.38608E+00 +5.79059E+00 +2.84714E+00 +3.11492E+00 +6.42966E+00
 -1.38578E+00 +7.19608E+00 -5.14746E+00 +4.68813E+00 -6.07292E+00 +4.46236E-01 -3.84300E+00 -2.95882E+00
 -1.03824E-01 -3.55133E+00 +2.59968E+00 -1.19554E+00 +2.46170E+00 +2.34470E+00 -4.36536E-01 +4.57034E+00
 -4.21365E+00 +3.87214E+00 -6.44080E+00 +5.49872E-01 -5.72062E+00 -3.43227E+00 -2.54777E+00 -5.76536E+00
 +1.09476E+00 -5.28951E+00 +3.09008E+00 -2.66925E+00 +2.55345E+00 +1.59602E-01 +3.02972E-01 +1.33843E+00
 -1.82221E+00 +2.82575E-01 -2.25778E+00 -2.06154E+00 -7.05818E-01 -3.99411E+00 +1.81683E+00 -4.25528E+00
 +3.80754E+00 -2.78438E+00 +4.31831E+00 -5.79380E-01 +3.46662E+00 +1.12968E+00 +2.13936E+00 +1.72093E+00
