 Created: 16-Jan-2021
 $NMID
 ID='D:\BASISSIMULATI'
 FMTDAT='(8E13.5)'
 VOLUME=   1.00000E+00
 TRAMP=   1.00000E+00
 $END
 +3.12035E+01 -6.24496E-04 +1.92871E+01 +2.29102E+01 -5.53064E+00 +2.56748E+01 -2.02276E+01 +7.19764E+00
 -1.19585E+01 -1.36082E+01 +9.85374E+00 -1.61032E+01 +2.27887E+01 +2.31601E+00 +1.30416E+01 +2.38522E+01
 -1.13573E+01 +2.74630E+01 -2.82732E+01 +9.00468E+00 -2.26080E+01 -1.48873E+01 -5.69731E-01 -2.27521E+01
 +1.64773E+01 -8.70581E+00 +1.25325E+01 +1.22023E+01 -7.85498E+00 +1.86439E+01 -2.41681E+01 +3.50720E+00
 -1.97124E+01 -1.93771E+01 +2.40994E+00 -2.85685E+01 +2.23476E+01 -1.55038E+01 +2.24834E+01 +7.46878E+00
 +4.09905E+00 +1.90423E+01 -1.41347E+01 +9.29200E+00 -1.42043E+01 -1.10700E+01 +4.04654E+00 -2.12215E+01
 +2.29504E+01 -1.02834E+01 +2.40628E+01 +1.23259E+01 +5.78219E+00 +2.60034E+01 -1.52577E+01 +1.86401E+01
 -2.01662E+01 -2.00367E+00 -5.71970E+00 -1.59607E+01 +1.28590E+01 -1.02250E+01 +1.67197E+01 +8.97475E+00
 +1.46017E+00 +2.23969E+01 -1.88044E+01 +1.63411E+01 -2.50782E+01 -4.30166E+00 -1.16115E+01 -2.08643E+01
 +8.80155E+00 -1.87677E+01 +1.72260E+01 -1.25377E+00 +6.63784E+00 +1.40219E+01 -1.16315E+01 +1.20482E+01
 -1.90216E+01 -5.26629E+00 -7.58977E+00 -2.11497E+01 +1.25108E+01 -2.01569E+01 +2.28896E+01 -2.87522E+00
 +1.44755E+01 +1.48287E+01 -4.04708E+00 +1.70699E+01 -1.48017E+01 +2.97253E+00 -7.86454E+00 -1.28189E+01
 +9.45444E+00 -1.43904E+01 +1.98875E+01 +2.30292E-01 +1.28452E+01 +1.73860E+01 -5.57027E+00 +2.10067E+01
 -1.85857E+01 +7.90962E+00 -1.48138E+01 -9.40051E+00 +1.09188E+00 -1.48693E+01 +1.32067E+01 -4.16601E+00
 +9.71030E+00 +1.14770E+01 -5.94275E+00 +1.62884E+01 -1.85927E+01 +5.08654E+00 -1.60105E+01 -1.19451E+01
 -4.78736E-01 -1.91757E+01 +1.36260E+01 -1.04304E+01 +1.36744E+01 +5.37429E+00 +6.75226E-01 +1.30220E+01
 -1.20291E+01 +5.56659E+00 -1.17416E+01 -9.27252E+00 +1.51109E+00 -1.67851E+01 +1.52505E+01 -9.42091E+00
 +1.66397E+01 +6.16134E+00 +4.65729E+00 +1.56816E+01 -9.20261E+00 +1.09045E+01 -1.21035E+01 -2.74314E+00
 -2.03466E+00 -1.16842E+01 +1.05883E+01 -7.28642E+00 +1.31483E+01 +6.06458E+00 +2.88477E+00 +1.54473E+01
 -1.06988E+01 +1.18765E+01 -1.51180E+01 -1.26546E+00 -6.78077E+00 -1.17292E+01 +5.87221E+00 -1.01998E+01
 +1.06992E+01 +1.00529E+00 +3.45276E+00 +1.04967E+01 -8.43749E+00 +8.88968E+00 -1.32568E+01 -2.33945E+00
 -6.24746E+00 -1.25452E+01 +6.06272E+00 -1.22455E+01 +1.23428E+01 -2.05208E+00 +7.28954E+00 +8.21512E+00
 -3.57983E+00 +9.09021E+00 -9.51810E+00 +3.77062E-01 -4.89725E+00 -8.99742E+00 +5.63355E+00 -9.75689E+00
 +1.18908E+01 -1.08631E+00 +7.97948E+00 +8.86091E+00 -2.27258E+00 +1.09569E+01 -9.25900E+00 +3.73669E+00
 -6.85330E+00 -5.51259E+00 +1.96463E+00 -7.96537E+00 +8.29736E+00 -1.64507E+00 +5.98368E+00 +6.98780E+00
 -2.67559E+00 +9.48491E+00 -9.41814E+00 +3.48336E+00 -8.05486E+00 -5.29474E+00 -2.18360E-01 -8.75937E+00
 +6.51130E+00 -4.16225E+00 +6.00694E+00 +3.56904E+00 -7.11472E-01 +6.84072E+00 -6.78947E+00 +2.68425E+00
 -6.29576E+00 -4.66202E+00 +2.13869E-01 -8.09938E+00 +6.52599E+00 -4.50656E+00 +6.89739E+00 +2.51241E+00
 +1.42878E+00 +6.36156E+00 -4.35161E+00 +3.80946E+00 -4.99532E+00 -2.17168E+00 -2.55354E-01 -5.57356E+00
 +4.99311E+00 -3.19995E+00 +5.66133E+00 +2.48226E+00 +1.26431E+00 +6.00864E+00 -3.90151E+00 +4.24993E+00
 -5.10355E+00 -7.93639E-01 -1.64650E+00 -4.21823E+00 +2.76519E+00 -3.02972E+00 +3.84166E+00 +1.18371E+00
 +7.97861E-01 +4.10118E+00 -3.17582E+00 +2.96521E+00 -4.24325E+00 -9.30374E-01 -1.60373E+00 -3.78714E+00
 +2.00280E+00 -3.09946E+00 +3.19332E+00 +9.30269E-02 +1.19745E+00 +2.51786E+00 -1.66947E+00 +1.98822E+00
 -2.52325E+00 -6.27612E-01 -7.27869E-01 -2.55497E+00 +1.73118E+00 -1.98085E+00 +2.44536E+00 +3.00304E-01
 +9.62431E-01 +1.94549E+00 -1.00029E+00 +1.52095E+00 -1.49978E+00 -2.04744E-01 -3.16655E-01 -1.29769E+00
 +1.04535E+00 -7.46915E-01 +1.11187E+00 +6.20112E-01 -2.97656E-02 +1.22055E+00 -9.95689E-01 +4.84097E-01
 -7.36552E-01 -6.24610E-01 +3.21833E-01 -8.01855E-01 +8.49857E-01 +9.11798E-02 +1.91767E-01 +9.04180E-01
 -8.54723E-01 +5.65574E-01 -9.50369E-01 -6.21078E-01 +1.94992E-01 -1.25085E+00 +1.36791E+00 -4.14483E-01
 +1.13312E+00 +1.15045E+00 -4.93726E-01 +1.72176E+00 -1.87077E+00 +4.71491E-01 -1.40046E+00 -1.46196E+00
 +6.51078E-01 -2.00500E+00 +2.20828E+00 -3.53050E-01 +1.45639E+00 +1.97209E+00 -1.13163E+00 +2.49831E+00
 -3.02583E+00 +3.72553E-01 -2.11474E+00 -2.52891E+00 +9.99409E-01 -3.28887E+00 +3.34678E+00 -9.16771E-01
 +2.46462E+00 +2.41946E+00 -9.86001E-01 +3.35244E+00 -3.61936E+00 +7.03317E-01 -2.58577E+00 -3.10113E+00
 +1.44230E+00 -4.21423E+00 +4.65920E+00 -1.19646E+00 +3.75474E+00 +3.31704E+00 -6.84338E-01 +4.97694E+00
 -4.48350E+00 +1.99540E+00 -3.84622E+00 -2.87311E+00 +7.94363E-01 -4.80785E+00 +4.93796E+00 -1.64408E+00
 +4.28485E+00 +3.77781E+00 -9.32610E-01 +6.14620E+00 -5.89992E+00 +2.84310E+00 -5.75046E+00 -3.28256E+00
 -4.02702E-01 -6.44070E+00 +5.10662E+00 -3.49151E+00 +5.36198E+00 +2.80808E+00 -7.65029E-02 +6.25250E+00
 -5.99424E+00 +3.17966E+00 -6.41888E+00 -3.76978E+00 -5.00485E-01 -7.95839E+00 +6.40216E+00 -5.11868E+00
 +7.71785E+00 +2.33429E+00 +2.07084E+00 +7.39300E+00 -5.16233E+00 +5.15758E+00 -6.87955E+00 -2.26997E+00
 -1.17458E+00 -7.58929E+00 +6.58528E+00 -5.28869E+00 +8.75353E+00 +2.85898E+00 +2.82665E+00 +9.24871E+00
 -5.90577E+00 +7.67138E+00 -9.25232E+00 -5.68271E-01 -4.01828E+00 -7.67923E+00 +4.72432E+00 -6.78997E+00
 +8.34755E+00 +1.30913E+00 +3.00421E+00 +8.70560E+00 -6.45032E+00 +7.88751E+00 -1.09221E+01 -8.90646E-01
 -5.82041E+00 -9.60138E+00 +4.33204E+00 -1.00213E+01 +1.00387E+01 -1.71690E+00 +5.92572E+00 +7.33755E+00
 -3.93535E+00 +8.31198E+00 -9.76675E+00 +1.01271E-01 -5.47833E+00 -9.39833E+00 +5.28696E+00 -1.07486E+01
 +1.24279E+01 -2.12354E+00 +9.02569E+00 +8.70748E+00 -1.87108E+00 +1.16719E+01 -9.97945E+00 +4.09176E+00
 -7.59628E+00 -6.57959E+00 +2.88114E+00 -9.79520E+00 +1.10823E+01 -2.10621E+00 +8.58133E+00 +9.32192E+00
 -2.85717E+00 +1.34256E+01 -1.27435E+01 +5.88918E+00 -1.18189E+01 -6.52564E+00 -1.01973E+00 -1.22931E+01
 +9.25758E+00 -6.16673E+00 +9.06160E+00 +5.65653E+00 -1.46603E+00 +1.13635E+01 -1.20506E+01 +4.89706E+00
 -1.20649E+01 -8.04239E+00 -8.32731E-01 -1.52764E+01 +1.15113E+01 -9.79553E+00 +1.36008E+01 +3.38778E+00
 +3.76280E+00 +1.18888E+01 -8.25337E+00 +7.79082E+00 -1.05570E+01 -4.65878E+00 -6.02847E-01 -1.30014E+01
 +1.21905E+01 -8.52237E+00 +1.53551E+01 +5.22874E+00 +5.37747E+00 +1.56415E+01 -8.76259E+00 +1.30475E+01
 -1.40551E+01 +5.57751E-02 -5.91889E+00 -1.08271E+01 +7.31632E+00 -9.14975E+00 +1.23324E+01 +3.37433E+00
 +3.65845E+00 +1.43806E+01 -1.09100E+01 +1.26766E+01 -1.76318E+01 -9.09235E-01 -9.97545E+00 -1.41338E+01
 +5.00984E+00 -1.49546E+01 +1.33283E+01 -3.08217E+00 +7.42519E+00 +9.66474E+00 -6.50210E+00 +1.06620E+01
 -1.43799E+01 -1.33303E+00 -7.79179E+00 -1.48490E+01 +7.79685E+00 -1.66209E+01 +1.81068E+01 -4.36275E+00
 +1.36567E+01 +1.08939E+01 -1.10740E+00 +1.52506E+01 -1.19942E+01 +5.23694E+00 -8.65140E+00 -8.82116E+00
 +5.44593E+00 -1.26848E+01 +1.62479E+01 -1.93217E+00 +1.26031E+01 +1.36547E+01 -2.93550E+00 +1.93480E+01
 -1.63957E+01 +9.58016E+00 -1.56694E+01 -6.63651E+00 -2.10172E+00 -1.42545E+01 +1.07692E+01 -6.58198E+00
 +1.01935E+01 +8.27761E+00 -3.49506E+00 +1.51796E+01 -1.70998E+01 +6.52059E+00 -1.71694E+01 -1.03338E+01
 -2.94839E+00 -1.99674E+01 +1.27788E+01 -1.36200E+01 +1.58344E+01 +2.40527E+00 +4.18892E+00 +1.27418E+01
 -1.01021E+01 +7.67879E+00 -1.24803E+01 -7.49841E+00 +7.77118E-02 -1.75466E+01 +1.60468E+01 -1.19088E+01
 +2.03141E+01 +5.06061E+00 +8.65310E+00 +1.81358E+01 -8.17174E+00 +1.57115E+01 -1.46540E+01 +8.79623E-01
 -5.36404E+00 -1.15498E+01 +9.86736E+00 -9.27100E+00 +1.54051E+01 +5.66862E+00 +4.87409E+00 +1.87765E+01
 -1.26155E+01 +1.69938E+01 -2.10882E+01 +1.26160E+00 -1.29463E+01 -1.42902E+01 +3.76876E+00 -1.57922E+01
 +1.30762E+01 -2.85559E+00 +6.36380E+00 +1.11108E+01 -9.36294E+00 +1.18118E+01 -1.82142E+01 -2.15789E+00
 -1.06978E+01 -1.78883E+01 +7.09588E+00 -2.04713E+01 +1.92269E+01 -7.27241E+00 +1.50864E+01 +9.52222E+00
 -5.13018E-01 +1.45376E+01 -1.20053E+01 +3.88562E+00 -8.02959E+00 -1.11740E+01 +7.65502E+00 -1.50972E+01
 +1.97618E+01 -3.03256E+00 +1.61381E+01 +1.44452E+01 -5.52560E-01 +2.13886E+01 -1.53234E+01 +1.16895E+01
 -1.51443E+01 -5.11814E+00 -1.33136E+00 -1.30172E+01 +1.18130E+01 -4.84215E+00 +1.07879E+01 +1.08981E+01
 -4.11030E+00 +1.82347E+01 -1.90337E+01 +9.10312E+00 -1.98235E+01 -8.86645E+00 -5.55193E+00 -1.95893E+01
 +1.05984E+01 -1.38464E+01 +1.39372E+01 +1.98707E+00 +2.26588E+00 +1.21400E+01 -1.21221E+01 +6.60177E+00
 -1.43222E+01 -9.29060E+00 -1.17132E+00 -1.99979E+01 +1.56739E+01 -1.46952E+01 +2.08546E+01 +2.34116E+00
 +9.95197E+00 +1.58035E+01 -6.36113E+00 +1.39480E+01 -1.25906E+01 -2.75300E-01 -3.24182E+00 -1.21824E+01
 +1.19983E+01 -9.51768E+00 +1.76354E+01 +5.77168E+00 +7.27369E+00 +1.94045E+01 -1.02273E+01 +1.84400E+01
 -1.92010E+01 +3.63583E+00 -1.20927E+01 -1.13190E+01 +3.43460E+00 -1.29042E+01 +1.19567E+01 -6.24594E-01
 +5.10470E+00 +1.26571E+01 -1.04585E+01 +1.31612E+01 -1.94886E+01 -5.56217E-01 -1.27977E+01 -1.62131E+01
 +3.95587E+00 -1.95429E+01 +1.56938E+01 -7.88004E+00 +1.22974E+01 +7.39662E+00 -1.84370E+00 +1.18257E+01
 -1.21963E+01 +1.67635E+00 -8.09899E+00 -1.25959E+01 +7.02568E+00 -1.64804E+01 +1.89926E+01 -5.35962E+00
 +1.64483E+01 +1.10760E+01 +1.68724E+00 +1.81013E+01 -1.16182E+01 +9.97086E+00 -1.15091E+01 -4.73380E+00
 +9.21192E-01 -1.14561E+01 +1.27436E+01 -3.63386E+00 +1.17006E+01 +1.10922E+01 -2.03002E+00 +1.82938E+01
 -1.60402E+01 +1.06052E+01 -1.75739E+01 -5.26605E+00 -5.65239E+00 -1.50000E+01 +8.12372E+00 -1.03195E+01
 +1.07570E+01 +3.24659E+00 +2.42569E-01 +1.18363E+01 -1.26603E+01 +6.61355E+00 -1.48606E+01 -7.80621E+00
 -3.49991E+00 -1.78552E+01 +1.13587E+01 -1.40206E+01 +1.63861E+01 +1.27346E-01 +7.65885E+00 +1.14542E+01
 -5.75975E+00 +9.84069E+00 -1.06401E+01 -2.26086E+00 -2.26317E+00 -1.23649E+01 +1.11721E+01 -1.00264E+01
 +1.65181E+01 +3.16808E+00 +8.28757E+00 +1.51940E+01 -6.16998E+00 +1.51179E+01 -1.37706E+01 +3.46181E+00
