 Created: 16-Jan-2021
 $NMID
 ID='D:\BASISSIMULATI'
 FMTDAT='(8E13.5)'
 VOLUME=   1.00000E+00
 TRAMP=   1.00000E+00
 $END
 +3.51878E+01 +3.24785E-02 +3.42389E+01 +7.35335E+00 +3.14480E+01 +1.41593E+01 +2.70308E+01 +1.99684E+01
 +2.13283E+01 +2.43799E+01 +1.47786E+01 +2.71055E+01 +7.88074E+00 +2.79925E+01 +1.15307E+00 +2.70343E+01
 -4.90847E+00 +2.43691E+01 -9.87059E+00 +2.02673E+01 -1.33968E+01 +1.51066E+01 -1.52733E+01 +9.33965E+00
 -1.54238E+01 +3.45595E+00 -1.39132E+01 -2.05956E+00 -1.09389E+01 -6.76595E+00 -6.81169E+00 -1.03018E+01
 -1.92668E+00 -1.24129E+01 +3.27137E+00 -1.29710E+01 +8.32672E+00 -1.19807E+01 +1.28112E+01 -9.57536E+00
 +1.63596E+01 -6.00225E+00 +1.86985E+01 -1.59791E+00 +1.96671E+01 +3.24323E+00 +1.92270E+01 +8.10447E+00
 +1.74619E+01 +1.25836E+01 +1.45661E+01 +1.63272E+01 +1.08241E+01 +1.90602E+01 +6.58251E+00 +2.06069E+01
 +2.21703E+00 +2.09039E+01 -1.90161E+00 +2.00016E+01 -5.44099E+00 +1.80562E+01 -8.13585E+00 +1.53121E+01
 -9.81015E+00 +1.20769E+01 -1.03906E+01 +8.69143E+00 -9.91039E+00 +5.49710E+00 -8.50353E+00 +2.80440E+00
 -6.38955E+00 +8.64496E-01 -3.85112E+00 -1.52972E-01 -1.20602E+00 -1.74258E-01 +1.22349E+00 +7.73240E-01
 +3.14136E+00 +2.56511E+00 +4.30545E+00 +4.99300E+00 +4.55004E+00 +7.78518E+00 +3.80088E+00 +1.06328E+01
 +2.08176E+00 +1.32195E+01 -4.88056E-01 +1.52507E+01 -3.70510E+00 +1.64818E+01 -7.30071E+00 +1.67407E+01
 -1.09658E+01 +1.59440E+01 -1.43791E+01 +1.41050E+01 -1.72370E+01 +1.13325E+01 -1.92805E+01 +7.82186E+00
 -2.03194E+01 +3.83735E+00 -2.02494E+01 -3.11108E-01 -1.90619E+01 -4.29532E+00 -1.68447E+01 -7.79778E+00
 -1.37755E+01 -1.05396E+01 -1.01057E+01 -1.23049E+01 -6.13917E+00 -1.29598E+01 -2.20624E+00 -1.24640E+01
 +1.36500E+00 -1.08743E+01 +4.27654E+00 -8.33943E+00 +6.28576E+00 -5.08770E+00 +7.22582E+00 -1.40703E+00
 +7.01943E+00 +2.37938E+00 +5.68485E+00 +5.94038E+00 +3.33379E+00 +8.96469E+00 +1.61337E-01 +1.11866E+01
 -3.57094E+00 +1.24078E+01 -7.55737E+00 +1.25128E+01 -1.14739E+01 +1.14781E+01 -1.50051E+01 +9.37214E+00
 -1.78699E+01 +6.34904E+00 -1.98440E+01 +2.63424E+00 -2.07774E+01 -1.49513E+00 -2.06052E+01 -5.73388E+00
 -1.93510E+01 -9.77424E+00 -1.71231E+01 -1.33311E+01 -1.41038E+01 -1.61647E+01 -1.05322E+01 -1.80989E+01
 -6.68331E+00 -1.90342E+01 -2.84468E+00 -1.89531E+01 +7.07851E-01 -1.79198E+01 +3.73230E+00 -1.60713E+01
 +6.03942E+00 -1.36047E+01 +7.50648E+00 -1.07579E+01 +8.08510E+00 -7.78903E+00 +7.80249E+00 -4.95383E+00
 +6.75633E+00 -2.48439E+00 +5.10377E+00 -5.70510E-01 +3.04583E+00 +6.54632E-01 +8.08506E-01 +1.12358E+00
 -1.37750E+00 +8.37697E-01 -3.29681E+00 -1.35766E-01 -4.76727E+00 -1.67213E+00 -5.65441E+00 -3.60245E+00
 -5.88121E+00 -5.72998E+00 -5.43244E+00 -7.84851E+00 -4.35354E+00 -9.76081E+00 -2.74421E+00 -1.12956E+01
 -7.47391E-01 -1.23216E+01 +1.46502E+00 -1.27576E+01 +3.70862E+00 -1.25777E+01 +5.80332E+00 -1.18114E+01
 +7.58930E+00 -1.05388E+01 +8.94043E+00 -8.88178E+00 +9.77434E+00 -6.99093E+00 +1.00581E+01 -5.03145E+00
 +9.80941E+00 -3.16752E+00 +9.09295E+00 -1.54760E+00 +8.01300E+00 -2.91606E-01 +6.70245E+00 +5.18934E-01
 +5.30983E+00 +8.46842E-01 +3.98522E+00 +7.01128E-01 +2.86664E+00 +1.34575E-01 +2.06793E+00 -7.62534E-01
 +1.66923E+00 -1.87184E+00 +1.71081E+00 -3.05855E+00 +2.19073E+00 -4.18413E+00 +3.06637E+00 -5.11894E+00
 +4.25948E+00 -5.75360E+00 +5.66441E+00 -6.00814E+00 +7.15830E+00 -5.83822E+00 +8.61263E+00 -5.23792E+00
 +9.90475E+00 -4.23898E+00 +1.09285E+01 -2.90679E+00 +1.16027E+01 -1.33341E+00 +1.18779E+01 +3.71386E-01
 +1.17388E+01 +2.09035E+00 +1.12046E+01 +3.70921E+00 +1.03258E+01 +5.12641E+00 +9.17817E+00 +6.26128E+00
 +7.85563E+00 +7.06000E+00 +6.46073E+00 +7.49888E+00 +5.09559E+00 +7.58481E+00 +3.85316E+00 +7.35299E+00
 +2.80968E+00 +6.86223E+00 +2.01912E+00 +6.18845E+00 +1.50996E+00 +5.41700E+00 +1.28435E+00 +4.63464E+00
 +1.31979E+00 +3.92182E+00 +1.57282E+00 +3.34611E+00 +1.98444E+00 +2.95722E+00 +2.48655E+00 +2.78392E+00
 +3.00872E+00 +2.83322E+00 +3.48468E+00 +3.09151E+00 +3.85794E+00 +3.52761E+00 +4.08601E+00 +4.09715E+00
 +4.14294E+00 +4.74784E+00 +4.02008E+00 +5.42509E+00 +3.72507E+00 +6.07723E+00 +3.27937E+00 +6.66007E+00
 +2.71459E+00 +7.14015E+00 +2.06826E+00 +7.49666E+00 +1.37938E+00 +7.72180E+00 +6.84303E-01 +7.81970E+00
 +1.34026E-02 +7.80426E+00 -6.11192E-01 +7.69602E+00 -1.17665E+00 +7.51874E+00 -1.67923E+00 +7.29595E+00
 -2.12294E+00 +7.04799E+00 -2.51734E+00 +6.78978E+00 -2.87481E+00 +6.52968E+00 -3.20768E+00 +6.26935E+00
 -3.52568E+00 +6.00475E+00 -3.83393E+00 +5.72798E+00 -4.13185E+00 +5.42961E+00 -4.41308E+00 +5.10140E+00
 -4.66643E+00 +4.73869E+00 -4.87768E+00 +4.34237E+00 -5.03213E+00 +3.91995E+00 -5.11734E+00 +3.48569E+00
 -5.12589E+00 +3.05958E+00 -5.05763E+00 +2.66534E+00 -4.92115E+00 +2.32765E+00 -4.73414E+00 +2.06885E+00
 -4.52260E+00 +1.90560E+00 -4.31880E+00 +1.84587E+00 -4.15826E+00 +1.88666E+00 -4.07591E+00 +2.01292E+00
 -4.10193E+00 +2.19766E+00 -4.25777E+00 +2.40363E+00 -4.55260E+00 +2.58625E+00 -4.98103E+00 +2.69772E+00
 -5.52200E+00 +2.69188E+00 -6.13948E+00 +2.52928E+00 -6.78474E+00 +2.18210E+00 -7.40020E+00 +1.63807E+00
 -7.92455E+00 +9.03286E-01 -8.29867E+00 +3.11093E-03 -8.47172E+00 -1.01867E+00 -8.40692E+00 -2.10274E+00
 -8.08627E+00 -3.17892E+00 -7.51371E+00 -4.17221E+00 -6.71624E+00 -5.00982E+00 -5.74293E+00 -5.62830E+00
 -4.66156E+00 -5.98031E+00 -3.55326E+00 -6.04017E+00 -2.50554E+00 -5.80759E+00 -1.60425E+00 -5.30915E+00
 -9.25279E-01 -4.59724E+00 -5.26772E-01 -3.74645E+00 -4.42655E-01 -2.84757E+00 -6.78151E-01 -1.99978E+00
 -1.20784E+00 -1.30158E+00 -1.97658E+00 -8.41381E-01 -2.90328E+00 -6.88563E-01 -3.88741E+00 -8.85979E-01
 -4.81753E+00 -1.44459E+00 -5.58143E+00 -2.34092E+00 -6.07663E+00 -3.51761E+00 -6.22052E+00 -4.88728E+00
 -5.95903E+00 -6.33930E+00 -5.27303E+00 -7.74911E+00 -4.18166E+00 -8.98918E+00 -2.74227E+00 -9.94073E+00
 -1.04679E+00 -1.05051E+01 +7.85282E-01 -1.06137E+01 +2.61670E+00 -1.02357E+01 +4.30428E+00 -9.38198E+00
 +5.71178E+00 -8.10638E+00 +6.72253E+00 -6.50204E+00 +7.25074E+00 -4.69457E+00 +7.25044E+00 -2.83190E+00
 +6.72104E+00 -1.07168E+00 +5.70897E+00 +4.32532E-01 +4.30512E+00 +1.54528E+00 +2.63816E+00 +2.16192E+00
 +8.64276E-01 +2.21901E+00 -8.45913E-01 +1.70130E+00 -2.32212E+00 +6.44610E-01 -3.40953E+00 -8.65776E-01
 -3.98301E+00 -2.70121E+00 -3.95908E+00 -4.69977E+00 -3.30441E+00 -6.67958E+00 -2.04025E+00 -8.45428E+00
 -2.41976E-01 -9.84920E+00 +1.96605E+00 -1.07170E+01 +4.42004E+00 -1.09511E+01 +6.93011E+00 -1.04962E+01
 +9.29609E+00 -9.35378E+00 +1.13246E+01 -7.58372E+00 +1.28457E+01 -5.30005E+00 +1.37283E+01 -2.66233E+00
 +1.38917E+01 +1.37260E-01 +1.33136E+01 +2.88978E+00 +1.20328E+01 +5.38716E+00 +1.01467E+01 +7.43998E+00
 +7.80396E+00 +8.89382E+00 +5.19196E+00 +9.64286E+00 +2.52158E+00 +9.63936E+00 +9.27544E-03 +8.89824E+00
 -2.14139E+00 +7.49625E+00 -3.75718E+00 +5.56582E+00 -4.71018E+00 +3.28397E+00 -4.92895E+00 +8.57378E-01
 -4.40484E+00 -1.49530E+00 -3.19288E+00 -3.56220E+00 -1.40713E+00 -5.15651E+00 +7.89084E-01 -6.13262E+00
 +3.19729E+00 -6.39874E+00 +5.60112E+00 -5.92484E+00 +7.78507E+00 -4.74520E+00 +9.55332E+00 -2.95535E+00
 +1.07467E+01 -7.03647E-01 +1.12568E+01 +1.82187E+00 +1.10349E+01 +4.41001E+00 +1.00964E+01 +6.84512E+00
 +8.51950E+00 +8.92605E+00 +6.43744E+00 +1.04840E+01 +4.02707E+00 +1.13972E+01 +1.49272E+00 +1.16018E+01
 -9.52051E-01 +1.10974E+01 -3.10365E+00 +9.94652E+00 -4.78668E+00 +8.26931E+00 -5.86972E+00 +6.23229E+00
 -6.27716E+00 +4.03331E+00 -5.99594E+00 +1.88353E+00 -5.07683E+00 -1.17629E-02 -3.62981E+00 -1.47194E+00
 -1.81414E+00 -2.35758E+00 +1.76093E-01 -2.58340E+00 +2.12958E+00 -2.12632E+00 +3.83717E+00 -1.02797E+00
 +5.11104E+00 +6.08660E-01 +5.80220E+00 +2.62817E+00 +5.81453E+00 +4.83646E+00 +5.11418E+00 +7.01811E+00
 +3.73346E+00 +8.95583E+00 +1.76879E+00 +1.04502E+01 -6.27157E-01 +1.13381E+01 -3.25843E+00 +1.15082E+01
 -5.90280E+00 +1.09114E+01 -8.33128E+00 +9.56675E+00 -1.03286E+01 +7.56075E+00 -1.17125E+01 +5.04061E+00
 -1.23505E+01 +2.20242E+00 -1.21727E+01 -7.25464E-01 -1.11787E+01 -3.50186E+00 -9.43873E+00 -5.89376E+00
 -7.08904E+00 -7.69673E+00 -4.32084E+00 -8.75315E+00 -1.36467E+00 -8.96660E+00 +1.52884E+00 -8.31106E+00
 +4.11027E+00 -6.83414E+00 +6.15271E+00 -4.65407E+00 +7.47146E+00 -1.95053E+00 +7.94023E+00 +1.04990E+00
 +7.50252E+00 +4.09235E+00 +6.17717E+00 +6.91492E+00 +4.05749E+00 +9.27062E+00 +1.30415E+00 +1.09483E+01
 -1.86776E+00 +1.17906E+01 -5.20630E+00 +1.17076E+01 -8.44344E+00 +1.06844E+01 -1.13173E+01 +8.78330E+00
 -1.35939E+01 +6.13835E+00 -1.50866E+01 +2.94487E+00 -1.56717E+01 -5.56806E-01 -1.52988E+01 -4.10112E+00
 -1.39945E+01 -7.41930E+00 -1.18608E+01 -1.02615E+01 -9.06545E+00 -1.24175E+01 -5.82874E+00 -1.37337E+01
 -2.40439E+00 -1.41258E+01 +9.41448E-01 -1.35850E+01 +3.95243E+00 -1.21783E+01 +6.40323E+00 -1.00425E+01
 +8.11796E+00 -7.37151E+00 +8.98438E+00 -4.40001E+00 +8.96251E+00 -1.38323E+00 +8.08711E+00 +1.42487E+00
 +6.46377E+00 +3.79290E+00 +4.25896E+00 +5.53134E+00 +1.68508E+00 +6.50808E+00 -1.01834E+00 +6.65879E+00
 -3.60557E+00 +5.99149E+00 -5.84589E+00 +4.58476E+00 -7.54328E+00 +2.57989E+00 -8.55290E+00 +1.67719E-01
 -8.79297E+00 -2.42873E+00 -8.25097E+00 -4.97417E+00 -6.98377E+00 -7.24189E+00 -5.11170E+00 -9.03362E+00
 -2.80704E+00 -1.01966E+01 -2.78111E-01 -1.06368E+01 +2.24971E+00 -1.03261E+01 +4.55430E+00 -9.30468E+00
 +6.43664E+00 -7.67620E+00 +7.73848E+00 -5.59821E+00 +8.35624E+00 -3.26735E+00 +8.24994E+00 -9.01360E-01
 +7.44643E+00 +1.28074E+00 +6.03655E+00 +3.07850E+00 +4.16672E+00 +4.32814E+00 +2.02538E+00 +4.91732E+00
 -1.74089E-01 +4.79522E+00 -2.21283E+00 +3.97718E+00 -3.88632E+00 +2.54330E+00 -5.02296E+00 +6.31307E-01
 -5.49973E+00 -1.57570E+00 -5.25345E+00 -3.86568E+00 -4.28681E+00 -6.01655E+00 -2.66849E+00 -7.81616E+00
 -5.27436E-01 -9.08135E+00 +1.95824E+00 -9.67447E+00 +4.57674E+00 -9.51604E+00 +7.10107E+00 -8.59217E+00
 +9.30900E+00 -6.95636E+00 +1.10026E+01 -4.72527E+00 +1.20257E+01 -2.06908E+00 +1.22780E+01 +8.03043E-01
 +1.17240E+01 +3.66074E+00 +1.03964E+01 +6.27228E+00 +8.39410E+00 +8.42452E+00 +5.87359E+00 +9.94126E+00
