 Created: 16-Jan-2021
 $NMID
 ID='D:\BASISSIMULATI'
 FMTDAT='(8E13.5)'
 VOLUME=   1.00000E+00
 TRAMP=   1.00000E+00
 $END
 +2.23755E+01 +5.47478E-01 +1.91741E+01 +1.08547E+01 +1.11725E+01 +1.77611E+01 +1.14265E+00 +1.92542E+01
 -7.53403E+00 +1.52867E+01 -1.21198E+01 +7.74442E+00 -1.15084E+01 -3.08129E-01 -6.57938E+00 -5.80582E+00
 +2.03181E-01 -6.83169E+00 +5.77748E+00 -3.30233E+00 +7.67038E+00 +3.05810E+00 +4.92886E+00 +9.42718E+00
 -1.54872E+00 +1.29906E+01 -9.38998E+00 +1.20166E+01 -1.56716E+01 +6.49378E+00 -1.80240E+01 -1.89352E+00
 -1.54968E+01 -1.04227E+01 -8.87048E+00 -1.63538E+01 -3.17171E-01 -1.79205E+01 +7.43483E+00 -1.49230E+01
 +1.21025E+01 -8.72039E+00 +1.26360E+01 -1.65460E+00 +9.51270E+00 +3.85335E+00 +4.45491E+00 +6.18223E+00
 -2.91188E-01 +5.04145E+00 -2.82362E+00 +1.47796E+00 -2.26919E+00 -2.61163E+00 +9.57427E-01 -5.25253E+00
 +5.38920E+00 -5.14339E+00 +9.11825E+00 -2.11143E+00 +1.05335E+01 +2.87791E+00 +8.90423E+00 +8.13121E+00
 +4.60665E+00 +1.18787E+01 -1.06624E+00 +1.29128E+01 -6.41175E+00 +1.09827E+01 -9.93567E+00 +6.81924E+00
 -1.08503E+01 +1.81043E+00 -9.28327E+00 -2.52921E+00 -6.14672E+00 -5.08846E+00 -2.74208E+00 -5.49990E+00
 -2.64752E-01 -4.18653E+00 +6.06844E-01 -2.12463E+00 -1.00409E-01 -4.32444E-01 -1.73509E+00 +5.34938E-02
 -3.31833E+00 -9.36308E-01 -3.93336E+00 -3.04595E+00 -3.06275E+00 -5.46377E+00 -7.59655E-01 -7.24169E+00
 +2.39293E+00 -7.64165E+00 +5.50483E+00 -6.38746E+00 +7.69355E+00 -3.74334E+00 +8.37850E+00 -4.04715E-01
 +7.45710E+00 +2.74903E+00 +5.31211E+00 +4.94864E+00 +2.65829E+00 +5.77556E+00 +2.88453E-01 +5.27285E+00
 -1.19189E+00 +3.89702E+00 -1.55318E+00 +2.33458E+00 -9.94446E-01 +1.24973E+00 -4.71172E-02 +1.05005E+00
 +6.33802E-01 +1.74846E+00 +5.18219E-01 +2.96717E+00 -5.96630E-01 +4.08107E+00 -2.50041E+00 +4.45160E+00
 -4.63230E+00 +3.66991E+00 -6.27303E+00 +1.72359E+00 -6.80163E+00 -9.74966E-01 -5.92684E+00 -3.71321E+00
 -3.80890E+00 -5.71724E+00 -1.02296E+00 -6.42259E+00 +1.62890E+00 -5.67980E+00 +3.39451E+00 -3.81692E+00
 +3.83904E+00 -1.53026E+00 +3.00389E+00 +3.62740E-01 +1.39387E+00 +1.22195E+00 -2.08739E-01 +8.24299E-01
 -1.03929E+00 -5.47327E-01 -6.47168E-01 -2.20505E+00 +9.19275E-01 -3.31492E+00 +3.11374E+00 -3.22046E+00
 +5.08504E+00 -1.70895E+00 +5.99474E+00 +8.83392E-01 +5.34162E+00 +3.77333E+00 +3.16904E+00 +6.00702E+00
 +7.22965E-02 +6.81060E+00 -3.00212E+00 +5.88330E+00 -5.09425E+00 +3.52042E+00 -5.58002E+00 +5.16077E-01
 -4.40075E+00 -2.12102E+00 -2.08471E+00 -3.53400E+00 +4.48825E-01 -3.32942E+00 +2.23053E+00 -1.71698E+00
 +2.59925E+00 +5.75155E-01 +1.44352E+00 +2.57688E+00 -7.63040E-01 +3.44023E+00 -3.14378E+00 +2.75448E+00
 -4.74827E+00 +6.95651E-01 -4.90441E+00 -2.04235E+00 -3.46311E+00 -4.50582E+00 -8.47848E-01 -5.82958E+00
 +2.10420E+00 -5.54605E+00 +4.44575E+00 -3.74391E+00 +5.45337E+00 -1.02401E+00 +4.87116E+00 +1.72406E+00
 +2.98109E+00 +3.63766E+00 +4.83657E-01 +4.17346E+00 -1.75965E+00 +3.27527E+00 -3.02467E+00 +1.36650E+00
 -2.95885E+00 -8.19236E-01 -1.67608E+00 -2.50083E+00 +3.09587E-01 -3.11076E+00 +2.27703E+00 -2.46791E+00
 +3.54458E+00 -8.12935E-01 +3.68606E+00 +1.29381E+00 +2.65076E+00 +3.16742E+00 +7.58746E-01 +4.21793E+00
 -1.41587E+00 +4.12557E+00 -3.22919E+00 +2.92390E+00 -4.16061E+00 +9.74979E-01 -3.95996E+00 -1.14799E+00
 -2.71194E+00 -2.83184E+00 -8.05460E-01 -3.60000E+00 +1.18047E+00 -3.24788E+00 +2.64290E+00 -1.90272E+00
 +3.13008E+00 +8.34888E-03 +2.47921E+00 +1.87608E+00 +8.76875E-01 +3.08522E+00 -1.18061E+00 +3.20292E+00
 -3.02412E+00 +2.12513E+00 -4.01369E+00 +1.31699E-01 -3.74855E+00 -2.17691E+00 -2.21736E+00 -4.05377E+00
 +1.68269E-01 -4.84449E+00 +2.68138E+00 -4.21606E+00 +4.50567E+00 -2.29489E+00 +5.01216E+00 +3.44476E-01
 +3.99199E+00 +2.85034E+00 +1.75691E+00 +4.37730E+00 -9.40829E-01 +4.38836E+00 -3.15470E+00 +2.86569E+00
 -4.07747E+00 +3.44745E-01 -3.34392E+00 -2.25375E+00 -1.18716E+00 -3.94462E+00 +1.61967E+00 -4.04058E+00
 +4.02680E+00 -2.42167E+00 +5.08752E+00 +3.95221E-01 +4.31600E+00 +3.42325E+00 +1.88620E+00 +5.55598E+00
 -1.41031E+00 +5.97560E+00 -4.44037E+00 +4.46580E+00 -6.14164E+00 +1.50691E+00 -5.91806E+00 -1.88893E+00
 -3.86734E+00 -4.54611E+00 -7.50275E-01 -5.56103E+00 +2.29060E+00 -4.63960E+00 +4.15870E+00 -2.20665E+00
 +4.21536E+00 +7.56633E-01 +2.51824E+00 +3.08687E+00 -2.05647E-01 +3.88141E+00 -2.84206E+00 +2.84037E+00
 -4.31815E+00 +3.76654E-01 -4.01221E+00 -2.54712E+00 -1.98754E+00 -4.79025E+00 +1.03770E+00 -5.46960E+00
 +3.96974E+00 -4.29116E+00 +5.75673E+00 -1.65235E+00 +5.78224E+00 +1.52020E+00 +4.08460E+00 +4.12937E+00
 +1.32270E+00 +5.32111E+00 -1.49174E+00 +4.79301E+00 -3.38569E+00 +2.88365E+00 -3.78662E+00 +4.15884E-01
 -2.71723E+00 -1.63680E+00 -7.55558E-01 -2.52630E+00 +1.21458E+00 -2.00270E+00 +2.35784E+00 -3.84096E-01
 +2.20604E+00 +1.59397E+00 +8.20959E-01 +3.08117E+00 -1.25314E+00 +3.44393E+00 -3.21827E+00 +2.49774E+00
 -4.33588E+00 +5.57144E-01 -4.20052E+00 -1.70525E+00 -2.87304E+00 -3.52607E+00 -8.31595E-01 -4.33602E+00
 +1.22889E+00 -3.95402E+00 +2.66317E+00 -2.62440E+00 +3.10382E+00 -8.94858E-01 +2.56925E+00 +6.07131E-01
 +1.42143E+00 +1.40836E+00 +2.01589E-01 +1.34713E+00 -5.84871E-01 +6.02749E-01 -6.51125E-01 -4.02002E-01
 -1.58384E-02 -1.17814E+00 +1.02802E+00 -1.35599E+00 +2.03992E+00 -8.11801E-01 +2.59999E+00 +3.03445E-01
 +2.45590E+00 +1.63338E+00 +1.60037E+00 +2.75010E+00 +2.60405E-01 +3.30100E+00 -1.18924E+00 +3.11909E+00
 -2.35274E+00 +2.26530E+00 -2.93652E+00 +9.96413E-01 -2.83227E+00 -3.24206E-01 -2.13880E+00 -1.34172E+00
 -1.12138E+00 -1.81558E+00 -1.24164E-01 -1.68669E+00 +5.37972E-01 -1.08907E+00 +6.77364E-01 -3.03822E-01
 +2.93616E-01 +3.31955E-01 -4.23074E-01 +5.36216E-01 -1.14966E+00 +1.80787E-01 -1.53590E+00 -6.54157E-01
 -1.32815E+00 -1.69213E+00 -4.71378E-01 -2.54227E+00 +8.49112E-01 -2.83096E+00 +2.24865E+00 -2.34201E+00
 +3.26258E+00 -1.11489E+00 +3.50921E+00 +5.41063E-01 +2.83986E+00 +2.13240E+00 +1.41684E+00 +3.14634E+00
 -3.19203E-01 +3.23978E+00 -1.79204E+00 +2.38143E+00 -2.49802E+00 +8.86016E-01 -2.20352E+00 -6.83479E-01
 -1.05198E+00 -1.71915E+00 +4.70403E-01 -1.80472E+00 +1.70872E+00 -8.92794E-01 +2.09360E+00 +6.53875E-01
 +1.37861E+00 +2.18454E+00 -2.37512E-01 +3.00830E+00 -2.16225E+00 +2.67526E+00 -3.62525E+00 +1.17787E+00
 -3.98122E+00 -1.01561E+00 -2.98080E+00 -3.12005E+00 -8.96229E-01 -4.33138E+00 +1.55843E+00 -4.14926E+00
 +3.49109E+00 -2.59324E+00 +4.18072E+00 -2.18286E-01 +3.37268E+00 +2.08674E+00 +1.39641E+00 +3.44463E+00
 -9.50454E-01 +3.34381E+00 -2.71333E+00 +1.85510E+00 -3.16644E+00 -3.82980E-01 -2.11648E+00 -2.41295E+00
 +4.19526E-03 -3.34620E+00 +2.30053E+00 -2.73393E+00 +3.77449E+00 -7.66658E-01 +3.73820E+00 +1.78588E+00
 +2.11044E+00 +3.87733E+00 -5.30394E-01 +4.61110E+00 -3.16570E+00 +3.61671E+00 -4.74470E+00 +1.21811E+00
 -4.61632E+00 -1.68144E+00 -2.80596E+00 -3.95711E+00 -1.83568E-02 -4.71983E+00 +2.64068E+00 -3.68529E+00
 +4.11382E+00 -1.29916E+00 +3.82941E+00 +1.43829E+00 +1.94383E+00 +3.38113E+00 -7.15596E-01 +3.71370E+00
 -2.98884E+00 +2.29639E+00 -3.86611E+00 -2.65933E-01 -2.91627E+00 -2.86616E+00 -4.80331E-01 -4.35236E+00
 +2.45521E+00 -4.01272E+00 +4.65804E+00 -1.88568E+00 +5.16068E+00 +1.23766E+00 +3.67079E+00 +4.12537E+00
 +7.08159E-01 +5.60632E+00 -2.59330E+00 +5.05585E+00 -4.94175E+00 +2.66320E+00 -5.41622E+00 -6.33846E-01
 -3.84975E+00 -3.52475E+00 -9.05931E-01 -4.86106E+00 +2.18672E+00 -4.13078E+00 +4.13691E+00 -1.67523E+00
 +4.12428E+00 +1.44434E+00 +2.14451E+00 +3.87921E+00 -9.78780E-01 +4.54940E+00 -3.92385E+00 +3.09566E+00
 -5.41000E+00 +3.98050E-02 -4.72652E+00 -3.41528E+00 -2.03426E+00 -5.86737E+00 +1.68562E+00 -6.28351E+00
 +5.01743E+00 -4.42393E+00 +6.67609E+00 -9.47638E-01 +6.02302E+00 +2.84459E+00 +3.32329E+00 +5.52686E+00
 -3.60143E-01 +6.11580E+00 -3.59230E+00 +4.45985E+00 -5.13983E+00 +1.29399E+00 -4.46093E+00 -2.06112E+00
 -1.91519E+00 -4.23261E+00 +1.38919E+00 -4.34581E+00 +4.04660E+00 -2.37075E+00 +4.92034E+00 +8.72218E-01
 +3.59641E+00 +4.04647E+00 +5.44892E-01 +5.83581E+00 -3.07168E+00 +5.46748E+00 -5.86210E+00 +3.01370E+00
 -6.75417E+00 -6.44170E-01 -5.40844E+00 -4.16904E+00 -2.33719E+00 -6.29344E+00 +1.31150E+00 -6.30629E+00
 +4.21203E+00 -4.31098E+00 +5.37561E+00 -1.15961E+00 +4.51783E+00 +1.90160E+00 +2.14033E+00 +3.72785E+00
 -6.95904E-01 +3.71433E+00 -2.80620E+00 +2.00830E+00 -3.34930E+00 -5.79547E-01 -2.14255E+00 -2.91843E+00
 +2.91554E-01 -4.01187E+00 +2.95449E+00 -3.38180E+00 +4.77613E+00 -1.23635E+00 +5.03004E+00 +1.63425E+00
 +3.59882E+00 +4.18111E+00 +9.94415E-01 +5.50447E+00 -1.86232E+00 +5.18508E+00 -4.00566E+00 +3.41613E+00
 -4.78578E+00 +8.96616E-01 -4.08908E+00 -1.45976E+00 -2.34261E+00 -2.87793E+00 -3.14899E-01 -2.99913E+00
 +1.19810E+00 -1.98257E+00 +1.67500E+00 -4.04516E-01 +1.04559E+00 +9.92780E-01 -3.15710E-01 +1.59684E+00
 -1.76397E+00 +1.15065E+00 -2.64753E+00 -1.71477E-01 -2.55626E+00 -1.85516E+00 -1.46268E+00 -3.25789E+00
 +2.88015E-01 -3.85400E+00 +2.12396E+00 -3.41990E+00 +3.46445E+00 -2.09666E+00 +3.92502E+00 -3.17147E-01
 +3.43711E+00 +1.36494E+00 +2.24686E+00 +2.47491E+00 +8.04175E-01 +2.77265E+00 -4.09627E-01 +2.31342E+00
 -1.04996E+00 +1.40118E+00 -1.01554E+00 +4.60167E-01 -4.62177E-01 -1.24232E-01 +2.72727E-01 -1.38674E-01
 +8.02664E-01 +3.93417E-01 +8.32936E-01 +1.23206E+00 +2.63113E-01 +2.01347E+00 -7.80191E-01 +2.38092E+00
 -1.98751E+00 +2.10953E+00 -2.97074E+00 +1.18523E+00 -3.39263E+00 -1.86276E-01 -3.08019E+00 -1.64249E+00
 -2.08564E+00 -2.77913E+00 -6.74999E-01 -3.28091E+00 +7.53734E-01 -3.02633E+00 +1.79847E+00 -2.13135E+00
 +2.18639E+00 -9.15178E-01 +1.86835E+00 +2.04090E-01 +1.03995E+00 +8.52078E-01 +7.78581E-02 +8.31640E-01
 -5.91666E-01 +1.99596E-01 -6.49079E-01 -7.44550E-01 -7.74486E-03 -1.55984E+00 +1.13866E+00 -1.82416E+00
 +2.37087E+00 -1.29830E+00 +3.18787E+00 -3.24666E-02 +3.19217E+00 +1.62906E+00 +2.24932E+00 +3.15443E+00
 +5.59362E-01 +4.00928E+00 -1.39321E+00 +3.85538E+00 -2.99959E+00 +2.68820E+00 -3.74303E+00 +8.57300E-01
 -3.39217E+00 -1.04487E+00 -2.09670E+00 -2.39049E+00 -3.44317E-01 -2.74593E+00 +1.21092E+00 -2.03703E+00
