 Created: 16-Jan-2021
 $NMID
 ID='D:\BASISSIMULATI'
 FMTDAT='(8E13.5)'
 VOLUME=   1.00000E+00
 TRAMP=   1.00000E+00
 $END
 +5.00689E+01 +4.14909E-01 +3.10409E+01 +3.62947E+01 -7.56043E+00 +4.05567E+01 -3.01699E+01 +1.29925E+01
 -1.96336E+01 -1.69456E+01 +7.68845E+00 -2.16811E+01 +2.21252E+01 -2.63010E+00 +1.27419E+01 +1.52327E+01
 -3.72302E+00 +1.32589E+01 -5.15621E+00 -7.32822E-01 +9.05858E+00 -3.96354E+00 +1.74741E+01 +1.24436E+01
 +2.76983E+00 +3.10180E+01 -2.55575E+01 +2.69024E+01 -3.88083E+01 -2.65017E+00 -1.99325E+01 -3.18512E+01
 +1.60733E+01 -3.17439E+01 +3.54888E+01 -8.56839E-01 +1.97719E+01 +3.20078E+01 -1.56904E+01 +3.64373E+01
 -3.77075E+01 +1.04527E+01 -2.88466E+01 -1.93431E+01 -2.99090E+00 -2.65103E+01 +1.22609E+01 -1.09664E+01
 +5.67358E+00 +4.65037E+00 -8.01378E+00 +2.39858E+00 -7.97215E+00 -1.12804E+01 +7.22446E+00 -1.51307E+01
 +1.78358E+01 +7.66166E-02 +6.78283E+00 +1.88089E+01 -1.83897E+01 +1.73706E+01 -3.11955E+01 -8.35566E+00
 -1.44750E+01 -3.54726E+01 +1.95246E+01 -3.65097E+01 +3.99257E+01 -8.31542E+00 +2.82359E+01 +2.37344E+01
 -3.09577E+00 +3.11112E+01 -2.40218E+01 +1.03613E+01 -1.75209E+01 -1.52374E+01 +4.96260E+00 -2.11944E+01
 +1.84464E+01 -6.40520E+00 +1.19535E+01 +8.93919E+00 -1.64412E+00 +7.95925E+00 -2.99207E+00 -4.16893E+00
 +1.00763E+01 -7.92994E+00 +1.98034E+01 +6.07393E+00 +9.71037E+00 +2.44343E+01 -1.45967E+01 +2.50492E+01
 -2.92437E+01 +2.63481E+00 -1.73447E+01 -2.31164E+01 +1.17199E+01 -2.67887E+01 +3.05385E+01 -3.79488E+00
 +2.12779E+01 +2.42967E+01 -6.48074E+00 +3.15453E+01 -2.63038E+01 +1.34470E+01 -2.20858E+01 -1.01912E+01
 -2.88831E+00 -1.72512E+01 +9.27968E+00 -5.77089E+00 +3.99507E+00 +6.80036E+00 -7.87348E+00 +5.06890E+00
 -8.87996E+00 -6.96802E+00 +3.63121E+00 -1.18634E+01 +1.40951E+01 -3.90684E-01 +7.06285E+00 +1.62522E+01
 -1.36616E+01 +1.80536E+01 -2.72032E+01 -1.00091E+00 -1.75552E+01 -2.44797E+01 +8.46818E+00 -2.95154E+01
 +2.71274E+01 -1.05427E+01 +2.16566E+01 +1.46457E+01 -1.08534E+00 +2.30050E+01 -1.85162E+01 +9.20103E+00
 -1.57477E+01 -1.05737E+01 +5.44609E-01 -1.69080E+01 +1.16203E+01 -7.10114E+00 +7.81128E+00 +4.38704E+00
 -2.22417E+00 +3.96210E+00 -3.41865E+00 -5.62113E+00 +7.12857E+00 -9.50523E+00 +1.63546E+01 +7.98895E-01
 +1.05022E+01 +1.62037E+01 -7.96708E+00 +1.92458E+01 -2.12865E+01 +3.77088E+00 -1.48363E+01 -1.68506E+01
 +6.74082E+00 -2.26085E+01 +2.34345E+01 -7.41801E+00 +1.99173E+01 +1.45245E+01 +6.14361E-01 +2.32420E+01
 -1.57478E+01 +1.27995E+01 -1.56216E+01 -4.21301E+00 -3.24039E+00 -1.12268E+01 +6.18950E+00 -4.77617E+00
 +3.92573E+00 +4.00755E+00 -3.79978E+00 +3.73684E+00 -4.80693E+00 -4.01325E+00 +3.69620E+00 -7.38805E+00
 +1.13140E+01 +8.18327E-01 +6.55538E+00 +1.34634E+01 -8.98207E+00 +1.60283E+01 -2.06801E+01 +2.84329E+00
 -1.58068E+01 -1.54541E+01 +2.66259E+00 -2.18928E+01 +1.83273E+01 -1.02982E+01 +1.75342E+01 +8.47974E+00
 +2.51214E+00 +1.76168E+01 -1.18897E+01 +1.07733E+01 -1.36496E+01 -3.05298E+00 -4.61385E+00 -1.03265E+01
 +3.73594E+00 -6.93795E+00 +3.79948E+00 -5.24006E-01 -6.88727E-01 +6.47902E-02 -8.22935E-01 -4.64751E+00
 +5.71095E+00 -6.09412E+00 +1.12042E+01 +1.14762E+00 +6.85515E+00 +1.16039E+01 -6.15522E+00 +1.38874E+01
 -1.62842E+01 +3.25835E+00 -1.30127E+01 -1.21156E+01 +1.98898E+00 -1.84551E+01 +1.58956E+01 -9.86847E+00
 +1.70224E+01 +5.94549E+00 +5.68676E+00 +1.54728E+01 -7.16080E+00 +1.22655E+01 -1.12935E+01 +1.81286E+00
 -6.35104E+00 -5.60994E+00 +5.30669E-02 -5.53125E+00 +1.80155E+00 -2.10337E+00 +3.21997E-01 -1.34263E+00
 +1.09325E+00 -3.46508E+00 +5.62639E+00 -3.17164E+00 +8.74611E+00 +2.91747E+00 +4.50211E+00 +1.07639E+01
 -6.06944E+00 +1.21659E+01 -1.44415E+01 +3.58367E+00 -1.25326E+01 -9.11991E+00 -9.55771E-01 -1.55027E+01
 +1.10782E+01 -1.02609E+01 +1.41795E+01 +1.95212E+00 +7.03571E+00 +1.12019E+01 -3.39441E+00 +1.13566E+01
 -9.11588E+00 +4.56544E+00 -7.96107E+00 -2.43114E+00 -3.67740E+00 -5.28159E+00 -5.17242E-01 -4.91723E+00
 +1.04296E+00 -4.36195E+00 +3.13671E+00 -4.18861E+00 +6.23091E+00 -2.12476E+00 +7.41137E+00 +3.10389E+00
 +3.52163E+00 +8.69507E+00 -4.43784E+00 +9.55665E+00 -1.09172E+01 +3.43678E+00 -1.04152E+01 -6.06318E+00
 -2.63541E+00 -1.20230E+01 +6.93761E+00 -1.00320E+01 +1.16013E+01 -1.79556E+00 +8.76838E+00 +6.63874E+00
 +1.35890E+00 +9.97387E+00 -5.34334E+00 +7.30469E+00 -7.89689E+00 +1.61087E+00 -6.32045E+00 -3.44278E+00
 -2.64088E+00 -6.00482E+00 +1.29199E+00 -6.08456E+00 +4.53572E+00 -4.22148E+00 +6.38448E+00 -7.91872E-01
 +5.88851E+00 +3.46226E+00 +2.52383E+00 +6.83800E+00 -2.71286E+00 +7.24546E+00 -7.21553E+00 +3.76260E+00
 -8.18292E+00 -2.22656E+00 -4.57334E+00 -7.47915E+00 +1.91217E+00 -8.79351E+00 +7.62680E+00 -5.09956E+00
 +9.12984E+00 +1.67154E+00 +5.37894E+00 +7.58800E+00 -1.45629E+00 +9.09563E+00 -7.24123E+00 +5.33331E+00
 -8.54612E+00 -1.22780E+00 -4.94256E+00 -6.45525E+00 +8.42463E-01 -7.44375E+00 +5.11393E+00 -4.39411E+00
 +5.93355E+00 +3.37020E-02 +4.05173E+00 +3.19026E+00 +1.42849E+00 +4.33956E+00 -8.74916E-01 +4.28567E+00
 -3.10860E+00 +3.52354E+00 -5.28709E+00 +1.36987E+00 -5.88930E+00 -2.66936E+00 -2.94555E+00 -6.93420E+00
 +3.20797E+00 -7.91073E+00 +8.74620E+00 -3.39102E+00 +8.93435E+00 +4.48309E+00 +2.63174E+00 +9.98836E+00
 -5.83550E+00 +8.53844E+00 -9.95433E+00 +1.08010E+00 -6.77787E+00 -6.42219E+00 +4.52123E-01 -8.31641E+00
 +5.56376E+00 -4.27455E+00 +5.34686E+00 +1.02482E+00 +2.04257E+00 +3.06089E+00 +3.27038E-02 +1.88339E+00
 +6.33853E-01 +1.08429E+00 +9.46202E-01 +2.75808E+00 -1.94817E+00 +4.48444E+00 -6.43789E+00 +2.14199E+00
 -7.22374E+00 -4.45412E+00 -1.26423E+00 -9.83554E+00 +7.69108E+00 -7.88583E+00 +1.16677E+01 +1.29105E+00
 +6.26587E+00 +1.02988E+01 -4.35106E+00 +1.11235E+01 -1.09791E+01 +3.06880E+00 -8.23850E+00 -6.40235E+00
 +3.17817E-01 -9.07227E+00 +6.22182E+00 -3.98350E+00 +4.92539E+00 +2.32736E+00 -2.83687E-02 +3.40797E+00
 -1.83143E+00 -1.70289E-01 +1.39923E+00 -2.17259E+00 +4.46116E+00 +1.33280E+00 +1.52036E+00 +6.67709E+00
 -6.17798E+00 +6.40455E+00 -1.05401E+01 -1.73505E+00 -5.27929E+00 -1.08992E+01 +6.32377E+00 -1.15037E+01
 +1.36164E+01 -1.55115E+00 +9.18723E+00 +1.03455E+01 -3.17202E+00 +1.31489E+01 -1.19416E+01 +4.55482E+00
 -9.47365E+00 -6.71297E+00 +4.79113E-01 -1.00402E+01 +7.27821E+00 -3.76913E+00 +4.94228E+00 +3.83635E+00
 -1.90211E+00 +4.29704E+00 -4.03289E+00 -1.62362E+00 +1.35024E+00 -5.27653E+00 +7.19760E+00 -6.93505E-01
 +4.86439E+00 +7.75813E+00 -5.19081E+00 +9.72183E+00 -1.26992E+01 +7.85654E-01 -8.40803E+00 -1.13963E+01
 +5.16165E+00 -1.43059E+01 +1.52446E+01 -3.90322E+00 +1.17452E+01 +1.03765E+01 -2.05266E+00 +1.48940E+01
 -1.26683E+01 +5.81452E+00 -1.03605E+01 -7.09832E+00 +1.03925E+00 -1.10084E+01 +8.88110E+00 -3.46611E+00
 +5.66153E+00 +5.73522E+00 -3.19485E+00 +6.06005E+00 -6.18089E+00 -1.87736E+00 +6.93948E-01 -7.35310E+00
 +9.02274E+00 -2.30638E+00 +7.58806E+00 +8.67578E+00 -4.22110E+00 +1.28194E+01 -1.45296E+01 +3.57903E+00
 -1.14492E+01 -1.10367E+01 +3.45833E+00 -1.60805E+01 +1.58138E+01 -5.56193E+00 +1.31394E+01 +1.06080E+01
 -1.93041E+00 +1.65678E+01 -1.43071E+01 +6.98036E+00 -1.22931E+01 -7.63715E+00 +4.18890E-01 -1.24406E+01
 +9.45378E+00 -4.04990E+00 +5.76545E+00 +6.55514E+00 -4.77123E+00 +6.92073E+00 -8.66678E+00 -2.75592E+00
 -6.40193E-01 -1.00964E+01 +9.98268E+00 -5.07070E+00 +9.74942E+00 +7.84300E+00 -3.13341E+00 +1.39150E+01
 -1.56305E+01 +4.59894E+00 -1.35354E+01 -1.20511E+01 +2.66992E+00 -1.90575E+01 +1.73839E+01 -8.53524E+00
 +1.59509E+01 +9.45749E+00 +1.35435E-01 +1.71627E+01 -1.37689E+01 +7.67856E+00 -1.22363E+01 -8.12778E+00
 +1.49095E+00 -1.37115E+01 +1.17423E+01 -4.62235E+00 +8.01094E+00 +7.43487E+00 -3.75373E+00 +8.39445E+00
 -8.54200E+00 -2.13587E+00 +1.27791E-01 -1.06017E+01 +1.23573E+01 -5.31015E+00 +1.28580E+01 +9.50898E+00
 -1.29929E+00 +1.75454E+01 -1.62170E+01 +8.42305E+00 -1.56250E+01 -9.96836E+00 +1.18181E+00 -1.89381E+01
 +1.77288E+01 -8.72924E+00 +1.73521E+01 +1.07831E+01 +6.96081E-01 +2.02576E+01 -1.51714E+01 +1.11289E+01
 -1.50257E+01 -5.86005E+00 -1.28344E+00 -1.28506E+01 +9.64813E+00 -4.20783E+00 +6.01518E+00 +8.17646E+00
 -6.48350E+00 +9.08256E+00 -1.18432E+01 -2.50553E+00 -2.59393E+00 -1.22920E+01 +1.10538E+01 -7.28030E+00
 +1.23783E+01 +8.61138E+00 -2.57396E+00 +1.78469E+01 -1.92895E+01 +8.44174E+00 -1.96938E+01 -1.20172E+01
 -1.82951E+00 -2.34023E+01 +1.72743E+01 -1.40993E+01 +1.91107E+01 +6.54745E+00 +2.93829E+00 +1.79794E+01
 -1.39007E+01 +9.92858E+00 -1.47268E+01 -7.45246E+00 -8.56739E-01 -1.54469E+01 +1.10954E+01 -7.22635E+00
 +8.38258E+00 +5.59487E+00 -3.82175E+00 +7.09601E+00 -9.03845E+00 -4.36311E+00 +9.34011E-01 -1.41642E+01
 +1.57810E+01 -8.39419E+00 +1.77252E+01 +9.35307E+00 +1.89260E+00 +2.06309E+01 -1.68558E+01 +1.20349E+01
 -1.89385E+01 -9.35379E+00 -1.08694E+00 -2.23647E+01 +1.95120E+01 -1.36703E+01 +2.28284E+01 +8.20186E+00
 +6.62350E+00 +2.18938E+01 -1.19235E+01 +1.55226E+01 -1.49753E+01 -1.71574E+00 -2.57471E+00 -1.07082E+01
 +8.94361E+00 -3.52991E+00 +6.15868E+00 +8.82420E+00 -6.40927E+00 +1.01298E+01 -1.21727E+01 -1.83924E+00
 -2.34652E+00 -1.24591E+01 +1.29126E+01 -7.16430E+00 +1.51591E+01 +1.09141E+01 -1.33470E+00 +2.28535E+01
 -2.17157E+01 +1.41046E+01 -2.53041E+01 -8.94589E+00 -7.53255E+00 -2.45456E+01 +1.46835E+01 -1.78894E+01
 +2.02398E+01 +3.58189E+00 +5.41942E+00 +1.82512E+01 -1.31845E+01 +1.29322E+01 -1.70214E+01 -4.29677E+00
 -4.93058E+00 -1.43162E+01 +7.29928E+00 -8.28398E+00 +5.79098E+00 +3.60462E+00 -5.70258E+00 +5.08439E+00
 -1.07906E+01 -6.67112E+00 -2.13940E-01 -1.73331E+01 +1.62821E+01 -1.19063E+01 +1.99200E+01 +7.11658E+00
 +4.10017E+00 +2.07907E+01 -1.68090E+01 +1.36785E+01 -2.15743E+01 -8.80940E+00 -4.43018E+00 -2.49803E+01
 +1.84326E+01 -1.90087E+01 +2.54301E+01 +2.85249E+00 +1.15808E+01 +1.92298E+01 -7.40078E+00 +1.60274E+01
 -1.26928E+01 +1.50482E-01 -2.08938E+00 -9.64270E+00 +9.36277E+00 -3.86692E+00 +7.57460E+00 +8.11188E+00
 -4.45612E+00 +1.01361E+01 -1.06785E+01 -1.26439E+00 -1.33146E+00 -1.23192E+01 +1.46028E+01 -7.76543E+00
 +1.84321E+01 +1.07839E+01 +2.73644E+00 +2.48998E+01 -1.90405E+01 +1.86193E+01 -2.56722E+01 -3.80500E+00
