 Created: 16-Jan-2021
 $NMID
 ID='D:\BASISSIMULATI'
 FMTDAT='(8E13.5)'
 VOLUME=   1.00000E+00
 TRAMP=   1.00000E+00
 $END
 +1.12013E+02 +5.17154E-01 +1.01153E+02 +4.62101E+01 +7.18858E+01 +8.25614E+01 +3.02550E+01 +1.02514E+02
 -1.52243E+01 +1.02445E+02 -5.53629E+01 +8.28994E+01 -8.22282E+01 +4.84302E+01 -9.07936E+01 +6.59940E+00
 -7.99582E+01 -3.36532E+01 -5.27238E+01 -6.39163E+01 -1.54978E+01 -7.80815E+01 +2.33211E+01 -7.36070E+01
 +5.51660E+01 -5.20062E+01 +7.31399E+01 -1.84626E+01 +7.34737E+01 +1.93377E+01 +5.62954E+01 +5.28971E+01
 +2.55511E+01 +7.47529E+01 -1.18960E+01 +8.00799E+01 -4.77875E+01 +6.77045E+01 -7.42763E+01 +4.03194E+01
 -8.56250E+01 +3.85656E+00 -7.94299E+01 -3.38338E+01 -5.71079E+01 -6.47087E+01 -2.35486E+01 -8.22826E+01
 +1.39859E+01 -8.30208E+01 +4.74682E+01 -6.70776E+01 +6.98639E+01 -3.82218E+01 +7.66584E+01 -2.97410E+00
 +6.68176E+01 +3.08513E+01 +4.29794E+01 +5.58763E+01 +1.08356E+01 +6.67797E+01 -2.21520E+01 +6.14543E+01
 -4.84191E+01 +4.14493E+01 -6.19794E+01 +1.16032E+01 -5.97505E+01 -2.10474E+01 -4.22342E+01 -4.88431E+01
 -1.34016E+01 -6.52114E+01 +2.01876E+01 -6.61349E+01 +5.08409E+01 -5.10552E+01 +7.14399E+01 -2.30148E+01
 +7.70257E+01 +1.19978E+01 +6.59136E+01 +4.63531E+01 +4.00912E+01 +7.24530E+01 +4.81113E+00 +8.44040E+01
 -3.25340E+01 +7.93237E+01 -6.40106E+01 +5.79959E+01 -8.28689E+01 +2.47268E+01 -8.50179E+01 -1.35662E+01
 -6.99284E+01 -4.88389E+01 -4.07655E+01 -7.36544E+01 -3.72045E+00 -8.27925E+01 +3.33152E+01 -7.43836E+01
 +6.24469E+01 -5.03202E+01 +7.74788E+01 -1.58562E+01 +7.52516E+01 +2.15209E+01 +5.63260E+01 +5.37020E+01
 +2.48640E+01 +7.37039E+01 -1.22665E+01 +7.71749E+01 -4.69722E+01 +6.33339E+01 -7.16777E+01 +3.51389E+01
 -8.09587E+01 -1.34990E+00 -7.27094E+01 -3.82753E+01 -4.85953E+01 -6.76747E+01 -1.36934E+01 -8.31925E+01
 +2.46017E+01 -8.14448E+01 +5.81681E+01 -6.27420E+01 +7.99003E+01 -3.10159E+01 +8.52301E+01 +7.03148E+00
 +7.30983E+01 +4.33728E+01 +4.61683E+01 +7.03797E+01 +1.02388E+01 +8.24553E+01 -2.70140E+01 +7.72238E+01
 -5.76940E+01 +5.60206E+01 -7.53809E+01 +2.35829E+01 -7.64992E+01 -1.29909E+01 -6.10680E+01 -4.57856E+01
 -3.26700E+01 -6.77798E+01 +2.34738E+00 -7.43547E+01 +3.62638E+01 -6.42744E+01 +6.16667E+01 -3.99298E+01
 +7.30561E+01 -6.79578E+00 +6.80256E+01 +2.77769E+01 +4.77669E+01 +5.61695E+01 +1.67916E+01 +7.21535E+01
 -1.80676E+01 +7.22390E+01 -4.91540E+01 +5.64222E+01 -6.96575E+01 +2.81729E+01 -7.50945E+01 -6.33420E+00
 -6.42768E+01 -3.95716E+01 -3.95605E+01 -6.43018E+01 -6.32430E+00 -7.51515E+01 +2.82078E+01 -6.97755E+01
 +5.65416E+01 -4.93597E+01 +7.25420E+01 -1.83558E+01 +7.27626E+01 +1.64937E+01 +5.71883E+01 +4.76240E+01
 +2.92307E+01 +6.82926E+01 -5.02029E+00 +7.40400E+01 -3.81236E+01 +6.36520E+01 -6.29046E+01 +3.94149E+01
 -7.40098E+01 +6.61045E+00 -6.90631E+01 -2.76368E+01 -4.91719E+01 -5.59096E+01 -1.86773E+01 -7.21062E+01
 +1.57964E+01 -7.27591E+01 +4.67853E+01 -5.77785E+01 +6.76061E+01 -3.04604E+01 +7.38023E+01 +3.23858E+00
 +6.41031E+01 +3.60025E+01 +4.06877E+01 +6.07470E+01 +8.70067E+00 +7.21551E+01 -2.48752E+01 +6.78245E+01
 -5.27405E+01 +4.87790E+01 -6.88648E+01 +1.92334E+01 -6.97919E+01 -1.43324E+01 -5.53812E+01 -4.45886E+01
 -2.88271E+01 -6.49505E+01 +4.04596E+00 -7.10072E+01 +3.60584E+01 -6.14722E+01 +6.02397E+01 -3.84533E+01
 +7.13430E+01 -6.98315E+00 +6.69803E+01 +2.60836E+01 +4.81323E+01 +5.35672E+01 +1.89244E+01 +6.95245E+01
 -1.42807E+01 +7.05381E+01 -4.42747E+01 +5.64520E+01 -6.45755E+01 +3.03949E+01 -7.08368E+01 -1.91114E+00
 -6.17888E+01 -3.34054E+01 -3.95070E+01 -5.72322E+01 -8.95035E+00 -6.82360E+01 +2.31277E+01 -6.40843E+01
 +4.96581E+01 -4.57714E+01 +6.48020E+01 -1.73977E+01 +6.52275E+01 +1.47298E+01 +5.08376E+01 +4.34777E+01
 +2.47936E+01 +6.24459E+01 -7.17284E+00 +6.73684E+01 -3.80082E+01 +5.70497E+01 -6.08743E+01 +3.36321E+01
 -7.06415E+01 +2.13813E+00 -6.50106E+01 -3.06160E+01 -4.50225E+01 -5.74970E+01 -1.48428E+01 -7.26031E+01
 +1.91314E+01 -7.25472E+01 +4.96503E+01 -5.71976E+01 +7.01750E+01 -2.97145E+01 +7.62904E+01 +4.12468E+00
 +6.66595E+01 +3.71666E+01 +4.33143E+01 +6.24200E+01 +1.12195E+01 +7.45589E+01 -2.27951E+01 +7.10671E+01
 -5.15034E+01 +5.27754E+01 -6.88354E+01 +2.36787E+01 -7.11785E+01 -9.92826E+00 -5.81476E+01 -4.08085E+01
 -3.26588E+01 -6.23399E+01 -2.93375E-01 -6.99359E+01 +3.19106E+01 -6.20253E+01 +5.69756E+01 -4.03791E+01
 +6.94842E+01 -9.71882E+00 +6.67378E+01 +2.33096E+01 +4.93256E+01 +5.15710E+01 +2.09854E+01 +6.89754E+01
 -1.22138E+01 +7.17814E+01 -4.31845E+01 +5.93877E+01 -6.53475E+01 +3.44456E+01 -7.40391E+01 +2.27127E+00
 -6.74995E+01 -3.03113E+01 -4.72288E+01 -5.64448E+01 -1.76396E+01 -7.07097E+01 +1.49152E+01 -7.02753E+01
 +4.35259E+01 -5.54843E+01 +6.22181E+01 -2.97473E+01 +6.72313E+01 +1.22375E+00 +5.78074E+01 +3.06744E+01
 +3.63224E+01 +5.22808E+01 +7.73723E+00 +6.15183E+01 -2.15091E+01 +5.66268E+01 -4.49186E+01 +3.89672E+01
 -5.73565E+01 +1.26951E+01 -5.61648E+01 -1.61739E+01 -4.17278E+01 -4.10992E+01 -1.73683E+01 -5.64573E+01
 +1.14002E+01 -5.87754E+01 +3.80969E+01 -4.74877E+01 +5.67063E+01 -2.50515E+01 +6.30026E+01 +3.60123E+00
 +5.54795E+01 +3.21536E+01 +3.56797E+01 +5.42959E+01 +7.85584E+00 +6.51142E+01 -2.19632E+01 +6.21710E+01
 -4.72953E+01 +4.60430E+01 -6.26274E+01 +2.01973E+01 -6.46257E+01 -9.76562E+00 -5.28692E+01 -3.73364E+01
 -2.99463E+01 -5.65221E+01 -8.92424E-01 -6.31592E+01 +2.79077E+01 -5.58289E+01 +5.01156E+01 -3.61737E+01
 +6.08262E+01 -8.54509E+00 +5.76457E+01 +2.09407E+01 +4.12232E+01 +4.57346E+01 +1.51212E+01 +6.02847E+01
 -1.49506E+01 +6.12533E+01 -4.23703E+01 +4.82552E+01 -6.10414E+01 +2.39566E+01 -6.67214E+01 -6.48802E+00
 -5.79521E+01 -3.65413E+01 -3.63903E+01 -5.96908E+01 -6.46576E+00 -7.08562E+01 +2.55609E+01 -6.74905E+01
 +5.29368E+01 -5.01379E+01 +6.98643E+01 -2.23272E+01 +7.27445E+01 +1.01772E+01 +6.09500E+01 +4.06045E+01
 +3.69593E+01 +6.26229E+01 +5.82552E+00 +7.16903E+01 -2.59055E+01 +6.60186E+01 -5.15953E+01 +4.69474E+01
 -6.59284E+01 +1.86457E+01 -6.60399E+01 -1.27905E+01 -5.21134E+01 -4.06506E+01 -2.73238E+01 -5.90471E+01
 +2.86257E+00 -6.41696E+01 +3.18739E+01 -5.50870E+01 +5.34508E+01 -3.39261E+01 +6.29876E+01 -5.39301E+00
 +5.85103E+01 +2.42573E+01 +4.10821E+01 +4.85784E+01 +1.45517E+01 +6.23214E+01 -1.52959E+01 +6.25576E+01
 -4.20010E+01 +4.92922E+01 -5.98278E+01 +2.54421E+01 -6.49959E+01 -3.81625E+00 -5.64825E+01 -3.21810E+01
 -3.62206E+01 -5.35955E+01 -8.65825E+00 -6.35555E+01 +2.02254E+01 -6.00705E+01 +4.42272E+01 -4.40740E+01
 +5.82674E+01 -1.91957E+01 +5.94831E+01 +9.04970E+00 +4.78316E+01 +3.44780E+01 +2.60766E+01 +5.15885E+01
 -8.37712E-01 +5.67593E+01 -2.68839E+01 +4.90247E+01 -4.62794E+01 +3.02691E+01 -5.47533E+01 +4.79566E+00
 -5.04770E+01 -2.16316E+01 -3.44560E+01 -4.30621E+01 -1.02989E+01 -5.46689E+01 +1.65832E+01 -5.38093E+01
 +4.01704E+01 -4.06040E+01 +5.51604E+01 -1.79091E+01 +5.81348E+01 +9.31098E+00 +4.83131E+01 +3.50728E+01
 +2.77281E+01 +5.36860E+01 +7.85812E-01 +6.10021E+01 -2.66936E+01 +5.53260E+01 -4.87455E+01 +3.77933E+01
 -6.05628E+01 +1.21292E+01 -5.95473E+01 -1.61580E+01 -4.58806E+01 -4.09723E+01 -2.24904E+01 -5.69555E+01
 +5.58060E+00 -6.06533E+01 +3.22667E+01 -5.12690E+01 +5.17944E+01 -3.08404E+01 +5.99355E+01 -3.80119E+00
 +5.49257E+01 +2.39776E+01 +3.78495E+01 +4.64588E+01 +1.24081E+01 +5.87472E+01 -1.58804E+01 +5.81502E+01
 -4.08738E+01 +4.47626E+01 -5.71341E+01 +2.14479E+01 -6.11038E+01 -6.77964E+00 -5.18749E+01 -3.38373E+01
 -3.13854E+01 -5.38868E+01 -4.00110E+00 -6.25941E+01 +2.44264E+01 -5.80623E+01 +4.78216E+01 -4.12395E+01
 +6.11928E+01 -1.57103E+01 +6.17049E+01 +1.30790E+01 +4.92839E+01 +3.89963E+01 +2.66259E+01 +5.65433E+01
 -1.39106E+00 +6.20360E+01 -2.87642E+01 +5.43900E+01 -4.96610E+01 +3.53436E+01 -5.96739E+01 +9.07018E+00
 -5.67617E+01 -1.87311E+01 -4.16775E+01 -4.20713E+01 -1.77914E+01 -5.59647E+01 +9.65143E+00 -5.74986E+01
 +3.46735E+01 -4.64515E+01 +5.18615E+01 -2.53257E+01 +5.75345E+01 +1.20902E+00 +5.05316E+01 +2.73376E+01
 +3.24509E+01 +4.73664E+01 +7.28857E+00 +5.69568E+01 -1.94387E+01 +5.40602E+01 -4.18988E+01 +3.93525E+01
 -5.52111E+01 +1.60755E+01 -5.65036E+01 -1.06777E+01 -4.55283E+01 -3.50758E+01 -2.47060E+01 -5.18199E+01
 +1.40950E+00 -5.72922E+01 +2.71279E+01 -5.03371E+01 +4.68628E+01 -3.25038E+01 +5.63453E+01 -7.70189E+00
 +5.35478E+01 +1.86561E+01 +3.91181E+01 +4.08349E+01 +1.62309E+01 +5.40241E+01 -1.01089E+01 +5.53807E+01
 -3.41588E+01 +4.46420E+01 -5.06883E+01 +2.41760E+01 -5.61147E+01 -1.53971E+00 -4.92773E+01 -2.68959E+01
 -3.16840E+01 -4.63732E+01 -7.17827E+00 -5.57407E+01 +1.89016E+01 -5.29724E+01 +4.08843E+01 -3.86829E+01
 +5.39981E+01 -1.59877E+01 +5.54049E+01 +1.01774E+01 +4.48123E+01 +3.41319E+01 +2.45319E+01 +5.06849E+01
 -1.02788E+00 +5.62598E+01 -2.63222E+01 +4.96671E+01 -4.58750E+01 +3.23571E+01 -5.54660E+01 +8.09923E+00
 -5.30432E+01 -1.78404E+01 -3.91616E+01 -3.98444E+01 -1.68570E+01 -5.31626E+01 +9.01898E+00 -5.49390E+01
 +3.28556E+01 -4.48262E+01 +4.95010E+01 -2.50527E+01 +5.53780E+01 +6.71705E-02 +4.92543E+01 +2.50752E+01
 +3.25032E+01 +4.45564E+01 +8.79639E+00 +5.43135E+01 -1.66990E+01 +5.22732E+01 -3.84472E+01 +3.89295E+01
 -5.17464E+01 +1.72280E+01 -5.37471E+01 -8.08155E+00 -4.40652E+01 -3.14828E+01 -2.48581E+01 -4.78938E+01
 -3.47880E-01 -5.37705E+01 +2.41023E+01 -4.78730E+01 +4.31581E+01 -3.15295E+01 +5.26746E+01 -8.34076E+00
 +5.05956E+01 +1.66087E+01 +3.73972E+01 +3.78600E+01 +1.59799E+01 +5.07695E+01 -8.96724E+00 +5.25180E+01
 -3.19888E+01 +4.27222E+01 -4.80519E+01 +2.35159E+01 -5.36407E+01 -9.16831E-01 -4.75204E+01 -2.52534E+01
 -3.10043E+01 -4.41906E+01 -7.66755E+00 -5.35971E+01 +1.74305E+01 -5.14112E+01 +3.88457E+01 -3.80878E+01
 +5.19303E+01 -1.64985E+01 +5.38415E+01 +8.69123E+00 +4.41572E+01 +3.20350E+01 +2.49660E+01 +4.84858E+01
 +4.14203E-01 +5.44890E+01 -2.41937E+01 +4.87514E+01 -4.35435E+01 +3.25192E+01 -5.34615E+01 +9.30647E+00
 -5.18153E+01 -1.58674E+01 -3.89732E+01 -3.75640E+01 -1.77210E+01 -5.11023E+01 +7.34338E+00 -5.35685E+01
 +3.08053E+01 -4.44425E+01 +4.76045E+01 -2.57062E+01 +5.41261E+01 -1.41093E+00 +4.89776E+01 +2.32015E+01
