 Created: 16-Jan-2021
 $NMID
 ID='D:\BASISSIMULATI'
 FMTDAT='(8E13.5)'
 VOLUME=   1.00000E+00
 TRAMP=   1.00000E+00
 $END
 +5.62463E+01 +2.59995E-01 +5.00074E+01 +1.30153E+01 +3.33445E+01 +2.39614E+01 +1.10088E+01 +3.15133E+01
 -1.08102E+01 +3.44159E+01 -2.64083E+01 +3.20446E+01 -3.22805E+01 +2.47288E+01 -2.80759E+01 +1.39375E+01
 -1.65166E+01 +2.15993E+00 -2.35213E+00 -7.59877E+00 +9.25987E+00 -1.26355E+01 +1.43943E+01 -1.14499E+01
 +1.14916E+01 -4.40842E+00 +1.66024E+00 +6.12353E+00 -1.18763E+01 +1.63207E+01 -2.49328E+01 +2.20170E+01
 -3.36879E+01 +2.00829E+01 -3.57483E+01 +9.60328E+00 -3.06526E+01 -7.57805E+00 -1.97456E+01 -2.71980E+01
 -5.56455E+00 -4.37547E+01 +8.98256E+00 -5.21868E+01 +2.13539E+01 -4.95128E+01 +2.98285E+01 -3.58755E+01
 +3.36284E+01 -1.46163E+01 +3.27938E+01 +8.67869E+00 +2.79613E+01 +2.78716E+01 +2.01753E+01 +3.81571E+01
 +1.07831E+01 +3.75225E+01 +1.36681E+00 +2.73048E+01 -6.38474E+00 +1.16712E+01 -1.09418E+01 -3.79128E+00
 -1.13305E+01 -1.38957E+01 -7.54774E+00 -1.54820E+01 -8.05341E-01 -8.32886E+00 +6.57260E+00 +4.91458E+00
 +1.16772E+01 +1.97049E+01 +1.18784E+01 +3.11238E+01 +5.77434E+00 +3.54178E+01 -6.11151E+00 +3.10667E+01
 -2.11897E+01 +1.90799E+01 -3.53599E+01 +2.50008E+00 -4.41618E+01 -1.46482E+01 -4.41909E+01 -2.85725E+01
 -3.43119E+01 -3.66926E+01 -1.62315E+01 -3.81239E+01 +5.81992E+00 -3.36004E+01 +2.62545E+01 -2.49734E+01
 +3.97977E+01 -1.45312E+01 +4.31302E+01 -4.39159E+00 +3.59508E+01 +3.87174E+00 +2.10900E+01 +9.34171E+00
 +3.61554E+00 +1.16924E+01 -1.07880E+01 +1.10745E+01 -1.76352E+01 +8.04739E+00 -1.50532E+01 +3.57032E+00
 -4.33063E+00 -1.01736E+00 +1.05662E+01 -4.13240E+00 +2.43306E+01 -4.26623E+00 +3.20476E+01 -4.55098E-01
 +3.07447E+01 +7.24059E+00 +2.02661E+01 +1.74566E+01 +3.22039E+00 +2.76327E+01 -1.59308E+01 +3.45799E+01
 -3.22990E+01 +3.54040E+01 -4.20198E+01 +2.85153E+01 -4.32710E+01 +1.43700E+01 -3.65805E+01 -4.36850E+00
 -2.44053E+01 -2.33888E+01 -1.02016E+01 -3.79059E+01 +2.65609E+00 -4.41099E+01 +1.17526E+01 -4.04171E+01
 +1.60718E+01 -2.80817E+01 +1.59522E+01 -1.09172E+01 +1.26804E+01 +5.82907E+00 +7.94178E+00 +1.71101E+01
 +3.33817E+00 +1.96932E+01 +9.92601E-02 +1.32140E+01 -1.00686E+00 +3.07448E-01 +3.52725E-01 -1.42428E+01
 +4.10904E+00 -2.50622E+01 +9.76729E+00 -2.79366E+01 +1.63458E+01 -2.11778E+01 +2.23710E+01 -6.15985E+00
 +2.60390E+01 +1.31375E+01 +2.55990E+01 +3.14044E+01 +1.99043E+01 +4.36593E+01 +8.96149E+00 +4.67407E+01
 -5.75098E+00 +4.01626E+01 -2.13919E+01 +2.60984E+01 -3.43622E+01 +8.55504E+00 -4.12890E+01 -7.93988E+00
 -4.01012E+01 -1.96822E+01 -3.08276E+01 -2.47436E+01 -1.57987E+01 -2.32781E+01 +8.92007E-01 -1.71680E+01
 +1.45553E+01 -9.21311E+00 +2.13582E+01 -2.18363E+00 +1.95869E+01 +1.94382E+00 +1.02769E+01 +2.36769E+00
 -3.03762E+00 -5.73683E-01 -1.54130E+01 -5.73893E+00 -2.20896E+01 -1.16314E+01 -2.00697E+01 -1.67819E+01
 -9.15108E+00 -1.99760E+01 +7.93879E+00 -2.03360E+01 +2.63646E+01 -1.73445E+01 +4.06943E+01 -1.08952E+01
 +4.66024E+01 -1.40862E+00 +4.22064E+01 +1.00405E+01 +2.86089E+01 +2.16980E+01 +9.48790E+00 +3.13220E+01
 -1.00997E+01 +3.66382E+01 -2.52870E+01 +3.59800E+01 -3.28185E+01 +2.89217E+01 -3.18803E+01 +1.66546E+01
 -2.41177E+01 +1.89998E+00 -1.28990E+01 -1.17067E+01 -2.12526E+00 -2.06324E+01 +4.99257E+00 -2.25644E+01
 +6.80093E+00 -1.72483E+01 +3.48597E+00 -6.72025E+00 -3.23825E+00 +5.20873E+00 -1.08490E+01 +1.41045E+01
 -1.68501E+01 +1.63508E+01 -1.94436E+01 +1.04039E+01 -1.78661E+01 -2.57696E+00 -1.23705E+01 -1.89713E+01
 -3.95822E+00 -3.37679E+01 +5.97134E+00 -4.21331E+01 +1.59144E+01 -4.09687E+01 +2.44382E+01 -2.99402E+01
 +3.02697E+01 -1.16294E+01 +3.23780E+01 +9.24490E+00 +3.01247E+01 +2.72795E+01 +2.34836E+01 +3.80347E+01
 +1.32523E+01 +3.93390E+01 +1.11784E+00 +3.18405E+01 -1.05438E+01 +1.86539E+01 -1.91711E+01 +4.25716E+00
 -2.27280E+01 -6.96826E+00 -2.04069E+01 -1.20663E+01 -1.30568E+01 -1.02878E+01 -3.12324E+00 -3.11833E+00
 +5.96451E+00 +6.39063E+00 +1.08239E+01 +1.47088E+01 +9.25517E+00 +1.89436E+01 +1.09488E+00 +1.76317E+01
 -1.15424E+01 +1.10002E+01 -2.47758E+01 +6.93085E-01 -3.41092E+01 -1.08647E+01 -3.58723E+01 -2.12047E+01
 -2.84784E+01 -2.84093E+01 -1.30635E+01 -3.14207E+01 +6.73826E+00 -3.00541E+01 +2.58387E+01 -2.48156E+01
 +3.92369E+01 -1.66631E+01 +4.35573E+01 -6.81725E+00 +3.80799E+01 +3.34695E+00 +2.49237E+01 +1.23774E+01
 +8.32956E+00 +1.88730E+01 -6.71307E+00 +2.17169E+01 -1.60336E+01 +2.03943E+01 -1.75302E+01 +1.52854E+01
 -1.17080E+01 +7.77959E+00 -1.36448E+00 +8.18745E-02 +9.43340E+00 -5.31651E+00 +1.67100E+01 -6.39301E+00
 +1.78202E+01 -2.33985E+00 +1.21794E+01 +5.97894E+00 +1.29470E+00 +1.60801E+01 -1.18493E+01 +2.44848E+01
 -2.37901E+01 +2.77701E+01 -3.16159E+01 +2.37282E+01 -3.37004E+01 +1.22385E+01 -2.99605E+01 -4.48064E+00
 -2.16388E+01 -2.23788E+01 -1.07650E+01 -3.67249E+01 +4.70044E-01 -4.35532E+01 +1.02206E+01 -4.09334E+01
 +1.72557E+01 -2.96325E+01 +2.09966E+01 -1.29275E+01 +2.14125E+01 +4.39051E+00 +1.88910E+01 +1.75047E+01
 +1.41568E+01 +2.30684E+01 +8.24005E+00 +2.02168E+01 +2.42778E+00 +1.07680E+01 -1.88574E+00 -1.44273E+00
 -3.49020E+00 -1.18567E+01 -1.74638E+00 -1.66775E+01 +3.06272E+00 -1.40563E+01 +9.58824E+00 -4.60585E+00
 +1.56131E+01 +8.89167E+00 +1.86126E+01 +2.24451E+01 +1.65527E+01 +3.21338E+01 +8.67518E+00 +3.52767E+01
 -4.02251E+00 +3.11290E+01 -1.88380E+01 +2.09327E+01 -3.20050E+01 +7.37089E+00 -3.97740E+01 -6.33396E+00
 -3.96049E+01 -1.73522E+01 -3.10712E+01 -2.39201E+01 -1.61415E+01 -2.55921E+01 +1.30238E+00 -2.30789E+01
 +1.65936E+01 -1.78108E+01 +2.57103E+01 -1.14304E+01 +2.65403E+01 -5.38803E+00 +1.95544E+01 -7.28649E-01
 +7.65270E+00 +1.94681E+00 -4.77965E+00 +2.43081E+00 -1.32988E+01 +8.63284E-01 -1.48414E+01 -2.26345E+00
 -8.70136E+00 -6.07608E+00 +3.27136E+00 -9.35006E+00 +1.73013E+01 -1.06826E+01 +2.89225E+01 -8.83632E+00
 +3.43973E+01 -3.18683E+00 +3.18539E+01 +5.88005E+00 +2.17893E+01 +1.68074E+01 +6.81049E+00 +2.70808E+01
 -9.25537E+00 +3.38310E+01 -2.25554E+01 +3.46868E+01 -3.03083E+01 +2.86125E+01 -3.14715E+01 +1.64262E+01
 -2.68164E+01 +7.68547E-01 -1.84604E+01 -1.45366E+01 -9.07642E+00 -2.55740E+01 -1.07161E+00 -2.95494E+01
 +4.00494E+00 -2.57177E+01 +5.68878E+00 -1.56932E+01 +4.47144E+00 -3.00167E+00 +1.44502E+00 +8.01172E+00
 -2.10498E+00 +1.35766E+01 -5.01510E+00 +1.17353E+01 -6.40697E+00 +3.00788E+00 -5.72592E+00 -9.74950E+00
 -2.73553E+00 -2.22525E+01 +2.45767E+00 -3.01677E+01 +9.32998E+00 -3.05061E+01 +1.68686E+01 -2.25743E+01
 +2.35985E+01 -8.17790E+00 +2.77922E+01 +8.97115E+00 +2.78789E+01 +2.44286E+01 +2.29633E+01 +3.43736E+01
 +1.32813E+01 +3.67048E+01 +3.90611E-01 +3.15418E+01 -1.30448E+01 +2.10135E+01 -2.38871E+01 +8.45434E+00
 -2.94222E+01 -2.68705E+00 -2.82450E+01 -9.85539E+00 -2.08188E+01 -1.20065E+01 -9.47382E+00 -9.68979E+00
 +2.21349E+00 -4.64213E+00 +1.05013E+01 +9.05048E-01 +1.26902E+01 +4.94305E+00 +8.05253E+00 +6.20003E+00
 -1.84835E+00 +4.33674E+00 -1.35883E+01 -1.59328E-01 -2.29486E+01 -6.26452E+00 -2.62809E+01 -1.27446E+01
 -2.17222E+01 -1.84015E+01 -9.85136E+00 -2.22043E+01 +6.44006E+00 -2.33439E+01 +2.28239E+01 -2.12848E+01
 +3.48723E+01 -1.58713E+01 +3.94152E+01 -7.47807E+00 +3.54767E+01 +2.86607E+00 +2.44994E+01 +1.34950E+01
 +9.80628E+00 +2.23464E+01 -4.49339E+00 +2.74302E+01 -1.47789E+01 +2.74196E+01 -1.89547E+01 +2.21697E+01
 -1.69371E+01 +1.29498E+01 -1.04778E+01 +2.24430E+00 -2.43999E+00 -6.88705E+00 +4.19233E+00 -1.17264E+01
 +7.22865E+00 -1.08072E+01 +5.83207E+00 -4.49506E+00 +5.95221E-01 +4.99841E+00 -6.82093E+00 +1.42246E+01
 -1.43026E+01 +1.95703E+01 -1.99167E+01 +1.84581E+01 -2.23660E+01 +1.02721E+01 -2.11697E+01 -3.32107E+00
 -1.65927E+01 -1.87925E+01 -9.42792E+00 -3.17994E+01 -7.57290E-01 -3.85319E+01 +8.22372E+00 -3.69173E+01
 +1.63040E+01 -2.72823E+01 +2.23269E+01 -1.22541E+01 +2.53016E+01 +4.06706E+00 +2.45930E+01 +1.73854E+01
 +2.01585E+01 +2.45155E+01 +1.27343E+01 +2.42939E+01 +3.84726E+00 +1.78165E+01 -4.43543E+00 +7.95527E+00
 -1.00121E+01 -1.65397E+00 -1.13863E+01 -7.79545E+00 -8.23002E+00 -8.63920E+00 -1.64659E+00 -4.19584E+00
 +6.01862E+00 +3.84178E+00 +1.18215E+01 +1.27629E+01 +1.31497E+01 +1.97471E+01 +8.64505E+00 +2.27034E+01
 -1.20695E+00 +2.07867E+01 -1.40595E+01 +1.44777E+01 -2.63138E+01 +5.27186E+00 -3.41946E+01 -4.85576E+00
 -3.49544E+01 -1.40029E+01 -2.78085E+01 -2.07392E+01 -1.42723E+01 -2.42777E+01 +2.23405E+00 -2.44459E+01
 +1.74026E+01 -2.15490E+01 +2.73536E+01 -1.62277E+01 +2.98205E+01 -9.36749E+00 +2.48167E+01 -2.04985E+00
 +1.45676E+01 +4.51425E+00 +2.74228E+00 +9.13488E+00 -6.75213E+00 +1.08982E+01 -1.10089E+01 +9.47336E+00
 -8.98923E+00 +5.35244E+00 -1.75496E+00 -1.11793E-01 +7.97959E+00 -4.96032E+00 +1.67927E+01 -7.15932E+00
 +2.16636E+01 -5.27338E+00 +2.08773E+01 +9.42832E-01 +1.44553E+01 +1.02686E+01 +4.01739E+00 +2.02097E+01
 -7.82356E+00 +2.76585E+01 -1.82929E+01 +2.98475E+01 -2.52250E+01 +2.52950E+01 -2.75460E+01 +1.44137E+01
 -2.53687E+01 -4.57919E-01 -1.97437E+01 -1.56549E+01 -1.22160E+01 -2.72555E+01 -4.36863E+00 -3.22856E+01
 +2.50665E+00 -2.96620E+01 +7.55600E+00 -2.05525E+01 +1.03603E+01 -8.01674E+00 +1.08652E+01 +3.96219E+00
 +9.32477E+00 +1.17442E+01 +6.28923E+00 +1.31782E+01 +2.60617E+00 +8.25288E+00 -6.35115E-01 -9.55207E-01
 -2.27926E+00 -1.10060E+01 -1.40737E+00 -1.82391E+01 +2.30626E+00 -1.99500E+01 +8.31883E+00 -1.52172E+01
 +1.51722E+01 -5.12786E+00 +2.07641E+01 +7.63849E+00 +2.29141E+01 +1.96962E+01 +2.00778E+01 +2.79961E+01
 +1.19719E+01 +3.06813E+01 -1.31497E-01 +2.75073E+01 -1.35955E+01 +1.97379E+01 -2.50918E+01 +9.61257E+00
 -3.15762E+01 -3.94043E-01 -3.12595E+01 -8.26195E+00 -2.42436E+01 -1.28626E+01 -1.25795E+01 -1.40574E+01
 +3.04685E-01 -1.25028E+01 +1.06465E+01 -9.29257E+00 +1.55331E+01 -5.59537E+00 +1.38343E+01 -2.39974E+00
 +6.56878E+00 -4.01962E-01 -3.42767E+00 +1.60084E-03 -1.24292E+01 -1.30747E+00 -1.70366E+01 -4.16128E+00
 -1.52821E+01 -8.05917E+00 -7.25790E+00 -1.21333E+01 +4.92773E+00 -1.52062E+01 +1.78406E+01 -1.59995E+01
 +2.78129E+01 -1.34880E+01 +3.20704E+01 -7.30703E+00 +2.95324E+01 +1.93703E+00 +2.10448E+01 +1.26119E+01
