 Created: 16-Jan-2021
 $NMID
 ID='D:\BASISSIMULATI'
 FMTDAT='(8E13.5)'
 VOLUME=   1.00000E+00
 TRAMP=   1.00000E+00
 $END
 +3.74912E+01 +1.73458E-01 +3.18179E+01 +8.54064E+00 +1.67315E+01 +1.53587E+01 -3.10728E+00 +1.92717E+01
 -2.16500E+01 +1.92257E+01 -3.33768E+01 +1.47584E+01 -3.49996E+01 +6.31394E+00 -2.64051E+01 -4.57844E+00
 -1.05597E+01 -1.54264E+01 +7.54846E+00 -2.32792E+01 +2.25434E+01 -2.55421E+01 +3.03130E+01 -2.08716E+01
 +2.91530E+01 -9.82955E+00 +2.00772E+01 +4.99459E+00 +6.26934E+00 +1.95360E+01 -8.06750E+00 +2.93867E+01
 -1.90384E+01 +3.11865E+01 -2.41240E+01 +2.38135E+01 -2.26930E+01 +8.94015E+00 -1.58844E+01 -9.29679E+00
 -6.00635E+00 -2.54701E+01 +4.27318E+00 -3.45374E+01 +1.26497E+01 -3.34791E+01 +1.76239E+01 -2.23457E+01
 +1.86114E+01 -4.33708E+00 +1.58071E+01 +1.51435E+01 +9.95511E+00 +3.01718E+01 +2.15423E+00 +3.61752E+01
 -6.24993E+00 +3.13795E+01 -1.37328E+01 +1.73530E+01 -1.87155E+01 -1.52612E+00 -1.98245E+01 -1.94914E+01
 -1.62795E+01 -3.12187E+01 -8.29748E+00 -3.34599E+01 +2.67537E+00 -2.59595E+01 +1.40794E+01 -1.13885E+01
 +2.27823E+01 +5.63326E+00 +2.59547E+01 +2.00610E+01 +2.20312E+01 +2.79720E+01 +1.14156E+01 +2.76432E+01
 -3.37084E+00 +1.98591E+01 -1.82416E+01 +7.42804E+00 -2.86949E+01 -5.85614E+00 -3.12320E+01 -1.64152E+01
 -2.45759E+01 -2.18552E+01 -1.02521E+01 -2.14388E+01 +7.71949E+00 -1.60007E+01 +2.39787E+01 -7.44078E+00
 +3.34837E+01 +1.95885E+00 +3.31394E+01 +1.01408E+01 +2.28485E+01 +1.56427E+01 +5.61315E+00 +1.77031E+01
 -1.33687E+01 +1.61875E+01 -2.83306E+01 +1.14629E+01 -3.47586E+01 +4.31772E+00 -3.08056E+01 -4.05950E+00
 -1.78388E+01 -1.21130E+01 +4.83846E-02 -1.80676E+01 +1.73809E+01 -2.02584E+01 +2.90437E+01 -1.76092E+01
 +3.18440E+01 -1.01179E+01 +2.53970E+01 +8.60229E-01 +1.20874E+01 +1.27201E+01 -3.83065E+00 +2.21767E+01
 -1.76471E+01 +2.61942E+01 -2.56380E+01 +2.30033E+01 -2.60752E+01 +1.28533E+01 -1.95297E+01 -1.81550E+00
 -8.44789E+00 -1.69184E+01 +3.77700E+00 -2.78880E+01 +1.38830E+01 -3.11109E+01 +1.96100E+01 -2.51679E+01
 +2.01309E+01 -1.14365E+01 +1.59965E+01 +6.19413E+00 +8.71771E+00 +2.24532E+01 +2.02553E-01 +3.23232E+01
 -7.73740E+00 +3.26521E+01 -1.36879E+01 +2.32032E+01 -1.67316E+01 +6.77864E+00 -1.64297E+01 -1.16409E+01
 -1.27944E+01 -2.64648E+01 -6.31628E+00 -3.32555E+01 +1.97511E+00 -3.01073E+01 +1.05086E+01 -1.81938E+01
 +1.73387E+01 -1.32354E+00 +2.05371E+01 +1.53271E+01 +1.87533E+01 +2.68646E+01 +1.17756E+01 +3.01648E+01
 +8.61713E-01 +2.47275E+01 -1.13581E+01 +1.26603E+01 -2.14743E+01 -2.14342E+00 -2.62714E+01 -1.53102E+01
 -2.37949E+01 -2.33226E+01 -1.41433E+01 -2.44608E+01 +3.34195E-01 -1.90976E+01 +1.55772E+01 -9.33240E+00
 +2.69791E+01 +1.83246E+00 +3.08349E+01 +1.14492E+01 +2.55966E+01 +1.73987E+01 +1.24938E+01 +1.87800E+01
 -4.72729E+00 +1.58804E+01 -2.09055E+01 +9.84109E+00 -3.10697E+01 +2.20980E+00 -3.20288E+01 -5.44549E+00
 -2.34163E+01 -1.17688E+01 -7.83292E+00 -1.57071E+01 +9.96786E+00 -1.65423E+01 +2.45866E+01 -1.39548E+01
 +3.16793E+01 -8.15011E+00 +2.92955E+01 +1.60207E-03 +1.84236E+01 +8.92852E+00 +2.58811E+00 +1.65395E+01
 -1.33382E+01 +2.06703E+01 -2.46933E+01 +1.97182E+01 -2.84352E+01 +1.32719E+01 -2.39608E+01 +2.48603E+00
 -1.31116E+01 -1.00026E+01 +5.73490E-01 -2.06867E+01 +1.30577E+01 -2.61973E+01 +2.10367E+01 -2.44131E+01
 +2.28113E+01 -1.52873E+01 +1.85717E+01 -1.06823E+00 +1.00857E+01 +1.42280E+01 -2.39392E-02 +2.59807E+01
 -9.12007E+00 +3.04157E+01 -1.52309E+01 +2.58694E+01 -1.73965E+01 +1.34250E+01 -1.56606E+01 -3.32473E+00
 -1.08155E+01 -1.93465E+01 -4.06263E+00 -2.97364E+01 +3.27010E+00 -3.12814E+01 +9.89385E+00 -2.34947E+01
 +1.46393E+01 -8.77613E+00 +1.65343E+01 +8.35611E+00 +1.49497E+01 +2.27075E+01 +9.82026E+00 +3.00432E+01
 +1.85708E+00 +2.83813E+01 -7.38082E+00 +1.85338E+01 -1.56802E+01 +3.74454E+00 -2.06678E+01 -1.14211E+01
 -2.05110E+01 -2.25409E+01 -1.46087E+01 -2.66671E+01 -4.00912E+00 -2.31067E+01 +8.66220E+00 -1.34464E+01
 +1.98251E+01 -8.78095E-01 +2.59830E+01 +1.08962E+01 +2.48660E+01 +1.87906E+01 +1.62875E+01 +2.11377E+01
 +2.38774E+00 +1.79609E+01 -1.28803E+01 +1.07124E+01 -2.49052E+01 +1.64801E+00 -2.98651E+01 -6.90115E+00
 -2.59943E+01 -1.31155E+01 -1.42320E+01 -1.59901E+01 +1.99140E+00 -1.53457E+01 +1.77866E+01 -1.16462E+01
 +2.83360E+01 -5.76160E+00 +3.04214E+01 +1.21530E+00 +2.34455E+01 +8.07078E+00 +9.60906E+00 +1.35380E+01
 -6.81146E+00 +1.64146E+01 -2.08383E+01 +1.57854E+01 -2.83595E+01 +1.13286E+01 -2.73754E+01 +3.59786E+00
 -1.85308E+01 -5.87288E+00 -4.79284E+00 -1.47708E+01 +9.58176E+00 -2.05399E+01 +2.04179E+01 -2.11390E+01
 +2.48723E+01 -1.57890E+01 +2.21748E+01 -5.42819E+00 +1.36699E+01 +7.34461E+00 +2.21107E+00 +1.89004E+01
 -8.83129E+00 +2.56396E+01 -1.65934E+01 +2.51616E+01 -1.94502E+01 +1.71470E+01 -1.72738E+01 +3.62106E+00
 -1.12176E+01 -1.15427E+01 -3.18366E+00 -2.37644E+01 +4.79686E+00 -2.91947E+01 +1.10603E+01 -2.59796E+01
 +1.45702E+01 -1.49170E+01 +1.49442E+01 +7.31460E-01 +1.23386E+01 +1.62354E+01 +7.30811E+00 +2.68810E+01
 +7.15712E-01 +2.94604E+01 -6.30657E+00 +2.32764E+01 -1.24121E+01 +1.03332E+01 -1.61923E+01 -5.33889E+00
 -1.64686E+01 -1.89888E+01 -1.26778E+01 -2.66404E+01 -5.21847E+00 -2.62886E+01 +4.41143E+00 -1.84210E+01
 +1.38209E+01 -5.73366E+00 +2.02964E+01 +7.82552E+00 +2.16100E+01 +1.83336E+01 +1.68161E+01 +2.30616E+01
 +6.74119E+00 +2.11749E+01 -6.05704E+00 +1.37879E+01 -1.79231E+01 +3.42591E+00 -2.51781E+01 -6.86764E+00
 -2.53085E+01 -1.44535E+01 -1.78691E+01 -1.77588E+01 -4.76565E+00 -1.65194E+01 +1.02235E+01 -1.16069E+01
 +2.25697E+01 -4.58404E+00 +2.84162E+01 +2.81075E+00 +2.58336E+01 +9.07246E+00 +1.54830E+01 +1.31459E+01
 +4.51674E-01 +1.44648E+01 -1.47017E+01 +1.28990E+01 -2.53830E+01 +8.70429E+00 -2.84098E+01 +2.52063E+00
 -2.29951E+01 -4.60749E+00 -1.09505E+01 -1.12704E+01 +3.94254E+00 -1.58764E+01 +1.71681E+01 -1.70064E+01
 +2.48973E+01 -1.38711E+01 +2.51313E+01 -6.71746E+00 +1.82113E+01 +3.00249E+00 +6.56831E+00 +1.28397E+01
 -6.15665E+00 +1.99474E+01 -1.62966E+01 +2.19323E+01 -2.12456E+01 +1.76940E+01 -2.01164E+01 +7.94682E+00
 -1.38064E+01 -4.80600E+00 -4.52378E+00 -1.69034E+01 +5.00901E+00 -2.46094E+01 +1.23784E+01 -2.53154E+01
 +1.60727E+01 -1.84581E+01 +1.57061E+01 -5.81968E+00 +1.18861E+01 +8.92976E+00 +5.85089E+00 +2.13320E+01
 -9.45511E-01 +2.75409E+01 -7.15841E+00 +2.55650E+01 -1.17255E+01 +1.59336E+01 -1.39157E+01 +1.55531E+00
 -1.33336E+01 -1.31937E+01 -9.95295E+00 -2.38533E+01 -4.19794E+00 -2.72807E+01 +2.97904E+00 -2.26096E+01
 +1.01210E+01 -1.14637E+01 +1.54759E+01 +2.62580E+00 +1.74062E+01 +1.53845E+01 +1.49124E+01 +2.31408E+01
 +8.09409E+00 +2.39140E+01 -1.65141E+00 +1.79086E+01 -1.18359E+01 +7.29869E+00 -1.95027E+01 -4.57867E+00
 -2.21142E+01 -1.43147E+01 -1.84275E+01 -1.94341E+01 -9.04444E+00 -1.90084E+01 +3.59731E+00 -1.37316E+01
 +1.58507E+01 -5.50648E+00 +2.39444E+01 +3.25832E+00 +2.51914E+01 +1.03749E+01 +1.89186E+01 +1.44005E+01
 +6.78199E+00 +1.48425E+01 -7.66834E+00 +1.20613E+01 -2.00616E+01 +6.98660E+00 -2.65800E+01 +7.97004E-01
 -2.51827E+01 -5.32369E+00 -1.62728E+01 -1.03169E+01 -2.57746E+00 -1.33054E+01 +1.17185E+01 -1.36493E+01
 +2.23024E+01 -1.10575E+01 +2.60839E+01 -5.74693E+00 +2.21279E+01 +1.42601E+00 +1.18758E+01 +8.97188E+00
 -1.39131E+00 +1.49996E+01 -1.36455E+01 +1.76757E+01 -2.13813E+01 +1.58063E+01 -2.26464E+01 +9.34836E+00
 -1.75200E+01 -3.62851E-01 -7.92723E+00 -1.08177E+01 +3.09429E+00 -1.89721E+01 +1.23948E+01 -2.21644E+01
 +1.76362E+01 -1.90215E+01 +1.78599E+01 -1.00341E+01 +1.35700E+01 +2.43617E+00 +6.37637E+00 +1.47743E+01
 -1.61771E+00 +2.31935E+01 -8.44889E+00 +2.49455E+01 -1.27504E+01 +1.92555E+01 -1.39367E+01 +7.65206E+00
 -1.21388E+01 -6.44518E+00 -7.99413E+00 -1.87685E+01 -2.41573E+00 -2.55443E+01 +3.57310E+00 -2.46956E+01
 +8.92751E+00 -1.65048E+01 +1.26419E+01 -3.51679E+00 +1.38528E+01 +1.02830E+01 +1.20220E+01 +2.07404E+01
 +7.16758E+00 +2.48300E+01 +4.75081E-02 +2.15581E+01 -7.83014E+00 +1.21903E+01 -1.44562E+01 -2.41009E-01
 -1.78227E+01 -1.19578E+01 -1.65576E+01 -1.96281E+01 -1.04809E+01 -2.13384E+01 -8.59157E-01 -1.70527E+01
 +9.79295E+00 -8.45683E+00 +1.83652E+01 +1.70548E+00 +2.20917E+01 +1.05431E+01 +1.94816E+01 +1.58604E+01
 +1.09165E+01 +1.66796E+01 -1.32712E+00 +1.33280E+01 -1.36826E+01 +7.13633E+00 -2.23671E+01 -8.85182E-02
 -2.45869E+01 -6.60547E+00 -1.94742E+01 -1.11298E+01 -8.42996E+00 -1.29967E+01 +5.26561E+00 -1.21253E+01
 +1.74618E+01 -8.87698E+00 +2.44445E+01 -3.91033E+00 +2.41125E+01 +1.91069E+00 +1.66344E+01 +7.56411E+00
 +4.37256E+00 +1.19332E+01 -8.89302E+00 +1.39514E+01 -1.91766E+01 +1.28508E+01 -2.35292E+01 +8.46059E+00
 -2.09084E+01 +1.43811E+00 -1.24111E+01 -6.70258E+00 -8.23817E-01 -1.38541E+01 +1.03273E+01 -1.78553E+01
 +1.78902E+01 -1.71719E+01 +1.99991E+01 -1.14931E+01 +1.65139E+01 -2.01124E+00 +8.89083E+00 +8.76889E+00
 -4.13531E-01 +1.76913E+01 -8.76500E+00 +2.19048E+01 -1.41148E+01 +1.98138E+01 -1.54757E+01 +1.16927E+01
 -1.30124E+01 -2.74079E-01 -7.78973E+00 -1.25838E+01 -1.32860E+00 -2.14753E+01 +4.84900E+00 -2.41247E+01
 +9.54576E+00 -1.95806E+01 +1.20303E+01 -9.11632E+00 +1.20273E+01 +4.13430E+00 +9.63913E+00 +1.61501E+01
 +5.28118E+00 +2.32907E+01 -3.39823E-01 +2.34423E+01 -6.23296E+00 +1.66667E+01 -1.11869E+01 +5.14465E+00
 -1.39522E+01 -7.55374E+00 -1.35490E+01 -1.76199E+01 -9.62729E+00 -2.21911E+01 -2.74305E+00 -2.01868E+01
 +5.59543E+00 -1.25425E+01 +1.32016E+01 -1.80252E+00 +1.77816E+01 +8.75938E+00 +1.76549E+01 +1.61757E+01
 +1.23866E+01 +1.86375E+01 +3.09063E+00 +1.59108E+01 -7.75230E+00 +9.23294E+00 -1.69593E+01 +7.80967E-01
 -2.16127E+01 -7.06500E+00 -2.00241E+01 -1.24065E+01 -1.23646E+01 -1.42563E+01 -7.19658E-01 -1.26298E+01
 +1.14854E+01 -8.34031E+00 +2.05277E+01 -2.63368E+00 +2.35681E+01 +3.18307E+00 +1.95805E+01 +8.00442E+00
 +9.71230E+00 +1.10448E+01 -3.05527E+00 +1.18514E+01 -1.48417E+01 +1.02850E+01 -2.20928E+01 +6.52928E+00
 -2.26938E+01 +1.13687E+00 -1.66069E+01 -4.93977E+00 -5.83347E+00 -1.04105E+01 +6.26970E+00 -1.38625E+01
 +1.60782E+01 -1.41218E+01 +2.08253E+01 -1.06696E+01 +1.94015E+01 -3.96024E+00 +1.25890E+01 +4.51441E+00
