 Created: 16-Jan-2021
 $NMID
 ID='D:\BASISSIMULATI'
 FMTDAT='(8E13.5)'
 VOLUME=   1.00000E+00
 TRAMP=   1.00000E+00
 $END
 +4.93696E+01 +7.53545E-01 +4.17259E+01 +2.35096E+01 +2.38266E+01 +3.78261E+01 +2.76600E+00 +3.99773E+01
 -1.40411E+01 +3.13538E+01 -2.20471E+01 +1.72100E+01 -2.10234E+01 +3.79963E+00 -1.42888E+01 -4.48920E+00
 -6.43143E+00 -6.58224E+00 -9.34647E-01 -4.27401E+00 +1.05730E+00 -4.92425E-01 +4.26295E-01 +2.52396E+00
 -1.24389E+00 +4.10162E+00 -2.97632E+00 +4.77106E+00 -4.86263E+00 +5.18743E+00 -7.52775E+00 +5.22637E+00
 -1.11383E+01 +3.90768E+00 -1.47588E+01 +1.58443E-01 -1.65688E+01 -6.16775E+00 -1.48330E+01 -1.37670E+01
 -9.00024E+00 -2.02678E+01 -2.10929E-01 -2.33289E+01 +9.12805E+00 -2.17990E+01 +1.64582E+01 -1.62484E+01
 +2.02147E+01 -8.58207E+00 +2.03535E+01 -1.00748E+00 +1.80171E+01 +5.00259E+00 +1.46308E+01 +9.15570E+00
 +1.10433E+01 +1.20082E+01 +7.23986E+00 +1.41696E+01 +2.75264E+00 +1.56260E+01 -2.57718E+00 +1.56506E+01
 -8.04937E+00 +1.33555E+01 -1.21826E+01 +8.50770E+00 -1.34203E+01 +2.04672E+00 -1.10545E+01 -4.07683E+00
 -5.80205E+00 -7.71074E+00 +3.34271E-01 -7.53049E+00 +4.88345E+00 -3.72582E+00 +5.98265E+00 +2.02497E+00
 +3.16837E+00 +7.27066E+00 -2.48476E+00 +9.81409E+00 -8.88567E+00 +8.54958E+00 -1.37953E+01 +3.76268E+00
 -1.56144E+01 -3.14605E+00 -1.37861E+01 -1.02778E+01 -8.76198E+00 -1.58629E+01 -1.68808E+00 -1.86681E+01
 +5.96708E+00 -1.81412E+01 +1.27088E+01 -1.43929E+01 +1.72338E+01 -8.12789E+00 +1.86342E+01 -5.56420E-01
 +1.66173E+01 +6.77516E+00 +1.16672E+01 +1.22965E+01 +5.01939E+00 +1.48391E+01 -1.63659E+00 +1.40251E+01
 -6.67169E+00 +1.04233E+01 -9.04933E+00 +5.35550E+00 -8.63363E+00 +4.09691E-01 -6.12998E+00 -3.12315E+00
 -2.70371E+00 -4.62962E+00 +5.12221E-01 -4.21774E+00 +2.77042E+00 -2.46212E+00 +3.78288E+00 -4.58024E-02
 +3.55977E+00 +2.47975E+00 +2.19668E+00 +4.71117E+00 -2.03332E-01 +6.25691E+00 -3.41606E+00 +6.63314E+00
 -6.90511E+00 +5.34931E+00 -9.75728E+00 +2.18984E+00 -1.08882E+01 -2.47431E+00 -9.48452E+00 -7.58151E+00
 -5.46727E+00 -1.16311E+01 +3.00979E-01 -1.32351E+01 +6.23174E+00 -1.17180E+01 +1.05914E+01 -7.45528E+00
 +1.21816E+01 -1.75644E+00 +1.07877E+01 +3.66143E+00 +7.18588E+00 +7.35152E+00 +2.73017E+00 +8.63762E+00
 -1.24294E+00 +7.72039E+00 -3.88656E+00 +5.39692E+00 -4.99022E+00 +2.59992E+00 -4.80493E+00 +2.56855E-02
 -3.72756E+00 -1.97986E+00 -2.07100E+00 -3.29438E+00 -4.47526E-02 -3.81891E+00 +2.10029E+00 -3.39271E+00
 +3.93168E+00 -1.90051E+00 +4.86222E+00 +5.12155E-01 +4.37967E+00 +3.29864E+00 +2.35674E+00 +5.59603E+00
 -7.62394E-01 +6.54215E+00 -4.04899E+00 +5.67162E+00 -6.44183E+00 +3.16731E+00 -7.19333E+00 -1.87981E-01
 -6.17397E+00 -3.34716E+00 -3.87617E+00 -5.44534E+00 -1.12928E+00 -6.12114E+00 +1.30196E+00 -5.55686E+00
 +3.00947E+00 -4.25041E+00 +3.98119E+00 -2.68402E+00 +4.40817E+00 -1.09925E+00 +4.42003E+00 +4.99039E-01
 +3.94168E+00 +2.14516E+00 +2.77075E+00 +3.68488E+00 +8.20581E-01 +4.69932E+00 -1.64478E+00 +4.66072E+00
 -3.96292E+00 +3.24568E+00 -5.28353E+00 +6.18695E-01 -4.94994E+00 -2.49969E+00 -2.85369E+00 -5.05264E+00
 +4.34382E-01 -6.06736E+00 +3.84050E+00 -5.07535E+00 +6.19796E+00 -2.32834E+00 +6.70104E+00 +1.29131E+00
 +5.19912E+00 +4.61626E+00 +2.21517E+00 +6.63175E+00 -1.29314E+00 +6.81510E+00 -4.30145E+00 +5.25417E+00
 -6.05390E+00 +2.53443E+00 -6.24781E+00 -5.19385E-01 -5.03659E+00 -3.12288E+00 -2.89718E+00 -4.73392E+00
 -4.43105E-01 -5.13694E+00 +1.74637E+00 -4.42414E+00 +3.24495E+00 -2.91378E+00 +3.83985E+00 -1.04312E+00
 +3.54129E+00 +7.40412E-01 +2.54815E+00 +2.07488E+00 +1.17723E+00 +2.75135E+00 -2.28441E-01 +2.73740E+00
 -1.38558E+00 +2.15017E+00 -2.12187E+00 +1.19107E+00 -2.37742E+00 +7.33324E-02 -2.16706E+00 -1.02359E+00
 -1.53640E+00 -1.95647E+00 -5.45694E-01 -2.59120E+00 +7.06111E-01 -2.78206E+00 +2.03863E+00 -2.39153E+00
 +3.17145E+00 -1.35661E+00 +3.76639E+00 +2.29312E-01 +3.53327E+00 +2.07198E+00 +2.36104E+00 +3.71255E+00
 +4.11475E-01 +4.65084E+00 -1.87813E+00 +4.51624E+00 -3.90019E+00 +3.21916E+00 -5.05978E+00 +1.01825E+00
 -4.97163E+00 -1.52924E+00 -3.60066E+00 -3.72289E+00 -1.29552E+00 -4.93131E+00 +1.29946E+00 -4.79346E+00
 +3.43113E+00 -3.34503E+00 +4.46972E+00 -1.02607E+00 +4.11673E+00 +1.44120E+00 +2.51819E+00 +3.27692E+00
 +2.34437E-01 +3.90506E+00 -1.93972E+00 +3.16249E+00 -3.25427E+00 +1.37084E+00 -3.28398E+00 -7.72080E-01
 -2.09547E+00 -2.45459E+00 -2.22342E-01 -3.07022E+00 +1.55360E+00 -2.46101E+00 +2.52950E+00 -9.75330E-01
 +2.37626E+00 +6.91508E-01 +1.26893E+00 +1.80699E+00 -2.06804E-01 +1.92304E+00 -1.32783E+00 +1.06465E+00
 -1.56005E+00 -2.96250E-01 -7.90956E-01 -1.46267E+00 +6.29027E-01 -1.82396E+00 +2.04286E+00 -1.11847E+00
 +2.76233E+00 +4.57198E-01 +2.34479E+00 +2.32258E+00 +7.69343E-01 +3.72726E+00 -1.53778E+00 +4.01886E+00
 -3.82350E+00 +2.87857E+00 -5.23325E+00 +4.61829E-01 -5.08627E+00 -2.59204E+00 -3.13729E+00 -5.29764E+00
 +2.50363E-01 -6.60209E+00 +4.10302E+00 -5.75640E+00 +7.06600E+00 -2.67312E+00 +7.85093E+00 +1.88271E+00
 +5.77724E+00 +6.41062E+00 +1.18758E+00 +9.14232E+00 -4.49428E+00 +8.73833E+00 -9.18061E+00 +4.93829E+00
 -1.09158E+01 -1.15781E+00 -8.73988E+00 -7.38337E+00 -3.21479E+00 -1.13254E+01 +3.68598E+00 -1.13485E+01
 +9.34112E+00 -7.35294E+00 +1.15893E+01 -8.81380E-01 +9.67292E+00 +5.51816E+00 +4.56050E+00 +9.39905E+00
 -1.51778E+00 +9.47314E+00 -6.09778E+00 +6.11415E+00 -7.56862E+00 +1.07992E+00 -5.79658E+00 -3.37895E+00
 -2.01685E+00 -5.55654E+00 +1.89119E+00 -4.96253E+00 +4.32670E+00 -2.34175E+00 +4.61101E+00 +8.80545E-01
 +3.07881E+00 +3.36242E+00 +6.74891E-01 +4.39575E+00 -1.62768E+00 +4.00791E+00 -3.23238E+00 +2.67636E+00
 -3.97223E+00 +9.33496E-01 -3.90037E+00 -8.54516E-01 -3.07250E+00 -2.43889E+00 -1.53445E+00 -3.50953E+00
 +4.80853E-01 -3.63682E+00 +2.35961E+00 -2.48301E+00 +3.18336E+00 -1.88026E-01 +2.17204E+00 +2.37445E+00
 -7.03967E-01 +3.77610E+00 -4.35425E+00 +2.70854E+00 -6.80816E+00 -1.14401E+00 -6.10812E+00 -6.56438E+00
 -1.46936E+00 -1.10451E+01 +5.94844E+00 -1.18669E+01 +1.32120E+01 -7.55395E+00 +1.68170E+01 +1.06970E+00
 +1.44170E+01 +1.08939E+01 +6.19682E+00 +1.77610E+01 -4.90497E+00 +1.84095E+01 -1.43653E+01 +1.21580E+01
 -1.81404E+01 +1.42076E+00 -1.46104E+01 -9.29010E+00 -5.40281E+00 -1.54304E+01 +5.35314E+00 -1.45376E+01
 +1.29739E+01 -7.32927E+00 +1.43830E+01 +2.74958E+00 +9.40573E+00 +1.12524E+01 +6.01146E-01 +1.48084E+01
 -8.17382E+00 +1.24977E+01 -1.36355E+01 +5.91123E+00 -1.43948E+01 -1.97548E+00 -1.11432E+01 -8.37399E+00
 -5.80528E+00 -1.18172E+01 -3.12058E-01 -1.23432E+01 +4.23610E+00 -1.08442E+01 +7.61691E+00 -8.17901E+00
 +9.91707E+00 -4.69735E+00 +1.09238E+01 -4.45482E-01 +1.00259E+01 +4.22212E+00 +6.74747E+00 +8.21992E+00
 +1.51311E+00 +9.97343E+00 -4.00935E+00 +8.31174E+00 -7.42477E+00 +3.46438E+00 -6.85091E+00 -2.57948E+00
 -2.18981E+00 -6.78098E+00 +4.42163E+00 -6.60175E+00 +9.43831E+00 -1.56216E+00 +9.71625E+00 +6.16400E+00
 +4.35031E+00 +1.26248E+01 -4.55258E+00 +1.41035E+01 -1.27383E+01 +9.21554E+00 -1.59660E+01 -1.18262E-01
 -1.23349E+01 -9.47438E+00 -3.46763E+00 -1.41757E+01 +6.18419E+00 -1.18092E+01 +1.16167E+01 -3.61945E+00
 +9.93474E+00 +6.03702E+00 +1.94406E+00 +1.19334E+01 -8.21311E+00 +1.07174E+01 -1.51971E+01 +2.67620E+00
 -1.52264E+01 -8.42371E+00 -7.96918E+00 -1.73044E+01 +3.40753E+00 -1.98545E+01 +1.39734E+01 -1.50723E+01
 +1.95338E+01 -5.29921E+00 +1.85219E+01 +5.24348E+00 +1.23489E+01 +1.26779E+01 +4.21284E+00 +1.51859E+01
 -2.77790E+00 +1.33688E+01 -7.02240E+00 +9.27399E+00 -8.66006E+00 +4.88806E+00 -8.71137E+00 +1.11240E+00
 -7.90365E+00 -2.20569E+00 -6.08224E+00 -5.39097E+00 -2.61604E+00 -8.00566E+00 +2.55533E+00 -8.67744E+00
 +8.09663E+00 -5.93946E+00 +1.14453E+01 +4.37183E-01 +1.00863E+01 +8.58701E+00 +3.24532E+00 +1.49403E+01
 -7.09531E+00 +1.58746E+01 -1.66714E+01 +9.78889E+00 -2.08600E+01 -1.63029E+00 -1.70974E+01 -1.38353E+01
 -6.43455E+00 -2.14814E+01 +6.73665E+00 -2.11016E+01 +1.67570E+01 -1.29346E+01 +1.95132E+01 -8.60512E-01
 +1.44743E+01 +9.57408E+00 +4.83873E+00 +1.39867E+01 -4.27575E+00 +1.13079E+01 -8.57946E+00 +4.09849E+00
 -6.77268E+00 -3.07740E+00 -9.66878E-01 -6.25241E+00 +4.77733E+00 -4.15018E+00 +6.87661E+00 +1.35736E+00
 +4.19997E+00 +6.58199E+00 -1.48943E+00 +8.27129E+00 -6.76932E+00 +5.43943E+00 -8.64347E+00 -2.37541E-01
 -6.21650E+00 -5.57967E+00 -1.02623E+00 -7.82334E+00 +4.04496E+00 -6.12806E+00 +6.51717E+00 -1.83145E+00
 +5.63100E+00 +2.57398E+00 +2.50200E+00 +5.00121E+00 -8.49139E-01 +4.86780E+00 -2.86155E+00 +3.11323E+00
 -3.28246E+00 +1.25309E+00 -2.99908E+00 +2.02141E-01 -3.06735E+00 -3.00740E-01 -3.69060E+00 -1.28847E+00
 -3.91788E+00 -3.50344E+00 -2.32254E+00 -6.47162E+00 +1.77408E+00 -8.44151E+00 +7.38902E+00 -7.34818E+00
 +1.19883E+01 -2.25603E+00 +1.27065E+01 +5.64803E+00 +8.03503E+00 +1.32371E+01 -1.02594E+00 +1.68463E+01
 -1.11100E+01 +1.41843E+01 -1.79585E+01 +5.68975E+00 -1.84855E+01 -5.47331E+00 -1.23287E+01 -1.48364E+01
 -2.04528E+00 -1.87339E+01 +8.14653E+00 -1.59868E+01 +1.43894E+01 -8.30353E+00 +1.49007E+01 +7.43653E-01
 +1.05293E+01 +7.54347E+00 +3.98284E+00 +1.00708E+01 -1.72553E+00 +8.51017E+00 -4.70909E+00 +4.69913E+00
 -4.79486E+00 +8.68261E-01 -3.10916E+00 -1.52710E+00 -1.08715E+00 -2.26582E+00 +4.07700E-01 -2.00174E+00
 +1.35101E+00 -1.48341E+00 +2.17332E+00 -9.43992E-01 +3.11554E+00 -5.04780E-02 +3.84037E+00 +1.63005E+00
 +3.58585E+00 +4.05002E+00 +1.73901E+00 +6.44907E+00 -1.59462E+00 +7.67040E+00 -5.45067E+00 +6.83395E+00
 -8.42850E+00 +3.91971E+00 -9.42974E+00 -1.36848E-01 -8.24949E+00 -3.91984E+00 -5.64612E+00 -6.29118E+00
 -2.84834E+00 -6.96189E+00 -8.15332E-01 -6.52824E+00 +2.82096E-01 -5.96845E+00 +1.04129E+00 -5.93736E+00
 +2.29993E+00 -6.31841E+00 +4.45658E+00 -6.31902E+00 +7.08840E+00 -5.04249E+00 +9.12093E+00 -2.16415E+00
 +9.45179E+00 +1.72712E+00 +7.64265E+00 +5.35024E+00 +4.25015E+00 +7.39377E+00 +5.88894E-01 +7.22573E+00
 -1.93652E+00 +5.23428E+00 -2.54102E+00 +2.60942E+00 -1.41134E+00 +7.08547E-01 +4.71232E-01 +3.79978E-01
 +1.89590E+00 +1.61507E+00 +2.02730E+00 +3.67894E+00 +7.19546E-01 +5.58126E+00 -1.57953E+00 +6.57282E+00
