 Created: 16-Jan-2021
 $NMID
 ID='D:\BASISSIMULATI'
 FMTDAT='(8E13.5)'
 VOLUME=   1.00000E+00
 TRAMP=   1.00000E+00
 $END
 +2.72404E+01 +1.25709E-01 +2.49669E+01 +9.95473E+00 +1.91059E+01 +1.79489E+01 +1.08021E+01 +2.28368E+01
 +1.61036E+00 +2.39853E+01 -6.83494E+00 +2.15039E+01 -1.31570E+01 +1.61860E+01 -1.65049E+01 +9.30753E+00
 -1.66971E+01 +2.33055E+00 -1.42133E+01 -3.41970E+00 -1.00404E+01 -7.03099E+00 -5.41486E+00 -8.17389E+00
 -1.52189E+00 -7.13104E+00 +7.78120E-01 -4.68463E+00 +1.13388E+00 -1.89316E+00 -2.40690E-01 +1.86920E-01
 -2.64766E+00 +7.68375E-01 -5.10037E+00 -4.73185E-01 -6.58422E+00 -3.32269E+00 -6.31990E+00 -7.08159E+00
 -3.96724E+00 -1.07408E+01 +2.77547E-01 -1.32283E+01 +5.71287E+00 -1.36731E+01 +1.12827E+01 -1.16225E+01
 +1.58115E+01 -7.16442E+00 +1.82693E+01 -9.26154E-01 +1.80053E+01 +6.04958E+00 +1.48987E+01 +1.25217E+01
 +9.39204E+00 +1.73120E+01 +2.40298E+00 +1.95522E+01 -4.86642E+00 +1.88614E+01 -1.11778E+01 +1.54181E+01
 -1.55076E+01 +9.91163E+00 -1.72453E+01 +3.38666E+00 -1.62994E+01 -2.98086E+00 -1.30884E+01 -8.12726E+00
 -8.42603E+00 -1.13097E+01 -3.32724E+00 -1.22360E+01 +1.21721E+00 -1.10908E+01 +4.44781E+00 -8.45783E+00
 +5.97978E+00 -5.15870E+00 +5.85434E+00 -2.05075E+00 +4.49097E+00 +1.70769E-01 +2.55651E+00 +1.12071E+00
 +7.84966E-01 +7.91137E-01 -2.08169E-01 -4.73829E-01 -7.39336E-02 -2.08565E+00 +1.19260E+00 -3.37284E+00
 +3.26071E+00 -3.75652E+00 +5.55344E+00 -2.89853E+00 +7.39445E+00 -7.88136E-01 +8.17663E+00 +2.25107E+00
 +7.51247E+00 +5.63403E+00 +5.33196E+00 +8.64789E+00 +1.90635E+00 +1.06149E+01 -2.20594E+00 +1.10462E+01
 -6.27772E+00 +9.75301E+00 -9.56770E+00 +6.88957E+00 -1.14763E+01 +2.92155E+00 -1.16683E+01 -1.47241E+00
 -1.01366E+01 -5.54195E+00 -7.19465E+00 -8.61735E+00 -3.40304E+00 -1.02396E+01 +5.53032E-01 -1.02410E+01
 +4.00536E+00 -8.76213E+00 +6.43313E+00 -6.20341E+00 +7.55468E+00 -3.12662E+00 +7.36328E+00 -1.29415E-01
 +6.10291E+00 +2.27811E+00 +4.19328E+00 +3.76867E+00 +2.12382E+00 +4.24604E+00 +3.42151E-01 +3.83949E+00
 -8.38313E-01 +2.84958E+00 -1.29255E+00 +1.66106E+00 -1.09088E+00 +6.44895E-01 -4.60803E-01 +7.22424E-02
 +2.84253E-01 +5.89316E-02 +8.30396E-01 +5.50841E-01 +9.42431E-01 +1.35056E+00 +5.18846E-01 +2.17629E+00
 -3.88458E-01 +2.73725E+00 -1.59199E+00 +2.80711E+00 -2.81770E+00 +2.27866E+00 -3.77208E+00 +1.18825E+00
 -4.21116E+00 -2.93808E-01 -3.99557E+00 -1.90291E+00 -3.12028E+00 -3.33920E+00 -1.71384E+00 -4.33206E+00
 -9.07622E-03 -4.69549E+00 +1.70663E+00 -4.36314E+00 +3.14960E+00 -3.39695E+00 +4.09384E+00 -1.96942E+00
 +4.41003E+00 -3.25229E-01 +4.08274E+00 +1.26811E+00 +3.20458E+00 +2.56989E+00 +1.95065E+00 +3.40606E+00
 +5.40493E-01 +3.69275E+00 -8.03608E-01 +3.44084E+00 -1.89369E+00 +2.74313E+00 -2.60219E+00 +1.74911E+00
 -2.87393E+00 +6.33649E-01 -2.72429E+00 -4.33487E-01 -2.22628E+00 -1.31226E+00 -1.49099E+00 -1.90796E+00
 -6.46023E-01 -2.17710E+00 +1.84156E-01 -2.12499E+00 +8.93569E-01 -1.79728E+00 +1.40477E+00 -1.26839E+00
 +1.67390E+00 -6.28906E-01 +1.69159E+00 +2.65315E-02 +1.48074E+00 +6.10079E-01 +1.09170E+00 +1.05017E+00
 +5.95140E-01 +1.29931E+00 +7.26506E-02 +1.33968E+00 -3.94592E-01 +1.18565E+00 -7.38191E-01 +8.81998E-01
 -9.14208E-01 +4.97209E-01 -9.11840E-01 +1.11798E-01 -7.56715E-01 -1.96996E-01 -5.07027E-01 -3.71559E-01
 -2.42129E-01 -3.87778E-01 -4.49837E-02 -2.62798E-01 +1.82408E-02 -5.38333E-02 -8.31258E-02 +1.52986E-01
 -3.32160E-01 +2.62396E-01 -6.62803E-01 +1.94639E-01 -9.70705E-01 -9.05668E-02 -1.13539E+00 -5.76894E-01
 -1.04968E+00 -1.18630E+00 -6.49888E-01 -1.78884E+00 +6.05024E-02 -2.22679E+00 +1.00045E+00 -2.34903E+00
 +2.01834E+00 -2.04848E+00 +2.91660E+00 -1.29387E+00 +3.49026E+00 -1.47821E-01 +3.57154E+00 +1.23469E+00
 +3.07103E+00 +2.62884E+00 +2.00534E+00 +3.78044E+00 +5.03997E-01 +4.45644E+00 -1.20770E+00 +4.49514E+00
 -2.84780E+00 +3.84452E+00 -4.13144E+00 +2.57967E+00 -4.82816E+00 +8.93953E-01 -4.81030E+00 -9.35180E-01
 -4.08145E+00 -2.59960E+00 -2.77795E+00 -3.82189E+00 -1.14218E+00 -4.41159E+00 +5.27168E-01 -4.30359E+00
 +1.93727E+00 -3.56995E+00 +2.86216E+00 -2.40198E+00 +3.18892E+00 -1.06613E+00 +2.93834E+00 +1.56330E-01
 +2.25537E+00 +1.03258E+00 +1.37115E+00 +1.42963E+00 +5.45378E-01 +1.34210E+00 +2.35130E-03 +8.89519E-01
 -1.24317E-01 +2.83734E-01 +1.74932E-01 -2.26296E-01 +7.82429E-01 -4.19338E-01 +1.48157E+00 -1.60986E-01
 +2.01043E+00 +5.57337E-01 +2.12839E+00 +1.60936E+00 +1.68008E+00 +2.75792E+00 +6.41393E-01 +3.70723E+00
 -8.64253E-01 +4.17182E+00 -2.58403E+00 +3.94653E+00 -4.18527E+00 +2.96108E+00 -5.32599E+00 +1.30602E+00
 -5.73082E+00 -7.76954E-01 -5.25502E+00 -2.93908E+00 -3.92195E+00 -4.79403E+00 -1.92465E+00 -5.99789E+00
 +4.09311E-01 -6.32176E+00 +2.68272E+00 -5.70099E+00 +4.50916E+00 -4.24966E+00 +5.59151E+00 -2.23698E+00
 +5.78110E+00 -3.07009E-02 +5.10474E+00 +1.97992E+00 +3.75361E+00 +3.46461E+00 +2.03712E+00 +4.21798E+00
 +3.12280E-01 +4.19671E+00 -1.09508E+00 +3.51995E+00 -1.95960E+00 +2.43373E+00 -2.20049E+00 +1.24808E+00
 -1.89113E+00 +2.61868E-01 -1.23255E+00 -3.07188E-01 -4.97746E-01 -3.71110E-01 +3.95890E-02 +1.20123E-02
 +1.75011E-01 +6.57354E-01 -1.74714E-01 +1.30329E+00 -9.49729E-01 +1.67980E+00 -1.96038E+00 +1.57897E+00
 -2.93245E+00 +9.10828E-01 -3.57367E+00 -2.68893E-01 -3.64580E+00 -1.76560E+00 -3.02547E+00 -3.28606E+00
 -1.73928E+00 -4.50284E+00 +3.49619E-02 -5.12813E+00 +2.00173E+00 -4.98017E+00 +3.80828E+00 -4.02697E+00
 +5.11883E+00 -2.39744E+00 +5.68567E+00 -3.57194E-01 +5.40140E+00 +1.74529E+00 +4.32084E+00 +3.55025E+00
 +2.64807E+00 +4.75987E+00 +6.91974E-01 +5.19722E+00 -1.19940E+00 +4.83809E+00 -2.71079E+00 +3.80960E+00
 -3.62206E+00 +2.35662E+00 -3.84759E+00 +7.84582E-01 -3.44482E+00 -6.07976E-01 -2.59145E+00 -1.59177E+00
 -1.53744E+00 -2.05039E+00 -5.43961E-01 -1.99629E+00 +1.76453E-01 -1.55678E+00 +5.05016E-01 -9.34588E-01
 +4.37292E-01 -3.53354E-01 +7.57416E-02 -1.25052E-03 -4.02861E-01 +1.39806E-02 -7.96425E-01 -3.11480E-01
 -9.30764E-01 -8.80238E-01 -7.04279E-01 -1.52102E+00 -1.13799E-01 -2.03335E+00 +7.44026E-01 -2.23851E+00
 +1.69545E+00 -2.02453E+00 +2.53058E+00 -1.37482E+00 +3.05250E+00 -3.74010E-01 +3.12303E+00 +8.09753E-01
 +2.69462E+00 +1.96146E+00 +1.82143E+00 +2.86609E+00 +6.47629E-01 +3.35464E+00 -6.23772E-01 +3.33915E+00
 -1.77397E+00 +2.82921E+00 -2.61326E+00 +1.92697E+00 -3.01792E+00 +8.02823E-01 -2.95127E+00 -3.42106E-01
 -2.46535E+00 -1.31764E+00 -1.68393E+00 -1.98117E+00 -7.71913E-01 -2.26149E+00 +1.01228E-01 -2.16581E+00
 +7.95482E-01 -1.76961E+00 +1.22462E+00 -1.19325E+00 +1.36638E+00 -5.71733E-01 +1.25771E+00 -2.49660E-02
 +9.77816E-01 +3.64764E-01 +6.24296E-01 +5.63939E-01 +2.88641E-01 +5.86393E-01 +3.69597E-02 +4.81296E-01
 -1.00259E-01 +3.14830E-01 -1.28102E-01 +1.50866E-01 -7.84209E-02 +3.55616E-02 +4.23454E-03 -1.07921E-02
 +7.74927E-02 +6.35320E-03 +1.12753E-01 +6.29211E-02 +1.00802E-01 +1.27315E-01 +5.07600E-02 +1.71767E-01
 -1.63786E-02 +1.80578E-01 -7.68785E-02 +1.53197E-01 -1.12873E-01 +1.01857E-01 -1.17720E-01 +4.52281E-02
 -9.66762E-02 +6.50651E-04 -6.31124E-02 -2.22019E-02 -3.19846E-02 -2.40499E-02 -1.31661E-02 -1.43007E-02
 -7.22792E-03 -5.67985E-03 -5.38331E-03 -7.30893E-03 +6.17742E-03 -1.89781E-02 +3.89503E-02 -2.90765E-02
 +9.44002E-02 -1.74962E-02 +1.58907E-01 +3.68622E-02 +2.03843E-01 +1.46062E-01 +1.91799E-01 +3.03858E-01
 +8.79880E-02 +4.80692E-01 -1.25989E-01 +6.25613E-01 -4.40116E-01 +6.75978E-01 -8.09861E-01 +5.73441E-01
 -1.15907E+00 +2.82622E-01 -1.39279E+00 -1.92564E-01 -1.41806E+00 -8.00025E-01 -1.16851E+00 -1.44181E+00
 -6.26506E-01 -1.98887E+00 +1.63172E-01 -2.30626E+00 +1.09296E+00 -2.28382E+00 +2.00728E+00 -1.86540E+00
 +2.73067E+00 -1.06905E+00 +3.10399E+00 +7.60138E-03 +3.02080E+00 +1.19971E+00 +2.45527E+00 +2.30414E+00
 +1.47434E+00 +3.11947E+00 +2.30016E-01 +3.48868E+00 -1.06786E+00 +3.33480E+00 -2.19325E+00 +2.68068E+00
 -2.95125E+00 +1.64744E+00 -3.22034E+00 +4.30903E-01 -2.97950E+00 -7.39675E-01 -2.31330E+00 -1.65160E+00
 -1.39281E+00 -2.15611E+00 -4.36017E-01 -2.20184E+00 +3.43561E-01 -1.84593E+00 +7.88145E-01 -1.23939E+00
 +8.34489E-01 -5.89327E-01 +5.30294E-01 -1.06469E-01 +2.34131E-02 +4.97819E-02 -4.74595E-01 -1.84715E-01
 -7.42676E-01 -7.57197E-01 -6.09644E-01 -1.50508E+00 -4.30045E-03 -2.19142E+00 +1.01660E+00 -2.56154E+00
 +2.27060E+00 -2.40806E+00 +3.48328E+00 -1.62888E+00 +4.34703E+00 -2.63733E-01 +4.59229E+00 +1.50086E+00
 +4.05499E+00 +3.36121E+00 +2.72397E+00 +4.95560E+00 +7.56250E-01 +5.94075E+00 -1.54501E+00 +6.06872E+00
 -3.78664E+00 +5.24666E+00 -5.56434E+00 +3.56486E+00 -6.54725E+00 +1.28578E+00 -6.54939E+00 -1.20523E+00
 -5.57148E+00 -3.47715E+00 -3.80297E+00 -5.14222E+00 -1.58298E+00 -5.93658E+00 +6.71756E-01 -5.77452E+00
 +2.55615E+00 -4.76373E+00 +3.76328E+00 -3.17764E+00 +4.14832E+00 -1.39089E+00 +3.75532E+00 +2.07564E-01
 +2.80027E+00 +1.30372E+00 +1.61434E+00 +1.72953E+00 +5.60334E-01 +1.49876E+00 -5.80705E-02 +7.99177E-01
 -7.28256E-02 -5.76791E-02 +5.04832E-01 -7.17423E-01 +1.48450E+00 -8.75595E-01 +2.54135E+00 -3.60059E-01
 +3.29573E+00 +8.17105E-01 +3.40933E+00 +2.45155E+00 +2.67524E+00 +4.18572E+00 +1.08020E+00 +5.58719E+00
 -1.17686E+00 +6.24897E+00 -3.71575E+00 +5.88886E+00 -6.05013E+00 +4.42449E+00 -7.69063E+00 +2.00578E+00
 -8.25335E+00 -1.00407E+00 -7.54888E+00 -4.09631E+00 -5.63127E+00 -6.71902E+00 -2.79486E+00 -8.39200E+00
 +4.81426E-01 -8.80853E+00 +3.63069E+00 -7.90115E+00 +6.11458E+00 -5.85640E+00 +7.53405E+00 -3.07474E+00
 +7.70962E+00 -8.43458E-02 +6.71340E+00 +2.57201E+00 +4.84562E+00 +4.45174E+00 +2.56150E+00 +5.30310E+00
 +3.65104E-01 +5.11142E+00 -1.30528E+00 +4.09092E+00 -2.17398E+00 +2.62435E+00 -2.18484E+00 +1.16509E+00
 -1.50526E+00 +1.24633E-01 -4.76892E-01 -2.28053E-01 +4.75303E-01 +1.68515E-01 +9.53781E-01 +1.15429E+00
 +6.92769E-01 +2.38813E+00 -3.68854E-01 +3.43330E+00 -2.06387E+00 +3.86821E+00 -4.02856E+00 +3.39601E+00
 -5.78347E+00 +1.92720E+00 -6.84481E+00 -3.85106E-01 -6.84100E+00 -3.16638E+00 -5.60709E+00 -5.89477E+00
 -3.23480E+00 -8.01194E+00 -6.55527E-02 -9.04601E+00 +3.37290E+00 -8.71868E+00 +6.47288E+00 -7.01209E+00
