 Created: 16-Jan-2021
 $NMID
 ID='D:\BASISSIMULATI'
 FMTDAT='(8E13.5)'
 VOLUME=   1.00000E+00
 TRAMP=   1.00000E+00
 $END
 +3.94988E+01 +1.20215E+00 +2.88892E+01 +2.63161E+01 +4.62812E+00 +3.74680E+01 -1.97282E+01 +2.96255E+01
 -3.14894E+01 +8.73917E+00 -2.62738E+01 -1.25472E+01 -9.81218E+00 -2.30244E+01 +6.67329E+00 -1.94472E+01
 +1.40456E+01 -7.40642E+00 +1.06253E+01 +3.50622E+00 +2.06860E+00 +6.51866E+00 -3.59205E+00 +1.76310E+00
 -1.90357E+00 -4.82636E+00 +5.21599E+00 -6.51057E+00 +1.14540E+01 -8.05622E-01 +1.10262E+01 +8.90783E+00
 +2.86311E+00 +1.60325E+01 -8.76631E+00 +1.54544E+01 -1.72937E+01 +6.89467E+00 -1.81386E+01 -5.20847E+00
 -1.12582E+01 -1.48077E+01 -5.35240E-01 -1.79063E+01 +9.07856E+00 -1.43180E+01 +1.43821E+01 -6.77733E+00
 +1.48914E+01 +1.39092E+00 +1.18342E+01 +8.07735E+00 +6.54192E+00 +1.25548E+01 -2.39578E-01 +1.44648E+01
 -7.73379E+00 +1.30295E+01 -1.41723E+01 +7.48922E+00 -1.68318E+01 -1.55950E+00 -1.35089E+01 -1.12927E+01
 -4.45952E+00 -1.74502E+01 +6.85786E+00 -1.66714E+01 +1.52116E+01 -8.85592E+00 +1.65578E+01 +2.27827E+00
 +1.05957E+01 +1.11318E+01 +1.06072E+00 +1.35523E+01 -6.60465E+00 +9.33973E+00 -8.70372E+00 +2.17600E+00
 -5.51048E+00 -3.01012E+00 -7.37654E-01 -3.42126E+00 +1.34771E+00 -1.54194E-01 -9.07810E-01 +2.86787E+00
 -5.35435E+00 +1.99350E+00 -7.66958E+00 -3.27182E+00 -4.63769E+00 -9.67879E+00 +3.26884E+00 -1.23938E+01
 +1.18591E+01 -8.40948E+00 +1.58130E+01 +1.16602E+00 +1.21453E+01 +1.15330E+01 +2.22118E+00 +1.70657E+01
 -8.98801E+00 +1.47205E+01 -1.58627E+01 +5.78689E+00 -1.53521E+01 -5.04226E+00 -8.45276E+00 -1.25322E+01
 +7.93513E-01 -1.37927E+01 +7.90072E+00 -9.45702E+00 +1.03708E+01 -2.68668E+00 +8.53959E+00 +3.05116E+00
 +4.63010E+00 +5.87567E+00 +9.70098E-01 +5.98033E+00 -1.32667E+00 +4.74850E+00 -2.49013E+00 +3.41616E+00
 -3.26978E+00 +2.30287E+00 -4.00530E+00 +1.00621E+00 -4.33220E+00 -8.34300E-01 -3.62957E+00 -2.95244E+00
 -1.71070E+00 -4.52575E+00 +8.68013E-01 -4.77620E+00 +3.11819E+00 -3.55587E+00 +4.25782E+00 -1.43865E+00
 +4.14500E+00 +7.14860E-01 +3.19141E+00 +2.32157E+00 +1.89638E+00 +3.30515E+00 +4.46590E-01 +3.85016E+00
 -1.26385E+00 +3.96476E+00 -3.23267E+00 +3.29978E+00 -4.96675E+00 +1.44218E+00 -5.53561E+00 -1.53007E+00
 -4.13318E+00 -4.71888E+00 -7.79005E-01 -6.67206E+00 +3.39022E+00 -6.17651E+00 +6.54964E+00 -3.08318E+00
 +7.14772E+00 +1.42045E+00 +4.81438E+00 +5.33958E+00 +6.25460E-01 +6.92224E+00 -3.46465E+00 +5.59560E+00
 -5.67946E+00 +2.22087E+00 -5.32346E+00 -1.46232E+00 -3.01375E+00 -3.82668E+00 -1.67575E-01 -4.16988E+00
 +1.87103E+00 -2.90199E+00 +2.51042E+00 -1.08859E+00 +2.03389E+00 +2.78755E-01 +1.19607E+00 +8.05969E-01
 +6.39438E-01 +7.41615E-01 +5.25636E-01 +6.16271E-01 +5.67383E-01 +7.89065E-01 +3.56170E-01 +1.21268E+00
 -2.88392E-01 +1.52708E+00 -1.18230E+00 +1.35834E+00 -1.90520E+00 +5.90941E-01 -2.06537E+00 -5.54485E-01
 -1.51652E+00 -1.64891E+00 -4.14261E-01 -2.27321E+00 +8.76924E-01 -2.19189E+00 +1.93828E+00 -1.41620E+00
 +2.43079E+00 -1.73329E-01 +2.18008E+00 +1.16869E+00 +1.22345E+00 +2.19180E+00 -1.75632E-01 +2.53728E+00
 -1.56925E+00 +2.03257E+00 -2.45146E+00 +7.96435E-01 -2.45507E+00 -7.48804E-01 -1.53914E+00 -2.00860E+00
 -5.53583E-02 -2.46493E+00 +1.37570E+00 -1.93010E+00 +2.14456E+00 -6.61897E-01 +1.95264E+00 +7.44077E-01
 +9.65659E-01 +1.64658E+00 -2.74953E-01 +1.68426E+00 -1.14303E+00 +9.53841E-01 -1.26206E+00 -6.20002E-02
 -6.94938E-01 -7.77771E-01 +1.17879E-01 -8.37909E-01 +6.34081E-01 -3.08084E-01 +5.37263E-01 +3.84242E-01
 -7.56239E-02 +7.23489E-01 -7.58288E-01 +4.31727E-01 -9.94741E-01 -3.48206E-01 -5.29976E-01 -1.12596E+00
 +4.47977E-01 -1.35697E+00 +1.39212E+00 -7.85913E-01 +1.70857E+00 +3.67293E-01 +1.11865E+00 +1.50091E+00
 -1.46063E-01 +1.96348E+00 -1.44323E+00 +1.43713E+00 -2.06936E+00 +1.44538E-01 -1.66271E+00 -1.25248E+00
 -4.22457E-01 -2.01515E+00 +9.91762E-01 -1.74540E+00 +1.82889E+00 -6.14186E-01 +1.67189E+00 +7.37213E-01
 +6.69827E-01 +1.56839E+00 -5.60994E-01 +1.46591E+00 -1.30777E+00 +5.72306E-01 -1.18222E+00 -5.16656E-01
 -3.40420E-01 -1.12221E+00 +6.28223E-01 -8.95768E-01 +1.07286E+00 -2.59595E-02 +6.87392E-01 +8.84007E-01
 -2.94860E-01 +1.19336E+00 -1.23622E+00 +6.27459E-01 -1.48024E+00 -5.35185E-01 -7.59677E-01 -1.60743E+00
 +6.15361E-01 -1.88938E+00 +1.90437E+00 -1.08799E+00 +2.34098E+00 +4.82326E-01 +1.57013E+00 +2.03804E+00
 -1.26659E-01 +2.73396E+00 -1.94704E+00 +2.12104E+00 -2.96883E+00 +4.07630E-01 -2.62809E+00 -1.61888E+00
 -1.02522E+00 -2.97509E+00 +1.10278E+00 -2.97698E+00 +2.73670E+00 -1.59619E+00 +3.08379E+00 +5.08037E-01
 +1.98607E+00 +2.30766E+00 +1.51098E-02 +2.92515E+00 -1.81049E+00 +2.09343E+00 -2.55677E+00 +3.10422E-01
 -1.88513E+00 -1.41437E+00 -2.59150E-01 -2.11204E+00 +1.29493E+00 -1.41789E+00 +1.77694E+00 +1.79385E-01
 +8.36795E-01 +1.58438E+00 -9.42969E-01 +1.74432E+00 -2.32530E+00 +3.47116E-01 -2.15753E+00 -1.86789E+00
 -1.62881E-01 -3.44270E+00 +2.72076E+00 -3.05887E+00 +4.74620E+00 -4.44017E-01 +4.35923E+00 +3.25644E+00
 +1.23919E+00 +5.96678E+00 -3.28856E+00 +5.84186E+00 -6.82240E+00 +2.45282E+00 -7.20458E+00 -2.75314E+00
 -3.85030E+00 -7.09702E+00 +1.74459E+00 -8.13342E+00 +6.71076E+00 -5.10557E+00 +8.39001E+00 +5.09072E-01
 +5.88279E+00 +5.75892E+00 +6.08515E-01 +7.88841E+00 -4.50388E+00 +5.93219E+00 -6.73690E+00 +1.25427E+00
 -5.17321E+00 -3.31647E+00 -1.16925E+00 -5.22815E+00 +2.57829E+00 -3.73860E+00 +3.77447E+00 -2.78556E-01
 +1.96188E+00 +2.56930E+00 -1.26291E+00 +2.80107E+00 -3.37266E+00 +3.05253E-01 -2.62435E+00 -3.08632E+00
 +7.57134E-01 -4.82694E+00 +4.68868E+00 -3.34978E+00 +6.54501E+00 +8.70865E-01 +4.82143E+00 +5.55960E+00
 +8.91852E-02 +8.00089E+00 -5.32281E+00 +6.64310E+00 -8.66581E+00 +1.96538E+00 -8.27142E+00 -3.85272E+00
 -4.34038E+00 -8.15860E+00 +1.33031E+00 -9.16038E+00 +6.36814E+00 -6.63656E+00 +8.91990E+00 -1.78291E+00
 +8.26949E+00 +3.51042E+00 +4.85204E+00 +7.44378E+00 -9.81678E-02 +8.81550E+00 -4.96763E+00 +7.23272E+00
 -8.14616E+00 +3.17504E+00 -8.44921E+00 -2.03448E+00 -5.60994E+00 -6.48835E+00 -6.29526E-01 -8.33655E+00
 +4.38703E+00 -6.69036E+00 +7.10395E+00 -2.30044E+00 +6.23329E+00 +2.57424E+00 +2.45501E+00 +5.29578E+00
 -1.77507E+00 +4.45530E+00 -3.65486E+00 +9.27155E-01 -1.93137E+00 -2.50118E+00 +2.02416E+00 -2.92032E+00
 +4.88945E+00 +5.48578E-01 +3.61340E+00 +5.76014E+00 -2.19126E+00 +8.63416E+00 -9.41462E+00 +5.87111E+00
 -1.30376E+01 -2.42375E+00 -9.37777E+00 -1.21171E+01 +1.06685E+00 -1.71719E+01 +1.32276E+01 -1.34197E+01
 +2.01137E+01 -1.59362E+00 +1.70547E+01 +1.25186E+01 +4.86318E+00 +2.11896E+01 -1.02498E+01 +1.93557E+01
 -2.01646E+01 +7.81357E+00 -1.96637E+01 -7.11094E+00 -9.53292E+00 -1.73193E+01 +4.04134E+00 -1.77808E+01
 +1.33893E+01 -9.38491E+00 +1.40468E+01 +1.97270E+00 +7.20485E+00 +9.37739E+00 -1.56278E+00 +9.27282E+00
 -6.28640E+00 +3.37487E+00 -4.54386E+00 -2.99486E+00 +1.24805E+00 -4.84342E+00 +5.90156E+00 -9.40725E-01
 +5.29226E+00 +5.53777E+00 -7.46013E-01 +9.43980E+00 -8.38665E+00 +7.31409E+00 -1.25017E+01 -2.30685E-01
 -1.01029E+01 -8.99921E+00 -2.18520E+00 -1.40083E+01 +7.11121E+00 -1.25797E+01 +1.32072E+01 -5.68960E+00
 +1.36901E+01 +3.07170E+00 +9.17843E+00 +9.89281E+00 +2.23805E+00 +1.27051E+01 -4.48541E+00 +1.15591E+01
 -9.44235E+00 +7.63078E+00 -1.20575E+01 +2.05646E+00 -1.19259E+01 -4.34326E+00 -8.47065E+00 -1.04424E+01
 -1.61876E+00 -1.42644E+01 +7.10561E+00 -1.35127E+01 +1.43406E+01 -7.17785E+00 +1.62780E+01 +2.96944E+00
 +1.11017E+01 +1.24846E+01 +7.53923E-01 +1.64374E+01 -9.57110E+00 +1.25169E+01 -1.43208E+01 +2.88991E+00
 -1.11445E+01 -6.77813E+00 -2.62690E+00 -1.08254E+01 +5.25784E+00 -7.38217E+00 +7.16982E+00 +2.49326E-01
 +2.20686E+00 +5.81036E+00 -5.27759E+00 +4.56089E+00 -8.64896E+00 -3.07711E+00 -3.86290E+00 -1.14232E+01
 +7.17774E+00 -1.33226E+01 +1.73349E+01 -5.35865E+00 +1.88186E+01 +9.15268E+00 +8.66854E+00 +2.16895E+01
 -8.65292E+00 +2.38209E+01 -2.35323E+01 +1.28512E+01 -2.70543E+01 -6.00682E+00 -1.66594E+01 -2.25225E+01
 +2.12115E+00 -2.76250E+01 +1.90169E+01 -1.88835E+01 +2.52629E+01 -1.77456E+00 +1.86883E+01 +1.39679E+01
 +4.47127E+00 +2.04006E+01 -8.66504E+00 +1.58528E+01 -1.40675E+01 +5.11802E+00 -1.08456E+01 -4.38714E+00
 -3.46174E+00 -7.62468E+00 +2.06119E+00 -4.71579E+00 +2.41377E+00 +7.60806E-02 -1.17367E+00 +2.01902E+00
 -4.50761E+00 -5.87513E-01 -3.91793E+00 -5.49757E+00 +1.01010E+00 -8.54257E+00 +7.31136E+00 -6.84616E+00
 +1.09364E+01 -8.26797E-01 +9.58366E+00 +6.29257E+00 +4.02136E+00 +1.08275E+01 -2.81615E+00 +1.09460E+01
 -7.97282E+00 +7.34971E+00 -1.01168E+01 +2.15538E+00 -9.60870E+00 -2.81603E+00 -7.33541E+00 -6.87752E+00
 -3.62605E+00 -9.94680E+00 +1.67391E+00 -1.14573E+01 +8.09327E+00 -1.00287E+01 +1.36050E+01 -4.49883E+00
 +1.51021E+01 +4.42514E+00 +1.03575E+01 +1.34426E+01 +1.43643E-01 +1.79191E+01 -1.12819E+01 +1.46681E+01
 -1.81406E+01 +4.41793E+00 -1.65660E+01 -7.97446E+00 -7.25028E+00 -1.60815E+01 +4.66097E+00 -1.57748E+01
 +1.26018E+01 -7.85271E+00 +1.26659E+01 +2.44869E+00 +6.00744E+00 +8.85779E+00 -2.10614E+00 +8.14747E+00
 -5.98258E+00 +2.12208E+00 -3.41599E+00 -3.85679E+00 +2.88188E+00 -4.78457E+00 +7.32449E+00 +3.59551E-01
 +5.54248E+00 +7.81400E+00 -2.33615E+00 +1.16418E+01 -1.15249E+01 +7.94946E+00 -1.56878E+01 -2.19912E+00
 -1.12166E+01 -1.31982E+01 +2.18030E-01 -1.83900E+01 +1.25471E+01 -1.43036E+01 +1.90062E+01 -2.85419E+00
 +1.62109E+01 +9.86678E+00 +6.00683E+00 +1.73133E+01 -5.93298E+00 +1.62530E+01 -1.36541E+01 +8.25714E+00
 -1.42398E+01 -1.77808E+00 -8.91745E+00 -8.83429E+00 -1.59030E+00 -1.05202E+01 +3.90095E+00 -7.77249E+00
 +5.88002E+00 -3.45175E+00 +5.12261E+00 -1.32981E-01 +3.54727E+00 +1.32694E+00 +2.54463E+00 +1.68596E+00
 +2.17642E+00 +2.12212E+00 +1.60872E+00 +3.06963E+00 +1.68500E-01 +3.95867E+00 -1.94203E+00 +3.87890E+00
 -3.79941E+00 +2.45985E+00 -4.52315E+00 +1.99354E-01 -3.92504E+00 -1.96368E+00 -2.50676E+00 -3.37169E+00
 -8.92801E-01 -4.00027E+00 +7.15427E-01 -4.16359E+00 +2.52801E+00 -3.91568E+00 +4.60203E+00 -2.78836E+00
 +6.28506E+00 -2.16540E-01 +6.30242E+00 +3.64081E+00 +3.61664E+00 +7.42523E+00 -1.51078E+00 +9.03336E+00
