 Created: 16-Jan-2021
 $NMID
 ID='D:\BASISSIMULATI'
 FMTDAT='(8E13.5)'
 VOLUME=   1.00000E+00
 TRAMP=   1.00000E+00
 $END
 +5.78642E+01 +6.38258E-01 +5.45674E+01 +1.67740E+01 +4.55767E+01 +3.06846E+01 +3.21185E+01 +4.05499E+01
 +1.60022E+01 +4.51450E+01 -6.54651E-01 +4.40079E+01 -1.57410E+01 +3.74858E+01 -2.74560E+01 +2.66577E+01
 -3.45548E+01 +1.31479E+01 -3.64994E+01 -1.13605E+00 -3.34948E+01 -1.42958E+01 -2.64092E+01 -2.47180E+01
 -1.65995E+01 -3.12909E+01 -5.67194E+00 -3.35293E+01 +4.77734E+00 -3.15956E+01 +1.34003E+01 -2.62189E+01
 +1.92768E+01 -1.85326E+01 +2.20107E+01 -9.86317E+00 +2.17347E+01 -1.50795E+00 +1.90299E+01 +5.46174E+00
 +1.47797E+01 +1.03413E+01 +9.99046E+00 +1.28596E+01 +5.60874E+00 +1.31679E+01 +2.36856E+00 +1.17600E+01
 +6.89858E-01 +9.34249E+00 +6.41047E-01 +6.68470E+00 +1.96585E+00 +4.47235E+00 +4.16352E+00 +3.19211E+00
 +6.60374E+00 +3.06238E+00 +8.65337E+00 +4.01807E+00 +9.79253E+00 +5.74672E+00 +9.70128E+00 +7.76496E+00
 +8.30542E+00 +9.51877E+00 +5.77734E+00 +1.04886E+01 +2.49604E+00 +1.02819E+01 -1.02371E+00 +8.69862E+00
 -4.21904E+00 +5.76268E+00 -6.56885E+00 +1.71660E+00 -7.67198E+00 -3.01627E+00 -7.30370E+00 -7.89392E+00
 -5.44446E+00 -1.23315E+01 -2.27941E+00 -1.57793E+01 +1.82868E+00 -1.77936E+01 +6.38772E+00 -1.80910E+01
 +1.08386E+01 -1.65818E+01 +1.46233E+01 -1.33810E+01 +1.72518E+01 -8.79480E+00 +1.83598E+01 -3.28733E+00
 +1.77530E+01 +2.57032E+00 +1.54327E+01 +8.16229E+00 +1.15999E+01 +1.28960E+01 +6.63812E+00 +1.62690E+01
 +1.07417E+00 +1.79278E+01 -4.47863E+00 +1.77115E+01 -9.39014E+00 +1.56752E+01 -1.30885E+01 +1.20878E+01
 -1.51320E+01 +7.40462E+00 -1.52677E+01 +2.21409E+00 -1.34694E+01 -2.83385E+00 -9.94691E+00 -7.11093E+00
 -5.12464E+00 -1.00936E+01 +4.09667E-01 -1.14345E+01 +5.98068E+00 -1.10115E+01 +1.09154E+01 -8.94581E+00
 +1.46348E+01 -5.58553E+00 +1.67333E+01 -1.45534E+00 +1.70343E+01 +2.82038E+00 +1.56112E+01 +6.61025E+00
 +1.27725E+01 +9.36999E+00 +9.00978E+00 +1.07233E+01 +4.91915E+00 +1.05162E+01 +1.10707E+00 +8.83633E+00
 -1.90373E+00 +5.99379E+00 -3.75291E+00 +2.46632E+00 -4.29312E+00 -1.18122E+00 -3.60430E+00 -4.39024E+00
 -1.96991E+00 -6.69863E+00 +1.80409E-01 -7.81292E+00 +2.35139E+00 -7.65038E+00 +4.07169E+00 -6.34451E+00
 +4.97692E+00 -4.21365E+00 +4.87185E+00 -1.69889E+00 +3.76149E+00 +7.17388E-01 +1.84614E+00 +2.59794E+00
 -5.18072E-01 +3.62675E+00 -2.88550E+00 +3.66203E+00 -4.80223E+00 +2.75717E+00 -5.88782E+00 +1.14681E+00
 -5.90324E+00 -7.98849E-01 -4.79358E+00 -2.64301E+00 -2.69853E+00 -3.96202E+00 +7.06281E-02 -4.42209E+00
 +3.08307E+00 -3.83965E+00 +5.86024E+00 -2.21561E+00 +7.95500E+00 +2.62066E-01 +9.02495E+00 +3.24728E+00
 +8.88790E+00 +6.29087E+00 +7.55081E+00 +8.91240E+00 +5.20821E+00 +1.06767E+01 +2.21089E+00 +1.12629E+01
 -9.89300E-01 +1.05148E+01 -3.90945E+00 +8.46598E+00 -6.10905E+00 +5.33520E+00 -7.25559E+00 +1.49452E+00
 -7.17271E+00 -2.58469E+00 -5.86407E+00 -6.39929E+00 -3.51029E+00 -9.48490E+00 -4.40263E-01 -1.14792E+01
 +2.91810E+00 -1.21692E+01 +6.09997E+00 -1.15159E+01 +8.66911E+00 -9.65486E+00 +1.02776E+01 -6.87155E+00
 +1.07116E+01 -3.55814E+00 +9.91687E+00 -1.56657E-01 +8.00216E+00 +2.90222E+00 +5.21970E+00 +5.25645E+00
 +1.92707E+00 +6.65823E+00 -1.46423E+00 +7.00212E+00 -4.54564E+00 +6.33250E+00 -6.96618E+00 +4.82989E+00
 -8.47724E+00 +2.77897E+00 -8.96175E+00 +5.23129E-01 -8.44400E+00 -1.58757E+00 -7.07938E+00 -3.24750E+00
 -5.12589E+00 -4.23833E+00 -2.90212E+00 -4.45771E+00 -7.37873E-01 -3.92978E+00 +1.07499E+00 -2.79638E+00
 +2.32432E+00 -1.29062E+00 +2.90591E+00 +3.03052E-01 +2.83401E+00 +1.69582E+00 +2.23304E+00 +2.64134E+00
 +1.31171E+00 +2.97499E+00 +3.24218E-01 +2.63946E+00 -4.75418E-01 +1.69269E+00 -8.78278E-01 +2.96863E-01
 -7.57426E-01 -1.30962E+00 -9.06829E-02 -2.85263E+00 +1.03448E+00 -4.06872E+00 +2.43478E+00 -4.74964E+00
 +3.86153E+00 -4.77790E+00 +5.04253E+00 -4.14714E+00 +5.72862E+00 -2.96421E+00 +5.73714E+00 -1.43230E+00
 +4.98507E+00 +1.81973E-01 +3.50620E+00 +1.59229E+00 +1.44955E+00 +2.53989E+00 -9.41082E-01 +2.83663E+00
 -3.36291E+00 +2.39689E+00 -5.49989E+00 +1.25291E+00 -7.07076E+00 -4.48683E-01 -7.87199E+00 -2.46875E+00
 -7.80863E+00 -4.51232E+00 -6.90845E+00 -6.27411E+00 -5.31714E+00 -7.48574E+00 -3.27563E+00 -7.95715E+00
 -1.08317E+00 -7.60581E+00 +9.47972E-01 -6.46944E+00 +2.53901E+00 -4.70029E+00 +3.48542E+00 -2.54236E+00
 +3.68585E+00 -2.94904E-01 +3.15498E+00 +1.73174E+00 +2.01893E+00 +3.26154E+00 +4.93948E-01 +4.09256E+00
 -1.14787E+00 +4.12533E+00 -2.62075E+00 +3.37601E+00 -3.66884E+00 +1.97245E+00 -4.10496E+00 +1.34226E-01
 -3.83884E+00 -1.86053E+00 -2.89092E+00 -3.71634E+00 -1.38984E+00 -5.16387E+00 +4.46125E-01 -5.99937E+00
 +2.34072E+00 -6.11447E+00 +4.00028E+00 -5.51212E+00 +5.15728E+00 -4.30628E+00 +5.61064E+00 -2.70534E+00
 +5.25702E+00 -9.81501E-01 +4.10840E+00 +5.69729E-01 +2.29309E+00 +1.67411E+00 +3.96602E-02 +2.12094E+00
 -2.35426E+00 +1.79670E+00 -4.56418E+00 +7.04796E-01 -6.28599E+00 -1.03184E+00 -7.28124E+00 -3.18633E+00
 -7.41365E+00 -5.45974E+00 -6.67105E+00 -7.52495E+00 -5.16877E+00 -9.07608E+00 -3.13360E+00 -9.87596E+00
 -8.70121E-01 -9.79411E+00 +1.28571E+00 -8.82888E+00 +3.01862E+00 -7.10982E+00 +4.08359E+00 -4.87921E+00
 +4.34465E+00 -2.45532E+00 +3.79646E+00 -1.82850E-01 +2.56459E+00 +1.62150E+00 +8.84191E-01 +2.71936E+00
 -9.39916E-01 +2.98848E+00 -2.58501E+00 +2.44139E+00 -3.76561E+00 +1.22139E+00 -4.28238E+00 -4.23599E-01
 -4.05620E+00 -2.18509E+00 -3.14140E+00 -3.74842E+00 -1.71545E+00 -4.84809E+00 -4.67919E-02 -5.31403E+00
 +1.55352E+00 -5.10081E+00 +2.78793E+00 -4.29418E+00 +3.42612E+00 -3.09386E+00 +3.34657E+00 -1.77565E+00
 +2.55853E+00 -6.39605E-01 +1.20015E+00 +4.60581E-02 -4.86672E-01 +9.52248E-02 -2.20026E+00 -5.61084E-01
 -3.63373E+00 -1.86124E+00 -4.53016E+00 -3.62353E+00 -4.72812E+00 -5.57863E+00 -4.18941E+00 -7.41777E+00
 -3.00402E+00 -8.84772E+00 -1.37178E+00 -9.64220E+00 +4.35547E-01 -9.68032E+00 +2.12420E+00 -8.96528E+00
 +3.43090E+00 -7.62013E+00 +4.16802E+00 -5.86216E+00 +4.25314E+00 -3.96124E+00 +3.71800E+00 -2.19042E+00
 +2.69601E+00 -7.78487E-01 +1.39137E+00 +1.26751E-01 +3.67129E-02 +4.77796E-01 -1.15211E+00 +3.26594E-01
 -2.01510E+00 -1.95371E-01 -2.47362E+00 -9.11097E-01 -2.53786E+00 -1.63863E+00 -2.29586E+00 -2.22963E+00
 -1.88700E+00 -2.59806E+00 -1.46646E+00 -2.73355E+00 -1.16838E+00 -2.69743E+00 -1.07571E+00 -2.60282E+00
 -1.20272E+00 -2.58402E+00 -1.49370E+00 -2.76185E+00 -1.83743E+00 -3.21290E+00 -2.09387E+00 -3.94912E+00
 -2.12699E+00 -4.91185E+00 -1.83641E+00 -5.98151E+00 -1.18129E+00 -7.00028E+00 -1.91305E-01 -7.80283E+00
 +1.03702E+00 -8.24842E+00 +2.35763E+00 -8.24762E+00 +3.60172E+00 -7.77825E+00 +4.60807E+00 -6.88782E+00
 +5.25056E+00 -5.68259E+00 +5.45722E+00 -4.30620E+00 +5.21758E+00 -2.91321E+00 +4.57755E+00 -1.64335E+00
 +3.62411E+00 -6.02000E-01 +2.46422E+00 +1.49448E-01 +1.20339E+00 +5.92233E-01 -7.08481E-02 +7.39550E-01
 -1.29687E+00 +6.20435E-01 -2.43707E+00 +2.63374E-01 -3.46756E+00 -3.15328E-01 -4.36330E+00 -1.11472E+00
 -5.08373E+00 -2.14268E+00 -5.56434E+00 -3.40112E+00 -5.71790E+00 -4.86700E+00 -5.44700E+00 -6.47486E+00
 -4.66630E+00 -8.10667E+00 -3.33013E+00 -9.59380E+00 -1.45904E+00 -1.07333E+01 +8.41801E-01 -1.13173E+01
 +3.37844E+00 -1.11712E+01 +5.88186E+00 -1.01934E+01 +8.03956E+00 -8.38775E+00 +9.54109E+00 -5.88212E+00
 +1.01303E+01 -2.92530E+00 +9.65461E+00 +1.37989E-01 +8.10161E+00 +2.91259E+00 +5.61474E+00 +5.01197E+00
 +2.48314E+00 +6.12110E+00 -8.94235E-01 +6.05185E+00 -4.06566E+00 +4.78034E+00 -6.59564E+00 +2.45844E+00
 -8.13434E+00 -6.03885E-01 -8.47492E+00 -3.98348E+00 -7.58850E+00 -7.20908E+00 -5.62982E+00 -9.83571E+00
 -2.91223E+00 -1.15155E+01 +1.44032E-01 -1.20522E+01 +3.08138E+00 -1.14304E+01 +5.47997E+00 -9.81380E+00
 +7.02514E+00 -7.51244E+00 +7.55540E+00 -4.92679E+00 +7.08268E+00 -2.47697E+00 +5.78203E+00 -5.31152E-01
 +3.95304E+00 +6.54401E-01 +1.96089E+00 +9.73302E-01 +1.68276E-01 +4.78673E-01 -1.12923E+00 -6.36256E-01
 -1.75255E+00 -2.08206E+00 -1.66481E+00 -3.53251E+00 -9.69423E-01 -4.68794E+00 +1.17918E-01 -5.33059E+00
 +1.31717E+00 -5.36183E+00 +2.34189E+00 -4.81521E+00 +2.95599E+00 -3.84352E+00 +3.01847E+00 -2.68367E+00
 +2.50830E+00 -1.60661E+00 +1.52525E+00 -8.62555E-01 +2.67661E-01 -6.32000E-01 -1.00801E+00 -9.91576E-01
 -2.03743E+00 -1.90066E+00 -2.59868E+00 -3.21043E+00 -2.55329E+00 -4.69289E+00 -1.87066E+00 -6.08365E+00
 -6.32238E-01 -7.13003E+00 +9.84563E-01 -7.63558E+00 +2.73875E+00 -7.49302E+00 +4.36788E+00 -6.70051E+00
 +5.63198E+00 -5.35900E+00 +6.35142E+00 -3.65248E+00 +6.43264E+00 -1.81555E+00 +5.87811E+00 -9.47872E-02
 +4.78023E+00 +1.28915E+00 +3.30143E+00 +2.17227E+00 +1.64515E+00 +2.46654E+00 +2.34497E-02 +2.16574E+00
 -1.37318E+00 +1.33841E+00 -2.39916E+00 +1.10728E-01 -2.96752E+00 -1.35663E+00 -3.05339E+00 -2.89303E+00
 -2.68825E+00 -4.33982E+00 -1.94772E+00 -5.56675E+00 -9.35972E-01 -6.48155E+00 +2.30155E-01 -7.03272E+00
 +1.43476E+00 -7.20701E+00 +2.57306E+00 -7.02340E+00 +3.55775E+00 -6.52567E+00 +4.32218E+00 -5.77510E+00
 +4.82148E+00 -4.84420E+00 +5.03256E+00 -3.81156E+00 +4.95384E+00 -2.75734E+00 +4.60484E+00 -1.75885E+00
 +4.02515E+00 -8.85596E-01 +3.27217E+00 -1.93896E-01 +2.41691E+00 +2.78541E-01 +1.53748E+00 +5.16941E-01
 +7.10688E-01 +5.31519E-01 +2.63133E-03 +3.56166E-01 -5.39961E-01 +4.32746E-02 -8.95932E-01 -3.44974E-01
 -1.07175E+00 -7.47608E-01 -1.09849E+00 -1.11616E+00 -1.02388E+00 -1.42384E+00 -9.00547E-01 -1.67047E+00
 -7.72742E-01 -1.88151E+00 -6.64436E-01 -2.10097E+00 -5.71494E-01 -2.37916E+00 -4.60238E-01 -2.75742E+00
 -2.73350E-01 -3.25325E+00 +5.74021E-02 -3.84909E+00 +5.93727E-01 -4.48774E+00 +1.37200E+00 -5.07643E+00
 +2.38709E+00 -5.49947E+00 +3.58263E+00 -5.63803E+00 +4.85052E+00 -5.39361E+00 +6.04104E+00 -4.71102E+00
 +6.98253E+00 -3.59600E+00 +7.50789E+00 -2.12373E+00 +7.48369E+00 -4.35566E-01 +6.83639E+00 +1.27632E+00
 +5.57094E+00 +2.79459E+00 +3.77770E+00 +3.90884E+00 +1.62577E+00 +4.44887E+00 -6.56898E-01 +4.31337E+00
 -2.81384E+00 +3.48896E+00 -4.59613E+00 +2.05592E+00 -5.79831E+00 +1.79272E-01 -6.28832E+00 -1.91354E+00
