 Created: 16-Jan-2021
 $NMID
 ID='D:\BASISSIMULATI'
 FMTDAT='(8E13.5)'
 VOLUME=   1.00000E+00
 TRAMP=   1.00000E+00
 $END
 +5.31612E+01 +8.23201E-01 +3.88979E+01 +8.14873E+00 +5.84177E+00 +1.30287E+01 -2.65463E+01 +1.38440E+01
 -4.01486E+01 +9.87093E+00 -2.91238E+01 +2.44674E+00 -2.60334E+00 -4.65901E+00 +2.20699E+01 -6.83403E+00
 +3.05542E+01 -1.73718E+00 +1.96862E+01 +8.24161E+00 -2.17429E+00 +1.65247E+01 -2.18220E+01 +1.62979E+01
 -2.96642E+01 +5.50610E+00 -2.43538E+01 -1.08136E+01 -1.14541E+01 -2.31043E+01 +1.65059E+00 -2.35193E+01
 +1.03363E+01 -1.15896E+01 +1.39169E+01 +4.92235E+00 +1.37407E+01 +1.50110E+01 +1.08273E+01 +1.20093E+01
 +5.36689E+00 -1.60859E+00 -1.86272E+00 -1.58010E+01 -8.16197E+00 -1.99699E+01 -9.64083E+00 -1.04670E+01
 -3.99093E+00 +6.81105E+00 +6.90266E+00 +2.06276E+01 +1.70469E+01 +2.23583E+01 +1.97143E+01 +1.19245E+01
 +1.19909E+01 -2.52604E+00 -2.83770E+00 -1.07914E+01 -1.70195E+01 -7.97814E+00 -2.31574E+01 +2.34506E+00
 -1.87801E+01 +1.13234E+01 -7.51180E+00 +1.16918E+01 +3.77884E+00 +3.08142E+00 +9.56923E+00 -8.11892E+00
 +8.68105E+00 -1.39648E+01 +3.86304E+00 -1.10393E+01 -1.11862E+00 -2.74821E+00 -4.21305E+00 +3.74868E+00
 -5.54476E+00 +3.35988E+00 -5.75657E+00 -2.99737E+00 -4.30775E+00 -9.34909E+00 +2.89465E-01 -9.61050E+00
 +8.30820E+00 -2.53110E+00 +1.68464E+01 +7.25640E+00 +2.04484E+01 +1.28440E+01 +1.46566E+01 +1.04193E+01
 +1.00101E-01 +2.18657E+00 -1.63498E+01 -5.38703E+00 -2.50553E+01 -6.55889E+00 -1.99163E+01 -6.33495E-01
 -3.14428E+00 +7.65972E+00 +1.52745E+01 +1.18866E+01 +2.36337E+01 +8.74809E+00 +1.62246E+01 +3.39200E-01
 -2.62627E+00 -7.72204E+00 -2.11771E+01 -1.06169E+01 -2.79038E+01 -7.66226E+00 -1.89472E+01 -2.23134E+00
 -3.06130E-01 +1.34582E+00 +1.65533E+01 +1.18416E+00 +2.23961E+01 -1.16663E+00 +1.58119E+01 -2.67411E+00
 +3.08696E+00 -1.77314E+00 -6.99769E+00 +3.36502E-01 -9.28705E+00 +1.11385E+00 -4.90371E+00 -5.71899E-01
 +9.69191E-01 -2.97063E+00 +3.81949E+00 -2.77486E+00 +3.07790E+00 +1.74355E+00 +1.55433E+00 +8.52482E+00
 +2.00490E+00 +1.26317E+01 +4.11091E+00 +9.94092E+00 +4.61545E+00 +8.09605E-01 +5.20388E-01 -9.39672E+00
 -7.49064E+00 -1.37498E+01 -1.45745E+01 -8.85093E+00 -1.49922E+01 +2.28537E+00 -6.74169E+00 +1.19702E+01
 +6.16812E+00 +1.31807E+01 +1.58966E+01 +4.66454E+00 +1.60845E+01 -8.00457E+00 +6.45362E+00 -1.63001E+01
 -6.77348E+00 -1.47550E+01 -1.50532E+01 -4.72149E+00 -1.33109E+01 +6.82524E+00 -3.18924E+00 +1.24373E+01
 +8.45766E+00 +9.40456E+00 +1.45120E+01 +1.22248E+00 +1.22587E+01 -5.53840E+00 +4.51344E+00 -6.33435E+00
 -3.19552E+00 -1.75332E+00 -6.85538E+00 +3.58867E+00 -6.30057E+00 +5.18360E+00 -4.17972E+00 +2.30894E+00
 -2.92000E+00 -1.70139E+00 -2.53826E+00 -2.65420E+00 -1.15895E+00 +6.34636E-01 +2.42934E+00 +5.11802E+00
 +6.71979E+00 +6.04039E+00 +8.08445E+00 +1.16068E+00 +3.82368E+00 -6.86827E+00 -4.84881E+00 -1.21117E+01
 -1.26691E+01 -9.89325E+00 -1.36711E+01 -7.39406E-01 -5.75237E+00 +9.49648E+00 +7.09547E+00 +1.36638E+01
 +1.69332E+01 +8.57496E+00 +1.71722E+01 -2.48426E+00 +7.27939E+00 -1.19669E+01 -6.61589E+00 -1.34191E+01
 -1.57929E+01 -6.02392E+00 -1.48297E+01 +4.98627E+00 -5.10959E+00 +1.22454E+01 +6.48529E+00 +1.14829E+01
 +1.25774E+01 +4.20288E+00 +1.02485E+01 -3.96967E+00 +2.43597E+00 -7.72774E+00 -4.91544E+00 -5.78108E+00
 -7.45403E+00 -1.11598E+00 -5.18522E+00 +2.02530E+00 -1.52904E+00 +1.73414E+00 +1.47799E-01 -3.61823E-01
 -5.70595E-01 -1.08471E+00 -1.22087E+00 +1.03219E+00 +7.43556E-01 +4.15190E+00 +5.03586E+00 +4.67563E+00
 +8.21844E+00 +6.48599E-01 +6.47837E+00 -5.94106E+00 -7.35566E-01 -1.01515E+01 -9.38332E+00 -7.85464E+00
 -1.32738E+01 +6.39955E-01 -8.68522E+00 +1.01475E+01 +2.36989E+00 +1.40207E+01 +1.29713E+01 +9.02604E+00
 +1.59067E+01 -2.00802E+00 +8.81923E+00 -1.19138E+01 -3.93096E+00 -1.41510E+01 -1.41566E+01 -7.40444E+00
 -1.54524E+01 +3.56705E+00 -7.48202E+00 +1.14165E+01 +4.08545E+00 +1.13972E+01 +1.17788E+01 +4.43140E+00
 +1.14661E+01 -4.05368E+00 +4.72069E+00 -8.39731E+00 -3.03432E+00 -6.70741E+00 -6.84440E+00 -1.64222E+00
 -5.57084E+00 +2.31631E+00 -1.89052E+00 +2.64662E+00 +6.20299E-01 +5.19069E-01 +6.27962E-01 -7.76315E-01
 -2.24816E-01 +8.37838E-01 +5.84196E-01 +4.10916E+00 +3.57425E+00 +5.44711E+00 +6.29856E+00 +2.23496E+00
 +5.32065E+00 -4.37952E+00 -4.62080E-01 -9.75543E+00 -8.07175E+00 -9.16711E+00 -1.20766E+01 -1.76848E+00
 -8.64016E+00 +8.13009E+00 +1.10589E+00 +1.37594E+01 +1.12026E+01 +1.07502E+01 +1.47631E+01 +5.31966E-01
 +8.92191E+00 -1.03899E+01 -2.85474E+00 -1.48850E+01 -1.29526E+01 -1.01638E+01 -1.48205E+01 +3.66180E-01
 -7.46423E+00 +9.66032E+00 +4.00993E+00 +1.20382E+01 +1.21165E+01 +6.92240E+00 +1.21773E+01 -1.30141E+00
 +5.21373E+00 -6.91423E+00 -3.36103E+00 -7.02777E+00 -7.97359E+00 -3.14532E+00 -6.71819E+00 +7.85306E-01
 -2.02994E+00 +1.93339E+00 +1.92547E+00 +7.33561E-01 +2.74665E+00 -4.50713E-02 +1.31341E+00 +1.69222E+00
 +3.14682E-01 +5.03327E+00 +1.33577E+00 +6.55827E+00 +3.19694E+00 +3.37961E+00 +3.05579E+00 -3.83141E+00
 -6.86765E-01 -1.05586E+01 -6.30397E+00 -1.14893E+01 -9.53239E+00 -4.72357E+00 -6.88336E+00 +6.18160E+00
 +1.12704E+00 +1.41854E+01 +9.62769E+00 +1.35659E+01 +1.25747E+01 +4.10560E+00 +7.26996E+00 -8.47809E+00
 -3.24744E+00 -1.62881E+01 -1.19720E+01 -1.45460E+01 -1.27867E+01 -4.67282E+00 -4.89928E+00 +6.94264E+00
 +6.46176E+00 +1.34288E+01 +1.36869E+01 +1.18527E+01 +1.21352E+01 +4.53951E+00 +3.29104E+00 -3.27122E+00
 -6.52619E+00 -7.31237E+00 -1.08375E+01 -6.73616E+00 -7.54046E+00 -3.61653E+00 -1.34935E-02 -4.70821E-01
 +5.81847E+00 +1.80761E+00 +6.03145E+00 +3.90374E+00 +1.36483E+00 +6.30469E+00 -3.86457E+00 +7.79831E+00
 -5.48414E+00 +5.99325E+00 -2.74269E+00 -3.15511E-01 +1.40872E+00 -9.02037E+00 +3.07466E+00 -1.50581E+01
 +8.16117E-01 -1.36022E+01 -3.13464E+00 -3.95805E+00 -4.81159E+00 +8.96347E+00 -1.96394E+00 +1.72155E+01
 +3.86166E+00 +1.50365E+01 +8.36666E+00 +3.10540E+00 +7.88394E+00 -1.14009E+01 +2.39111E+00 -1.92945E+01
 -4.29401E+00 -1.54437E+01 -7.35281E+00 -2.20149E+00 -4.64160E+00 +1.22171E+01 +1.66769E+00 +1.92469E+01
 +6.75540E+00 +1.54847E+01 +6.81214E+00 +4.43180E+00 +1.84005E+00 -6.48092E+00 -4.52406E+00 -1.11607E+01
 -7.91617E+00 -8.55032E+00 -6.52342E+00 -2.35705E+00 -2.18213E+00 +2.47674E+00 +1.42704E+00 +3.52598E+00
 +1.87283E+00 +1.99783E+00 -2.13640E-01 +7.18086E-01 -2.01605E+00 +1.06815E+00 -1.22830E+00 +1.65991E+00
 +1.80836E+00 -1.10905E-01 +4.39135E+00 -5.06726E+00 +3.93546E+00 -1.05855E+01 +4.91670E-01 -1.20129E+01
 -2.96527E+00 -6.33187E+00 -2.91376E+00 +4.80217E+00 +1.54492E+00 +1.53036E+01 +7.43401E+00 +1.84202E+01
 +9.86048E+00 +1.14885E+01 +5.86802E+00 -1.80486E+00 -2.83965E+00 -1.34778E+01 -1.06613E+01 -1.63521E+01
 -1.20582E+01 -8.71371E+00 -5.82833E+00 +4.64720E+00 +3.64779E+00 +1.56301E+01 +9.36689E+00 +1.79470E+01
 +6.83830E+00 +1.07157E+01 -2.42044E+00 -1.62195E+00 -1.17560E+01 -1.25352E+01 -1.41259E+01 -1.72835E+01
 -7.27872E+00 -1.49422E+01 +4.48484E+00 -7.81259E+00 +1.33324E+01 +6.33054E-01 +1.35207E+01 +7.48120E+00
 +5.49237E+00 +1.08896E+01 -4.54628E+00 +9.86820E+00 -9.21132E+00 +4.36008E+00 -5.28050E+00 -4.07274E+00
 +4.11370E+00 -1.18236E+01 +1.19413E+01 -1.42742E+01 +1.24461E+01 -8.42301E+00 +5.18650E+00 +4.42231E+00
 -4.91430E+00 +1.81634E+01 -1.13322E+01 +2.47856E+01 -1.05847E+01 +1.92967E+01 -4.36389E+00 +3.51780E+00
 +2.17245E+00 -1.42146E+01 +4.38983E+00 -2.37945E+01 +1.36061E+00 -1.97079E+01 -3.96941E+00 -4.75632E+00
 -7.40543E+00 +1.15554E+01 -6.65864E+00 +1.90683E+01 -2.64091E+00 +1.34508E+01 +1.79266E+00 -1.23886E+00
 +4.30433E+00 -1.55498E+01 +4.63517E+00 -2.09854E+01 +4.17280E+00 -1.52743E+01 +4.22043E+00 -3.10241E+00
 +4.68680E+00 +7.79687E+00 +4.37059E+00 +1.20589E+01 +2.46124E+00 +9.69487E+00 -2.73553E-01 +4.88092E+00
 -1.87130E+00 +1.98329E+00 -9.29621E-01 +2.18129E+00 +1.81915E+00 +3.24226E+00 +3.67731E+00 +2.26956E+00
 +2.03206E+00 -1.17239E+00 -3.27373E+00 -4.34478E+00 -9.30013E+00 -3.70655E+00 -1.18971E+01 +1.61804E+00
 -8.85342E+00 +8.30003E+00 -1.84977E+00 +1.07596E+01 +4.49325E+00 +5.36467E+00 +5.95741E+00 -6.30979E+00
 +1.97762E+00 -1.78348E+01 -3.77942E+00 -2.19358E+01 -6.11904E+00 -1.54345E+01 -2.34693E+00 -1.60922E+00
 +5.48201E+00 +1.17541E+01 +1.19388E+01 +1.73001E+01 +1.22930E+01 +1.26520E+01 +6.19999E+00 +1.57969E+00
 -1.89258E+00 -8.75806E+00 -6.05414E+00 -1.23842E+01 -3.44004E+00 -7.80053E+00 +3.39995E+00 +1.85162E+00
 +8.34911E+00 +1.13133E+01 +6.40922E+00 +1.63279E+01 -2.28876E+00 +1.53736E+01 -1.22701E+01 +9.46481E+00
 -1.65944E+01 +9.27859E-01 -1.20041E+01 -7.61884E+00 -1.48483E+00 -1.36497E+01 +7.74635E+00 -1.50089E+01
 +9.41351E+00 -1.07133E+01 +2.73280E+00 -2.07392E+00 -7.00331E+00 +6.97006E+00 -1.22342E+01 +1.13114E+01
 -8.54430E+00 +7.64037E+00 +2.23404E+00 -2.89381E+00 +1.33882E+01 -1.44925E+01 +1.80522E+01 -1.97458E+01
 +1.38260E+01 -1.43115E+01 +4.07001E+00 -1.32373E-01 -4.80026E+00 +1.52657E+01 -7.82509E+00 +2.32766E+01
 -4.53927E+00 +1.96694E+01 +1.38938E+00 +7.29714E+00 +5.24288E+00 -5.85381E+00 +4.53800E+00 -1.19662E+01
 +1.96551E-01 -8.39332E+00 -4.84024E+00 +1.03733E+00 -8.04994E+00 +9.13860E+00 -8.79659E+00 +1.04849E+01
 -7.94038E+00 +4.83704E+00 -6.38330E+00 -3.39294E+00 -4.12259E+00 -8.88433E+00 -6.85391E-01 -9.31341E+00
 +3.63275E+00 -6.49772E+00 +7.15559E+00 -4.18301E+00 +7.73844E+00 -4.53218E+00 +4.64058E+00 -6.28351E+00
 -2.88144E-01 -6.05458E+00 -3.41906E+00 -1.62605E+00 -1.87835E+00 +5.61720E+00 +4.03695E+00 +1.12551E+01
 +1.05765E+01 +1.11348E+01 +1.29049E+01 +4.84958E+00 +8.56007E+00 -3.44545E+00 -5.60408E-01 -7.73458E+00
 -9.29070E+00 -4.48638E+00 -1.27029E+01 +4.58532E+00 -9.50380E+00 +1.34747E+01 -2.81733E+00 +1.59493E+01
 +2.22091E+00 +9.82390E+00 +2.23641E+00 -1.59681E+00 -2.07305E+00 -1.18532E+01 -6.76253E+00 -1.56592E+01
 -7.85279E+00 -1.21227E+01 -4.37563E+00 -4.74573E+00 +1.09381E+00 +1.45941E+00 +4.72573E+00 +3.40000E+00
 +4.61135E+00 +1.42904E+00 +2.22409E+00 -1.78123E+00 +9.92824E-01 -3.70740E+00 +3.18720E+00 -3.66830E+00
 +7.72257E+00 -2.58211E+00 +1.07851E+01 -1.40440E+00 +8.89603E+00 +6.77783E-02 +1.99315E+00 +2.83815E+00
