 Created: 16-Jan-2021
 $NMID
 ID='D:\BASISSIMULATI'
 FMTDAT='(8E13.5)'
 VOLUME=   1.00000E+00
 TRAMP=   1.00000E+00
 $END
 +3.75565E+01 +8.76832E-01 +2.77634E+01 +2.39759E+01 +5.36643E+00 +3.40618E+01 -1.69596E+01 +2.62923E+01
 -2.69511E+01 +6.14301E+00 -1.99002E+01 -1.40029E+01 -1.21099E+00 -2.22759E+01 +1.70648E+01 -1.42699E+01
 +2.35195E+01 +4.59075E+00 +1.40871E+01 +2.25435E+01 -5.79099E+00 +2.85937E+01 -2.46519E+01 +1.89194E+01
 -3.18772E+01 -1.16323E+00 -2.37678E+01 -2.06335E+01 -5.31610E+00 -2.93304E+01 +1.31262E+01 -2.36563E+01
 +2.20456E+01 -8.15743E+00 +1.80538E+01 +7.66502E+00 +5.26959E+00 +1.51303E+01 -7.69846E+00 +1.12075E+01
 -1.30678E+01 -3.08202E-01 -8.22941E+00 -1.16262E+01 +3.28225E+00 -1.57936E+01 +1.44162E+01 -1.05542E+01
 +1.89417E+01 +8.74552E-01 +1.48207E+01 +1.22027E+01 +4.81172E+00 +1.78913E+01 -5.67748E+00 +1.60404E+01
 -1.18824E+01 +8.83706E+00 -1.20820E+01 +6.82849E-01 -7.89810E+00 -4.55413E+00 -2.70566E+00 -5.44869E+00
 +5.71487E-01 -3.17102E+00 +8.86625E-01 -1.73065E-01 -9.21065E-01 +1.48827E+00 -3.17456E+00 +1.11563E+00
 -4.53528E+00 -7.51224E-01 -4.53728E+00 -3.12514E+00 -3.35398E+00 -5.27337E+00 -1.26521E+00 -6.85339E+00
 +1.59157E+00 -7.58868E+00 +4.98415E+00 -6.98990E+00 +8.18207E+00 -4.53917E+00 +9.92072E+00 -2.78992E-01
 +8.99129E+00 +4.70754E+00 +5.15831E+00 +8.48114E+00 -2.84324E-01 +9.20370E+00 -4.88933E+00 +6.35192E+00
 -6.33483E+00 +1.34298E+00 -3.89340E+00 -3.00731E+00 +8.86585E-01 -4.03903E+00 +4.87010E+00 -9.31135E-01
 +5.12702E+00 +4.57811E+00 +7.93985E-01 +9.01333E+00 -6.17770E+00 +9.15868E+00 -1.19607E+01 +4.07115E+00
 -1.30216E+01 -4.14743E+00 -8.26135E+00 -1.13819E+01 +1.87755E-01 -1.38100E+01 +8.05800E+00 -1.01421E+01
 +1.13464E+01 -2.44099E+00 +8.62000E+00 +5.01135E+00 +1.84983E+00 +8.16637E+00 -4.74007E+00 +5.54384E+00
 -7.14324E+00 -9.32254E-01 -3.90483E+00 -7.09135E+00 +3.05263E+00 -8.97850E+00 +9.58324E+00 -5.16547E+00
 +1.17509E+01 +2.43917E+00 +8.10104E+00 +9.72749E+00 +4.54935E-01 +1.27746E+01 -7.19428E+00 +1.00550E+01
 -1.09883E+01 +3.22127E+00 -9.34549E+00 -3.94983E+00 -3.71878E+00 -7.76309E+00 +2.39586E+00 -6.65036E+00
 +5.54486E+00 -1.89922E+00 +4.24732E+00 +3.27318E+00 -3.15831E-01 +5.67268E+00 -5.16259E+00 +3.93156E+00
 -7.32413E+00 -8.47980E-01 -5.51639E+00 -5.88845E+00 -7.37243E-01 -8.40936E+00 +4.45798E+00 -7.16461E+00
 +7.48124E+00 -2.99539E+00 +7.11150E+00 +1.81842E+00 +4.00353E+00 +4.92873E+00 +1.18176E-01 +5.17550E+00
 -2.48915E+00 +3.04766E+00 -2.77627E+00 +1.90054E-01 -1.12145E+00 -1.65010E+00 +1.09941E+00 -1.58170E+00
 +2.41506E+00 +8.02731E-02 +2.07307E+00 +2.17446E+00 +3.33441E-01 +3.45342E+00 -1.83227E+00 +3.26226E+00
 -3.36784E+00 +1.78044E+00 -3.68425E+00 -2.21979E-01 -2.85439E+00 -1.88415E+00 -1.42485E+00 -2.68615E+00
 -3.72919E-02 -2.59875E+00 +8.88387E-01 -1.94640E+00 +1.25843E+00 -1.14155E+00 +1.21191E+00 -4.76100E-01
 +9.55994E-01 -6.25540E-02 +6.55514E-01 +1.07351E-01 +4.17307E-01 +8.46102E-02 +3.21376E-01 -6.26102E-02
 +4.26310E-01 -2.27079E-01 +7.23696E-01 -2.54226E-01 +1.08545E+00 +2.22514E-03 +1.27569E+00 +5.75274E-01
 +1.05809E+00 +1.30662E+00 +3.51177E-01 +1.87538E+00 -6.71238E-01 +1.94846E+00 -1.62046E+00 +1.37813E+00
 -2.07623E+00 +3.23390E-01 -1.81777E+00 -7.95512E-01 -9.63959E-01 -1.50181E+00 +7.09748E-02 -1.51629E+00
 +7.92173E-01 -9.12453E-01 +8.90321E-01 -7.73278E-02 +4.06334E-01 +5.03548E-01 -3.00553E-01 +5.14950E-01
 -7.61585E-01 -1.87623E-02 -6.63040E-01 -7.57405E-01 -1.69526E-02 -1.24287E+00 +8.53045E-01 -1.15502E+00
 +1.49465E+00 -4.82593E-01 +1.57061E+00 +4.78708E-01 +1.02951E+00 +1.28965E+00 +1.18981E-01 +1.59523E+00
 -7.53339E-01 +1.29425E+00 -1.22719E+00 +5.69802E-01 -1.15597E+00 -2.21273E-01 -6.54947E-01 -7.31512E-01
 -2.12891E-02 -7.83155E-01 +4.22390E-01 -4.33175E-01 +4.80556E-01 +7.61937E-02 +1.65203E-01 +4.46853E-01
 -3.24260E-01 +4.69163E-01 -7.04511E-01 +1.17067E-01 -7.45149E-01 -4.43832E-01 -3.78653E-01 -9.35115E-01
 +2.63720E-01 -1.09592E+00 +9.06730E-01 -8.08232E-01 +1.25542E+00 -1.60653E-01 +1.13568E+00 +5.82275E-01
 +5.85587E-01 +1.09785E+00 -1.51435E-01 +1.15995E+00 -7.37183E-01 +7.56415E-01 -9.05843E-01 +1.04928E-01
 -6.04845E-01 -4.50303E-01 -3.13553E-02 -6.16485E-01 +4.64740E-01 -3.14016E-01 +5.68872E-01 +2.69002E-01
 +1.82733E-01 +7.69036E-01 -5.05226E-01 +8.45630E-01 -1.10890E+00 +3.80818E-01 -1.25416E+00 -4.35564E-01
 -7.96489E-01 -1.19271E+00 +7.95293E-02 -1.47964E+00 +9.44842E-01 -1.12040E+00 +1.35712E+00 -2.87046E-01
 +1.11194E+00 +5.82719E-01 +3.68099E-01 +1.02581E+00 -4.32810E-01 +8.19117E-01 -8.14912E-01 +1.15211E-01
 -5.45787E-01 -6.37005E-01 +2.19139E-01 -9.48854E-01 +1.01608E+00 -5.80922E-01 +1.33748E+00 +3.05210E-01
 +9.31483E-01 +1.22705E+00 -3.95344E-02 +1.65313E+00 -1.07905E+00 +1.31188E+00 -1.63385E+00 +3.56617E-01
 -1.41034E+00 -7.12950E-01 -5.45675E-01 -1.33083E+00 +4.67359E-01 -1.18584E+00 +1.05977E+00 -3.98042E-01
 +9.09133E-01 +5.51272E-01 +1.20327E-01 +1.09483E+00 -8.37495E-01 +9.00708E-01 -1.39825E+00 +5.66776E-02
 -1.21562E+00 -9.83230E-01 -3.50965E-01 -1.65361E+00 +7.66703E-01 -1.58633E+00 +1.57756E+00 -8.02590E-01
 +1.68773E+00 +3.09038E-01 +1.06608E+00 +1.20480E+00 +4.57206E-02 +1.46634E+00 -8.56732E-01 +1.00291E+00
 -1.20102E+00 +8.16362E-02 -8.31503E-01 -8.14738E-01 +5.82602E-02 -1.22256E+00 +1.02212E+00 -9.12549E-01
 +1.56660E+00 +5.32311E-03 +1.37456E+00 +1.12534E+00 +4.56841E-01 +1.91754E+00 -8.30475E-01 +1.96139E+00
 -1.91954E+00 +1.15062E+00 -2.27579E+00 -2.21356E-01 -1.66196E+00 -1.55275E+00 -2.98268E-01 -2.19109E+00
 +1.18322E+00 -1.76148E+00 +2.01003E+00 -4.07369E-01 +1.66648E+00 +1.20665E+00 +2.19875E-01 +2.18131E+00
 -1.62563E+00 +1.85301E+00 -2.83174E+00 +2.10097E-01 -2.57318E+00 -1.99981E+00 -7.47957E-01 -3.58900E+00
 +1.85907E+00 -3.55594E+00 +3.91101E+00 -1.69238E+00 +4.22455E+00 +1.19457E+00 +2.47476E+00 +3.63089E+00
 -5.22947E-01 +4.25891E+00 -3.17256E+00 +2.63856E+00 -3.95531E+00 -4.10450E-01 -2.32486E+00 -3.17736E+00
 +8.90439E-01 -3.98907E+00 +3.86254E+00 -2.19654E+00 +4.75896E+00 +1.36269E+00 +2.81730E+00 +4.74160E+00
 -1.13062E+00 +5.93950E+00 -5.03191E+00 +4.06076E+00 -6.72051E+00 -9.80404E-02 -5.15398E+00 -4.40953E+00
 -1.06413E+00 -6.56463E+00 +3.38457E+00 -5.37887E+00 +5.77316E+00 -1.50538E+00 +4.79426E+00 +2.87955E+00
 +1.02548E+00 +5.27208E+00 -3.35151E+00 +4.25737E+00 -5.75318E+00 +3.41746E-01 -4.65291E+00 -4.28765E+00
 -4.71987E-01 -6.96068E+00 +4.61165E+00 -6.01744E+00 +7.84426E+00 -1.75866E+00 +7.41447E+00 +3.68642E+00
 +3.46278E+00 +7.50917E+00 -1.98171E+00 +7.75296E+00 -6.10365E+00 +4.37873E+00 -6.83263E+00 -7.22113E-01
 -3.95978E+00 -4.76991E+00 +7.69085E-01 -5.61550E+00 +4.62524E+00 -2.90204E+00 +5.39338E+00 +1.75891E+00
 +2.57424E+00 +5.68053E+00 -2.35314E+00 +6.56634E+00 -6.73738E+00 +3.75046E+00 -8.18062E+00 -1.44951E+00
 -5.81240E+00 -6.44091E+00 -7.37119E-01 -8.73043E+00 +4.56575E+00 -7.22436E+00 +7.55073E+00 -2.77126E+00
 +6.92171E+00 +2.32032E+00 +3.26585E+00 +5.51197E+00 -1.30680E+00 +5.35286E+00 -4.30365E+00 +2.19735E+00
 -4.15706E+00 -2.03243E+00 -1.01833E+00 -4.88951E+00 +3.35657E+00 -4.69015E+00 +6.54542E+00 -1.37867E+00
 +6.71945E+00 +3.46107E+00 +3.57501E+00 +7.43012E+00 -1.52493E+00 +8.53454E+00 -6.24844E+00 +6.17741E+00
 -8.45958E+00 +1.43407E+00 -7.25985E+00 -3.50539E+00 -3.39654E+00 -6.42779E+00 +1.14412E+00 -6.17301E+00
 +4.13885E+00 -3.17030E+00 +4.22323E+00 +8.12398E-01 +1.54908E+00 +3.56834E+00 -2.30730E+00 +3.55642E+00
 -5.13495E+00 +6.74937E-01 -5.19361E+00 -3.66796E+00 -2.10277E+00 -7.22579E+00 +2.91927E+00 -8.01340E+00
 +7.59759E+00 -5.31081E+00 +9.68444E+00 -7.89095E-02 +8.07447E+00 +5.43981E+00 +3.40189E+00 +8.77548E+00
 -2.20416E+00 +8.44811E+00 -6.12959E+00 +4.74468E+00 -6.58205E+00 -3.65134E-01 -3.54023E+00 -4.18406E+00
 +1.17081E+00 -4.67146E+00 +4.77516E+00 -1.55579E+00 +4.99987E+00 +3.43470E+00 +1.34357E+00 +7.40594E+00
 -4.53976E+00 +7.81620E+00 -9.60968E+00 +3.89617E+00 -1.10142E+01 -2.81353E+00 -7.65478E+00 -9.15794E+00
 -8.78290E-01 -1.19857E+01 +6.13469E+00 -9.84619E+00 +1.00116E+01 -3.83089E+00 +8.99653E+00 +2.94568E+00
 +3.92941E+00 +6.99144E+00 -2.17821E+00 +6.33358E+00 -5.77613E+00 +1.61851E+00 -4.73901E+00 -4.21898E+00
 +4.27776E-01 -7.56456E+00 +6.82706E+00 -6.13776E+00 +1.07429E+01 -2.93614E-01 +9.68868E+00 +7.12042E+00
 +3.79763E+00 +1.22851E+01 -4.21512E+00 +1.24729E+01 -1.04983E+01 +7.51954E+00 -1.21187E+01 -1.00617E-01
 -8.59774E+00 -6.62054E+00 -2.10580E+00 -8.99668E+00 +3.76488E+00 -6.49240E+00 +5.95251E+00 -9.87817E-01
 +3.53789E+00 +4.11419E+00 -1.83311E+00 +5.75890E+00 -6.90191E+00 +2.86924E+00 -8.57491E+00 -3.11814E+00
 -5.56575E+00 -9.05300E+00 +9.47732E-01 -1.17450E+01 +7.95633E+00 -9.61585E+00 +1.21735E+01 -3.48645E+00
 +1.16911E+01 +3.87145E+00 +6.90057E+00 +9.15167E+00 +2.42622E-01 +1.01607E+01 -5.05646E+00 +6.87043E+00
 -6.61088E+00 +1.36893E+00 -4.05131E+00 -3.24347E+00 +8.26663E-01 -4.45270E+00 +5.01035E+00 -1.62427E+00
 +5.84215E+00 +3.65779E+00 +2.42955E+00 +8.38905E+00 -3.82889E+00 +9.69654E+00 -9.89664E+00 +6.36781E+00
 -1.26335E+01 -4.36335E-01 -1.04428E+01 -7.69027E+00 -4.16844E+00 -1.20165E+01 +3.26984E+00 -1.14421E+01
 +8.35994E+00 -6.46745E+00 +8.84646E+00 +1.60055E-01 +4.95022E+00 +4.89660E+00 -7.36754E-01 +5.32460E+00
 -4.67011E+00 +1.49764E+00 -4.33629E+00 -4.06476E+00 +3.00312E-01 -7.77208E+00 +6.72220E+00 -6.99716E+00
 +1.12356E+01 -1.60846E+00 +1.10467E+01 +5.88754E+00 +5.86354E+00 +1.17033E+01 -1.90297E+00 +1.28728E+01
 -8.46762E+00 +8.90131E+00 -1.07748E+01 +2.01608E+00 -8.16931E+00 -4.12520E+00 -2.67747E+00 -6.51228E+00
 +2.24185E+00 -4.44016E+00 +3.72592E+00 +2.00252E-01 +1.12337E+00 +4.13154E+00 -3.72672E+00 +4.65267E+00
 -7.66680E+00 +1.18994E+00 -8.10578E+00 -4.44802E+00 -4.49085E+00 -9.20148E+00 +1.46613E+00 -1.05514E+01
 +6.86762E+00 -7.89730E+00 +9.30728E+00 -2.75359E+00 +8.13476E+00 +2.26281E+00 +4.61531E+00 +4.96891E+00
 +9.95914E-01 +4.74389E+00 -8.69646E-01 +2.64118E+00 -4.91396E-01 +5.36484E-01 +1.20343E+00 -7.27882E-02
 +2.64084E+00 +1.13123E+00 +2.62153E+00 +3.29666E+00 +9.50757E-01 +5.08851E+00 -1.63004E+00 +5.52767E+00
