 Created: 16-Jan-2021
 $NMID
 ID='D:\BASISSIMULATI'
 FMTDAT='(8E13.5)'
 VOLUME=   1.00000E+00
 TRAMP=   1.00000E+00
 $END
 +1.59874E+02 +7.04709E-01 +1.47943E+02 +5.67287E+01 +1.15416E+02 +1.03175E+02 +6.81985E+01 +1.32587E+02
 +1.47252E+01 +1.40749E+02 -3.56909E+01 +1.27432E+02 -7.46596E+01 +9.63418E+01 -9.62999E+01 +5.42962E+01
 -9.82955E+01 +9.79830E+00 -8.22145E+01 -2.86895E+01 -5.30403E+01 -5.44184E+01 -1.80261E+01 -6.36323E+01
 +1.48810E+01 -5.61989E+01 +3.87106E+01 -3.54758E+01 +4.88883E+01 -7.45587E+00 +4.41110E+01 +2.06163E+01
 +2.65062E+01 +4.18556E+01 +1.05457E+00 +5.12313E+01 -2.55896E+01 +4.66303E+01 -4.66194E+01 +2.92691E+01
 -5.66076E+01 +3.37330E+00 -5.27216E+01 -2.47981E+01 -3.53604E+01 -4.83685E+01 -8.08108E+00 -6.13912E+01
 +2.31694E+01 -6.01953E+01 +5.13487E+01 -4.42377E+01 +6.98627E+01 -1.62777E+01 +7.40252E+01 +1.81662E+01
 +6.21206E+01 +5.19627E+01 +3.58376E+01 +7.78773E+01 -2.14446E-02 +9.01222E+01 -3.85009E+01 +8.56181E+01
 -7.19216E+01 +6.46960E+01 -9.34819E+01 +3.10869E+01 -9.86935E+01 -8.80569E+00 -8.63464E+01 -4.72016E+01
 -5.87992E+01 -7.65417E+01 -2.15272E+01 -9.10537E+01 +1.79820E+01 -8.79602E+01 +5.17583E+01 -6.80726E+01
 +7.29896E+01 -3.56467E+01 +7.74312E+01 +2.47677E+00 +6.42928E+01 +3.82689E+01 +3.64157E+01 +6.41608E+01
 -2.97485E-01 +7.46031E+01 -3.80845E+01 +6.72141E+01 -6.89105E+01 +4.32794E+01 -8.61124E+01 +7.49991E+00
 -8.57641E+01 -3.29599E+01 -6.74802E+01 -6.99275E+01 -3.44967E+01 -9.58817E+01 +6.98799E+00 -1.05474E+02
 +4.90724E+01 -9.66031E+01 +8.37511E+01 -7.08195E+01 +1.04523E+02 -3.29887E+01 +1.07681E+02 +9.71959E+00
 +9.30186E+01 +4.92994E+01 +6.38138E+01 +7.85287E+01 +2.61071E+01 +9.24070E+01 -1.25796E+01 +8.91176E+01
 -4.48034E+01 +7.03195E+01 -6.47180E+01 +4.07189E+01 -6.92328E+01 +7.01786E+00 -5.85767E+01 -2.35324E+01
 -3.61565E+01 -4.46656E+01 -7.75044E+00 -5.23998E+01 +1.97880E+01 -4.58299E+01 +4.00335E+01 -2.72533E+01
 +4.83808E+01 -1.60737E+00 +4.30283E+01 +2.46542E+01 +2.53479E+01 +4.50032E+01 -4.35913E-01 +5.42868E+01
 -2.81850E+01 +4.98738E+01 -5.12035E+01 +3.22543E+01 -6.37192E+01 +4.96175E+00 -6.21733E+01 -2.61648E+01
 -4.60419E+01 -5.42243E+01 -1.80116E+01 -7.27389E+01 +1.65319E+01 -7.70655E+01 +5.05986E+01 -6.54341E+01
 +7.70443E+01 -3.93893E+01 +9.00727E+01 -3.53655E+00 +8.64732E+01 +3.53563E+01 +6.63338E+01 +6.97214E+01
 +3.30761E+01 +9.27339E+01 -7.19962E+00 +9.97154E+01 -4.69256E+01 +8.91066E+01 -7.85865E+01 +6.28043E+01
 -9.62343E+01 +2.57929E+01 -9.66859E+01 -1.48564E+01 -8.01557E+01 -5.14112E+01 -5.01948E+01 -7.70360E+01
 -1.29494E+01 -8.71611E+01 +2.41064E+01 -8.03810E+01 +5.37000E+01 -5.86999E+01 +7.02356E+01 -2.70770E+01
 +7.09123E+01 +7.63067E+00 +5.62546E+01 +3.81057E+01 +2.99519E+01 +5.80874E+01 -1.95636E+00 +6.36541E+01
 -3.23751E+01 +5.40061E+01 -5.46540E+01 +3.15899E+01 -6.39814E+01 +1.54341E+00 -5.83792E+01 -2.94180E+01
 -3.90962E+01 -5.44368E+01 -1.03191E+01 -6.79686E+01 +2.17329E+01 -6.69509E+01 +5.01372E+01 -5.14433E+01
 +6.87381E+01 -2.46057E+01 +7.34512E+01 +7.97709E+00 +6.31263E+01 +3.94793E+01 +3.97896E+01 +6.32779E+01
 +8.21665E+00 +7.43498E+01 -2.50725E+01 +7.03305E+01 -5.31843E+01 +5.20118E+01 -7.02989E+01 +2.31761E+01
 -7.28905E+01 -1.01977E+01 -6.04646E+01 -4.11877E+01 -3.56593E+01 -6.33791E+01 -3.68846E+00 -7.22060E+01
 +2.87521E+01 -6.59031E+01 +5.48888E+01 -4.58708E+01 +6.92873E+01 -1.63751E+01 +6.89870E+01 +1.63508E+01
 +5.41159E+01 +4.54157E+01 +2.78569E+01 +6.47152E+01 -4.22467E+00 +7.02086E+01 -3.53522E+01 +6.07618E+01
 -5.89592E+01 +3.83802E+01 -7.00659E+01 +7.78342E+00 -6.63199E+01 -2.45871E+01 -4.84864E+01 -5.19194E+01
 -2.02844E+01 -6.84583E+01 +1.23942E+01 -7.07090E+01 +4.27197E+01 -5.81660E+01 +6.43535E+01 -3.34165E+01
 +7.27722E+01 -1.59616E+00 +6.62106E+01 +3.06862E+01 +4.60263E+01 +5.67306E+01 +1.64118E+01 +7.11438E+01
 -1.64852E+01 +7.09621E+01 -4.58478E+01 +5.62647E+01 -6.56135E+01 +3.01498E+01 -7.17358E+01 -1.91902E+00
 -6.30233E+01 -3.32591E+01 -4.13792E+01 -5.73666E+01 -1.13947E+01 -6.92735E+01 +2.06184E+01 -6.65799E+01
 +4.79519E+01 -4.99474E+01 +6.49052E+01 -2.29514E+01 +6.79742E+01 +8.67628E+00 +5.65788E+01 +3.82523E+01
 +3.31765E+01 +5.95442E+01 +2.74081E+00 +6.80741E+01 -2.82856E+01 +6.20537E+01 -5.33430E+01 +4.27540E+01
 -6.71287E+01 +1.42348E+01 -6.67056E+01 -1.75082E+01 -5.21149E+01 -4.57999E+01 -2.63648E+01 -6.46821E+01
 +5.19942E+00 -7.01577E+01 +3.60133E+01 -6.10235E+01 +5.96625E+01 -3.91190E+01 +7.12188E+01 -8.94012E+00
 +6.82634E+01 +2.33001E+01 +5.13854E+01 +5.09658E+01 +2.40524E+01 +6.83773E+01 -8.11687E+00 +7.19874E+01
 -3.85260E+01 +6.11095E+01 -6.09725E+01 +3.80487E+01 -7.09322E+01 +7.60897E+00 -6.64885E+01 -2.39165E+01
 -4.87148E+01 -5.00604E+01 -2.14313E+01 -6.55261E+01 +9.60833E+00 -6.72805E+01 +3.79299E+01 -5.51692E+01
 +5.76941E+01 -3.19264E+01 +6.49122E+01 -2.58100E+00 +5.82663E+01 +2.66134E+01 +3.93660E+01 +4.94998E+01
 +1.23895E+01 +6.13114E+01 -1.68140E+01 +5.96662E+01 -4.19680E+01 +4.50552E+01 -5.76976E+01 +2.07244E+01
 -6.06632E+01 -8.02459E+00 -5.02616E+01 -3.49642E+01 -2.87481E+01 -5.42640E+01 -7.54309E-01 -6.17269E+01
 +2.76944E+01 -5.56800E+01 +5.04562E+01 -3.73317E+01 +6.25740E+01 -1.05205E+01 +6.13285E+01 +1.90899E+01
 +4.68207E+01 +4.52028E+01 +2.19618E+01 +6.22141E+01 -8.12758E+00 +6.63966E+01 -3.71839E+01 +5.66920E+01
 -5.91087E+01 +3.49449E+01 -6.92454E+01 +5.53073E+00 -6.53573E+01 -2.55473E+01 -4.81028E+01 -5.19014E+01
 -2.09079E+01 -6.80858E+01 +1.07371E+01 -7.07276E+01 +4.04102E+01 -5.92290E+01 +6.20837E+01 -3.58926E+01
 +7.13682E+01 -5.44604E+00 +6.64147E+01 +2.59352E+01 +4.82908E+01 +5.19032E+01 +2.07502E+01 +6.72448E+01
 -1.05504E+01 +6.89499E+01 -3.92269E+01 +5.68202E+01 -5.94871E+01 +3.34924E+01 -6.73217E+01 +3.87490E+00
 -6.13179E+01 -2.58829E+01 -4.29307E+01 -4.96725E+01 -1.61563E+01 -6.26914E+01 +1.33202E+01 -6.24274E+01
 +3.93218E+01 -4.91604E+01 +5.64719E+01 -2.58775E+01 +6.13087E+01 +2.37453E+00 +5.29930E+01 +2.95640E+01
 +3.34615E+01 +4.99471E+01 +6.99740E+00 +5.92719E+01 -2.06879E+01 +5.56616E+01 -4.36687E+01 +3.99944E+01
 -5.70565E+01 +1.57007E+01 -5.80274E+01 -1.19748E+01 -4.64102E+01 -3.70911E+01 -2.47123E+01 -5.42702E+01
 +2.41852E+00 -5.98347E+01 +2.91837E+01 -5.25829E+01 +4.98632E+01 -3.40399E+01 +6.00272E+01 -8.13305E+00
 +5.74737E+01 +1.96398E+01 +4.26963E+01 +4.33722E+01 +1.87830E+01 +5.79979E+01 -9.23152E+00 +6.03626E+01
 -3.54243E+01 +4.98941E+01 -5.42306E+01 +2.87295E+01 -6.16163E+01 +1.27366E+00 -5.59315E+01 -2.67202E+01
 -3.82647E+01 -4.93536E+01 -1.22239E+01 -6.18188E+01 +1.68099E+01 -6.14085E+01 +4.28007E+01 -4.80880E+01
 +6.03148E+01 -2.45106E+01 +6.56526E+01 +4.52815E+00 +5.76213E+01 +3.30820E+01 +3.77863E+01 +5.52856E+01
 +1.01487E+01 +6.65695E+01 -1.96812E+01 +6.46055E+01 -4.56447E+01 +4.97853E+01 -6.24854E+01 +2.51360E+01
 -6.68317E+01 -4.31175E+00 -5.78851E+01 -3.25673E+01 -3.75734E+01 -5.39196E+01 -1.01387E+01 -6.41136E+01
 +1.87522E+01 -6.12189E+01 +4.31879E+01 -4.60124E+01 +5.82370E+01 -2.17974E+01 +6.09608E+01 +6.30162E+00
 +5.10061E+01 +3.24173E+01 +3.06556E+01 +5.11656E+01 +4.32883E+00 +5.87624E+01 -2.23594E+01 +5.37996E+01
 -4.37841E+01 +3.75181E+01 -5.54891E+01 +1.35261E+01 -5.51141E+01 -1.29783E+01 -4.28762E+01 -3.63120E+01
 -2.15072E+01 -5.15092E+01 +4.33752E+00 -5.53656E+01 +2.90724E+01 -4.71074E+01 +4.73675E+01 -2.85463E+01
 +5.52764E+01 -3.68796E+00 +5.10695E+01 +2.21198E+01 +3.55983E+01 +4.33214E+01 +1.21147E+01 +5.53294E+01
 -1.44151E+01 +5.54950E+01 -3.83578E+01 +4.36709E+01 -5.46005E+01 +2.22460E+01 -5.96291E+01 -4.35241E+00
 -5.22710E+01 -3.05850E+01 -3.39469E+01 -5.09614E+01 -8.37877E+00 -6.11911E+01 +1.91845E+01 -5.90842E+01
 +4.30614E+01 -4.50123E+01 +5.83227E+01 -2.18347E+01 +6.18199E+01 +5.69576E+00 +5.28413E+01 +3.19213E+01
 +3.32597E+01 +5.14569E+01 +7.14133E+00 +6.03098E+01 -2.01021E+01 +5.67078E+01 -4.28403E+01 +4.14642E+01
 -5.63949E+01 +1.78031E+01 -5.80097E+01 -9.31633E+00 -4.74183E+01 -3.42355E+01 -2.68921E+01 -5.17754E+01
 -7.59795E-01 -5.83120E+01 +2.55003E+01 -5.25254E+01 +4.64042E+01 -3.56662E+01 +5.76041E+01 -1.12861E+01
 +5.67896E+01 +1.55101E+01 +4.41606E+01 +3.91337E+01 +2.23766E+01 +5.46780E+01 -4.00788E+00 +5.89380E+01
 -2.94999E+01 +5.10705E+01 -4.88169E+01 +3.27603E+01 -5.79871E+01 +7.85755E+00 -5.51712E+01 -1.84354E+01
 -4.10366E+01 -4.06554E+01 -1.86052E+01 -5.42202E+01 +7.38927E+00 -5.63805E+01 +3.14992E+01 -4.67859E+01
 +4.87058E+01 -2.75453E+01 +5.54680E+01 -2.77368E+00 +5.04565E+01 +2.22805E+01 +3.48221E+01 +4.23407E+01
 +1.19435E+01 +5.32102E+01 -1.32921E+01 +5.26490E+01 -3.55221E+01 +4.08375E+01 -5.00379E+01 +2.03305E+01
 -5.37743E+01 -4.48738E+00 -4.59510E+01 -2.83290E+01 -2.82328E+01 -4.61197E+01 -4.37588E+00 -5.40659E+01
 +2.05647E+01 -5.04522E+01 +4.12993E+01 -3.60024E+01 +5.34159E+01 -1.37267E+01 +5.43079E+01 +1.17099E+01
 +4.37224E+01 +3.49658E+01 +2.38145E+01 +5.11431E+01 -1.30166E+00 +5.68134E+01 -2.64130E+01 +5.07367E+01
 -4.62960E+01 +3.41216E+01 -5.68073E+01 +1.03739E+01 -5.57476E+01 -1.56136E+01 -4.33195E+01 -3.84810E+01
 -2.20831E+01 -5.35173E+01 +3.57917E+00 -5.76397E+01 +2.83772E+01 -5.00314E+01 +4.72146E+01 -3.23071E+01
 +5.62474E+01 -8.17001E+00 +5.36795E+01 +1.73639E+01 +4.01283E+01 +3.90137E+01 +1.84874E+01 +5.23330E+01
 -6.68531E+00 +5.46319E+01 -3.01243E+01 +4.55295E+01 -4.69571E+01 +2.70233E+01 -5.37186E+01 +3.06147E+00
 -4.90686E+01 -2.12901E+01 -3.40626E+01 -4.09111E+01 -1.19207E+01 -5.16974E+01 +1.26543E+01 -5.14160E+01
 +3.44670E+01 -4.01651E+01 +4.89189E+01 -2.03460E+01 +5.29694E+01 +3.84784E+00 +4.57684E+01 +2.73140E+01
 +2.88277E+01 +4.51123E+01 +5.69883E+00 +5.34986E+01 -1.87757E+01 +5.07057E+01 -3.94789E+01 +3.73086E+01
 -5.20902E+01 +1.60977E+01 -5.39868E+01 -8.50936E+00 -4.47879E+01 -3.13961E+01 -2.64276E+01 -4.78180E+01
 -2.74413E+00 -5.43934E+01 +2.13282E+01 -4.98053E+01 +4.07942E+01 -3.50701E+01 +5.16418E+01 -1.33168E+01
 +5.16779E+01 +1.08745E+01 +4.09808E+01 +3.24371E+01 +2.18750E+01 +4.68795E+01 -1.56318E+00 +5.12249E+01
 -2.43668E+01 +4.46299E+01 -4.17228E+01 +2.85548E+01 -4.99825E+01 +6.45035E+00 -4.74245E+01 -1.69725E+01
