 Created: 16-Jan-2021
 $NMID
 ID='D:\BASISSIMULATI'
 FMTDAT='(8E13.5)'
 VOLUME=   1.00000E+00
 TRAMP=   1.00000E+00
 $END
 +9.29298E+01 +9.53559E-01 +7.32165E+01 +1.85330E+01 +2.94201E+01 +3.82042E+01 -1.02161E+01 +5.39151E+01
 -2.56742E+01 +5.37128E+01 -1.83198E+01 +3.30229E+01 -4.17143E+00 +3.10702E+00 +3.12490E+00 -1.61626E+01
 +2.04095E+00 -1.32267E+01 -1.39542E+00 +5.35194E+00 -3.67028E+00 +2.18321E+01 -6.86756E+00 +2.34250E+01
 -1.29539E+01 +1.15088E+01 -1.85229E+01 -3.51090E+00 -1.76998E+01 -1.38101E+01 -9.63905E+00 -1.93108E+01
 -5.61380E-01 -2.29939E+01 +3.21771E+00 -2.46558E+01 +3.24594E+00 -2.16299E+01 +7.69063E+00 -1.46097E+01
 +2.12806E+01 -9.36632E+00 +3.79042E+01 -1.03220E+01 +4.53261E+01 -1.32884E+01 +3.78324E+01 -7.65425E+00
 +2.28260E+01 +1.20346E+01 +1.33353E+01 +3.73171E+01 +1.40685E+01 +5.10895E+01 +1.64209E+01 +4.34528E+01
 +8.40637E+00 +2.21421E+01 -1.10941E+01 +5.83576E+00 -2.95754E+01 +6.26223E+00 -3.31257E+01 +1.72057E+01
 -2.06772E+01 +2.17124E+01 -5.00958E+00 +9.91083E+00 +4.18865E-01 -1.09895E+01 -5.45034E+00 -2.43322E+01
 -1.19526E+01 -2.06108E+01 -9.47048E+00 -5.83652E+00 +2.22636E-01 +5.72819E+00 +7.02201E+00 +5.37669E+00
 +4.63533E+00 -4.08567E+00 -2.17189E+00 -1.43067E+01 -2.92231E+00 -2.02986E+01 +7.27052E+00 -2.21424E+01
 +2.30400E+01 -1.98467E+01 +3.49007E+01 -1.02942E+01 +3.80876E+01 +8.43193E+00 +3.41918E+01 +3.08133E+01
 +2.55424E+01 +4.51699E+01 +1.12343E+01 +4.34246E+01 -9.24482E+00 +2.93401E+01 -2.97875E+01 +1.53509E+01
 -3.87699E+01 +1.03390E+01 -2.92980E+01 +1.13260E+01 -8.27409E+00 +8.35601E+00 +7.20719E+00 -2.77427E+00
 +4.82363E+00 -1.44423E+01 -1.11413E+01 -1.51837E+01 -2.38124E+01 -3.23675E+00 -2.02739E+01 +9.70064E+00
 -3.98223E+00 +9.54775E+00 +9.59319E+00 -5.58679E+00 +9.23890E+00 -2.29513E+01 -9.31284E-01 -2.76503E+01
 -6.70739E+00 -1.70062E+01 +1.00933E+00 -1.98058E+00 +1.72864E+01 +5.04024E+00 +2.90764E+01 +2.53484E+00
 +2.84298E+01 -4.30169E-01 +1.87341E+01 +4.59095E+00 +8.75072E+00 +1.63068E+01 +2.81036E+00 +2.60648E+01
 -1.64568E+00 +2.76492E+01 -7.95676E+00 +2.28254E+01 -1.45089E+01 +1.72050E+01 -1.67969E+01 +1.28013E+01
 -1.41384E+01 +6.83551E+00 -1.16773E+01 -2.30321E+00 -1.42177E+01 -1.04548E+01 -1.92076E+01 -1.13785E+01
 -1.83170E+01 -4.91430E+00 -7.16415E+00 +8.45110E-01 +7.76351E+00 -2.43200E+00 +1.40887E+01 -1.33308E+01
 +6.35494E+00 -2.06725E+01 -7.13330E+00 -1.49958E+01 -1.17953E+01 +3.45268E-01 -1.50041E+00 +1.12043E+01
 +1.49810E+01 +6.82322E+00 +2.29249E+01 -8.41251E+00 +1.66605E+01 -1.84591E+01 +4.75608E+00 -1.12981E+01
 +1.40648E-01 +9.19044E+00 +6.10576E+00 +2.72018E+01 +1.32157E+01 +3.02749E+01 +9.97043E+00 +2.00069E+01
 -4.71752E+00 +8.10857E+00 -2.04831E+01 +3.51034E+00 -2.62202E+01 +4.71210E+00 -2.04635E+01 +4.29969E+00
 -1.08724E+01 -1.25403E+00 -4.95640E+00 -8.09534E+00 -3.22650E+00 -1.07206E+01 -1.64369E+00 -8.86056E+00
 +1.32550E+00 -6.99692E+00 +2.57835E+00 -7.79726E+00 -4.18195E-01 -8.41228E+00 -4.47703E+00 -4.72518E+00
 -3.19751E+00 +1.82569E+00 +5.04711E+00 +4.19260E+00 +1.35406E+01 -2.16194E+00 +1.36509E+01 -1.21942E+01
 +4.87937E+00 -1.46480E+01 -3.26673E+00 -3.71874E+00 -1.00037E+00 +1.34743E+01 +1.03834E+01 +2.27396E+01
 +1.84473E+01 +1.68433E+01 +1.20716E+01 +3.02252E+00 -6.32770E+00 -4.39118E+00 -2.21267E+01 +1.23353E+00
 -2.25798E+01 +1.22097E+01 -9.21751E+00 +1.50116E+01 +4.20566E+00 +4.65116E+00 +5.73549E+00 -1.03060E+01
 -3.55878E+00 -1.69522E+01 -1.22532E+01 -1.11511E+01 -1.11433E+01 -7.27793E-01 -1.90556E+00 +3.69525E+00
 +6.45583E+00 -5.08963E-01 +7.92665E+00 -6.90369E+00 +4.68581E+00 -8.38091E+00 +2.52829E+00 -4.62242E+00
 +3.36144E+00 -6.62305E-01 +4.01734E+00 +3.04924E-01 +1.92528E+00 +4.14764E-01 -4.63086E-01 +2.98057E+00
 +1.31672E+00 +6.76196E+00 +6.98100E+00 +6.74059E+00 +1.00858E+01 +1.03174E+00 +4.94830E+00 -4.89605E+00
 -5.72140E+00 -3.15868E+00 -1.21634E+01 +7.02505E+00 -7.73682E+00 +1.64489E+01 +3.02279E+00 +1.44385E+01
 +8.19442E+00 +5.22655E-01 +1.04552E+00 -1.36858E+01 -1.20191E+01 -1.55060E+01 -1.73460E+01 -4.07662E+00
 -8.16262E+00 +8.59232E+00 +7.94003E+00 +9.83586E+00 +1.63386E+01 -8.95020E-01 +9.98816E+00 -1.20140E+01
 -3.89308E+00 -1.21920E+01 -1.16739E+01 -1.80324E+00 -6.96497E+00 +8.35671E+00 +4.13871E+00 +8.87269E+00
 +1.06916E+01 +9.71002E-01 +8.17306E+00 -6.08893E+00 +1.43355E+00 -5.46361E+00 -2.39502E+00 +8.63722E-01
 -1.77991E+00 +5.86085E+00 -6.95829E-01 +5.74982E+00 -2.07363E+00 +2.97353E+00 -3.72889E+00 +1.42145E+00
 -1.80230E+00 +9.82950E-01 +3.13472E+00 -1.40133E+00 +5.67782E+00 -5.92103E+00 +2.06870E+00 -7.61658E+00
 -4.33030E+00 -1.77997E+00 -6.00781E+00 +8.89063E+00 -1.56350E-01 +1.47879E+01 +6.95035E+00 +8.75883E+00
 +6.15578E+00 -5.32798E+00 -3.87739E+00 -1.50043E+01 -1.36556E+01 -1.13079E+01 -1.20182E+01 +1.84890E+00
 +1.64366E+00 +1.13686E+01 +1.54754E+01 +8.30795E+00 +1.64147E+01 -3.08987E+00 +3.28668E+00 -1.02190E+01
 -1.19149E+01 -5.55061E+00 -1.59049E+01 +5.66038E+00 -6.77155E+00 +1.13343E+01 +5.35030E+00 +5.38583E+00
 +9.39161E+00 -6.35325E+00 +3.99501E+00 -1.28329E+01 -2.94691E+00 -9.16862E+00 -3.88628E+00 -5.02214E-01
 +8.95325E-01 +4.76150E+00 +5.39510E+00 +3.84302E+00 +5.64089E+00 +8.86778E-01 +3.46133E+00 +5.53024E-01
 +2.58192E+00 +2.45461E+00 +2.99412E+00 +2.90019E+00 +1.17556E+00 +8.35341E-01 -4.20839E+00 -2.49736E-01
 -8.90383E+00 +2.77117E+00 -7.23689E+00 +7.27025E+00 +5.06975E-01 +6.62741E+00 +6.77442E+00 -1.82018E+00
 +4.37105E+00 -1.19224E+01 -4.91802E+00 -1.37840E+01 -1.09881E+01 -4.33875E+00 -5.85019E+00 +8.20603E+00
 +7.03054E+00 +1.18922E+01 +1.51679E+01 +3.23490E+00 +9.58367E+00 -8.92826E+00 -5.49062E+00 -1.25196E+01
 -1.61924E+01 -4.83346E+00 -1.24554E+01 +4.78472E+00 +2.50505E+00 +5.11460E+00 +1.60874E+01 -4.77306E+00
 +1.88474E+01 -1.42895E+01 +1.23987E+01 -1.21872E+01 +5.30537E+00 +2.04419E+00 +2.84613E+00 +1.78359E+01
 +2.35194E+00 +2.37958E+01 -1.56859E+00 +1.74601E+01 -9.08410E+00 +5.31470E+00 -1.41306E+01 -4.95455E+00
 -1.12813E+01 -1.05406E+01 -2.15495E+00 -1.23676E+01 +6.11239E+00 -1.05891E+01 +8.28643E+00 -3.91740E+00
 +5.60408E+00 +6.28141E+00 +2.63707E+00 +1.35767E+01 +1.05407E+00 +1.09576E+01 -1.61473E+00 -1.39294E+00
 -6.77060E+00 -1.41925E+01 -1.02711E+01 -1.68454E+01 -5.60246E+00 -7.78174E+00 +7.78817E+00 +3.72551E+00
 +2.09352E+01 +6.87962E+00 +2.24298E+01 +3.46020E-01 +1.00356E+01 -6.76338E+00 -5.59733E+00 -4.97602E+00
 -1.02769E+01 +5.30183E+00 -2.14664E-02 +1.44318E+01 +1.47618E+01 +1.41538E+01 +1.92257E+01 +6.38623E+00
 +8.24525E+00 +6.54755E-01 -9.27567E+00 +3.26143E+00 -1.95991E+01 +1.03037E+01 -1.68340E+01 +1.21287E+01
 -6.55388E+00 +4.07823E+00 +1.74661E+00 -8.31615E+00 +4.03066E+00 -1.50571E+01 +3.29927E+00 -1.16872E+01
 +3.60437E+00 -2.82308E+00 +4.84104E+00 +3.72953E+00 +4.22698E+00 +4.88076E+00 +1.38722E+00 +3.53681E+00
 -3.08662E-01 +3.10890E+00 +1.83286E+00 +2.88231E+00 +5.55564E+00 -5.33725E-02 +5.77141E+00 -5.35172E+00
 +1.30728E+00 -8.08974E+00 -2.07164E+00 -4.02692E+00 +2.71271E+00 +4.75232E+00 +1.50727E+01 +1.12635E+01
 +2.48208E+01 +1.13444E+01 +2.09114E+01 +8.77532E+00 +2.67319E+00 +1.10039E+01 -1.82853E+01 +1.94478E+01
 -2.80818E+01 +2.55589E+01 -2.26208E+01 +1.85014E+01 -9.74193E+00 -2.54548E+00 -7.93970E-02 -2.46576E+01
 +3.04972E+00 -3.12328E+01 +4.26534E+00 -1.68311E+01 +7.93028E+00 +7.62127E+00 +1.15342E+01 +2.42909E+01
 +8.59104E+00 +2.32492E+01 -2.46538E+00 +8.86704E+00 -1.41256E+01 -6.61393E+00 -1.59281E+01 -1.41891E+01
 -4.77895E+00 -1.30155E+01 +1.15148E+01 -6.81026E+00 +2.12573E+01 +1.53685E+00 +1.90627E+01 +1.06291E+01
 +9.11372E+00 +1.77255E+01 -5.73357E-01 +1.84908E+01 -5.59525E+00 +1.14407E+01 -6.69556E+00 +1.78125E+00
 -5.76853E+00 -1.58484E+00 -2.94904E+00 +5.49515E+00 +1.36303E+00 +1.72494E+01 +3.34858E+00 +2.25619E+01
 -2.32750E+00 +1.55140E+01 -1.58159E+01 +1.12816E+00 -2.83725E+01 -9.80863E+00 -2.80536E+01 -1.13544E+01
 -1.11129E+01 -7.18014E+00 +1.23478E+01 -4.80784E+00 +2.56408E+01 -6.33121E+00 +1.98895E+01 -6.33337E+00
 +1.80401E+00 +7.20814E-01 -1.28824E+01 +1.23558E+01 -1.38171E+01 +1.90249E+01 -4.19165E+00 +1.37394E+01
 +4.54179E+00 +8.29072E-03 +4.83381E+00 -1.08056E+01 -6.14103E-01 -1.02081E+01 -3.70478E+00 -1.85624E-01
 -3.75815E-01 +9.93348E+00 +5.73849E+00 +1.33786E+01 +8.16684E+00 +1.18007E+01 +4.31239E+00 +1.14762E+01
 -3.41011E+00 +1.50659E+01 -1.17861E+01 +1.84448E+01 -1.99130E+01 +1.56375E+01 -2.72681E+01 +5.62617E+00
 -3.02883E+01 -6.65516E+00 -2.36679E+01 -1.54777E+01 -6.64049E+00 -1.89831E+01 +1.28729E+01 -1.82664E+01
 +2.26513E+01 -1.34141E+01 +1.64219E+01 -2.94472E+00 -6.92858E-02 +1.17652E+01 -1.39009E+01 +2.31208E+01
 -1.63591E+01 +2.14544E+01 -9.57363E+00 +4.62257E+00 -2.20926E+00 -1.69072E+01 +3.39929E-01 -2.67272E+01
 +3.97367E-01 -1.63789E+01 +2.89930E+00 +6.57601E+00 +7.58024E+00 +2.46980E+01 +8.17178E+00 +2.56832E+01
 -1.04648E-01 +1.21602E+01 -1.34871E+01 -2.43414E+00 -2.18190E+01 -6.83225E+00 -1.84458E+01 -8.33067E-01
 -7.42845E+00 +7.25612E+00 -5.33857E-02 +9.92243E+00 -3.92233E+00 +6.22173E+00 -1.57245E+01 -4.29726E-01
 -2.47384E+01 -7.54050E+00 -2.29094E+01 -1.48625E+01 -1.12275E+01 -2.11857E+01 +2.88262E+00 -2.24033E+01
 +1.27406E+01 -1.49093E+01 +1.62169E+01 -9.26241E-01 +1.38427E+01 +1.12666E+01 +5.98253E+00 +1.39987E+01
 -6.23039E+00 +7.29651E+00 -1.79582E+01 -1.41023E+00 -2.15398E+01 -4.97922E+00 -1.28314E+01 -3.37524E+00
 +3.07714E+00 -2.20715E+00 +1.42567E+01 -4.93116E+00 +1.19927E+01 -7.96636E+00 -9.58919E-01 -4.70264E+00
 -1.28153E+01 +5.95435E+00 -1.41939E+01 +1.64926E+01 -7.15048E+00 +1.73994E+01 -2.49998E+00 +6.78996E+00
 -8.14992E+00 -7.39448E+00 -2.05356E+01 -1.52302E+01 -2.79175E+01 -1.43978E+01 -2.19032E+01 -1.13419E+01
 -5.34646E+00 -1.30950E+01 +1.08443E+01 -1.89866E+01 +1.77705E+01 -2.13288E+01 +1.49926E+01 -1.41287E+01
 +8.04360E+00 -1.72858E-01 +1.59758E+00 +1.11022E+01 -3.62589E+00 +1.24107E+01 -8.06588E+00 +4.74010E+00
 -9.91712E+00 -4.91276E+00 -6.44848E+00 -1.06027E+01 +1.48415E+00 -1.13929E+01 +8.12410E+00 -9.17494E+00
 +7.65676E+00 -4.80541E+00 +4.03222E-01 +1.90849E+00 -6.96641E+00 +8.92924E+00 -8.20770E+00 +1.11011E+01
