 Created: 16-Jan-2021
 $NMID
 ID='D:\BASISSIMULATI'
 FMTDAT='(8E13.5)'
 VOLUME=   1.00000E+00
 TRAMP=   1.00000E+00
 $END
 +7.75115E+01 +1.11210E+00 +5.91200E+01 +1.66654E+01 +1.74669E+01 +3.11914E+01 -2.12736E+01 +3.98782E+01
 -3.72970E+01 +3.58086E+01 -2.97989E+01 +1.78578E+01 -1.25650E+01 -5.14181E+00 +6.97552E-01 -2.01936E+01
 +6.48406E+00 -2.11417E+01 +9.35295E+00 -1.35766E+01 +1.31421E+01 -8.08451E+00 +1.64870E+01 -8.67323E+00
 +1.64991E+01 -8.75510E+00 +1.42291E+01 +7.26967E-01 +1.40067E+01 +1.96081E+01 +1.70805E+01 +3.61476E+01
 +1.78495E+01 +3.73627E+01 +8.73581E+00 +2.18475E+01 -1.04270E+01 +1.77781E+00 -2.90005E+01 -8.29752E+00
 -3.33407E+01 -4.70110E+00 -1.90962E+01 +3.28065E+00 +4.23392E+00 +4.06122E+00 +2.14145E+01 -4.17202E+00
 +2.43930E+01 -1.21969E+01 +1.74091E+01 -9.86395E+00 +1.00644E+01 +3.46273E+00 +6.63844E+00 +1.86784E+01
 +3.21198E+00 +2.61515E+01 -5.08587E+00 +2.40352E+01 -1.58270E+01 +1.74836E+01 -2.01613E+01 +1.12427E+01
 -1.24579E+01 +5.00281E+00 +2.00011E+00 -3.37622E+00 +1.05546E+01 -1.16817E+01 +5.25421E+00 -1.30005E+01
 -8.83741E+00 -3.05889E+00 -1.80772E+01 +1.27569E+01 -1.33306E+01 +2.18072E+01 +1.38329E+00 +1.54210E+01
 +1.32000E+01 -1.92153E+00 +1.28990E+01 -1.54622E+01 +2.82135E+00 -1.32740E+01 -7.11599E+00 +2.88569E+00
 -1.00435E+01 +1.95539E+01 -7.89002E+00 +2.41746E+01 -7.03147E+00 +1.57355E+01 -9.91406E+00 +3.48208E+00
 -1.25336E+01 -3.64355E+00 -1.02029E+01 -5.11855E+00 -4.19608E+00 -6.54256E+00 -8.97552E-01 -1.08586E+01
 -4.04487E+00 -1.38602E+01 -9.19422E+00 -9.27316E+00 -7.65074E+00 +2.62863E+00 +3.51961E+00 +1.32829E+01
 +1.63497E+01 +1.38198E+01 +1.83042E+01 +4.50023E+00 +4.55154E+00 -4.88019E+00 -1.62816E+01 -4.70212E+00
 -2.92245E+01 +4.53688E+00 -2.62404E+01 +1.25065E+01 -1.26478E+01 +9.39445E+00 -7.48648E-01 -4.32206E+00
 +2.25838E+00 -1.85377E+01 -2.72137E-01 -2.34128E+01 -3.04822E-01 -1.79359E+01 +5.04462E+00 -8.76658E+00
 +1.06018E+01 -1.85655E+00 +9.71283E+00 +3.17972E+00 +2.25822E+00 +9.92529E+00 -5.16481E+00 +1.77867E+01
 -6.93536E+00 +1.99995E+01 -4.91422E+00 +1.04021E+01 -5.98680E+00 -8.18416E+00 -1.31469E+01 -2.39668E+01
 -2.03519E+01 -2.60282E+01 -1.77022E+01 -1.45548E+01 -2.16176E+00 -7.89162E-01 +1.75729E+01 +3.70198E+00
 +2.78379E+01 -2.20355E+00 +2.21023E+01 -9.10812E+00 +6.41165E+00 -7.39303E+00 -6.99403E+00 +2.96104E+00
 -1.09955E+01 +1.28982E+01 -8.40797E+00 +1.38830E+01 -6.36580E+00 +6.05772E+00 -7.48383E+00 -3.24736E+00
 -7.72619E+00 -8.02840E+00 -2.69447E+00 -9.22493E+00 +5.65480E+00 -1.15085E+01 +1.01768E+01 -1.57311E+01
 +6.61836E+00 -1.65036E+01 -6.90835E-01 -8.32662E+00 -2.65714E+00 +6.52358E+00 +4.67229E+00 +1.78787E+01
 +1.48126E+01 +1.66815E+01 +1.65210E+01 +4.17166E+00 +5.20053E+00 -8.63504E+00 -1.16828E+01 -1.12289E+01
 -2.10263E+01 -3.42296E+00 -1.60778E+01 +5.18982E+00 -2.07308E+00 +5.32770E+00 +9.65065E+00 -2.89403E+00
 +1.24303E+01 -1.09711E+01 +8.91468E+00 -1.13394E+01 +5.81693E+00 -4.75653E+00 +5.68487E+00 +1.75736E+00
 +5.05227E+00 +3.30256E+00 +3.70463E-01 +2.04624E+00 -5.99230E+00 +3.38820E+00 -7.36623E+00 +8.25712E+00
 -6.43628E-01 +1.09286E+01 +8.70927E+00 +5.41263E+00 +1.10370E+01 -6.59748E+00 +2.47118E+00 -1.56083E+01
 -1.00640E+01 -1.31689E+01 -1.47708E+01 -7.61781E-01 -6.36916E+00 +1.08652E+01 +8.53346E+00 +1.17787E+01
 +1.76280E+01 +2.28251E+00 +1.43862E+01 -7.83131E+00 +3.36614E+00 -9.20493E+00 -5.41630E+00 -1.69546E+00
 -6.49500E+00 +6.65733E+00 -2.89202E+00 +8.57912E+00 -7.93484E-01 +4.50703E+00 -1.87946E+00 +5.31308E-01
 -2.14493E+00 +5.50092E-01 +1.93693E+00 +1.97081E+00 +7.69924E+00 -2.58511E-01 +8.30930E+00 -6.34115E+00
 +7.72844E-01 -1.00349E+01 -9.21322E+00 -5.28408E+00 -1.18244E+01 +6.06474E+00 -3.08229E+00 +1.45114E+01
 +1.02145E+01 +1.18250E+01 +1.63195E+01 -3.15917E-01 +9.67359E+00 -1.12417E+01 -3.83488E+00 -1.13163E+01
 -1.27331E+01 -1.07109E+00 -1.08255E+01 +9.71401E+00 -2.10592E+00 +1.17783E+01 +4.60045E+00 +4.87145E+00
 +4.84193E+00 -3.32359E+00 +1.77547E+00 -5.82169E+00 +8.20330E-01 -2.91445E+00 +2.64258E+00 -1.19642E-01
 +2.73878E+00 -7.76626E-01 -2.13018E+00 -2.20942E+00 -8.56391E+00 +2.31393E-01 -9.12329E+00 +6.32813E+00
 -6.87705E-01 +9.87291E+00 +1.06965E+01 +5.28175E+00 +1.45779E+01 -5.20297E+00 +6.29672E+00 -1.22630E+01
 -7.83128E+00 -8.40428E+00 -1.60294E+01 +3.95560E+00 -1.19842E+01 +1.39850E+01 -3.07551E-01 +1.25622E+01
 +8.62332E+00 +9.91625E-01 +8.71630E+00 -1.04354E+01 +2.82517E+00 -1.24079E+01 -1.96052E+00 -4.92439E+00
 -2.35725E+00 +4.02411E+00 -1.32022E+00 +7.16470E+00 -2.88309E+00 +4.49522E+00 -6.14917E+00 +1.30581E+00
 -5.89064E+00 +9.83503E-01 +7.28949E-01 +1.30020E+00 +9.27624E+00 -1.73003E+00 +1.13699E+01 -7.43396E+00
 +3.40187E+00 -9.67446E+00 -8.69606E+00 -3.40869E+00 -1.43882E+01 +8.45001E+00 -8.68763E+00 +1.60708E+01
 +2.83017E+00 +1.16465E+01 +9.47605E+00 -2.56386E+00 +5.88908E+00 -1.55807E+01 -3.13941E+00 -1.75071E+01
 -8.12003E+00 -8.19089E+00 -4.58442E+00 +3.59359E+00 +3.04127E+00 +9.01152E+00 +6.92357E+00 +6.75122E+00
 +4.22584E+00 +2.13650E+00 -6.50594E-01 -4.57937E-03 -1.87779E+00 -2.04398E-01 +9.12541E-01 -1.88922E+00
 +2.48844E+00 -5.38769E+00 -1.40358E+00 -6.31653E+00 -8.40613E+00 -9.15176E-01 -1.14610E+01 +7.75440E+00
 -6.34607E+00 +1.07529E+01 +3.49121E+00 +1.86669E+00 +1.02625E+01 -1.45877E+01 +9.78519E+00 -2.55849E+01
 +5.35658E+00 -2.03478E+01 +3.34928E+00 -4.08756E-01 +5.53590E+00 +2.09547E+01 +6.87603E+00 +2.95350E+01
 +1.49308E+00 +2.12104E+01 -9.66154E+00 +3.52360E+00 -1.81992E+01 -1.22183E+01 -1.60501E+01 -1.97326E+01
 -3.72185E+00 -1.96514E+01 +9.70755E+00 -1.50358E+01 +1.50941E+01 -7.30485E+00 +1.15388E+01 +2.83376E+00
 +6.06225E+00 +1.20831E+01 +5.36209E+00 +1.48344E+01 +8.63455E+00 +8.38308E+00 +9.03330E+00 -2.54110E+00
 +1.90245E+00 -8.28039E+00 -9.31908E+00 -2.94480E+00 -1.59693E+01 +9.04141E+00 -1.27419E+01 +1.59310E+01
 -2.85218E+00 +9.31088E+00 +5.51572E+00 -7.60815E+00 +7.44330E+00 -2.23270E+01 +5.42356E+00 -2.39621E+01
 +5.42406E+00 -1.22726E+01 +9.67220E+00 +3.48525E+00 +1.41630E+01 +1.38348E+01 +1.32800E+01 +1.67128E+01
 +6.01601E+00 +1.63530E+01 -3.13739E+00 +1.60570E+01 -9.19405E+00 +1.36958E+01 -1.14261E+01 +5.03545E+00
 -1.23481E+01 -9.23993E+00 -1.25679E+01 -2.13376E+01 -8.42750E+00 -2.23281E+01 +3.64580E+00 -1.05619E+01
 +2.04104E+01 +6.17144E+00 +3.10836E+01 +1.71426E+01 +2.55278E+01 +1.74479E+01 +4.45460E+00 +1.07005E+01
 -1.88041E+01 +3.95208E+00 -2.81225E+01 +9.57929E-01 -1.78369E+01 +5.94437E-01 +2.62075E+00 +6.96771E-01
 +1.69706E+01 +1.56938E+00 +1.55589E+01 +4.66662E+00 +2.04430E+00 +8.58643E+00 -1.16377E+01 +8.43151E+00
 -1.59936E+01 +8.13371E-01 -1.02854E+01 -1.05636E+01 -2.54791E-01 -1.59479E+01 +8.21839E+00 -8.03229E+00
 +1.25412E+01 +9.85285E+00 +1.20951E+01 +2.47346E+01 +6.23619E+00 +2.46195E+01 -4.57960E+00 +9.31102E+00
 -1.61152E+01 -8.96998E+00 -2.10381E+01 -1.61054E+01 -1.45468E+01 -8.04427E+00 -1.95273E-02 +6.69002E+00
 +1.19812E+01 +1.55584E+01 +1.20120E+01 +1.28938E+01 +1.39716E-01 +3.12778E+00 -1.38503E+01 -5.26969E+00
 -1.90674E+01 -7.85777E+00 -1.28270E+01 -6.40512E+00 -1.82855E+00 -4.56330E+00 +5.34766E+00 -3.12362E+00
 +6.28063E+00 -1.65147E-01 +5.12094E+00 +5.06594E+00 +5.75330E+00 +1.00117E+01 +5.96923E+00 +1.12594E+01
 -3.53276E-01 +8.47469E+00 -1.51056E+01 +4.67459E+00 -3.09187E+01 +2.17942E+00 -3.56376E+01 -7.71617E-01
 -2.29017E+01 -7.94329E+00 +1.24294E+00 -1.91344E+01 +2.23158E+01 -2.72976E+01 +2.84943E+01 -2.34605E+01
 +1.88753E+01 -5.81700E+00 +2.25563E+00 +1.62003E+01 -1.10480E+01 +2.81914E+01 -1.62328E+01 +2.26091E+01
 -1.46645E+01 +5.21781E+00 -1.00396E+01 -1.01457E+01 -5.35914E+00 -1.37461E+01 -2.92439E+00 -7.69540E+00
 -4.79652E+00 -2.40450E+00 -1.09400E+01 -5.85073E+00 -1.66781E+01 -1.62316E+01 -1.40656E+01 -2.44461E+01
 +1.44915E+00 -2.29223E+01 +2.43797E+01 -1.18144E+01 +4.01904E+01 +2.54583E+00 +3.54684E+01 +1.37990E+01
 +9.52391E+00 +1.94317E+01 -2.32267E+01 +1.94894E+01 -4.32772E+01 +1.35908E+01 -4.03795E+01 +1.03077E+00
 -2.00440E+01 -1.60058E+01 +2.77774E+00 -3.08394E+01 +1.62348E+01 -3.58055E+01 +1.89786E+01 -2.83789E+01
 +1.71670E+01 -1.36366E+01 +1.60559E+01 -1.07819E-03 +1.52517E+01 +7.74780E+00 +1.13724E+01 +1.11254E+01
 +3.63975E+00 +1.37952E+01 -4.41165E+00 +1.56371E+01 -8.63437E+00 +1.21152E+01 -8.54885E+00 +1.20640E-01
 -7.08980E+00 -1.61617E+01 -6.36760E+00 -2.66318E+01 -4.77704E+00 -2.37765E+01 +8.66473E-01 -1.01855E+01
 +1.05697E+01 +2.91005E+00 +1.95648E+01 +5.44558E+00 +2.22590E+01 -2.43475E+00 +1.76989E+01 -1.07842E+01
 +1.04495E+01 -9.31069E+00 +5.68240E+00 +3.13493E+00 +3.81579E+00 +1.77250E+01 +8.08732E-01 +2.35784E+01
 -5.99627E+00 +1.65682E+01 -1.30744E+01 +1.39286E+00 -1.29490E+01 -1.34280E+01 -1.94449E+00 -2.16893E+01
 +1.45120E+01 -2.15281E+01 +2.52284E+01 -1.37510E+01 +2.27813E+01 -4.74072E-01 +1.01994E+01 +1.40740E+01
 -1.80118E+00 +2.31802E+01 -4.42685E+00 +2.08923E+01 +1.93740E+00 +7.50971E+00 +9.38643E+00 -8.35912E+00
 +1.06774E+01 -1.50443E+01 +5.53214E+00 -7.14418E+00 -5.97480E-01 +9.37754E+00 -2.89127E+00 +2.16764E+01
 -1.50454E+00 +2.06193E+01 +1.22065E-01 +8.01705E+00 +6.96711E-02 -5.88189E+00 -2.38986E-02 -1.17543E+01
 +2.26891E+00 -8.36121E+00 +6.40796E+00 -1.36279E+00 +8.97916E+00 +3.69484E+00 +7.67554E+00 +6.37372E+00
 +4.31597E+00 +9.63564E+00 +2.92807E+00 +1.44546E+01 +4.72818E+00 +1.75282E+01 +5.88857E+00 +1.48566E+01
 +1.32851E+00 +6.97084E+00 -9.02436E+00 -4.87116E-01 -1.84489E+01 -2.00001E+00 -1.88845E+01 +2.19628E+00
 -8.70401E+00 +6.23462E+00 +5.07916E+00 +4.59763E+00 +1.27919E+01 -2.18560E+00 +1.06314E+01 -7.98211E+00
 +3.43808E+00 -7.03038E+00 -8.08247E-01 +7.93828E-01 +9.98517E-01 +1.05266E+01 +4.57507E+00 +1.71916E+01
 +3.31762E+00 +1.95876E+01 -4.67667E+00 +1.91127E+01 -1.47913E+01 +1.60069E+01 -2.05663E+01 +8.33027E+00
 -1.94721E+01 -4.57335E+00 -1.39106E+01 -1.82903E+01 -7.31714E+00 -2.46552E+01 -5.32622E-01 -1.83028E+01
 +7.33175E+00 -2.33324E+00 +1.50908E+01 +1.31327E+01 +1.80819E+01 +1.89793E+01 +1.18477E+01 +1.44017E+01
 -2.55954E+00 +6.58586E+00 -1.77005E+01 +3.27176E+00 -2.51353E+01 +5.60517E+00 -2.22482E+01 +8.04937E+00
