 Created: 16-Jan-2021
 $NMID
 ID='D:\BASISSIMULATI'
 FMTDAT='(8E13.5)'
 VOLUME=   1.00000E+00
 TRAMP=   1.00000E+00
 $END
 +3.13285E+01 +1.95547E-01 +1.78966E+01 +2.28958E+01 -7.62918E+00 +2.26664E+01 -1.90322E+01 +1.03503E+00
 -5.15080E+00 -1.83916E+01 +1.87079E+01 -1.46268E+01 +2.69024E+01 +8.94196E+00 +1.01578E+01 +2.82708E+01
 -1.49452E+01 +2.37585E+01 -2.33672E+01 +5.06484E-01 -7.60326E+00 -1.72117E+01 +1.47522E+01 -1.12871E+01
 +1.95211E+01 +1.15391E+01 +1.08424E+00 +2.69324E+01 -2.19692E+01 +1.83769E+01 -2.63326E+01 -5.77937E+00
 -8.15288E+00 -2.12131E+01 +1.32069E+01 -1.29593E+01 +1.54832E+01 +9.23164E+00 -3.40710E+00 +2.13040E+01
 -2.34531E+01 +9.99536E+00 -2.35366E+01 -1.35365E+01 -3.31781E+00 -2.55315E+01 +1.66473E+01 -1.43489E+01
 +1.64150E+01 +7.65564E+00 -2.74495E+00 +1.72304E+01 -1.99643E+01 +4.43007E+00 -1.66466E+01 -1.72693E+01
 +4.30149E+00 -2.52228E+01 +2.17407E+01 -1.11679E+01 +1.83860E+01 +1.04165E+01 -1.39522E+00 +1.75820E+01
 -1.64218E+01 +3.68899E+00 -1.08497E+01 -1.59715E+01 +9.52105E+00 -2.03260E+01 +2.35569E+01 -4.40784E+00
 +1.68608E+01 +1.57289E+01 -3.44976E+00 +1.98953E+01 -1.64214E+01 +4.66890E+00 -9.11573E+00 -1.33542E+01
 +1.01698E+01 -1.50374E+01 +2.08336E+01 +1.47895E+00 +1.14651E+01 +1.91323E+01 -8.50700E+00 +1.98656E+01
 -1.88816E+01 +3.28432E+00 -9.70310E+00 -1.32386E+01 +8.66146E+00 -1.27981E+01 +1.65989E+01 +3.61477E+00
 +5.66820E+00 +1.84698E+01 -1.28833E+01 +1.60988E+01 -2.00776E+01 -1.16105E+00 -8.91888E+00 -1.57004E+01
 +8.62421E+00 -1.30717E+01 +1.43270E+01 +3.19296E+00 +2.61675E+00 +1.55939E+01 -1.39432E+01 +1.09960E+01
 -1.79775E+01 -5.91007E+00 -5.31292E+00 -1.77971E+01 +1.09864E+01 -1.28088E+01 +1.44289E+01 +3.35017E+00
 +2.14030E+00 +1.36721E+01 -1.24897E+01 +7.60806E+00 -1.39683E+01 -8.21725E+00 -7.07329E-01 -1.72171E+01
 +1.36498E+01 -1.01482E+01 +1.46122E+01 +5.54170E+00 +1.76125E+00 +1.37612E+01 -1.11637E+01 +6.52430E+00
 -1.07443E+01 -8.04727E+00 +2.32739E+00 -1.44860E+01 +1.43172E+01 -6.07487E+00 +1.29009E+01 +8.46366E+00
 -2.05370E-01 +1.43224E+01 -1.13742E+01 +5.97333E+00 -9.37631E+00 -7.41277E+00 +3.16391E+00 -1.17907E+01
 +1.28575E+01 -2.79795E+00 +9.60572E+00 +1.00413E+01 -3.12487E+00 +1.34878E+01 -1.22471E+01 +4.27768E+00
 -8.75279E+00 -7.82539E+00 +3.18386E+00 -1.04312E+01 +1.08980E+01 -1.29675E+00 +6.48172E+00 +9.70196E+00
 -5.26556E+00 +1.10803E+01 -1.21645E+01 +1.56402E+00 -7.36712E+00 -8.93908E+00 +3.81598E+00 -9.84924E+00
 +9.76600E+00 -7.53327E-01 +4.65523E+00 +8.53688E+00 -5.80853E+00 +8.38566E+00 -1.06411E+01 -8.24241E-01
 -5.00243E+00 -9.45402E+00 +5.09078E+00 -8.80028E+00 +9.32250E+00 +6.06181E-02 +3.76520E+00 +7.75923E+00
 -5.38068E+00 +6.52113E+00 -8.53031E+00 -1.97922E+00 -2.62424E+00 -8.72789E+00 +6.03711E+00 -6.86941E+00
 +8.61683E+00 +1.41027E+00 +2.84106E+00 +7.51348E+00 -4.99672E+00 +5.46247E+00 -6.83597E+00 -2.15881E+00
 -1.11549E+00 -7.24977E+00 +5.97050E+00 -4.68899E+00 +7.15096E+00 +2.62546E+00 +1.50083E+00 +7.13187E+00
 -4.96458E+00 +4.50770E+00 -5.75561E+00 -2.14243E+00 -4.87666E-01 -5.85008E+00 +5.09472E+00 -3.04366E+00
 +5.28513E+00 +3.05825E+00 +1.62096E-01 +6.11534E+00 -4.86246E+00 +3.24671E+00 -4.83543E+00 -2.30492E+00
 -1.98542E-01 -4.84908E+00 +4.04254E+00 -2.12216E+00 +3.66569E+00 +2.70537E+00 -6.11321E-01 +4.61682E+00
 -4.24265E+00 +1.90056E+00 -3.69736E+00 -2.42090E+00 +1.22543E-01 -4.00222E+00 +3.17781E+00 -1.59805E+00
 +2.57995E+00 +2.00312E+00 -6.79614E-01 +3.12971E+00 -3.11172E+00 +9.25897E-01 -2.42139E+00 -2.12191E+00
 +3.93576E-01 -2.99878E+00 +2.41728E+00 -1.15182E+00 +1.88144E+00 +1.30069E+00 -3.01544E-01 +1.97713E+00
 -1.81423E+00 +5.39726E-01 -1.35275E+00 -1.32118E+00 +3.33625E-01 -1.82760E+00 +1.53179E+00 -7.72930E-01
 +1.32700E+00 +6.25682E-01 +2.26178E-01 +1.14897E+00 -6.63353E-01 +6.30048E-01 -7.39580E-01 -2.32252E-01
 -1.95020E-01 -7.32700E-01 +4.60001E-01 -6.62105E-01 +8.57517E-01 -1.73183E-01 +8.12681E-01 +4.83566E-01
 +2.60511E-01 +9.70293E-01 -5.79280E-01 +8.69190E-01 -1.08284E+00 +3.72412E-02 -6.34649E-01 -9.79123E-01
 +6.12920E-01 -1.17903E+00 +1.54988E+00 -9.40000E-02 +1.05019E+00 +1.44555E+00 -7.13450E-01 +1.85412E+00
 -2.09997E+00 +4.13333E-01 -1.51589E+00 -1.68798E+00 +7.62746E-01 -2.28308E+00 +2.53078E+00 -4.78012E-01
 +1.78008E+00 +2.11722E+00 -1.02763E+00 +2.77358E+00 -3.09945E+00 +5.05238E-01 -2.07407E+00 -2.59421E+00
 +1.31799E+00 -3.25584E+00 +3.67743E+00 -4.82953E-01 +2.35227E+00 +3.09588E+00 -1.58468E+00 +3.70598E+00
 -4.12515E+00 +4.23357E-01 -2.40150E+00 -3.54470E+00 +2.09452E+00 -3.96189E+00 +4.74555E+00 -6.41280E-02
 +2.54174E+00 +4.32226E+00 -2.54004E+00 +4.54502E+00 -5.28665E+00 +7.88013E-02 -2.62559E+00 -4.60795E+00
 +2.92011E+00 -4.50956E+00 +5.56542E+00 +5.73655E-01 +2.26134E+00 +5.50712E+00 -3.86263E+00 +4.99171E+00
 -6.47454E+00 -7.70551E-01 -2.62675E+00 -5.97099E+00 +3.90327E+00 -5.08779E+00 +6.28327E+00 +1.20010E+00
 +1.76019E+00 +6.41124E+00 -5.19238E+00 +4.88024E+00 -7.28257E+00 -2.16016E+00 -2.03130E+00 -7.55718E+00
 +5.36371E+00 -5.57296E+00 +7.20906E+00 +1.94936E+00 +1.38548E+00 +7.21386E+00 -6.16200E+00 +4.50444E+00
 -7.40401E+00 -3.65383E+00 -6.69068E-01 -8.83792E+00 +7.32773E+00 -5.42909E+00 +8.27976E+00 +3.32091E+00
 +1.03131E+00 +8.40455E+00 -6.94006E+00 +4.39290E+00 -7.14013E+00 -4.68677E+00 +9.79167E-01 -9.28734E+00
 +9.16525E+00 -4.26145E+00 +8.80023E+00 +5.54290E+00 +5.57113E-04 +1.00812E+01 -8.23171E+00 +4.56277E+00
 -7.24975E+00 -5.32912E+00 +2.09107E+00 -9.13099E+00 +1.00566E+01 -2.51572E+00 +8.05762E+00 +7.95517E+00
 -2.24842E+00 +1.14443E+01 -1.04187E+01 +4.15126E+00 -7.99916E+00 -6.49215E+00 +2.51266E+00 -9.36680E+00
 +1.00249E+01 -1.29720E+00 +6.33348E+00 +9.39888E+00 -5.15251E+00 +1.13915E+01 -1.27127E+01 +2.20457E+00
 -8.45589E+00 -8.96246E+00 +3.28796E+00 -1.06457E+01 +1.02543E+01 -1.12905E+00 +4.98233E+00 +9.53946E+00
 -7.22445E+00 +9.87381E+00 -1.36029E+01 -9.86216E-01 -7.19949E+00 -1.21373E+01 +5.69593E+00 -1.21279E+01
 +1.18939E+01 -9.79321E-01 +5.03097E+00 +9.62037E+00 -7.61684E+00 +8.38493E+00 -1.25309E+01 -3.69393E+00
 -4.04882E+00 -1.41550E+01 +9.53286E+00 -1.19461E+01 +1.44122E+01 +9.43840E-01 +5.66813E+00 +1.13454E+01
 -7.43317E+00 +8.54288E+00 -1.09404E+01 -4.43959E+00 -7.95721E-01 -1.37944E+01 +1.27374E+01 -9.25700E+00
 +1.56099E+01 +5.05567E+00 +4.66253E+00 +1.47297E+01 -8.89909E+00 +1.00045E+01 -1.10457E+01 -3.93513E+00
 +4.05466E-01 -1.21945E+01 +1.33376E+01 -5.66380E+00 +1.38455E+01 +9.33673E+00 +7.97374E-01 +1.74583E+01
 -1.27963E+01 +1.02794E+01 -1.32180E+01 -4.78660E+00 -3.92322E-01 -1.20629E+01 +1.18808E+01 -3.93346E+00
 +1.02297E+01 +1.10793E+01 -4.26034E+00 +1.70505E+01 -1.69966E+01 +7.25001E+00 -1.49886E+01 -8.69449E+00
 -4.54074E-01 -1.46815E+01 +1.13473E+01 -4.90690E+00 +7.95659E+00 +9.96662E+00 -7.20879E+00 +1.38154E+01
 -1.82655E+01 +1.89249E+00 -1.33610E+01 -1.40700E+01 +2.88015E+00 -1.79548E+01 +1.40280E+01 -6.06032E+00
 +8.91186E+00 +8.92791E+00 -6.66246E+00 +1.10714E+01 -1.58509E+01 -2.16849E+00 -8.30967E+00 -1.71504E+01
 +8.91189E+00 -1.81736E+01 +1.85751E+01 -3.87586E+00 +1.11690E+01 +1.12241E+01 -5.10892E+00 +1.17715E+01
 -1.28056E+01 -2.39276E+00 -3.40242E+00 -1.59671E+01 +1.37022E+01 -1.40851E+01 +2.08745E+01 +2.12651E+00
 +1.06043E+01 +1.65928E+01 -6.58589E+00 +1.49601E+01 -1.30161E+01 -4.23238E-01 -2.26600E+00 -1.28799E+01
 +1.40600E+01 -8.75780E+00 +1.83586E+01 +8.27323E+00 +5.39218E+00 +2.09355E+01 -1.21537E+01 +1.62923E+01
 -1.67950E+01 -7.34473E-01 -4.45196E+00 -1.24181E+01 +1.12525E+01 -6.67026E+00 +1.31535E+01 +1.03166E+01
 -1.53183E+00 +2.04544E+01 -1.82117E+01 +1.25940E+01 -2.00488E+01 -5.79573E+00 -5.50023E+00 -1.63245E+01
 +1.00290E+01 -8.80192E+00 +1.02043E+01 +8.12707E+00 -5.19654E+00 +1.59600E+01 -1.99951E+01 +5.63026E+00
 -1.84363E+01 -1.29783E+01 -1.62874E+00 -2.12532E+01 +1.35488E+01 -1.12114E+01 +1.19855E+01 +6.17040E+00
 -3.92417E+00 +1.23708E+01 -1.67602E+01 +6.29059E-01 -1.22299E+01 -1.69707E+01 +5.89863E+00 -2.20512E+01
 +1.96597E+01 -9.08445E+00 +1.55593E+01 +8.81932E+00 -1.38312E+00 +1.35330E+01 -1.28642E+01 +7.78592E-01
 -6.37301E+00 -1.54179E+01 +1.17499E+01 -1.73433E+01 +2.28862E+01 -2.07326E+00 +1.55155E+01 +1.54407E+01
 -2.78344E+00 +1.79028E+01 -1.32150E+01 +3.65636E+00 -5.33003E+00 -1.16160E+01 +1.21042E+01 -1.12480E+01
 +2.02507E+01 +5.03101E+00 +9.83876E+00 +2.07953E+01 -9.16120E+00 +2.00115E+01 -1.78980E+01 +3.71776E+00
 -8.23856E+00 -1.10740E+01 +8.80506E+00 -9.09958E+00 +1.45852E+01 +7.27654E+00 +2.26251E+00 +2.05500E+01
 -1.60638E+01 +1.63254E+01 -2.19482E+01 -1.68971E+00 -9.78057E+00 -1.55463E+01 +7.41359E+00 -1.17259E+01
 +1.15687E+01 +4.83223E+00 -1.61322E+00 +1.59363E+01 -1.82217E+01 +9.12279E+00 -2.06532E+01 -9.36360E+00
 -5.93914E+00 -2.10814E+01 +1.11885E+01 -1.45764E+01 +1.36444E+01 +2.74926E+00 -2.62152E-01 +1.24060E+01
 -1.51433E+01 +4.08796E+00 -1.46133E+01 -1.36307E+01 +1.64527E+00 -2.22689E+01 +1.75773E+01 -1.26855E+01
 +1.74738E+01 +5.44565E+00 +2.27020E+00 +1.37485E+01 -1.15152E+01 +4.25908E+00 -9.03083E+00 -1.23626E+01
 +7.46790E+00 -1.80127E+01 +2.10255E+01 -6.01240E+00 +1.76621E+01 +1.19771E+01 +8.81141E-01 +1.81262E+01
 -1.20509E+01 +6.95879E+00 -8.09853E+00 -9.04850E+00 +8.03967E+00 -1.25424E+01 +1.89232E+01 +6.38079E-01
 +1.25711E+01 +1.71950E+01 -5.10418E+00 +2.02637E+01 -1.65129E+01 +6.93433E+00 -1.06919E+01 -8.81448E+00
 +5.38263E+00 -1.07292E+01 +1.41750E+01 +2.83838E+00 +5.88403E+00 +1.73248E+01 -1.14139E+01 +1.71904E+01
 -2.02467E+01 +2.07049E+00 -1.19268E+01 -1.29294E+01 +4.50824E+00 -1.29929E+01 +1.18072E+01 +1.06181E+00
 +2.46511E+00 +1.37722E+01 -1.35679E+01 +1.12069E+01 -1.93485E+01 -4.57161E+00 -8.57938E+00 -1.77495E+01
 +7.93032E+00 -1.52525E+01 +1.35967E+01 -2.65055E-01 +3.28505E+00 +1.12209E+01 -1.14868E+01 +7.10519E+00
 -1.46576E+01 -8.30549E+00 -2.33611E+00 -1.89073E+01 +1.32524E+01 -1.36021E+01 +1.65643E+01 +2.23768E+00
 +4.85786E+00 +1.24803E+01 -9.10458E+00 +7.03982E+00 -1.04464E+01 -7.74919E+00 +2.37893E+00 -1.58776E+01
 +1.61135E+01 -8.36517E+00 +1.65784E+01 +7.48748E+00 +3.37146E+00 +1.58101E+01 -9.85806E+00 +8.67085E+00
