 Created: 16-Jan-2021
 $NMID
 ID='D:\BASISSIMULATI'
 FMTDAT='(8E13.5)'
 VOLUME=   1.00000E+00
 TRAMP=   1.00000E+00
 $END
 +4.77851E+01 +5.89402E-01 +4.47414E+01 +1.60794E+01 +3.66206E+01 +2.94923E+01 +2.45261E+01 +3.91872E+01
 +1.00699E+01 +4.40504E+01 -4.86426E+00 +4.36404E+01 -1.83919E+01 +3.82306E+01 -2.88899E+01 +2.87466E+01
 -3.52120E+01 +1.66119E+01 -3.68251E+01 +3.52698E+00 -3.38519E+01 -8.77904E+00 -2.70166E+01 -1.87891E+01
 -1.75079E+01 -2.53934E+01 -6.78543E+00 -2.80145E+01 +3.63921E+00 -2.66480E+01 +1.24116E+01 -2.18200E+01
 +1.85052E+01 -1.44737E+01 +2.13314E+01 -5.80787E+00 +2.07797E+01 +2.90451E+00 +1.71892E+01 +1.04903E+01
 +1.12622E+01 +1.60190E+01 +3.94053E+00 +1.88976E+01 -3.73629E+00 +1.89118E+01 -1.07670E+01 +1.62140E+01
 -1.63037E+01 +1.12676E+01 -1.97327E+01 +4.76277E+00 -2.07192E+01 -2.48348E+00 -1.92139E+01 -9.62584E+00
 -1.54313E+01 -1.58788E+01 -9.80455E+00 -2.05867E+01 -2.92880E+00 -2.32725E+01 +4.50214E+00 -2.36672E+01
 +1.17588E+01 -2.17202E+01 +1.81364E+01 -1.75958E+01 +2.30111E+01 -1.16558E+01 +2.58899E+01 -4.43084E+00
 +2.64549E+01 +3.42049E+00 +2.45965E+01 +1.11636E+01 +2.04340E+01 +1.80509E+01 +1.43171E+01 +2.33923E+01
 +6.80546E+00 +2.66275E+01 -1.37579E+00 +2.73937E+01 -9.40498E+00 +2.55772E+01 -1.64505E+01 +2.13419E+01
 -2.17674E+01 +1.51259E+01 -2.47906E+01 +7.60288E+00 -2.52131E+01 -3.89529E-01 -2.30339E+01 -7.94890E+00
 -1.85681E+01 -1.42212E+01 -1.24138E+01 -1.85132E+01 -5.37837E+00 -2.03873E+01 +1.62753E+00 -1.97240E+01
 +7.71344E+00 -1.67401E+01 +1.21324E+01 -1.19593E+01 +1.43853E+01 -6.13864E+00 +1.42899E+01 -1.58749E-01
 +1.20040E+01 +5.10331E+00 +7.99791E+00 +8.90133E+00 +2.98099E+00 +1.07270E+01 -2.20725E+00 +1.03808E+01
 -6.72385E+00 +7.99546E+00 -9.84801E+00 +4.00991E+00 -1.10859E+01 -9.02883E-01 -1.02395E+01 -5.94128E+00
 -7.42886E+00 -1.02972E+01 -3.06732E+00 -1.32759E+01 +2.20733E+00 -1.43956E+01 +7.63182E+00 -1.34518E+01
 +1.24316E+01 -1.05391E+01 +1.59319E+01 -6.02760E+00 +1.76498E+01 -5.01326E-01 +1.73535E+01 +5.33175E+00
 +1.50841E+01 +1.07423E+01 +1.11362E+01 +1.50794E+01 +6.00592E+00 +1.78532E+01 +3.13283E-01 +1.87898E+01
 -5.28528E+00 +1.78528E+01 -1.01832E+01 +1.52313E+01 -1.38958E+01 +1.12993E+01 -1.61102E+01 +6.55422E+00
 -1.67077E+01 +1.54617E+00 -1.57604E+01 -3.19273E+00 -1.35038E+01 -7.20885E+00 -1.02925E+01 -1.01713E+01
 -6.54808E+00 -1.18961E+01 -2.70410E+00 -1.23510E+01 +8.42122E-01 -1.16417E+01 +3.76840E+00 -9.98557E+00
 +5.85345E+00 -7.67605E+00 +6.98921E+00 -5.04438E+00 +7.18066E+00 -2.42166E+00 +6.53481E+00 -1.05129E-01
 +5.24152E+00 +1.66913E+00 +3.54839E+00 +2.74592E+00 +1.73209E+00 +3.06230E+00 +6.83062E-02 +2.65028E+00
 -1.19765E+00 +1.63093E+00 -1.87747E+00 +2.00159E-01 -1.86139E+00 -1.39323E+00 -1.13239E+00 -2.87565E+00
 +2.28912E-01 -3.98092E+00 +2.05032E+00 -4.48352E+00 +4.08527E+00 -4.22918E+00 +6.04048E+00 -3.15878E+00
 +7.61142E+00 -1.32190E+00 +8.52176E+00 +1.12273E+00 +8.56190E+00 +3.92120E+00 +7.62106E+00 +6.75196E+00
 +5.70821E+00 +9.26425E+00 +2.95794E+00 +1.11227E+01 -3.80326E-01 +1.20525E+01 -3.96925E+00 +1.18777E+01
 -7.42346E+00 +1.05492E+01 -1.03574E+01 +8.15505E+00 -1.24348E+01 +4.91376E+00 -1.34120E+01 +1.14951E+00
 -1.31709E+01 -2.74701E+00 -1.17343E+01 -6.36697E+00 -9.26356E+00 -9.33433E+00 -6.03823E+00 -1.13524E+01
 -2.41967E+00 -1.22397E+01 +1.19473E+00 -1.19503E+01 +4.42145E+00 -1.05766E+01 +6.93785E+00 -8.33394E+00
 +8.52000E+00 -5.52980E+00 +9.06691E+00 -2.52274E+00 +8.60827E+00 +3.24458E-01 +7.29537E+00 +2.69024E+00
 +5.37697E+00 +4.33303E+00 +3.16367E+00 +5.11842E+00 +9.85756E-01 +5.03206E+00 -8.50142E-01 +4.17681E+00
 -2.10003E+00 +2.75537E+00 -2.61268E+00 +1.04068E+00 -2.34738E+00 -6.61880E-01 -1.37740E+00 -2.05576E+00
 +1.21022E-01 -2.89296E+00 +1.89273E+00 -3.00741E+00 +3.63788E+00 -2.33791E+00 +5.05214E+00 -9.37782E-01
 +5.86809E+00 +1.03009E+00 +5.89263E+00 +3.31258E+00 +5.03561E+00 +5.59793E+00 +3.32580E+00 +7.55593E+00
 +9.11622E-01 +8.88196E+00 -1.95395E+00 +9.33911E+00 -4.94306E+00 +8.79281E+00 -7.69378E+00 +7.23306E+00
 -9.85701E+00 +4.78063E+00 -1.11434E+01 +1.67581E+00 -1.13634E+01 -1.74949E+00 -1.04555E+01 -5.11289E+00
 -8.49721E+00 -8.03083E+00 -5.69717E+00 -1.01689E+01 -2.36964E+00 -1.12867E+01 +1.10638E+00 -1.12695E+01
 +4.33705E+00 -1.01439E+01 +6.96570E+00 -8.07277E+00 +8.71935E+00 -5.33202E+00 +9.44316E+00 -2.27182E+00
 +9.11761E+00 +7.32044E-01 +7.85657E+00 +3.32896E+00 +5.88662E+00 +5.23922E+00 +3.51157E+00 +6.28810E+00
 +1.06771E+00 +6.42368E+00 -1.12302E+00 +5.71671E+00 -2.79514E+00 +4.34335E+00 -3.77112E+00 +2.55464E+00
 -3.97843E+00 +6.37920E-01 -3.45107E+00 -1.12342E+00 -2.31675E+00 -2.48604E+00 -7.73168E-01 -3.27391E+00
 +9.41977E-01 -3.39415E+00 +2.58227E+00 -2.84089E+00 +3.92089E+00 -1.68858E+00 +4.77300E+00 -7.75736E-02
 +5.01069E+00 +1.80470E+00 +4.57086E+00 +3.74388E+00 +3.45727E+00 +5.51790E+00 +1.73832E+00 +6.91435E+00
 -4.57720E-01 +7.74580E+00 -2.94956E+00 +7.86409E+00 -5.51202E+00 +7.17405E+00 -7.88857E+00 +5.64690E+00
 -9.80865E+00 +3.33231E+00 -1.10108E+01 +3.66927E-01 -1.12709E+01 -3.02375E+00 -1.04347E+01 -6.53351E+00
 -8.44852E+00 -9.79603E+00 -5.38509E+00 -1.24189E+01 -1.45703E+00 -1.40291E+01 +2.98728E+00 -1.43257E+01
 +7.48864E+00 -1.31318E+01 +1.15231E+01 -1.04377E+01 +1.45657E+01 -6.42607E+00 +1.61640E+01 -1.47160E+00
 +1.60112E+01 +3.88906E+00 +1.40064E+01 +9.01568E+00 +1.02900E+01 +1.32459E+01 +5.24641E+00 +1.59891E+01
 -5.30770E-01 +1.68183E+01 -6.30942E+00 +1.55458E+01 -1.13163E+01 +1.22672E+01 -1.48483E+01 +7.36597E+00
 -1.63808E+01 +1.47340E+00 -1.56544E+01 -4.61244E+00 -1.27261E+01 -1.00376E+01 -7.97347E+00 -1.40172E+01
 -2.05014E+00 -1.59556E+01 +4.20381E+00 -1.55408E+01 +9.88245E+00 -1.27993E+01 +1.41482E+01 -8.09917E+00
 +1.63586E+01 -2.10113E+00 +1.61642E+01 +4.33606E+00 +1.35644E+01 +1.02819E+01 +8.90830E+00 +1.48722E+01
 +2.84352E+00 +1.74367E+01 -3.78047E+00 +1.75974E+01 -1.00387E+01 +1.53212E+01 -1.50667E+01 +1.09197E+01
 -1.81841E+01 +4.99794E+00 -1.89880E+01 -1.64033E+00 -1.74016E+01 -8.11279E+00 -1.36734E+01 -1.35861E+01
 -8.32769E+00 -1.73904E+01 -2.07870E+00 -1.91032E+01 +4.27847E+00 -1.85932E+01 +9.98035E+00 -1.60186E+01
 +1.43944E+01 -1.17845E+01 +1.70909E+01 -6.46904E+00 +1.78796E+01 -7.32981E-01 +1.68088E+01 +4.77240E+00
 +1.41325E+01 +9.48461E+00 +1.02534E+01 +1.29863E+01 +5.65646E+00 +1.50339E+01 +8.41605E-01 +1.55583E+01
 -3.73107E+00 +1.46443E+01 -7.67997E+00 +1.24944E+01 -1.07217E+01 +9.38939E+00 -1.26748E+01 +5.65048E+00
 -1.34520E+01 +1.61046E+00 -1.30484E+01 -2.40548E+00 -1.15304E+01 -6.09065E+00 -9.02884E+00 -9.16352E+00
 -5.73733E+00 -1.13750E+01 -1.91218E+00 -1.25207E+01 +2.13009E+00 -1.24592E+01 +6.02314E+00 -1.11356E+01
 +9.37310E+00 -8.60602E+00 +1.17944E+01 -5.05524E+00 +1.29563E+01 -8.01541E-01 +1.26348E+01 +3.71803E+00
 +1.07602E+01 +7.98467E+00 +7.45066E+00 +1.14555E+01 +3.02230E+00 +1.36357E+01 -2.03042E+00 +1.41549E+01
 -7.08517E+00 +1.28344E+01 -1.14688E+01 +9.73339E+00 -1.45509E+01 +5.16217E+00 -1.58403E+01 -3.42433E-01
 -1.50671E+01 -6.07926E+00 -1.22381E+01 -1.12757E+01 -7.65097E+00 -1.51976E+01 -1.86524E+00 -1.72602E+01
 +4.36940E+00 -1.71207E+01 +1.02171E+01 -1.47377E+01 +1.48768E+01 -1.03859E+01 +1.77011E+01 -4.62258E+00
 +1.82936E+01 +1.79028E+00 +1.65695E+01 +7.99598E+00 +1.27685E+01 +1.31686E+01 +7.41827E+00 +1.66337E+01
 +1.25383E+00 +1.79651E+01 -4.89309E+00 +1.70423E+01 -1.02176E+01 +1.40607E+01 -1.40579E+01 +9.49323E+00
 -1.59856E+01 +4.01070E+00 -1.58575E+01 -1.62421E+00 -1.38214E+01 -6.67252E+00 -1.02768E+01 -1.05246E+01
 -5.80085E+00 -1.27797E+01 -1.05040E+00 -1.32886E+01 +3.33932E+00 -1.21545E+01 +6.84526E+00 -9.69426E+00
 +9.12141E+00 -6.37168E+00 +1.00299E+01 -2.71327E+00 +9.63607E+00 +7.76092E-01 +8.17275E+00 +3.68438E+00
 +5.98190E+00 +5.73989E+00 +3.44721E+00 +6.82968E+00 +9.29911E-01 +6.98939E+00 -1.28120E+00 +6.37020E+00
 -2.99856E+00 +5.19210E+00 -4.14144E+00 +3.69429E+00 -4.72096E+00 +2.09270E+00 -4.81115E+00 +5.51937E-01
 -4.51472E+00 -8.25001E-01 -3.93209E+00 -1.99023E+00 -3.14074E+00 -2.93237E+00 -2.18839E+00 -3.65284E+00
 -1.09988E+00 -4.14462E+00 +1.05870E-01 -4.37984E+00 +1.39516E+00 -4.30985E+00 +2.70196E+00 -3.87775E+00
 +3.91971E+00 -3.04029E+00 +4.90647E+00 -1.79291E+00 +5.50351E+00 -1.90987E-01 +5.56460E+00 +1.63950E+00
 +4.98983E+00 +3.50629E+00 +3.75629E+00 +5.17149E+00 +1.93815E+00 +6.38599E+00 -2.89808E-01 +6.93196E+00
 -2.66778E+00 +6.66515E+00 -4.88458E+00 +5.54858E+00 -6.62426E+00 +3.67000E+00 -7.61774E+00 +1.23847E+00
 -7.69017E+00 -1.44076E+00 -6.79484E+00 -4.00967E+00 -5.02690E+00 -6.11223E+00 -2.61353E+00 -7.45109E+00
 +1.18437E-01 -7.83621E+00 +2.79223E+00 -7.21659E+00 +5.03986E+00 -5.68944E+00 +6.55967E+00 -3.48478E+00
 +7.16282E+00 -9.28323E-01 +6.80078E+00 +1.61098E+00 +5.56934E+00 +3.77957E+00 +3.68890E+00 +5.29385E+00
 +1.46510E+00 +5.98166E+00 -7.63076E-01 +5.80380E+00 -2.67811E+00 +4.85289E+00 -4.03249E+00 +3.33062E+00
 -4.68278E+00 +1.50849E+00 -4.60433E+00 -3.20398E-01 -3.88525E+00 -1.88961E+00 -2.70210E+00 -2.99937E+00
 -1.28296E+00 -3.54194E+00 +1.34760E-01 -3.50918E+00 +1.34383E+00 -2.98240E+00 +2.19725E+00 -2.10814E+00
 +2.62445E+00 -1.06533E+00 +2.63202E+00 -3.09951E-02 +2.29076E+00 +8.49198E-01 +1.71288E+00 +1.48057E+00
 +1.02500E+00 +1.82664E+00 +3.42832E-01 +1.90420E+00 -2.47782E-01 +1.76875E+00 -7.00265E-01 +1.49473E+00
 -1.00657E+00 +1.15542E+00 -1.18786E+00 +8.07056E-01 -1.27994E+00 +4.80229E-01 -1.31766E+00 +1.79703E-01
 -1.32231E+00 -1.08279E-01 -1.29511E+00 -4.03903E-01 -1.21806E+00 -7.20551E-01 -1.06153E+00 -1.05422E+00
 -7.96423E-01 -1.37851E+00 -4.07470E-01 -1.64674E+00 +9.60044E-02 -1.80083E+00 +6.74892E-01 -1.78490E+00
 +1.26242E+00 -1.56049E+00 +1.77364E+00 -1.11958E+00 +2.12052E+00 -4.92104E-01 +2.22964E+00 +2.54117E-01
 +2.05864E+00 +1.02169E+00 +1.60774E+00 +1.69883E+00 +9.23707E-01 +2.17872E+00 +9.49973E-02 +2.37922E+00
 -7.61395E-01 +2.25889E+00 -1.51896E+00 +1.82633E+00 -2.06317E+00 +1.14040E+00 -2.31129E+00 +3.01542E-01
 -2.22687E+00 -5.64649E-01 -1.82608E+00 -1.32833E+00 -1.17483E+00 -1.87710E+00 -3.77188E-01 -2.13436E+00
