 Created: 16-Jan-2021
 $NMID
 ID='D:\BASISSIMULATI'
 FMTDAT='(8E13.5)'
 VOLUME=   1.00000E+00
 TRAMP=   1.00000E+00
 $END
 +5.78124E+01 +8.34853E-01 +4.05269E+01 +2.30629E+01 +1.80652E+00 +3.43682E+01 -3.16998E+01 +2.87806E+01
 -3.83053E+01 +8.28347E+00 -1.63030E+01 -1.65550E+01 +1.64995E+01 -3.10367E+01 +3.72223E+01 -2.50921E+01
 +3.43625E+01 -1.06621E+00 +1.39761E+01 +2.60821E+01 -7.49452E+00 +3.81823E+01 -1.64230E+01 +2.70518E+01
 -1.06071E+01 +1.32652E+00 +1.95901E+00 -1.93856E+01 +1.10158E+01 -1.94159E+01 +1.13452E+01 +5.41993E-01
 +4.56898E+00 +2.38113E+01 -3.92991E+00 +3.11089E+01 -9.06992E+00 +1.62802E+01 -8.27501E+00 -8.53894E+00
 -1.89277E+00 -2.27377E+01 +6.88831E+00 -1.40585E+01 +1.26061E+01 +1.13413E+01 +9.82777E+00 +3.37406E+01
 -2.76134E+00 +3.54906E+01 -1.93214E+01 +1.47019E+01 -2.87368E+01 -1.37152E+01 -2.20468E+01 -2.98245E+01
 -6.05641E-01 -2.34180E+01 +2.22994E+01 -4.47058E-01 +2.96102E+01 +2.27066E+01 +1.35253E+01 +3.14349E+01
 -1.68623E+01 +2.20237E+01 -4.05954E+01 +2.06252E+00 -3.99943E+01 -1.62061E+01 -1.45342E+01 -2.35983E+01
 +1.78688E+01 -1.79311E+01 +3.39016E+01 -3.49451E+00 +2.23989E+01 +1.18386E+01 -7.33965E+00 +1.99795E+01
 -3.29572E+01 +1.59937E+01 -3.61683E+01 +1.04886E+00 -1.60950E+01 -1.68461E+01 +1.12203E+01 -2.63708E+01
 +2.58888E+01 -2.01080E+01 +1.89855E+01 -9.02134E-01 -2.15957E+00 +1.83371E+01 -2.10818E+01 +2.29998E+01
 -2.49269E+01 +8.04680E+00 -1.27813E+01 -1.67732E+01 +5.61587E+00 -3.30658E+01 +1.80748E+01 -2.76349E+01
 +1.80335E+01 -3.38778E+00 +7.28387E+00 +2.19271E+01 -6.80454E+00 +2.89671E+01 -1.61762E+01 +1.19184E+01
 -1.58961E+01 -1.66208E+01 -5.89783E+00 -3.51561E+01 +8.96369E+00 -2.98095E+01 +2.05797E+01 -4.80009E+00
 +2.13781E+01 +2.11873E+01 +9.28251E+00 +2.95050E+01 -9.35486E+00 +1.53111E+01 -2.22684E+01 -9.79572E+00
 -1.92072E+01 -2.74193E+01 -2.40243E-01 -2.60288E+01 +2.24870E+01 -8.23124E+00 +3.24182E+01 +1.27593E+01
 +2.09685E+01 +2.33764E+01 -4.91252E+00 +1.84808E+01 -2.67797E+01 +3.08779E+00 -2.81930E+01 -1.24862E+01
 -7.52102E+00 -1.94090E+01 +2.02507E+01 -1.46462E+01 +3.46041E+01 -1.43360E+00 +2.50409E+01 +1.29666E+01
 -1.05003E+00 +2.07060E+01 -2.42988E+01 +1.70674E+01 -2.82035E+01 +3.40758E+00 -1.12251E+01 -1.25136E+01
 +1.29606E+01 -2.02986E+01 +2.65230E+01 -1.36555E+01 +2.07202E+01 +4.20953E+00 +1.30392E+00 +2.13578E+01
 -1.70707E+01 +2.49362E+01 -2.20851E+01 +1.10475E+01 -1.18814E+01 -1.11200E+01 +5.12684E+00 -2.51557E+01
 +1.72093E+01 -1.97138E+01 +1.71693E+01 +2.14068E+00 +5.95330E+00 +2.43749E+01 -9.11771E+00 +2.98197E+01
 -1.91554E+01 +1.34855E+01 -1.84218E+01 -1.31679E+01 -7.03588E+00 -3.06295E+01 +8.97464E+00 -2.60229E+01
 +2.03545E+01 -2.72503E+00 +1.94718E+01 +2.23780E+01 +5.35063E+00 +3.15826E+01 -1.43905E+01 +1.91044E+01
 -2.71458E+01 -5.53421E+00 -2.33823E+01 -2.52436E+01 -4.01906E+00 -2.76918E+01 +1.88117E+01 -1.30492E+01
 +2.94139E+01 +7.62189E+00 +1.98160E+01 +2.08993E+01 -3.73047E+00 +1.97073E+01 -2.46061E+01 +6.60685E+00
 -2.78071E+01 -9.26052E+00 -1.11845E+01 -1.84041E+01 +1.28224E+01 -1.62424E+01 +2.65292E+01 -4.94448E+00
 +2.03275E+01 +8.30336E+00 -2.80309E-01 +1.53589E+01 -1.92406E+01 +1.16899E+01 -2.23420E+01 -6.73006E-01
 -7.76376E+00 -1.37261E+01 +1.31036E+01 -1.81004E+01 +2.46725E+01 -9.49483E+00 +1.87339E+01 +7.37741E+00
 -4.97075E-02 +2.09213E+01 -1.82007E+01 +2.04520E+01 -2.33002E+01 +4.52262E+00 -1.22725E+01 -1.67398E+01
 +7.30892E+00 -2.80033E+01 +2.28714E+01 -1.98563E+01 +2.49675E+01 +3.53894E+00 +1.26412E+01 +2.65337E+01
 -6.62847E+00 +3.28969E+01 -2.16206E+01 +1.76772E+01 -2.37290E+01 -8.91607E+00 -1.16857E+01 -2.86807E+01
 +7.63422E+00 -2.83716E+01 +2.28547E+01 -8.87250E+00 +2.45900E+01 +1.59594E+01 +1.13417E+01 +2.95025E+01
 -8.97116E+00 +2.38640E+01 -2.35035E+01 +4.49319E+00 -2.27597E+01 -1.46946E+01 -7.28675E+00 -2.14000E+01
 +1.22231E+01 -1.28256E+01 +2.21174E+01 +3.62862E+00 +1.55045E+01 +1.63713E+01 -2.59708E+00 +1.75296E+01
 -1.87869E+01 +7.49777E+00 -2.11544E+01 -6.20383E+00 -8.18390E+00 -1.42947E+01 +1.00935E+01 -1.16491E+01
 +1.96651E+01 -2.92545E-01 +1.31100E+01 +1.20267E+01 -4.83077E+00 +1.67369E+01 -2.08414E+01 +9.98236E+00
 -2.29623E+01 -4.52720E+00 -9.37189E+00 -1.74004E+01 +1.03960E+01 -1.94783E+01 +2.24340E+01 -8.25676E+00
 +1.83356E+01 +9.62581E+00 +8.88148E-01 +2.21421E+01 -1.81335E+01 +1.99333E+01 -2.61219E+01 +3.26982E+00
 -1.79511E+01 -1.73263E+01 +9.75124E-01 -2.78508E+01 +1.85372E+01 -2.05902E+01 +2.37460E+01 +7.19113E-02
 +1.35571E+01 +2.02744E+01 -5.42327E+00 +2.61660E+01 -2.11666E+01 +1.36047E+01 -2.37053E+01 -8.88584E+00
 -1.13441E+01 -2.60419E+01 +8.19024E+00 -2.64279E+01 +2.24919E+01 -1.01712E+01 +2.23398E+01 +1.14344E+01
 +7.77282E+00 +2.39043E+01 -1.16882E+01 +1.93698E+01 -2.31202E+01 +1.51633E+00 -1.87857E+01 -1.73810E+01
 -1.47502E+00 -2.49099E+01 +1.72161E+01 -1.66088E+01 +2.47135E+01 +1.52771E+00 +1.60891E+01 +1.74035E+01
 -2.54569E+00 +2.08770E+01 -1.83133E+01 +1.02137E+01 -2.05290E+01 -7.08664E+00 -8.03478E+00 -1.94193E+01
 +1.02075E+01 -1.87321E+01 +2.15527E+01 -5.74672E+00 +1.84841E+01 +1.06307E+01 +3.61944E+00 +1.93289E+01
 -1.24205E+01 +1.45955E+01 -1.85607E+01 -7.93300E-02 -1.08733E+01 -1.43379E+01 +4.94204E+00 -1.81099E+01
 +1.76995E+01 -8.66079E+00 +1.84841E+01 +7.41307E+00 +6.71614E+00 +1.87457E+01 -9.50692E+00 +1.71973E+01
 -1.89405E+01 +3.66180E+00 -1.48647E+01 -1.24584E+01 +2.37413E-01 -1.97868E+01 +1.61770E+01 -1.29362E+01
 +2.18463E+01 +3.68106E+00 +1.28332E+01 +1.88313E+01 -5.30477E+00 +2.21251E+01 -2.05105E+01 +1.10796E+01
 -2.23079E+01 -7.18854E+00 -9.07200E+00 -2.06938E+01 +1.05895E+01 -2.04995E+01 +2.34991E+01 -6.58485E+00
 +2.08618E+01 +1.21249E+01 +4.33586E+00 +2.35235E+01 -1.50473E+01 +2.01516E+01 -2.44085E+01 +4.06859E+00
 -1.77610E+01 -1.43833E+01 +8.16659E-02 -2.32176E+01 +1.70199E+01 -1.66465E+01 +2.19906E+01 +9.86416E-01
 +1.22766E+01 +1.79243E+01 -5.07465E+00 +2.27815E+01 -1.83619E+01 +1.22899E+01 -1.91176E+01 -6.32707E+00
 -7.44111E+00 -2.02029E+01 +8.50528E+00 -1.97385E+01 +1.81362E+01 -5.38077E+00 +1.53375E+01 +1.26257E+01
 +2.23314E+00 +2.14827E+01 -1.23676E+01 +1.49623E+01 -1.87105E+01 -2.16498E+00 -1.24075E+01 -1.76133E+01
 +2.60989E+00 -2.04242E+01 +1.64332E+01 -8.73169E+00 +1.95387E+01 +9.10192E+00 +9.24346E+00 +2.06098E+01
 -8.05183E+00 +1.80099E+01 -2.07024E+01 +3.38114E+00 -1.96013E+01 -1.31634E+01 -4.75902E+00 -2.06231E+01
 +1.41251E+01 -1.43961E+01 +2.39951E+01 +1.10508E+00 +1.75834E+01 +1.57864E+01 -1.13383E+00 +2.05083E+01
 -1.93792E+01 +1.26418E+01 -2.44820E+01 -2.66563E+00 -1.29289E+01 -1.58866E+01 +7.08692E+00 -1.89132E+01
 +2.15621E+01 -9.88853E+00 +2.07066E+01 +5.63341E+00 +5.73415E+00 +1.79262E+01 -1.24280E+01 +1.90338E+01
 -2.12773E+01 +7.97269E+00 -1.55327E+01 -8.21409E+00 -2.70549E-01 -1.87104E+01 +1.34001E+01 -1.61552E+01
 +1.64439E+01 -2.04869E+00 +7.79362E+00 +1.37871E+01 -5.75692E+00 +1.98893E+01 -1.48574E+01 +1.15266E+01
 -1.39273E+01 -5.44829E+00 -4.30392E+00 -1.85398E+01 +7.27123E+00 -1.78103E+01 +1.32328E+01 -3.52619E+00
 +9.79048E+00 +1.37340E+01 -9.59719E-01 +2.08724E+01 -1.23039E+01 +1.21723E+01 -1.67969E+01 -6.26807E+00
 -1.08058E+01 -2.10149E+01 +2.77436E+00 -2.12822E+01 +1.55788E+01 -6.83773E+00 +1.86578E+01 +1.20173E+01
 +8.62849E+00 +2.21005E+01 -9.06809E+00 +1.67040E+01 -2.27949E+01 -1.37879E-01 -2.23447E+01 -1.70607E+01
 -6.59451E+00 -2.33864E+01 +1.46690E+01 -1.58630E+01 +2.69046E+01 +7.66054E-02 +2.11091E+01 +1.45028E+01
 +7.47761E-01 +1.92103E+01 -2.02100E+01 +1.20856E+01 -2.71433E+01 -2.34365E+00 -1.53582E+01 -1.57706E+01
 +6.56434E+00 -2.05985E+01 +2.31913E+01 -1.39814E+01 +2.35187E+01 +4.08868E-01 +8.58985E+00 +1.40410E+01
 -1.00236E+01 +1.83041E+01 -1.92261E+01 +1.00701E+01 -1.37465E+01 -5.59085E+00 +9.98637E-01 -1.80846E+01
 +1.39165E+01 -1.83686E+01 +1.65967E+01 -5.74587E+00 +8.64789E+00 +1.09386E+01 -3.24161E+00 +1.93381E+01
 -1.07988E+01 +1.28743E+01 -9.68371E+00 -3.84127E+00 -1.48438E+00 -1.80596E+01 +8.19310E+00 -1.85298E+01
 +1.34438E+01 -4.36531E+00 +1.12057E+01 +1.39658E+01 +2.61164E+00 +2.25562E+01 -7.57938E+00 +1.47873E+01
 -1.32213E+01 -3.55767E+00 -1.01241E+01 -1.87832E+01 +9.12778E-01 -1.97439E+01 +1.35276E+01 -6.06317E+00
 +1.90677E+01 +1.20635E+01 +1.24635E+01 +2.18619E+01 -3.25363E+00 +1.72633E+01 -1.78256E+01 +2.55019E+00
 -2.05166E+01 -1.16704E+01 -8.33134E+00 -1.63373E+01 +1.07673E+01 -9.61963E+00 +2.29395E+01 +3.04743E+00
 +1.86882E+01 +1.34698E+01 +4.73532E-01 +1.58963E+01 -1.85769E+01 +9.69891E+00 -2.43578E+01 -1.14618E+00
 -1.25570E+01 -1.05306E+01 +7.95194E+00 -1.31695E+01 +2.18524E+01 -7.16231E+00 +1.90067E+01 +4.59739E+00
 +1.90383E+00 +1.52139E+01 -1.66597E+01 +1.73462E+01 -2.34767E+01 +8.18387E+00 -1.45098E+01 -7.50654E+00
 +2.95467E+00 -1.93775E+01 +1.64801E+01 -1.83269E+01 +1.75848E+01 -3.68684E+00 +6.90836E+00 +1.50570E+01
 -7.55738E+00 +2.43519E+01 -1.67141E+01 +1.66168E+01 -1.60190E+01 -3.43425E+00 -7.13137E+00 -2.16242E+01
 +4.28431E+00 -2.47099E+01 +1.21322E+01 -1.04853E+01 +1.26517E+01 +1.04156E+01 +5.73717E+00 +2.26022E+01
 -5.00258E+00 +1.76057E+01 -1.35507E+01 +2.74313E-03 -1.43869E+01 -1.66250E+01 -6.11252E+00 -2.03649E+01
 +6.62629E+00 -9.70727E+00 +1.52457E+01 +6.21861E+00 +1.30035E+01 +1.53905E+01 +5.92478E-01 +1.19909E+01
 -1.32614E+01 -1.25864E-01 -1.77122E+01 -1.14558E+01 -8.31653E+00 -1.43157E+01 +8.65781E+00 -7.79446E+00
 +2.02884E+01 +2.83034E+00 +1.69139E+01 +1.05940E+01 +1.83599E-01 +1.13029E+01 -1.75535E+01 +5.20559E+00
 -2.25404E+01 -4.06427E+00 -1.04209E+01 -1.16176E+01 +1.01126E+01 -1.33133E+01 +2.38791E+01 -7.50406E+00
 +2.08174E+01 +3.61061E+00 +3.47791E+00 +1.40849E+01 -1.53074E+01 +1.69464E+01 -2.23681E+01 +8.87728E+00
 -1.37425E+01 -6.28213E+00 +3.30556E+00 -1.87339E+01 +1.65682E+01 -1.90717E+01 +1.79037E+01 -5.67594E+00
 +8.10690E+00 +1.28740E+01 -5.12568E+00 +2.32573E+01 -1.33950E+01 +1.73336E+01 -1.28455E+01 -1.11632E+00
 -5.29649E+00 -1.86296E+01 +4.16191E+00 -2.21066E+01 +1.04332E+01 -8.96693E+00 +1.05480E+01 +1.07291E+01
 +4.47988E+00 +2.20496E+01 -4.80411E+00 +1.67309E+01 -1.21782E+01 -6.65675E-01 -1.26787E+01 -1.67017E+01
