 Created: 16-Jan-2021
 $NMID
 ID='D:\BASISSIMULATI'
 FMTDAT='(8E13.5)'
 VOLUME=   1.00000E+00
 TRAMP=   1.00000E+00
 $END
 +9.11689E+01 +1.27891E+00 +6.78590E+01 +5.51548E+01 +1.40379E+01 +7.62701E+01 -3.72564E+01 +5.31674E+01
 -5.53344E+01 +1.86530E+00 -3.09838E+01 -4.47746E+01 +1.84188E+01 -5.80889E+01 +6.07515E+01 -3.13868E+01
 +6.99040E+01 +1.67944E+01 +4.18901E+01 +5.55461E+01 -3.80911E+00 +6.17223E+01 -3.79162E+01 +3.41465E+01
 -4.05826E+01 -6.96955E+00 -1.35142E+01 -3.43189E+01 +2.24986E+01 -3.15875E+01 +4.23169E+01 -3.39896E+00
 +3.32373E+01 +2.89628E+01 +2.73602E+00 +4.25646E+01 -2.74914E+01 +2.82016E+01 -3.66589E+01 -4.00769E+00
 -1.88143E+01 -3.20969E+01 +1.36008E+01 -3.73517E+01 +3.85410E+01 -1.67777E+01 +3.92885E+01 +1.52111E+01
 +1.54983E+01 +3.66755E+01 -1.67923E+01 +3.27842E+01 -3.59050E+01 +5.49340E+00 -2.87376E+01 -2.79096E+01
 +8.50891E-01 -4.61725E+01 +3.47446E+01 -3.77682E+01 +5.23358E+01 -8.06344E+00 +4.35867E+01 +2.44259E+01
 +1.50549E+01 +3.99884E+01 -1.47025E+01 +3.00609E+01 -2.70885E+01 +2.17474E+00 -1.50136E+01 -2.53305E+01
 +1.31828E+01 -3.51178E+01 +3.95745E+01 -2.15412E+01 +4.81870E+01 +6.41108E+00 +3.47795E+01 +3.14081E+01
 +8.84650E+00 +3.89455E+01 -1.30385E+01 +2.61843E+01 -1.79499E+01 +3.04214E+00 -4.48112E+00 -1.47639E+01
 +1.70492E+01 -1.59483E+01 +3.18048E+01 -5.46199E-01 +3.01287E+01 +2.07391E+01 +1.34449E+01 +3.39520E+01
 -7.22291E+00 +3.10159E+01 -1.88332E+01 +1.46504E+01 -1.48627E+01 -3.90639E+00 +7.56360E-01 -1.25968E+01
 +1.66703E+01 -6.45479E+00 +2.18688E+01 +9.43159E+00 +1.29358E+01 +2.36658E+01 -3.95255E+00 +2.63153E+01
 -1.74364E+01 +1.54663E+01 -1.86854E+01 -1.73276E+00 -7.21944E+00 -1.40810E+01 +8.98508E+00 -1.39087E+01
 +1.90406E+01 -2.12353E+00 +1.65245E+01 +1.25977E+01 +3.71266E+00 +1.98169E+01 -1.01135E+01 +1.44240E+01
 -1.50584E+01 +2.63772E-02 -7.33555E+00 -1.35908E+01 +8.20925E+00 -1.71511E+01 +2.14319E+01 -8.16770E+00
 +2.37761E+01 +7.41158E+00 +1.40375E+01 +1.92669E+01 -8.72528E-01 +1.96890E+01 -1.06398E+01 +8.75299E+00
 -8.51848E+00 -5.79088E+00 +4.15624E+00 -1.37946E+01 +1.89334E+01 -9.55847E+00 +2.59927E+01 +4.38084E+00
 +2.07532E+01 +1.90476E+01 +6.87529E+00 +2.51420E+01 -6.33614E+00 +1.92990E+01 -1.03152E+01 +6.24939E+00
 -3.03504E+00 -4.54330E+00 +9.72009E+00 -5.43632E+00 +1.84500E+01 +4.14934E+00 +1.65708E+01 +1.73864E+01
 +5.01580E+00 +2.48310E+01 -8.37932E+00 +2.10521E+01 -1.43201E+01 +8.52126E+00 -8.60712E+00 -3.97204E+00
 +4.73680E+00 -7.37357E+00 +1.60183E+01 +1.22119E+00 +1.64859E+01 +1.62374E+01 +4.54842E+00 +2.71191E+01
 -1.27089E+01 +2.54420E+01 -2.39299E+01 +1.08861E+01 -2.10317E+01 -8.06130E+00 -4.88417E+00 -1.93592E+01
 +1.47855E+01 -1.53071E+01 +2.54181E+01 +2.11728E+00 +1.97718E+01 +2.21285E+01 +8.64336E-01 +3.18394E+01
 -1.96429E+01 +2.45573E+01 -2.87299E+01 +4.27304E+00 -2.03430E+01 -1.66680E+01 +6.30927E-01 -2.53213E+01
 +2.13749E+01 -1.63730E+01 +2.92544E+01 +4.46820E+00 +1.98247E+01 +2.41306E+01 -4.28630E-01 +3.05383E+01
 -1.83702E+01 +2.02686E+01 -2.27113E+01 +5.72426E-01 -1.11967E+01 -1.54996E+01 +8.15790E+00 -1.76305E+01
 +2.25053E+01 -4.84331E+00 +2.26442E+01 +1.40967E+01 +8.94992E+00 +2.66559E+01 -9.09688E+00 +2.48686E+01
 -1.93824E+01 +1.05118E+01 -1.52746E+01 -6.26211E+00 +2.26135E-02 -1.38496E+01 +1.57352E+01 -7.01447E+00
 +2.08411E+01 +9.62508E+00 +1.15208E+01 +2.47472E+01 -6.25590E+00 +2.79796E+01 -2.07326E+01 +1.69132E+01
 -2.22743E+01 -1.23109E+00 -9.87486E+00 -1.44122E+01 +8.10903E+00 -1.38432E+01 +1.95148E+01 +7.67882E-02
 +1.65228E+01 +1.79661E+01 +9.44016E-01 +2.77002E+01 -1.69221E+01 +2.25395E+01 -2.51413E+01 +5.70758E+00
 -1.81594E+01 -1.16861E+01 -6.08964E-01 -1.80460E+01 +1.56937E+01 -9.10394E+00 +1.96288E+01 +9.09742E+00
 +8.30420E+00 +2.41212E+01 -1.08243E+01 +2.54315E+01 -2.47634E+01 +1.15744E+01 -2.36303E+01 -8.59316E+00
 -7.42604E+00 -2.15759E+01 +1.36361E+01 -1.81795E+01 +2.56231E+01 +1.69019E-01 +2.00467E+01 +2.19875E+01
 -3.06937E-01 +3.29903E+01 -2.28120E+01 +2.54057E+01 -3.29377E+01 +3.28479E+00 -2.36372E+01 -1.97631E+01
 -1.06577E-01 -2.90928E+01 +2.32569E+01 -1.83913E+01 +3.18544E+01 +6.14246E+00 +2.01270E+01 +2.95559E+01
 -4.87765E+00 +3.74942E+01 -2.79125E+01 +2.51973E+01 -3.50997E+01 +4.14632E-01 -2.25556E+01 -2.15835E+01
 +1.39319E+00 -2.76517E+01 +2.17141E+01 -1.48884E+01 +2.62538E+01 +7.89751E+00 +1.32159E+01 +2.61492E+01
 -8.17592E+00 +2.89526E+01 -2.40470E+01 +1.57461E+01 -2.49479E+01 -3.87387E+00 -1.16789E+01 -1.68842E+01
 +5.80782E+00 -1.54918E+01 +1.54650E+01 -1.97626E+00 +1.13017E+01 +1.33490E+01 -2.82933E+00 +1.94857E+01
 -1.62338E+01 +1.23328E+01 -1.89862E+01 -2.63051E+00 -8.89710E+00 -1.43092E+01 +6.92450E+00 -1.38339E+01
 +1.69784E+01 -8.87897E-01 +1.34093E+01 +1.58416E+01 -2.31744E+00 +2.44680E+01 -2.00376E+01 +1.80940E+01
 -2.75242E+01 -1.62426E-01 -1.87763E+01 -1.88058E+01 +1.59594E+00 -2.53411E+01 +2.09481E+01 -1.46048E+01
 +2.66199E+01 +7.48067E+00 +1.42368E+01 +2.73365E+01 -9.15329E+00 +3.22694E+01 -2.92708E+01 +1.86676E+01
 -3.35491E+01 -5.47330E+00 -1.91393E+01 -2.54115E+01 +5.17088E+00 -2.88823E+01 +2.44053E+01 -1.38256E+01
 +2.67802E+01 +1.03090E+01 +1.10668E+01 +2.85186E+01 -1.27286E+01 +2.96743E+01 -2.97632E+01 +1.34312E+01
 -2.97273E+01 -9.73228E+00 -1.32199E+01 -2.52986E+01 +8.87326E+00 -2.39306E+01 +2.25025E+01 -7.23501E+00
 +1.94392E+01 +1.35420E+01 +2.35841E+00 +2.49349E+01 -1.71686E+01 +1.99367E+01 -2.63548E+01 +2.33618E+00
 -1.95006E+01 -1.60060E+01 -1.53261E+00 -2.30623E+01 +1.54464E+01 -1.45043E+01 +2.02458E+01 +3.60284E+00
 +9.95600E+00 +1.89756E+01 -8.23857E+00 +2.13369E+01 -2.19472E+01 +9.22933E+00 -2.18803E+01 -9.08206E+00
 -8.04789E+00 -2.11854E+01 +1.02670E+01 -1.88481E+01 +2.07332E+01 -3.54170E+00 +1.62420E+01 +1.45220E+01
 -2.97162E-01 +2.32118E+01 -1.78564E+01 +1.66113E+01 -2.46382E+01 -9.71216E-01 -1.59827E+01 -1.78203E+01
 +2.45575E+00 -2.26098E+01 +1.84154E+01 -1.19897E+01 +2.11772E+01 +7.11290E+00 +8.73464E+00 +2.20449E+01
 -1.08101E+01 +2.28262E+01 -2.45826E+01 +8.80860E+00 -2.34706E+01 -1.08514E+01 -8.18237E+00 -2.32389E+01
 +1.12082E+01 -2.02323E+01 +2.19292E+01 -3.87763E+00 +1.69583E+01 +1.49820E+01 -3.59416E-01 +2.38965E+01
 -1.85700E+01 +1.70318E+01 -2.57172E+01 -1.02732E+00 -1.72255E+01 -1.83844E+01 +1.15750E+00 -2.37411E+01
 +1.72634E+01 -1.38340E+01 +2.06024E+01 +4.51276E+00 +9.26040E+00 +1.90211E+01 -8.95314E+00 +2.01389E+01
 -2.17976E+01 +7.31643E+00 -2.07588E+01 -1.07467E+01 -6.64274E+00 -2.19779E+01 +1.10623E+01 -1.89728E+01
 +2.05661E+01 -3.86150E+00 +1.56198E+01 +1.31832E+01 -3.71487E-01 +2.07503E+01 -1.66530E+01 +1.37682E+01
 -2.22702E+01 -3.14866E+00 -1.33244E+01 -1.87620E+01 +4.44086E+00 -2.26319E+01 +1.94024E+01 -1.20057E+01
 +2.16795E+01 +6.34047E+00 +9.62142E+00 +2.04991E+01 -9.06994E+00 +2.11863E+01 -2.23067E+01 +7.80082E+00
 -2.14366E+01 -1.11423E+01 -6.85248E+00 -2.34795E+01 +1.22320E+01 -2.12256E+01 +2.36843E+01 -5.71110E+00
 +2.02234E+01 +1.32673E+01 +4.06343E+00 +2.37184E+01 -1.45322E+01 +1.91079E+01 -2.38283E+01 +2.48438E+00
 -1.80882E+01 -1.55374E+01 -1.15187E+00 -2.35978E+01 +1.61284E+01 -1.68149E+01 +2.28913E+01 +2.17222E-01
 +1.51720E+01 +1.65223E+01 -1.71700E+00 +2.18629E+01 -1.67898E+01 +1.32558E+01 -2.05601E+01 -3.30373E+00
 -1.10905E+01 -1.69366E+01 +4.98006E+00 -1.90348E+01 +1.69977E+01 -8.76540E+00 +1.73559E+01 +6.63483E+00
 +6.37509E+00 +1.68584E+01 -8.16656E+00 +1.54166E+01 -1.64316E+01 +3.81918E+00 -1.31568E+01 -9.68278E+00
 -1.06064E+00 -1.58452E+01 +1.12111E+01 -1.07236E+01 +1.51251E+01 +1.75481E+00 +8.12654E+00 +1.26364E+01
 -4.67255E+00 +1.42042E+01 -1.41080E+01 +5.33543E+00 -1.33698E+01 -7.72692E+00 -2.77682E+00 -1.57148E+01
 +1.03799E+01 -1.27986E+01 +1.68414E+01 -7.15195E-01 +1.18093E+01 +1.23062E+01 -1.62185E+00 +1.71284E+01
 -1.44203E+01 +1.00057E+01 -1.76799E+01 -4.71223E+00 -8.69567E+00 -1.73551E+01 +7.07282E+00 -1.93546E+01
 +1.95091E+01 -9.00671E+00 +2.04912E+01 +7.30042E+00 +9.25446E+00 +1.92178E+01 -7.08859E+00 +1.91760E+01
 -1.81794E+01 +7.27231E+00 -1.70984E+01 -8.87516E+00 -4.71130E+00 -1.91210E+01 +1.10858E+01 -1.72813E+01
 +2.05806E+01 -4.88482E+00 +1.84025E+01 +1.01235E+01 +6.63896E+00 +1.86767E+01 -6.93043E+00 +1.62930E+01
 -1.40774E+01 +5.52922E+00 -1.12784E+01 -6.18207E+00 -1.49014E+00 -1.16089E+01 +8.34050E+00 -8.23940E+00
 +1.20914E+01 +6.23075E-01 +8.29404E+00 +8.61545E+00 +5.58276E-01 +1.07976E+01 -5.39792E+00 +6.75957E+00
 -5.85337E+00 +3.94929E-01 -1.46235E+00 -3.24523E+00 +3.59709E+00 -1.65929E+00 +4.91863E+00 +3.43978E+00
 +1.17954E+00 +7.56986E+00 -4.87487E+00 +6.90958E+00 -8.43505E+00 +1.23693E+00 -6.18674E+00 -5.72079E+00
 +1.08907E+00 -8.81299E+00 +8.74798E+00 -5.15662E+00 +1.12951E+01 +3.56168E+00 +6.21226E+00 +1.18459E+01
 -3.99695E+00 +1.38583E+01 -1.30480E+01 +7.38805E+00 -1.47685E+01 -4.32694E+00 -7.21113E+00 -1.42815E+01
 +5.72607E+00 -1.59983E+01 +1.63951E+01 -7.77790E+00 +1.80733E+01 +5.87385E+00 +9.33674E+00 +1.67444E+01
 -4.71957E+00 +1.79514E+01 -1.53845E+01 +8.41047E+00 -1.57116E+01 -6.18157E+00 -5.04029E+00 -1.66688E+01
 +1.03058E+01 -1.61412E+01 +2.07834E+01 -4.45389E+00 +1.96329E+01 +1.14204E+01 +7.32764E+00 +2.16255E+01
 -8.49151E+00 +1.96884E+01 -1.77443E+01 +6.81772E+00 -1.43953E+01 -8.65718E+00 -5.08397E-01 -1.65253E+01
 +1.48853E+01 -1.13356E+01 +2.15425E+01 +3.89184E+00 +1.47320E+01 +1.94399E+01 -1.50248E+00 +2.51527E+01
 -1.68166E+01 +1.71518E+01 -2.12946E+01 +5.45364E-01 -1.20518E+01 -1.37905E+01 +4.71307E+00 -1.63566E+01
 +1.77062E+01 -5.40358E+00 +1.80247E+01 +1.17698E+01 +5.17537E+00 +2.35790E+01 -1.24656E+01 +2.18883E+01
 -2.31722E+01 +7.54918E+00 -1.97435E+01 -1.00475E+01 -4.43867E+00 -1.92098E+01 +1.24277E+01 -1.38404E+01
 +1.93829E+01 +2.34590E+00 +1.15888E+01 +1.82105E+01 -5.75797E+00 +2.26704E+01 -2.08009E+01 +1.22624E+01
 -2.29910E+01 -6.35164E+00 -1.03044E+01 -2.07238E+01 +9.20298E+00 -2.09682E+01 +2.26480E+01 -6.52274E+00
 +2.09322E+01 +1.32760E+01 +4.95080E+00 +2.52840E+01 -1.48149E+01 +2.13021E+01 -2.51317E+01 +3.64976E+00
 -1.87803E+01 -1.62013E+01 +5.70005E-01 -2.50914E+01 +2.06413E+01 -1.68267E+01 +2.85135E+01 +3.69162E+00
