 Created: 16-Jan-2021
 $NMID
 ID='D:\BASISSIMULATI'
 FMTDAT='(8E13.5)'
 VOLUME=   1.00000E+00
 TRAMP=   1.00000E+00
 $END
 +6.66706E+01 +5.14663E-01 +4.85305E+01 -2.69202E+01 +6.25377E+00 -3.07979E+01 -3.23623E+01 -5.04342E+00
 -4.32451E+01 +3.38581E+01 -2.25916E+01 +5.84270E+01 +1.11942E+01 +4.99357E+01 +3.13638E+01 +1.21437E+01
 +2.23795E+01 -3.08857E+01 -8.93946E+00 -5.14011E+01 -3.86303E+01 -3.72039E+01 -4.32893E+01 +1.38535E-01
 -1.74123E+01 +3.38458E+01 +2.21762E+01 +4.10105E+01 +4.80340E+01 +1.85459E+01 +4.15715E+01 -1.52927E+01
 +6.34360E+00 -3.46716E+01 -3.43230E+01 -2.51473E+01 -5.36355E+01 +5.86255E+00 -3.99288E+01 +3.45725E+01
 -4.37061E+00 +3.82188E+01 +2.75232E+01 +1.17516E+01 +3.42890E+01 -2.81889E+01 +1.35906E+01 -5.48496E+01
 -1.67122E+01 -5.01792E+01 -3.20250E+01 -1.74497E+01 -1.91370E+01 +2.12301E+01 +1.40898E+01 +4.05908E+01
 +4.43468E+01 +2.98051E+01 +4.96576E+01 -4.62431E-01 +2.51955E+01 -2.63508E+01 -1.31756E+01 -2.82485E+01
 -4.00739E+01 -4.79204E+00 -3.84103E+01 +2.65115E+01 -1.11334E+01 +4.22517E+01 +2.13140E+01 +3.01731E+01
 +3.57876E+01 -1.95742E+00 +2.27838E+01 -3.19286E+01 -7.27077E+00 -3.89579E+01 -3.20292E+01 -1.84187E+01
 -3.35335E+01 +1.50450E+01 -1.10351E+01 +3.80680E+01 +1.87514E+01 +3.50897E+01 +3.39125E+01 +9.05644E+00
 +2.31474E+01 -2.11533E+01 -6.21590E+00 -3.44773E+01 -3.35910E+01 -2.26066E+01 -3.98565E+01 +4.50130E+00
 -2.08191E+01 +2.62308E+01 +1.01054E+01 +2.63309E+01 +3.16847E+01 +4.50097E+00 +2.99459E+01 -2.36360E+01
 +7.75910E+00 -3.79215E+01 -1.77205E+01 -2.80843E+01 -2.76443E+01 -8.88906E-01 -1.49277E+01 +2.49187E+01
 +1.09921E+01 +3.20326E+01 +3.12638E+01 +1.66930E+01 +3.12672E+01 -9.05576E+00 +1.09544E+01 -2.63134E+01
 -1.53774E+01 -2.28699E+01 -2.94802E+01 -1.65004E+00 -2.21143E+01 +2.17881E+01 +6.63338E-01 +3.06423E+01
 +2.21668E+01 +1.88430E+01 +2.71284E+01 -4.88585E+00 +1.24170E+01 -2.35597E+01 -1.11123E+01 -2.41620E+01
 -2.67019E+01 -6.76427E+00 -2.37177E+01 +1.58398E+01 -4.99871E+00 +2.74805E+01 +1.55432E+01 +2.00961E+01
 +2.31045E+01 -8.17444E-01 +1.25303E+01 -2.04706E+01 -8.26088E+00 -2.54698E+01 -2.42023E+01 -1.31952E+01
 -2.39114E+01 +6.71981E+00 -7.63805E+00 +1.96185E+01 +1.32065E+01 +1.63853E+01 +2.43699E+01 -2.32232E-01
 +1.88295E+01 -1.79007E+01 +1.45952E+00 -2.37211E+01 -1.48309E+01 -1.34170E+01 -1.84943E+01 +5.81967E+00
 -7.46222E+00 +2.06639E+01 +9.71743E+00 +2.11771E+01 +2.03101E+01 +7.67285E+00 +1.66067E+01 -9.83286E+00
 +1.30245E+00 -1.89732E+01 -1.46609E+01 -1.37862E+01 -2.00517E+01 +1.34491E+00 -1.13080E+01 +1.51886E+01
 +5.13176E+00 +1.78817E+01 +1.76144E+01 +7.89641E+00 +1.75922E+01 -7.14156E+00 +5.50335E+00 -1.61731E+01
 -9.85436E+00 -1.27099E+01 -1.78053E+01 +6.28795E-01 -1.33657E+01 +1.41713E+01 -5.18024E-01 +1.82051E+01
 +1.09794E+01 +9.84375E+00 +1.27735E+01 -5.10289E+00 +3.85975E+00 -1.64351E+01 -8.90113E+00 -1.68226E+01
 -1.59026E+01 -6.80470E+00 -1.17488E+01 +5.92141E+00 +9.49175E-01 +1.22308E+01 +1.35553E+01 +8.09430E+00
 +1.76106E+01 -2.75620E+00 +1.07535E+01 -1.17905E+01 -1.82238E+00 -1.19857E+01 -1.12683E+01 -2.88023E+00
 -1.14185E+01 +9.19716E+00 -3.00333E+00 +1.57636E+01 +7.17492E+00 +1.22601E+01 +1.13555E+01 +1.21008E+00
 +6.44446E+00 -9.71085E+00 -3.87751E+00 -1.31933E+01 -1.19714E+01 -7.39196E+00 -1.18379E+01 +2.99624E+00
 -3.42350E+00 +1.03143E+01 +7.41350E+00 +9.50112E+00 +1.31545E+01 +1.60530E+00 +9.96341E+00 -7.18751E+00
 +2.94506E-01 -1.01904E+01 -9.01803E+00 -5.09394E+00 -1.17100E+01 +4.41816E+00 -6.47344E+00 +1.14038E+01
 +2.32615E+00 +1.06954E+01 +8.00498E+00 +2.58121E+00 +6.47291E+00 -7.46827E+00 -8.63656E-01 -1.27488E+01
 -8.24600E+00 -1.00515E+01 -9.84153E+00 -1.78730E+00 -4.01275E+00 +5.93403E+00 +5.49605E+00 +7.79075E+00
 +1.22561E+01 +3.02185E+00 +1.17378E+01 -4.19907E+00 +4.47059E+00 -7.97085E+00 -4.44456E+00 -5.05631E+00
 -9.04394E+00 +2.74086E+00 -6.71018E+00 +9.90029E+00 +1.31634E-01 +1.12005E+01 +5.97493E+00 +5.49468E+00
 +6.34454E+00 -3.46606E+00 +1.04408E+00 -9.71254E+00 -5.79060E+00 -9.27181E+00 -8.80982E+00 -2.88446E+00
 -5.42621E+00 +4.67778E+00 +2.24969E+00 +8.12663E+00 +8.89854E+00 +5.42315E+00 +9.80142E+00 -9.08022E-01
 +4.20704E+00 -5.79703E+00 -4.15242E+00 -5.44180E+00 -9.72885E+00 -1.12529E-01 -9.05796E+00 +6.07622E+00
 -3.09382E+00 +8.22187E+00 +3.64615E+00 +4.26726E+00 +6.43487E+00 -3.43382E+00 +3.72196E+00 -9.74369E+00
 -1.88201E+00 -1.03727E+01 -5.67615E+00 -4.89833E+00 -4.42732E+00 +2.97697E+00 +1.20243E+00 +8.07436E+00
 +7.11982E+00 +7.36139E+00 +8.79712E+00 +1.95783E+00 +4.60909E+00 -3.85904E+00 -2.91238E+00 -5.85685E+00
 -8.80897E+00 -2.90086E+00 -9.16080E+00 +2.34078E+00 -3.80346E+00 +5.49709E+00 +3.62210E+00 +3.81781E+00
 +8.27728E+00 -1.72625E+00 +7.49165E+00 -7.09592E+00 +2.48717E+00 -8.10682E+00 -2.71332E+00 -3.49798E+00
 -4.32716E+00 +4.07289E+00 -1.55917E+00 +9.82217E+00 +2.92496E+00 +1.01340E+01 +5.09464E+00 +5.01096E+00
 +2.64622E+00 -2.03052E+00 -3.18618E+00 -6.49132E+00 -8.42589E+00 -6.00109E+00 -9.18094E+00 -1.79955E+00
 -4.46312E+00 +2.40469E+00 +3.02612E+00 +3.28921E+00 +8.70098E+00 +3.72628E-01 +9.19654E+00 -3.70537E+00
 +4.57988E+00 -5.24166E+00 -1.85599E+00 -2.32684E+00 -5.99910E+00 +3.60083E+00 -5.76338E+00 +8.64652E+00
 -2.35229E+00 +9.16265E+00 +8.90060E-01 +4.33206E+00 +1.12085E+00 -3.20581E+00 -1.83346E+00 -9.11599E+00
 -5.35942E+00 -1.02551E+01 -6.04664E+00 -6.65678E+00 -2.30944E+00 -1.26972E+00 +4.28180E+00 +2.27704E+00
 +9.93725E+00 +2.23070E+00 +1.11943E+01 -2.28217E-01 +7.27058E+00 -2.11525E+00 +5.75053E-01 -1.05424E+00
 -4.95102E+00 +2.83114E+00 -6.46322E+00 +6.93100E+00 -3.96904E+00 +8.04457E+00 -3.62846E-02 +4.76723E+00
 +2.23916E+00 -1.36531E+00 +1.48593E+00 -6.80589E+00 -1.08503E+00 -8.34269E+00 -2.77422E+00 -5.21268E+00
 -1.57159E+00 +4.78102E-01 +2.20997E+00 +5.27026E+00 +6.04528E+00 +6.68921E+00 +6.96724E+00 +4.75914E+00
 +3.71332E+00 +1.68964E+00 -2.29412E+00 +5.92928E-02 -7.82838E+00 +8.70063E-01 -9.96902E+00 +2.88059E+00
 -7.95987E+00 +3.65429E+00 -3.54672E+00 +1.50434E+00 +3.73510E-01 -3.11289E+00 +1.77773E+00 -7.77698E+00
 +7.75549E-01 -9.72470E+00 -7.33163E-01 -7.74856E+00 -6.64795E-01 -3.02637E+00 +1.60079E+00 +1.68398E+00
 +4.73557E+00 +3.88914E+00 +6.46255E+00 +2.93919E+00 +5.27540E+00 +2.68133E-01 +1.61054E+00 -1.79761E+00
 -2.37619E+00 -1.74952E+00 -4.25842E+00 +1.08312E-01 -2.97234E+00 +2.04678E+00 +5.14415E-01 +2.32922E+00
 +3.93478E+00 +5.80043E-01 +5.29393E+00 -1.89909E+00 +4.15221E+00 -3.07453E+00 +1.74435E+00 -1.67563E+00
 -7.77110E-02 +1.85263E+00 -2.55559E-01 +5.61634E+00 +7.46235E-01 +7.54666E+00 +1.38889E+00 +6.75825E+00
 +3.08850E-01 +4.04054E+00 -2.57864E+00 +1.18025E+00 -5.93286E+00 -3.45492E-01 -7.89025E+00 -3.45128E-01
 -7.34593E+00 +1.18678E-01 -4.68830E+00 -3.14732E-01 -1.48167E+00 -2.17326E+00 +6.37835E-01 -4.69415E+00
 +1.03639E+00 -6.36251E+00 +3.68426E-01 -6.02701E+00 -7.98866E-02 -3.76025E+00 +5.47526E-01 -8.38263E-01
 +2.01808E+00 +1.12883E+00 +3.23163E+00 +1.26886E+00 +3.12525E+00 -4.77634E-02 +1.55872E+00 -1.59970E+00
 -4.93826E-01 -2.26634E+00 -1.59191E+00 -1.81055E+00 -8.35791E-01 -9.23676E-01 +1.50600E+00 -5.41434E-01
 +4.19453E+00 -9.92102E-01 +5.87515E+00 -1.65346E+00 +5.94723E+00 -1.39452E+00 +4.82322E+00 +5.28148E-01
 +3.43159E+00 +3.80169E+00 +2.39283E+00 +7.13312E+00 +1.53069E+00 +9.03282E+00 +1.02087E-01 +8.74287E+00
 -2.44325E+00 +6.64600E+00 -5.78725E+00 +3.88498E+00 -8.71725E+00 +1.51092E+00 -9.82480E+00 -1.82721E-01
 -8.44540E+00 -1.64989E+00 -5.15209E+00 -3.45323E+00 -1.42829E+00 -5.54244E+00 +1.25503E+00 -7.06641E+00
 +2.29713E+00 -6.92080E+00 +2.15588E+00 -4.64555E+00 +1.77198E+00 -9.78664E-01 +1.71132E+00 +2.40830E+00
 +1.71413E+00 +3.87142E+00 +1.01284E+00 +2.80111E+00 -8.33819E-01 -3.61992E-02 -3.27480E+00 -3.06334E+00
 -4.86022E+00 -4.94938E+00 -4.12093E+00 -5.38822E+00 -6.40742E-01 -5.04701E+00 +4.47129E+00 -4.76827E+00
 +9.10882E+00 -4.68491E+00 +1.13830E+01 -3.98289E+00 +1.07004E+01 -1.54949E+00 +7.96155E+00 +2.95761E+00
 +4.76625E+00 +8.46026E+00 +2.23290E+00 +1.28110E+01 +3.15677E-01 +1.40049E+01 -1.87974E+00 +1.14484E+01
 -5.04906E+00 +6.38546E+00 -8.75677E+00 +1.14501E+00 -1.14079E+01 -2.29288E+00 -1.12434E+01 -3.41946E+00
 -7.68008E+00 -3.23696E+00 -1.99316E+00 -3.23122E+00 +3.24211E+00 -4.07732E+00 +5.65183E+00 -5.07443E+00
 +4.50480E+00 -4.75721E+00 +1.09116E+00 -2.23014E+00 -2.23299E+00 +1.81122E+00 -3.65931E+00 +5.22155E+00
 -3.05106E+00 +5.71708E+00 -1.78681E+00 +2.47296E+00 -1.47525E+00 -3.15038E+00 -2.53210E+00 -8.33521E+00
 -3.72298E+00 -1.05446E+01 -3.06319E+00 -9.08510E+00 +5.61497E-01 -5.40721E+00 +6.27052E+00 -1.94535E+00
 +1.14655E+01 -3.43888E-01 +1.34101E+01 -3.58929E-01 +1.10419E+01 -2.29366E-01 +5.72658E+00 +1.77299E+00
 +3.80225E-01 +5.78778E+00 -2.45464E+00 +1.00044E+01 -2.23613E+00 +1.18264E+01 -6.07139E-01 +9.75486E+00
 -2.25989E-02 +4.61322E+00 -1.83142E+00 -8.31964E-01 -5.22370E+00 -3.65443E+00 -7.82499E+00 -2.72298E+00
 -7.50951E+00 +5.64762E-01 -4.09308E+00 +3.31169E+00 +3.70603E-01 +3.19487E+00 +2.95940E+00 +1.04840E-01
 +1.96032E+00 -3.82597E+00 -1.85147E+00 -5.82385E+00 -5.69224E+00 -4.53830E+00 -6.70635E+00 -1.06128E+00
 -3.99078E+00 +1.85499E+00 +7.50981E-01 +1.82341E+00 +4.41435E+00 -1.38634E+00 +4.70867E+00 -5.61477E+00
 +1.79341E+00 -7.83733E+00 -1.84748E+00 -6.35880E+00 -3.20891E+00 -2.08049E+00 -9.46706E-01 +2.10452E+00
 +3.64161E+00 +3.38043E+00 +7.55101E+00 +1.06007E+00 +8.24220E+00 -2.87297E+00 +5.47258E+00 -5.14796E+00
 +1.44573E+00 -3.54297E+00 -8.37683E-01 +1.49856E+00 +1.71491E-01 +7.13621E+00 +3.37390E+00 +1.00996E+01
 +5.77569E+00 +8.94486E+00 +4.67615E+00 +4.98358E+00 -2.84292E-01 +1.23064E+00 -6.71142E+00 +1.53063E-01
 -1.10107E+01 +1.87127E+00 -1.08221E+01 +4.13063E+00 -6.60915E+00 +4.06529E+00 -1.27648E+00 +4.58770E-01
 +1.89800E+00 -5.17266E+00 +1.52417E+00 -9.50414E+00 -1.06418E+00 -9.70600E+00 -2.97233E+00 -5.48290E+00
 -2.02492E+00 +6.27569E-01 +1.52771E+00 +4.93458E+00 +5.14423E+00 +5.07252E+00 +5.88231E+00 +1.52676E+00
 +2.66396E+00 -2.85718E+00 -2.75757E+00 -4.99471E+00 -6.87519E+00 -3.76292E+00 -6.81597E+00 -6.93054E-01
