 Created: 16-Jan-2021
 $NMID
 ID='D:\BASISSIMULATI'
 FMTDAT='(8E13.5)'
 VOLUME=   1.00000E+00
 TRAMP=   1.00000E+00
 $END
 +1.11687E+02 +5.15641E-01 +1.01491E+02 +4.40219E+01 +7.40047E+01 +7.88792E+01 +3.47634E+01 +9.84993E+01
 -8.39302E+00 +9.94100E+01 -4.69362E+01 +8.19414E+01 -7.33986E+01 +5.01249E+01 -8.28912E+01 +1.08291E+01
 -7.40765E+01 -2.76833E+01 -4.93987E+01 -5.74743E+01 -1.45276E+01 -7.25652E+01 +2.28615E+01 -7.01487E+01
 +5.47122E+01 -5.11276E+01 +7.42743E+01 -1.98739E+01 +7.74989E+01 +1.67346E+01 +6.38528E+01 +5.07928E+01
 +3.63860E+01 +7.50478E+01 +1.04331E+00 +8.44230E+01 -3.46281E+01 +7.70695E+01 -6.30989E+01 +5.47240E+01
 -7.84599E+01 +2.23050E+01 -7.76690E+01 -1.31645E+01 -6.11797E+01 -4.40744E+01 -3.28212E+01 -6.38613E+01
 +1.04022E+00 -6.84109E+01 +3.28784E+01 -5.69334E+01 +5.56291E+01 -3.21253E+01 +6.42094E+01 +4.13366E-01
 +5.66136E+01 +3.33814E+01 +3.43523E+01 +5.93436E+01 +2.14090E+00 +7.23277E+01 -3.30955E+01 +6.91132E+01
 -6.36904E+01 +4.99379E+01 -8.28678E+01 +1.84712E+01 -8.61902E+01 -1.89407E+01 -7.25181E+01 -5.45996E+01
 -4.42763E+01 -8.10723E+01 -6.96921E+00 -9.27572E+01 +3.19537E+01 -8.70728E+01 +6.46450E+01 -6.50154E+01
 +8.44952E+01 -3.09688E+01 +8.75129E+01 +8.19520E+00 +7.31619E+01 +4.45384E+01 +4.44769E+01 +7.07015E+01
 +7.43641E+00 +8.14298E+01 -3.02781E+01 +7.46604E+01 -6.08760E+01 +5.19441E+01 -7.80713E+01 +1.81145E+01
 -7.83793E+01 -1.97246E+01 -6.18277E+01 -5.36807E+01 -3.19331E+01 -7.67131E+01 +5.04738E+00 -8.40893E+01
 +4.14319E+01 -7.43537E+01 +6.97196E+01 -4.96085E+01 +8.41499E+01 -1.50521E+01 +8.18891E+01 +2.21267E+01
 +6.35984E+01 +5.42627E+01 +3.32683E+01 +7.48186E+01 -2.64378E+00 +7.97430E+01 -3.65863E+01 +6.82974E+01
 -6.15073E+01 +4.31844E+01 -7.23327E+01 +9.95083E+00 -6.70193E+01 -2.42027E+01 -4.69636E+01 -5.19537E+01
 -1.66822E+01 -6.74068E+01 +1.71633E+01 -6.73325E+01 +4.71908E+01 -5.18380E+01 +6.68678E+01 -2.43284E+01
 +7.18952E+01 +9.22814E+00 +6.11151E+01 +4.15763E+01 +3.67500E+01 +6.57176E+01 +3.92657E+00 +7.63965E+01
 -3.04145E+01 +7.12149E+01 -5.89904E+01 +5.11407E+01 -7.57192E+01 +2.03036E+01 -7.70073E+01 -1.48770E+01
 -6.25106E+01 -4.70469E+01 -3.52097E+01 -6.94687E+01 -7.83174E-01 -7.74422E+01 +3.35866E+01 -6.92958E+01
 +6.07242E+01 -4.67378E+01 +7.49691E+01 -1.44978E+01 +7.33643E+01 +2.06677E+01 +5.62747E+01 +5.13953E+01
 +2.73080E+01 +7.12599E+01 -7.44670E+00 +7.61212E+01 -4.06993E+01 +6.49883E+01 -6.54895E+01 +4.02218E+01
 -7.66451E+01 +7.03205E+00 -7.18628E+01 -2.76199E+01 -5.21833E+01 -5.64859E+01 -2.17646E+01 -7.35518E+01
 +1.29989E+01 -7.52948E+01 +4.48252E+01 -6.14153E+01 +6.70746E+01 -3.48896E+01 +7.51422E+01 -1.33475E+00
 +6.74181E+01 +3.21800E+01 +4.56155E+01 +5.86229E+01 +1.44000E+01 +7.24778E+01 -1.96011E+01 +7.08994E+01
 -4.91992E+01 +5.43037E+01 -6.81594E+01 +2.62710E+01 -7.25109E+01 -7.21696E+00 -6.13780E+01 -3.90424E+01
 -3.71579E+01 -6.24543E+01 -5.00927E+00 -7.24901E+01 +2.82389E+01 -6.70187E+01 +5.55284E+01 -4.71859E+01
 +7.10586E+01 -1.71694E+01 +7.15063E+01 +1.67027E+01 +5.67235E+01 +4.72851E+01 +2.97661E+01 +6.81172E+01
 -3.74920E+00 +7.47798E+01 -3.68255E+01 +6.58211E+01 -6.25533E+01 +4.30585E+01 -7.55575E+01 +1.11944E+01
 -7.31203E+01 -2.31715E+01 -5.57439E+01 -5.29260E+01 -2.70388E+01 -7.19292E+01 +7.03866E+00 -7.62941E+01
 +3.94379E+01 -6.51908E+01 +6.34895E+01 -4.10079E+01 +7.42960E+01 -8.83994E+00 +6.97454E+01 +2.45896E+01
 +5.09382E+01 +5.23412E+01 +2.19383E+01 +6.87112E+01 -1.10947E+01 +7.04175E+01 -4.12087E+01 +5.72715E+01
 -6.21218E+01 +3.21974E+01 -6.95360E+01 +5.97877E-01 -6.20278E+01 -3.07977E+01 -4.13281E+01 -5.53581E+01
 -1.19375E+01 -6.79470E+01 +1.98403E+01 -6.59970E+01 +4.72414E+01 -5.00373E+01 +6.44745E+01 -2.35641E+01
 +6.79429E+01 +7.71450E+00 +5.69972E+01 +3.70989E+01 +3.40611E+01 +5.83242E+01 +4.10675E+00 +6.68895E+01
 -2.64091E+01 +6.10104E+01 -5.09214E+01 +4.19939E+01 -6.41542E+01 +1.39563E+01 -6.32428E+01 -1.70527E+01
 -4.83455E+01 -4.43370E+01 -2.26133E+01 -6.19775E+01 +8.47334E+00 -6.60916E+01 +3.82620E+01 -5.56639E+01
 +6.03355E+01 -3.27708E+01 +6.98713E+01 -2.15225E+00 +6.46681E+01 +2.97788E+01 +4.56210E+01 +5.62826E+01
 +1.65464E+01 +7.17097E+01 -1.66068E+01 +7.26926E+01 -4.69964E+01 +5.88603E+01 -6.83144E+01 +3.29260E+01
 -7.61048E+01 +1.30688E-01 -6.86958E+01 -3.28437E+01 -4.75516E+01 -5.92608E+01 -1.69695E+01 -7.37281E+01
 +1.68113E+01 -7.33141E+01 +4.69050E+01 -5.81519E+01 +6.72048E+01 -3.14039E+01 +7.36436E+01 +1.40222E+00
 +6.50254E+01 +3.35277E+01 +4.32566E+01 +5.84223E+01 +1.29321E+01 +7.10781E+01 -1.96358E+01 +6.90551E+01
 -4.77396E+01 +5.29655E+01 -6.56717E+01 +2.63199E+01 -6.99005E+01 -5.23047E+00 -5.97837E+01 -3.50913E+01
 -3.76719E+01 -5.71105E+01 -8.38446E+00 -6.68597E+01 +2.18271E+01 -6.25428E+01 +4.66082E+01 -4.53440E+01
 +6.08404E+01 -1.91468E+01 +6.17094E+01 +1.03149E+01 +4.92778E+01 +3.66894E+01 +2.64451E+01 +5.43612E+01
 -1.69325E+00 +5.96401E+01 -2.89495E+01 +5.15343E+01 -4.93732E+01 +3.19453E+01 -5.85245E+01 +5.24652E+00
 -5.44211E+01 -2.26640E+01 -3.79584E+01 -4.56329E+01 -1.27152E+01 -5.85737E+01 +1.58134E+01 -5.85606E+01
 +4.13919E+01 -4.54609E+01 +5.83798E+01 -2.19733E+01 +6.29429E+01 +6.93778E+00 +5.38835E+01 +3.50911E+01
 +3.29127E+01 +5.64005E+01 +4.30646E+00 +6.61708E+01 -2.59831E+01 +6.21056E+01 -5.15753E+01 +4.48112E+01
 -6.70037E+01 +1.76909E+01 -6.88739E+01 -1.37501E+01 -5.65895E+01 -4.30448E+01 -3.24950E+01 -6.41111E+01
 -1.40412E+00 -7.25217E+01 +3.03901E+01 -6.64334E+01 +5.64147E+01 -4.69792E+01 +7.13564E+01 -1.80420E+01
 +7.21613E+01 +1.45435E+01 +5.86656E+01 +4.41936E+01 +3.36263E+01 +6.49330E+01 +2.14705E+00 +7.26230E+01
 -2.93800E+01 +6.58063E+01 -5.45952E+01 +4.59938E+01 -6.84797E+01 +1.73352E+01 -6.83779E+01 -1.42547E+01
 -5.45248E+01 -4.23291E+01 -2.99692E+01 -6.12441E+01 +8.56615E-02 -6.73165E+01 +2.93837E+01 -5.95630E+01
 +5.19269E+01 -3.98722E+01 +6.32194E+01 -1.25745E+01 +6.11857E+01 +1.64927E+01 +4.65726E+01 +4.12261E+01
 +2.27553E+01 +5.65418E+01 -5.00782E+00 +5.94324E+01 -3.07101E+01 +4.95763E+01 -4.88793E+01 +2.93747E+01
 -5.57356E+01 +3.41055E+00 -4.99824E+01 -2.25507E+01 -3.30621E+01 -4.28050E+01 -8.82818E+00 -5.29330E+01
 +1.72967E+01 -5.07433E+01 +3.94937E+01 -3.67357E+01 +5.28022E+01 -1.39884E+01 +5.41892E+01 +1.25064E+01
 +4.32057E+01 +3.69157E+01 +2.20905E+01 +5.38196E+01 -4.69996E+00 +5.93785E+01 -3.14358E+01 +5.21663E+01
 -5.23333E+01 +3.34912E+01 -6.27905E+01 +7.13600E+00 -6.03767E+01 -2.14288E+01 -4.53669E+01 -4.61934E+01
 -2.07054E+01 -6.18774E+01 +8.59359E+00 -6.50504E+01 +3.64852E+01 -5.48691E+01 +5.71548E+01 -3.32732E+01
 +6.62356E+01 -4.59911E+00 +6.17292E+01 +2.53103E+01 +4.44334E+01 +5.03128E+01 +1.77889E+01 +6.52410E+01
 -1.28242E+01 +6.69746E+01 -4.11948E+01 +5.50904E+01 -6.15606E+01 +3.19510E+01 -6.97954E+01 +2.21761E+00
 -6.42547E+01 -2.81138E+01 -4.61060E+01 -5.29492E+01 -1.90761E+01 -6.73493E+01 +1.13303E+01 -6.85382E+01
 +3.89756E+01 -5.64582E+01 +5.83576E+01 -3.37587E+01 +6.57377E+01 -5.22370E+00 +5.98939E+01 +2.32384E+01
 +4.23447E+01 +4.58308E+01 +1.70003E+01 +5.80695E+01 -1.06810E+01 +5.76990E+01 -3.48520E+01 +4.51347E+01
 -5.05061E+01 +2.33408E+01 -5.45177E+01 -2.82495E+00 -4.62776E+01 -2.76583E+01 -2.77924E+01 -4.58247E+01
 -3.23010E+00 -5.34860E+01 +2.19880E+01 -4.91023E+01 +4.23540E+01 -3.37390E+01 +5.34506E+01 -1.08199E+01
 +5.28901E+01 +1.46207E+01 +4.08160E+01 +3.70257E+01 +1.98627E+01 +5.15087E+01 -5.41547E+00 +5.49023E+01
 -2.95240E+01 +4.64366E+01 -4.72078E+01 +2.79057E+01 -5.45799E+01 +3.28631E+00 -4.99582E+01 -2.21082E+01
 -3.42346E+01 -4.27614E+01 -1.06965E+01 -5.41321E+01 +1.56617E+01 -5.36292E+01 +3.91921E+01 -4.11758E+01
 +5.47886E+01 -1.92417E+01 +5.89726E+01 +7.66214E+00 +5.06399E+01 +3.39225E+01 +3.13094E+01 +5.39994E+01
 +4.82108E+00 +6.35905E+01 -2.34544E+01 +6.05395E+01 -4.77292E+01 +4.52987E+01 -6.30026E+01 +2.08460E+01
 -6.61032E+01 -7.92444E+00 -5.63514E+01 -3.52131E+01 -3.57035E+01 -5.55146E+01 -8.34729E+00 -6.47559E+01
 +2.01649E+01 -6.11365E+01 +4.40660E+01 -4.54947E+01 +5.85649E+01 -2.11255E+01 +6.08313E+01 +6.91073E+00
 +5.05688E+01 +3.28436E+01 +3.00599E+01 +5.13894E+01 +3.67407E+00 +5.88414E+01 -2.30539E+01 +5.38244E+01
 -4.45829E+01 +3.75599E+01 -5.65172E+01 +1.35881E+01 -5.65108E+01 -1.29914E+01 -4.47364E+01 -3.65994E+01
 -2.38241E+01 -5.23479E+01 +1.71402E+00 -5.70574E+01 +2.64504E+01 -4.99076E+01 +4.51927E+01 -3.25867E+01
 +5.40765E+01 -8.91226E+00 +5.13705E+01 +1.59946E+01 +3.78250E+01 +3.68048E+01 +1.64943E+01 +4.91132E+01
 -7.92854E+00 +5.03692E+01 -3.01199E+01 +4.04089E+01 -4.52642E+01 +2.14783E+01 -5.00793E+01 -2.25475E+00
 -4.35137E+01 -2.55958E+01 -2.69673E+01 -4.34352E+01 -3.99187E+00 -5.18393E+01 +2.04668E+01 -4.88913E+01
 +4.11218E+01 -3.51029E+01 +5.34708E+01 -1.33107E+01 +5.47570E+01 +1.19205E+01 +4.45601E+01 +3.52621E+01
 +2.48943E+01 +5.17483E+01 -2.08319E-01 +5.78288E+01 -2.55417E+01 +5.21243E+01 -4.58188E+01 +3.57253E+01
 -5.67834E+01 +1.19716E+01 -5.61075E+01 -1.42417E+01 -4.38844E+01 -3.74861E+01 -2.26153E+01 -5.29345E+01
 +3.30988E+00 -5.73716E+01 +2.85265E+01 -4.98664E+01 +4.78135E+01 -3.19678E+01 +5.71808E+01 -7.38118E+00
 +5.46995E+01 +1.88046E+01 +4.08995E+01 +4.11780E+01 +1.86544E+01 +5.51317E+01 -7.42313E+00 +5.78176E+01
 -3.19463E+01 +4.87333E+01 -4.98781E+01 +2.98169E+01 -5.75771E+01 +5.03210E+00 -5.35485E+01 -2.04675E+01
 -3.87426E+01 -4.14187E+01 -1.63419E+01 -5.35469E+01 +8.91815E+00 -5.44516E+01 +3.17493E+01 -4.40949E+01
 +4.74204E+01 -2.47930E+01 +5.27455E+01 -7.13958E-01 +4.67403E+01 +2.30098E+01 +3.08147E+01 +4.13671E+01
 +8.45917E+00 +5.05214E+01 -1.55040E+01 +4.86120E+01 -3.59461E+01 +3.61345E+01 -4.85172E+01 +1.58235E+01
 -5.05622E+01 -7.93767E+00 -4.16751E+01 -3.00512E+01 -2.37760E+01 -4.57877E+01 -6.96981E-01 -5.17863E+01
 +2.26354E+01 -4.67637E+01 +4.12465E+01 -3.17809E+01 +5.11677E+01 -1.00149E+01 +5.02756E+01 +1.39175E+01
 +3.87403E+01 +3.49382E+01 +1.89878E+01 +4.85828E+01 -4.81322E+00 +5.19443E+01 -2.76330E+01 +4.42883E+01
 -4.46424E+01 +2.72074E+01 -5.22324E+01 +4.28646E+00 -4.87750E+01 -1.96530E+01 -3.49673E+01 -3.95681E+01
