 Created: 16-Jan-2021
 $NMID
 ID='D:\BASISSIMULATI'
 FMTDAT='(8E13.5)'
 VOLUME=   1.00000E+00
 TRAMP=   1.00000E+00
 $END
 +2.88076E+01 +1.32853E-01 +2.67857E+01 +9.56017E+00 +2.14924E+01 +1.74170E+01 +1.38824E+01 +2.25661E+01
 +5.28100E+00 +2.43910E+01 -2.88040E+00 +2.28971E+01 -9.34250E+00 +1.86866E+01 -1.32545E+01 +1.28150E+01
 -1.43208E+01 +6.56136E+00 -1.28308E+01 +1.16112E+00 -9.56785E+00 -2.44336E+00 -5.62016E+00 -3.78290E+00
 -2.13404E+00 -2.93718E+00 -6.30754E-02 -4.92877E-01 +3.49361E-02 +2.60459E+00 -1.88837E+00 +5.27203E+00
 -5.36973E+00 +6.53468E+00 -9.54198E+00 +5.74514E+00 -1.33272E+01 +2.72976E+00 -1.56739E+01 -2.16752E+00
 -1.57871E+01 -8.15164E+00 -1.33044E+01 -1.41381E+01 -8.38091E+00 -1.89752E+01 -1.66725E+00 -2.16800E+01
 +5.81457E+00 -2.16397E+01 +1.28702E+01 -1.87363E+01 +1.83652E+01 -1.33718E+01 +2.14440E+01 -6.38809E+00
 +2.16890E+01 +1.09833E+00 +1.91917E+01 +7.91400E+00 +1.45207E+01 +1.30519E+01 +8.59762E+00 +1.58563E+01
 +2.50573E+00 +1.61328E+01 -2.72555E+00 +1.41628E+01 -6.31821E+00 +1.06232E+01 -7.88464E+00 +6.42959E+00
 -7.48211E+00 +2.53787E+00 -5.57417E+00 -2.54168E-01 -2.91007E+00 -1.46450E+00 -3.49493E-01 -1.01263E+00
 +1.32915E+00 +7.82016E-01 +1.59686E+00 +3.28602E+00 +2.84049E-01 +5.70190E+00 -2.38871E+00 +7.24914E+00
 -5.86383E+00 +7.33744E+00 -9.37044E+00 +5.69659E+00 -1.20915E+01 +2.43654E+00 -1.33383E+01 -1.97324E+00
 -1.26970E+01 -6.79909E+00 -1.01158E+01 -1.11922E+01 -5.91775E+00 -1.43598E+01 -7.37207E-01 -1.57222E+01
 +4.60542E+00 -1.50258E+01 +9.26375E+00 -1.23879E+01 +1.25272E+01 -8.26803E+00 +1.39519E+01 -3.37225E+00
 +1.34356E+01 +1.48792E+00 +1.12229E+01 +5.55252E+00 +7.84279E+00 +8.25400E+00 +3.99289E+00 +9.31456E+00
 +3.95745E-01 +8.78212E+00 -2.34272E+00 +7.00014E+00 -3.84457E+00 +4.52022E+00 -4.01969E+00 +1.97757E+00
 -3.06435E+00 -4.39746E-02 -1.40159E+00 -1.12930E+00 +4.22008E-01 -1.10883E+00 +1.85988E+00 -8.08033E-02
 +2.48346E+00 +1.62318E+00 +2.07027E+00 +3.51985E+00 +6.45491E-01 +5.08440E+00 -1.52983E+00 +5.86530E+00
 -4.01941E+00 +5.57995E+00 -6.30684E+00 +4.17233E+00 -7.90450E+00 +1.82218E+00 -8.45349E+00 -1.09437E+00
 -7.79470E+00 -4.08289E+00 -5.99757E+00 -6.63032E+00 -3.34260E+00 -8.30526E+00 -2.62655E-01 -8.83897E+00
 +2.74331E+00 -8.17154E+00 +5.20604E+00 -6.45579E+00 +6.77182E+00 -4.01997E+00 +7.26214E+00 -1.29856E+00
 +6.69673E+00 +1.25360E+00 +5.27756E+00 +3.24624E+00 +3.33906E+00 +4.42122E+00 +1.27629E+00 +4.69047E+00
 -5.33549E-01 +4.13891E+00 -1.80061E+00 +2.99408E+00 -2.36999E+00 +1.57049E+00 -2.23958E+00 +2.01540E-01
 -1.54698E+00 -8.27103E-01 -5.30097E-01 -1.32947E+00 +5.28665E-01 -1.24774E+00 +1.36271E+00 -6.53286E-01
 +1.77372E+00 +2.77772E-01 +1.66669E+00 +1.30779E+00 +1.06207E+00 +2.18967E+00 +8.43750E-02 +2.71694E+00
 -1.06859E+00 +2.76238E+00 -2.16853E+00 +2.29854E+00 -3.00228E+00 +1.39779E+00 -3.41129E+00 +2.13479E-01
 -3.31825E+00 -1.05266E+00 -2.73681E+00 -2.18957E+00 -1.76424E+00 -3.01486E+00 -5.59851E-01 -3.40471E+00
 +6.85683E-01 -3.31140E+00 +1.78387E+00 -2.76645E+00 +2.57874E+00 -1.87028E+00 +2.96934E+00 -7.71625E-01
 +2.92151E+00 +3.58906E-01 +2.46822E+00 +1.35631E+00 +1.69985E+00 +2.08530E+00 +7.46864E-01 +2.45793E+00
 -2.41623E-01 +2.44285E+00 -1.12015E+00 +2.06607E+00 -1.76691E+00 +1.40380E+00 -2.09932E+00 +5.69236E-01
 -2.08352E+00 -3.04661E-01 -1.73732E+00 -1.08420E+00 -1.12634E+00 -1.65349E+00 -3.54130E-01 -1.93043E+00
 +4.52810E-01 -1.87829E+00 +1.16337E+00 -1.51139E+00 +1.66140E+00 -8.93822E-01 +1.86408E+00 -1.30785E-01
 +1.73611E+00 +6.46685E-01 +1.29753E+00 +1.30211E+00 +6.22904E-01 +1.71623E+00 -1.68683E-01 +1.80853E+00
 -9.32164E-01 +1.55365E+00 -1.52114E+00 +9.89279E-01 -1.81480E+00 +2.13252E-01 -1.74225E+00 -6.30882E-01
 -1.29942E+00 -1.37807E+00 -5.54499E-01 -1.87209E+00 +3.60250E-01 -1.99663E+00 +1.26989E+00 -1.70101E+00
 +1.98838E+00 -1.01492E+00 +2.35473E+00 -4.83531E-02 +2.26703E+00 +1.02461E+00 +1.70695E+00 +1.99609E+00
 +7.49349E-01 +2.66372E+00 -4.46409E-01 +2.87160E+00 -1.66276E+00 +2.54465E+00 -2.66377E+00 +1.70889E+00
 -3.24131E+00 +4.92519E-01 -3.25828E+00 -8.93658E-01 -2.68011E+00 -2.19369E+00 -1.58719E+00 -3.15520E+00
 -1.64639E-01 -3.57996E+00 +1.32966E+00 -3.36609E+00 +2.61331E+00 -2.53273E+00 +3.43484E+00 -1.22126E+00
 +3.62526E+00 +3.28222E-01 +3.13492E+00 +1.82144E+00 +2.04755E+00 +2.96726E+00 +5.67544E-01 +3.53641E+00
 -1.01774E+00 +3.40960E+00 -2.39392E+00 +2.60469E+00 -3.28279E+00 +1.27663E+00 -3.49990E+00 -3.10789E-01
 -2.99453E+00 -1.83635E+00 -1.86308E+00 -2.98607E+00 -3.32489E-01 -3.51806E+00 +1.28390E+00 -3.31401E+00
 +2.64940E+00 -2.40645E+00 +3.47352E+00 -9.75140E-01 +3.57343E+00 +6.87155E-01 +2.91456E+00 +2.23335E+00
 +1.62110E+00 +3.33343E+00 -4.63905E-02 +3.74392E+00 -1.74240E+00 +3.36094E+00 -3.10688E+00 +2.24529E+00
 -3.84034E+00 +6.13674E-01 -3.76801E+00 -1.20283E+00 -2.87951E+00 -2.82519E+00 -1.33505E+00 -3.90430E+00
 +5.63714E-01 -4.19447E+00 +2.43288E+00 -3.60692E+00 +3.88387E+00 -2.23195E+00 +4.60359E+00 -3.24334E-01
 +4.42047E+00 +1.74550E+00 +3.34258E+00 +3.56514E+00 +1.55935E+00 +4.76376E+00 -5.94028E-01 +5.08849E+00
 -2.70262E+00 +4.45761E+00 -4.35508E+00 +2.97936E+00 -5.22712E+00 +9.31927E-01 -5.14803E+00 -1.29162E+00
 -4.13615E+00 -3.26242E+00 -2.39585E+00 -4.60277E+00 -2.76184E-01 -5.06314E+00 +1.80036E+00 -4.57309E+00
 +3.42460E+00 -3.25535E+00 +4.28481E+00 -1.40015E+00 +4.23091E+00 +5.95392E-01 +3.30519E+00 +2.31013E+00
 +1.73299E+00 +3.38701E+00 -1.24849E-01 +3.60799E+00 -1.84816E+00 +2.94011E+00 -3.04626E+00 +1.54295E+00
 -3.44111E+00 -2.64389E-01 -2.92727E+00 -2.06996E+00 -1.59599E+00 -3.45567E+00 +2.81783E-01 -4.08599E+00
 +2.31023E+00 -3.78006E+00 +4.05012E+00 -2.55219E+00 +5.11013E+00 -6.11986E-01 +5.22900E+00 +1.67612E+00
 +4.33152E+00 +3.86572E+00 +2.54661E+00 +5.51890E+00 +1.83471E-01 +6.29546E+00 -2.32926E+00 +6.02269E+00
 -4.52901E+00 +4.73116E+00 -6.01184E+00 +2.64911E+00 -6.51298E+00 +1.56708E-01 -5.95897E+00 -2.29052E+00
 -4.48059E+00 -4.25316E+00 -2.38420E+00 -5.39547E+00 -8.75769E-02 -5.55105E+00 +1.96635E+00 -4.75329E+00
 +3.39989E+00 -3.22448E+00 +3.97650E+00 -1.32622E+00 +3.64645E+00 +5.18303E-01 +2.55327E+00 +1.91387E+00
 +9.99734E-01 +2.57581E+00 -6.19073E-01 +2.38862E+00 -1.90146E+00 +1.42840E+00 -2.52556E+00 -5.51862E-02
 -2.31844E+00 -1.69349E+00 -1.29347E+00 -3.07840E+00 +3.51602E-01 -3.85002E+00 +2.27551E+00 -3.77424E+00
 +4.06441E+00 -2.79391E+00 +5.31818E+00 -1.04326E+00 +5.73408E+00 +1.17760E+00 +5.17045E+00 +3.46237E+00
 +3.67737E+00 +5.38037E+00 +1.48805E+00 +6.56317E+00 -1.02697E+00 +6.77851E+00 -3.43323E+00 +5.97619E+00
 -5.31819E+00 +4.29709E+00 -6.37179E+00 +2.04351E+00 -6.44542E+00 -3.82443E-01 -5.57756E+00 -2.55955E+00
 -3.98133E+00 -4.13055E+00 -1.99716E+00 -4.87056E+00 -2.08398E-02 -4.72716E+00 +1.57792E+00 -3.82450E+00
 +2.52944E+00 -2.43124E+00 +2.71556E+00 -8.99667E-01 +2.18846E+00 +4.10884E-01 +1.15357E+00 +1.21009E+00
 -7.91867E-02 +1.33650E+00 -1.16499E+00 +7.88984E-01 -1.79986E+00 -2.76233E-01 -1.78639E+00 -1.58180E+00
 -1.07621E+00 -2.79058E+00 +2.19665E-01 -3.57903E+00 +1.85410E+00 -3.70706E+00 +3.49554E+00 -3.06997E+00
 +4.79704E+00 -1.72181E+00 +5.46822E+00 +1.34218E-01 +5.33511E+00 +2.18607E+00 +4.37596E+00 +4.07509E+00
 +2.72580E+00 +5.46719E+00 +6.49493E-01 +6.11840E+00 -1.51091E+00 +5.92140E+00 -3.40325E+00 +4.92415E+00
 -4.73296E+00 +3.31729E+00 -5.31774E+00 +1.39365E+00 -5.11856E+00 -5.11388E-01 -4.24116E+00 -2.08602E+00
 -2.90893E+00 -3.10121E+00 -1.41322E+00 -3.45114E+00 -5.20379E-02 -3.16732E+00 +9.30081E-01 -2.40448E+00
 +1.38881E+00 -1.40187E+00 +1.30424E+00 -4.28942E-01 +7.78481E-01 +2.73069E-01 +7.81338E-03 +5.41348E-01
 -7.63736E-01 +3.23494E-01 -1.29940E+00 -3.14813E-01 -1.42146E+00 -1.20729E+00 -1.04925E+00 -2.12533E+00
 -2.15705E-01 -2.82854E+00 +9.40150E-01 -3.11674E+00 +2.20288E+00 -2.87262E+00 +3.32562E+00 -2.08653E+00
 +4.08081E+00 -8.58736E-01 +4.30617E+00 +6.20838E-01 +3.93673E+00 +2.11048E+00 +3.01666E+00 +3.36424E+00
 +1.68938E+00 +4.17922E+00 +1.68238E-01 +4.43311E+00 -1.30539E+00 +4.10487E+00 -2.50809E+00 +3.27507E+00
 -3.27503E+00 +2.10647E+00 -3.52749E+00 +8.09674E-01 -3.28242E+00 -3.98791E-01 -2.64300E+00 -1.33732E+00
 -1.77293E+00 -1.89093E+00 -8.60599E-01 -2.02806E+00 -8.05277E-02 -1.79991E+00 +4.39798E-01 -1.32341E+00
 +6.41567E-01 -7.52215E-01 +5.40972E-01 -2.42216E-01 +2.19880E-01 +8.11284E-02 -1.96364E-01 +1.47153E-01
 -5.68751E-01 -4.84559E-02 -7.75517E-01 -4.46521E-01 -7.37808E-01 -9.40270E-01 -4.35133E-01 -1.40031E+00
 +9.19789E-02 -1.70312E+00 +7.51992E-01 -1.75706E+00 +1.42236E+00 -1.52085E+00 +1.97494E+00 -1.01109E+00
 +2.30159E+00 -2.97986E-01 +2.33463E+00 +5.09260E-01 +2.05876E+00 +1.28402E+00 +1.51233E+00 +1.90607E+00
 +7.78512E-01 +2.28307E+00 -3.13108E-02 +2.36568E+00 -7.98342E-01 +2.15391E+00 -1.41708E+00 +1.69412E+00
 -1.81218E+00 +1.06810E+00 -1.94861E+00 +3.76640E-01 -1.83392E+00 -2.78711E-01 -1.51296E+00 -8.12308E-01
 -1.05663E+00 -1.16668E+00 -5.47479E-01 -1.31866E+00 -6.49176E-02 -1.27899E+00 +3.27219E-01 -1.08619E+00
 +5.88934E-01 -7.96622E-01 +7.07238E-01 -4.72744E-01 +6.94371E-01 -1.72050E-01 +5.82088E-01 +6.17011E-02
 +4.13519E-01 +2.03722E-01 +2.34318E-01 +2.49607E-01 +8.46239E-02 +2.13249E-01 -7.01890E-03 +1.22122E-01
 -2.71678E-02 +1.10396E-02 +2.17266E-02 -8.44892E-02 +1.22970E-01 -1.34327E-01 +2.49200E-01 -1.18501E-01
 +3.67242E-01 -3.02634E-02 +4.43602E-01 +1.22786E-01 +4.49952E-01 +3.19549E-01 +3.68023E-01 +5.28144E-01
 +1.93335E-01 +7.10263E-01 -6.27524E-02 +8.26756E-01 -3.73125E-01 +8.43883E-01 -6.97390E-01 +7.39465E-01
 -9.86741E-01 +5.07987E-01 -1.19082E+00 +1.63717E-01 -1.26580E+00 -2.59009E-01 -1.18242E+00 -7.08834E-01
 -9.32663E-01 -1.12373E+00 -5.33613E-01 -1.44002E+00 -2.73743E-02 -1.60276E+00 +5.23390E-01 -1.57581E+00
 +1.04406E+00 -1.34963E+00 +1.45961E+00 -9.45034E-01 +1.70729E+00 -4.11904E-01 +1.74808E+00 +1.77529E-01
 +1.57462E+00 +7.39937E-01 +1.21380E+00 +1.19490E+00 +7.23211E-01 +1.47915E+00 +1.81531E-01 +1.55829E+00
 -3.25398E-01 +1.43349E+00 -7.20418E-01 +1.14159E+00 -9.49705E-01 +7.48264E-01 -9.93204E-01 +3.35256E-01
