 Created: 16-Jan-2021
 $NMID
 ID='D:\BASISSIMULATI'
 FMTDAT='(8E13.5)'
 VOLUME=   1.00000E+00
 TRAMP=   1.00000E+00
 $END
 +3.61898E+01 +1.67068E-01 +3.29518E+01 +1.50060E+01 +2.38853E+01 +2.71916E+01 +1.06138E+01 +3.45507E+01
 -4.48431E+00 +3.57836E+01 -1.87105E+01 +3.06978E+01 -2.95371E+01 +2.02380E+01 -3.50655E+01 +6.30818E+00
 -3.43648E+01 -8.58170E+00 -2.76315E+01 -2.17759E+01 -1.61414E+01 -3.09553E+01 -2.00432E+00 -3.45531E+01
 +1.22295E+01 -3.20263E+01 +2.40375E+01 -2.39376E+01 +3.13800E+01 -1.18331E+01 +3.30589E+01 +2.05590E+00
 +2.89153E+01 +1.52313E+01 +1.98340E+01 +2.53844E+01 +7.55724E+00 +3.08079E+01 -5.65269E+00 +3.06874E+01
 -1.74363E+01 +2.52220E+01 -2.57653E+01 +1.55572E+01 -2.92973E+01 +3.54753E+00 -2.75936E+01 -8.60260E+00
 -2.11656E+01 -1.87488E+01 -1.13453E+01 -2.51911E+01 -1.21221E-02 -2.69622E+01 +1.07698E+01 -2.39707E+01
 +1.91322E+01 -1.69783E+01 +2.37310E+01 -7.42180E+00 +2.39628E+01 +2.87973E+00 +2.00362E+01 +1.20734E+01
 +1.28900E+01 +1.86098E+01 +3.98155E+00 +2.15066E+01 -5.00747E+00 +2.04931E+01 -1.24909E+01 +1.60161E+01
 -1.72606E+01 +9.11192E+00 -1.86811E+01 +1.17862E+00 -1.67662E+01 -6.30519E+00 -1.21291E+01 -1.20570E+01
 -5.82425E+00 -1.52113E+01 +8.82077E-01 -1.54465E+01 +6.76348E+00 -1.29992E+01 +1.08583E+01 -8.57305E+00
 +1.26259E+01 -3.16504E+00 +1.20091E+01 +2.14926E+00 +9.39829E+00 +6.42705E+00 +5.51192E+00 +9.02502E+00
 +1.22341E+00 +9.69198E+00 -2.62581E+00 +8.57510E+00 -5.38873E+00 +6.14577E+00 -6.71951E+00 +3.06728E+00
 -6.60728E+00 +3.64188E-02 -5.33658E+00 -2.36528E+00 -3.38900E+00 -3.78022E+00 -1.31251E+00 -4.12337E+00
 +4.10188E-01 -3.56536E+00 +1.46506E+00 -2.45935E+00 +1.76064E+00 -1.23270E+00 +1.42386E+00 -2.71029E-01
 +7.42819E-01 +1.77566E-01 +7.34996E-02 +5.67809E-02 -2.65203E-01 -4.96167E-01 -8.18179E-02 -1.19933E+00
 +6.33740E-01 -1.71160E+00 +1.70521E+00 -1.73296E+00 +2.81470E+00 -1.09416E+00 +3.58584E+00 +1.86492E-01
 +3.68519E+00 +1.89367E+00 +2.91699E+00 +3.65621E+00 +1.28811E+00 +5.03004E+00 -9.73657E-01 +5.60432E+00
 -3.45402E+00 +5.10628E+00 -5.63346E+00 +3.47997E+00 -6.99855E+00 +9.19549E-01 -7.15923E+00 -2.15255E+00
 -5.94591E+00 -5.16031E+00 -3.46388E+00 -7.48745E+00 -9.11498E-02 -8.60621E+00 +3.58230E+00 -8.19456E+00
 +6.86330E+00 -6.21619E+00 +9.09136E+00 -2.94483E+00 +9.77409E+00 +1.07418E+00 +8.69432E+00 +5.11956E+00
 +5.96577E+00 +8.42915E+00 +2.02450E+00 +1.03481E+01 -2.44397E+00 +1.04609E+01 -6.62910E+00 +8.68000E+00
 -9.74766E+00 +5.27289E+00 -1.11945E+01 +8.20315E-01 -1.06622E+01 -3.88675E+00 -8.20533E+00 -7.99277E+00
 -4.23678E+00 -1.07380E+01 +5.44616E-01 -1.16027E+01 +5.28151E+00 -1.04073E+01 +9.11650E+00 -7.34908E+00
 +1.13516E+01 -2.96823E+00 +1.15781E+01 +1.95121E+00 +9.75312E+00 +6.52558E+00 +6.20661E+00 +9.93464E+00
 +1.58009E+00 +1.15722E+01 -3.29280E+00 +1.11560E+01 -7.54022E+00 +8.77745E+00 -1.04117E+01 +4.88082E+00
 -1.14135E+01 +1.78637E-01 -1.03949E+01 -4.48170E+00 -7.57021E+00 -8.27378E+00 -3.47359E+00 -1.05416E+01
 +1.14370E+00 -1.09147E+01 +5.45359E+00 -9.36962E+00 +8.70227E+00 -6.22535E+00 +1.03441E+01 -2.07805E+00
 +1.01340E+01 +2.31364E+00 +8.16328E+00 +6.16940E+00 +4.83303E+00 +8.82765E+00 +7.72639E-01 +9.86030E+00
 -3.28021E+00 +9.14154E+00 -6.61500E+00 +6.85987E+00 -8.67411E+00 +3.47315E+00 -9.14631E+00 -3.83072E-01
 -8.01254E+00 -4.01553E+00 -5.53743E+00 -6.79870E+00 -2.21050E+00 -8.28292E+00 +1.35031E+00 -8.26649E+00
 +4.51371E+00 -6.82027E+00 +6.74722E+00 -4.26267E+00 +7.70652E+00 -1.09180E+00 +7.28702E+00 +2.11103E+00
 +5.63041E+00 +4.78778E+00 +3.08728E+00 +6.50056E+00 +1.44779E-01 +7.00231E+00 -2.66604E+00 +6.27005E+00
 -4.86550E+00 +4.49681E+00 -6.10633E+00 +2.04612E+00 -6.22695E+00 -6.20964E-01 -5.26907E+00 -3.03165E+00
 -3.45890E+00 -4.78435E+00 -1.15711E+00 -5.61431E+00 +1.21152E+00 -5.43147E+00 +3.23539E+00 -4.32574E+00
 +4.58638E+00 -2.54079E+00 +5.07145E+00 -4.22822E-01 +4.65766E+00 +1.64516E+00 +3.46824E+00 +3.31131E+00
 +1.75200E+00 +4.31335E+00 -1.66770E-01 +4.51798E+00 -1.94814E+00 +3.93588E+00 -3.29535E+00 +2.71127E+00
 -4.00265E+00 +1.08945E+00 -3.98477E+00 -6.30699E-01 -3.28434E+00 -2.15036E+00 -2.05735E+00 -3.22121E+00
 -5.40500E-01 -3.68434E+00 +9.93030E-01 -3.49204E+00 +2.28135E+00 -2.70975E+00 +3.11711E+00 -1.49921E+00
 +3.37934E+00 -8.64696E-02 +3.04938E+00 +1.27898E+00 +2.20915E+00 +2.36689E+00 +1.02288E+00 +3.00371E+00
 -2.93720E-01 +3.09901E+00 -1.51152E+00 +2.65707E+00 -2.42658E+00 +1.77247E+00 -2.89313E+00 +6.11048E-01
 -2.84584E+00 -6.20178E-01 -2.30814E+00 -1.70880E+00 -1.38566E+00 -2.47261E+00 -2.46315E-01 -2.78925E+00
 +9.09329E-01 -2.61518E+00 +1.88248E+00 -1.99117E+00 +2.50954E+00 -1.03371E+00 +2.68899E+00 +8.60195E-02
 +2.39760E+00 +1.17208E+00 +1.69314E+00 +2.03733E+00 +7.03512E-01 +2.53524E+00 -3.95948E-01 +2.58436E+00
 -1.41299E+00 +2.18165E+00 -2.17169E+00 +1.40227E+00 -2.54262E+00 +3.85947E-01 -2.46495E+00 -6.87685E-01
 -1.95651E+00 -1.63055E+00 -1.11018E+00 -2.27893E+00 -7.72156E-02 -2.52195E+00 +9.59601E-01 -2.32063E+00
 +1.81826E+00 -1.71435E+00 +2.34958E+00 -8.13431E-01 +2.46333E+00 +2.20853E-01 +2.14379E+00 +1.20512E+00
 +1.45194E+00 +1.96660E+00 +5.14055E-01 +2.37372E+00 -5.01443E-01 +2.35916E+00 -1.41441E+00 +1.93121E+00
 -2.06527E+00 +1.17143E+00 -2.34335E+00 +2.19166E-01 -2.20595E+00 -7.54224E-01 -1.68503E+00 -1.57653E+00
 -8.80215E-01 -2.10563E+00 +6.03168E-02 -2.25446E+00 +9.67430E-01 -2.00557E+00 +1.68189E+00 -1.41277E+00
 +2.08280E+00 -5.89806E-01 +2.10837E+00 +3.11628E-01 +1.76550E+00 +1.13023E+00 +1.12649E+00 +1.72441E+00
 +3.14054E-01 +1.99721E+00 -5.22490E-01 +1.91224E+00 -1.23503E+00 +1.49817E+00 -1.70327E+00 +8.41103E-01
 -1.85532E+00 +6.68189E-02 -1.67859E+00 -6.83506E-01 -1.21943E+00 -1.27936E+00 -5.72100E-01 -1.62384E+00
 +1.40480E-01 -1.66943E+00 +7.90231E-01 -1.42398E+00 +1.26711E+00 -9.46339E-01 +1.49776E+00 -3.33046E-01
 +1.45647E+00 +3.01119E-01 +1.16687E+00 +8.44629E-01 +6.94637E-01 +1.20879E+00 +1.33158E-01 +1.34194E+00
 -4.14781E-01 +1.23604E+00 -8.55660E-01 +9.25088E-01 -1.12087E+00 +4.76148E-01 -1.17677E+00 -2.46667E-02
 -1.02787E+00 -4.88450E-01 -7.13086E-01 -8.38879E-01 -2.96563E-01 -1.02413E+00 +1.45076E-01 -1.02363E+00
 +5.36337E-01 -8.48960E-01 +8.15047E-01 -5.39482E-01 +9.41277E-01 -1.53875E-01 +9.01952E-01 +2.40534E-01
 +7.10940E-01 +5.78774E-01 +4.05161E-01 +8.07885E-01 +3.77352E-02 +8.94026E-01 -3.30545E-01 +8.26393E-01
 -6.40171E-01 +6.17803E-01 -8.41207E-01 +3.02237E-01 -9.00080E-01 -7.01441E-02 -8.04267E-01 -4.39878E-01
 -5.64475E-01 -7.46248E-01 -2.14047E-01 -9.35773E-01 +1.94530E-01 -9.70288E-01 +5.95944E-01 -8.33696E-01
 +9.20826E-01 -5.36372E-01 +1.10620E+00 -1.16238E-01 +1.10639E+00 +3.64267E-01 +9.02702E-01 +8.25603E-01
 +5.10064E-01 +1.18254E+00 -2.11130E-02 +1.35835E+00 -6.09160E-01 +1.29966E+00 -1.15173E+00 +9.89408E-01
 -1.54186E+00 +4.55034E-01 -1.68741E+00 -2.30542E-01 -1.53052E+00 -9.56452E-01 -1.06337E+00 -1.58989E+00
 -3.36404E-01 -1.99871E+00 +5.43672E-01 -2.07709E+00 +1.42727E+00 -1.76949E+00 +2.14558E+00 -1.08798E+00
 +2.54110E+00 -1.18376E-01 +2.49988E+00 +9.87465E-01 +1.97908E+00 +2.03339E+00 +1.02373E+00 +2.81217E+00
 -2.31923E-01 +3.14476E+00 -1.58063E+00 +2.91859E+00 -2.77471E+00 +2.11684E+00 -3.57004E+00 +8.32043E-01
 -3.77413E+00 -7.40554E-01 -3.28888E+00 -2.33057E+00 -2.13907E+00 -3.63763E+00 -4.79399E-01 -4.38683E+00
 +1.42323E+00 -4.38445E+00 +3.23112E+00 -3.56289E+00 +4.59472E+00 -2.00502E+00 +5.21901E+00 +5.87685E-02
 +4.92493E+00 +2.28247E+00 +3.69327E+00 +4.26149E+00 +1.68111E+00 +5.60556E+00 -7.94636E-01 +6.01461E+00
 -3.30577E+00 +5.34282E+00 -5.38639E+00 +3.63775E+00 -6.61895E+00 +1.14488E+00 -6.71691E+00 -1.72545E+00
 -5.58785E+00 -4.46499E+00 -3.36337E+00 -6.55757E+00 -3.88197E-01 -7.57618E+00 +2.83212E+00 -7.26898E+00
 +5.71715E+00 -5.61691E+00 +7.71660E+00 -2.85038E+00 +8.41535E+00 +5.80576E-01 +7.61839E+00 +4.07921E+00
 +5.39840E+00 +7.00653E+00 +2.09514E+00 +8.79875E+00 -1.73566E+00 +9.07614E+00 -5.41627E+00 +7.72204E+00
 -8.26807E+00 +4.91590E+00 -9.73771E+00 +1.11195E+00 -9.50488E+00 -3.03439E+00 -7.55046E+00 -6.78064E+00
 -4.17075E+00 -9.43184E+00 +6.66685E-02 -1.04708E+01 +4.41927E+00 -9.65939E+00 +8.10141E+00 -7.09117E+00
 +1.04281E+01 -3.18340E+00 +1.09440E+01 +1.39106E+00 +9.51309E+00 +5.82131E+00 +6.35097E+00 +9.30435E+00
 +1.99314E+00 +1.11928E+01 -2.79712E+00 +1.11171E+01 -7.16458E+00 +9.05813E+00 -1.03173E+01 +5.35666E+00
 -1.16728E+01 +6.56328E-01 -1.09672E+01 -4.21023E+00 -8.30712E+00 -8.37151E+00 -4.15418E+00 -1.10760E+01
 +7.56859E-01 -1.18304E+01 +5.55030E+00 -1.04915E+01 +9.36862E+00 -7.29331E+00 +1.15289E+01 -2.80627E+00
 +1.16472E+01 +2.16692E+00 +9.70872E+00 +6.73739E+00 +6.06915E+00 +1.00922E+01 +1.38859E+00 +1.16418E+01
 -3.49045E+00 +1.11260E+01 -7.69760E+00 +8.65863E+00 -1.04932E+01 +4.70328E+00 -1.14011E+01 -1.52459E-02
 -1.02916E+01 -4.64603E+00 -7.39979E+00 -8.36861E+00 -3.27617E+00 -1.05415E+01 +1.31936E+00 -1.08154E+01
 +5.56012E+00 -9.19002E+00 +8.70455E+00 -6.00615E+00 +1.02287E+01 -1.87477E+00 +9.91569E+00 +2.44167E+00
 +7.88543E+00 +6.17254E+00 +4.56223E+00 +8.67969E+00 +5.86574E-01 +9.56908E+00 -3.30974E+00 +8.75352E+00
 -6.44093E+00 +6.45638E+00 -8.29070E+00 +3.15747E+00 -8.59913E+00 -5.06439E-01 -7.39810E+00 -3.86600E+00
 -4.99059E+00 -6.34410E+00 -1.88016E+00 -7.55728E+00 +1.33356E+00 -7.37565E+00 +4.07192E+00 -5.93172E+00
 +5.88373E+00 -3.57909E+00 +6.52116E+00 -8.11410E-01 +5.97197E+00 +1.84028E+00 +4.44438E+00 +3.91085E+00
 +2.31013E+00 +5.08458E+00 +1.96499E-02 +5.24349E+00 -1.99205E+00 +4.47322E+00 -3.38928E+00 +3.02779E+00
 -3.99289E+00 +1.26328E+00 -3.80091E+00 -4.44016E-01 -2.97077E+00 -1.77672E+00 -1.76939E+00 -2.53651E+00
 -5.04150E-01 -2.67346E+00 +5.49175E-01 -2.28048E+00 +1.20529E+00 -1.55616E+00 +1.40270E+00 -7.46536E-01
 +1.20536E+00 -8.01576E-02 +7.74005E-01 +2.88032E-01 +3.15234E-01 +3.11113E-01 +2.16091E-02 +5.54990E-02
 +1.75375E-02 -3.23298E-01 +3.24244E-01 -6.27911E-01 +8.52407E-01 -6.77387E-01 +1.42441E+00 -3.61904E-01
 +1.82107E+00 +3.19884E-01 +1.84168E+00 +1.25074E+00 +1.36295E+00 +2.21549E+00 +3.81934E-01 +2.94870E+00
