 Created: 16-Jan-2021
 $NMID
 ID='D:\BASISSIMULATI'
 FMTDAT='(8E13.5)'
 VOLUME=   1.00000E+00
 TRAMP=   1.00000E+00
 $END
 +4.04655E+01 +2.01824E-01 +2.64465E+01 +2.64331E+01 -1.39804E+00 +2.88280E+01 -1.57038E+01 +8.11672E+00
 -4.09432E+00 -1.16632E+01 +1.83416E+01 -8.43689E+00 +2.51707E+01 +1.49386E+01 +6.39473E+00 +3.38052E+01
 -2.10164E+01 +2.75032E+01 -3.06623E+01 +9.30131E-01 -1.39658E+01 -2.04730E+01 +1.11474E+01 -1.69415E+01
 +1.89886E+01 +5.47717E+00 +2.64426E+00 +2.16487E+01 -1.92213E+01 +1.37307E+01 -2.21588E+01 -1.02996E+01
 -1.57391E+00 -2.51032E+01 +2.24221E+01 -1.44402E+01 +2.58279E+01 +1.19334E+01 +5.48520E+00 +2.83641E+01
 -1.78966E+01 +1.97333E+01 -2.13547E+01 -3.25832E+00 -3.33185E+00 -1.56413E+01 +1.51135E+01 -4.33201E+00
 +1.25647E+01 +1.83406E+01 -1.03178E+01 +2.76268E+01 -3.14357E+01 +1.21671E+01 -3.01090E+01 -1.42228E+01
 -8.30342E+00 -2.68676E+01 +1.17006E+01 -1.55979E+01 +1.05357E+01 +5.15808E+00 -8.37189E+00 +1.18066E+01
 -2.27831E+01 -3.71852E+00 -1.50923E+01 -2.56631E+01 +9.25028E+00 -3.09705E+01 +2.73665E+01 -1.32563E+01
 +2.25682E+01 +1.06415E+01 +1.36527E+00 +1.81288E+01 -1.36247E+01 +4.02567E+00 -7.24321E+00 -1.45490E+01
 +1.27195E+01 -1.63790E+01 +2.40134E+01 +1.67977E+00 +1.33080E+01 +2.15443E+01 -9.90782E+00 +2.28012E+01
 -2.31774E+01 +3.85530E+00 -1.42254E+01 -1.65538E+01 +6.65835E+00 -1.87950E+01 +1.76325E+01 -2.41070E+00
 +8.01892E+00 +1.39023E+01 -1.08983E+01 +1.20770E+01 -1.79687E+01 -6.50220E+00 -4.34029E+00 -2.25821E+01
 +1.73564E+01 -1.91213E+01 +2.61277E+01 +1.12203E+00 +1.42024E+01 +1.86170E+01 -5.29725E+00 +1.72899E+01
 -1.22909E+01 +8.43564E-01 -5.66795E-01 -1.15901E+01 +1.60944E+01 -5.63629E+00 +1.85807E+01 +1.33932E+01
 +2.42840E+00 +2.61659E+01 -1.75927E+01 +1.94319E+01 -2.27963E+01 -3.94499E-01 -9.70230E+00 -1.40772E+01
 +6.78928E+00 -9.44304E+00 +9.16167E+00 +6.39169E+00 -4.60005E+00 +1.49014E+01 -1.92508E+01 +5.64527E+00
 -1.84066E+01 -1.29406E+01 -1.60378E+00 -2.24392E+01 +1.53168E+01 -1.35308E+01 +1.66143E+01 +4.57675E+00
 +2.66018E+00 +1.39030E+01 -1.09021E+01 +6.23958E+00 -9.64857E+00 -8.76037E+00 +4.77192E+00 -1.40536E+01
 +1.66830E+01 -3.07606E+00 +1.28795E+01 +1.35492E+01 -3.69920E+00 +1.91642E+01 -1.71502E+01 +8.26360E+00
 -1.50435E+01 -8.07987E+00 -9.54074E-01 -1.38878E+01 +9.69552E+00 -4.68909E+00 +5.83267E+00 +8.28999E+00
 -7.95177E+00 +1.01807E+01 -1.64968E+01 -1.99910E+00 -9.96581E+00 -1.63973E+01 +6.04528E+00 -1.87226E+01
 +1.64513E+01 -6.90749E+00 +1.22126E+01 +7.06631E+00 -6.98897E-01 +9.74882E+00 -7.92895E+00 -4.70245E-02
 -1.76428E+00 -1.04732E+01 +1.10849E+01 -9.28654E+00 +1.67488E+01 +3.42449E+00 +8.66879E+00 +1.55013E+01
 -5.76057E+00 +1.53755E+01 -1.29948E+01 +3.83314E+00 -7.21947E+00 -7.14334E+00 +4.06264E+00 -6.91637E+00
 +8.21464E+00 +3.04038E+00 +6.35284E-01 +1.11157E+01 -1.07205E+01 +7.87491E+00 -1.38504E+01 -4.20840E+00
 -5.14879E+00 -1.35015E+01 +7.06939E+00 -1.12711E+01 +1.13085E+01 -4.47184E-01 +4.59493E+00 +7.75897E+00
 -4.89498E+00 +5.54032E+00 -6.65889E+00 -3.71791E+00 +1.25524E+00 -9.36503E+00 +1.05021E+01 -4.71434E+00
 +1.12988E+01 +6.14745E+00 +2.48554E+00 +1.27801E+01 -7.51996E+00 +9.15098E+00 -9.53138E+00 -4.48118E-01
 -2.84755E+00 -6.17307E+00 +4.47519E+00 -2.82891E+00 +4.25399E+00 +5.08651E+00 -3.42410E+00 +8.42064E+00
 -1.05776E+01 +2.95338E+00 -9.74688E+00 -6.40717E+00 -1.57005E+00 -1.08737E+01 +6.14156E+00 -6.75977E+00
 +6.53400E+00 +1.07074E+00 +4.98016E-01 +4.53256E+00 -4.69094E+00 +6.30885E-01 -3.11636E+00 -5.79469E+00
 +3.79788E+00 -7.40231E+00 +9.03810E+00 -1.96677E+00 +7.33770E+00 +5.53501E+00 +4.12397E-01 +8.20863E+00
 -5.07980E+00 +4.19646E+00 -4.41891E+00 -1.78451E+00 +6.35873E-01 -3.56729E+00 +4.06742E+00 +2.05872E-01
 +1.95321E+00 +5.03858E+00 -3.67629E+00 +5.48312E+00 -7.19196E+00 +7.09193E-01 -5.19082E+00 -4.88219E+00
 +2.50998E-01 -6.30064E+00 +3.97080E+00 -2.89249E+00 +2.99077E+00 +1.36422E+00 -7.67036E-01 +2.15230E+00
 -2.81543E+00 -9.02129E-01 -7.80606E-01 -4.19124E+00 +3.38638E+00 -4.02686E+00 +5.64240E+00 -3.09855E-01
 +3.95868E+00 +3.61980E+00 +1.17079E-01 +4.47041E+00 -2.33951E+00 +2.11961E+00 -1.64136E+00 -6.17912E-01
 +7.49870E-01 -1.00376E+00 +1.93025E+00 +1.02643E+00 +5.07032E-01 +3.11506E+00 -2.23078E+00 +3.00317E+00
 -3.80726E+00 +6.56411E-01 -2.97297E+00 -1.94040E+00 -6.79685E-01 -2.80799E+00 +1.05900E+00 -1.70373E+00
 +1.06520E+00 -5.51922E-02 -1.44724E-01 +5.39274E-01 -1.09028E+00 -3.07672E-01 -7.28381E-01 -1.64409E+00
 +7.45725E-01 -2.15786E+00 +2.20050E+00 -1.27540E+00 +2.53092E+00 +4.58235E-01 +1.48923E+00 +1.85561E+00
 -1.52504E-01 +1.98524E+00 -1.17148E+00 +8.75990E-01 -8.30085E-01 -4.57494E-01 +4.69461E-01 -7.72376E-01
 +1.40409E+00 +3.30372E-01 +8.30217E-01 +1.90619E+00 -1.06843E+00 +2.35714E+00 -2.71865E+00 +9.13285E-01
 -2.49792E+00 -1.43010E+00 -3.85030E-01 -2.61732E+00 +1.75780E+00 -1.47038E+00 +1.82958E+00 +9.65657E-01
 -3.55864E-01 +2.20888E+00 -2.62900E+00 +7.61940E-01 -2.46650E+00 -2.18091E+00 +3.69658E-01 -3.67398E+00
 +3.30691E+00 -1.94673E+00 +3.37802E+00 +1.58089E+00 +3.28029E-01 +3.46672E+00 -2.84738E+00 +1.69732E+00
 -2.78011E+00 -2.04178E+00 +7.21302E-01 -3.82906E+00 +4.19184E+00 -1.48970E+00 +3.89079E+00 +2.93968E+00
 -2.41735E-01 +5.03296E+00 -4.23619E+00 +2.48823E+00 -4.00989E+00 -2.27803E+00 +3.12157E-01 -4.37162E+00
 +4.25463E+00 -1.45520E+00 +3.47155E+00 +3.59964E+00 -1.61695E+00 +5.43181E+00 -5.96230E+00 +1.73394E+00
 -4.95402E+00 -4.10578E+00 +6.76123E-01 -6.25074E+00 +5.33601E+00 -2.44412E+00 +4.23224E+00 +3.43031E+00
 -1.52324E+00 +5.16296E+00 -5.81076E+00 +6.93371E-01 -3.75975E+00 -5.49333E+00 +3.00808E+00 -6.79662E+00
 +7.76163E+00 -1.39197E+00 +5.51934E+00 +5.60535E+00 -1.62865E+00 +7.21430E+00 -6.43720E+00 +1.85089E+00
 -3.94398E+00 -4.81092E+00 +3.21081E+00 -5.57315E+00 +7.29698E+00 +7.15644E-01 +3.49345E+00 +7.68971E+00
 -4.87159E+00 +7.89147E+00 -9.48683E+00 +6.05325E-01 -5.60312E+00 -7.12350E+00 +2.86677E+00 -7.60966E+00
 +7.19540E+00 -5.61524E-01 +2.88037E+00 +6.41476E+00 -5.48778E+00 +5.62113E+00 -8.80113E+00 -2.58242E+00
 -2.93001E+00 -9.87301E+00 +6.72191E+00 -8.46903E+00 +1.05625E+01 +6.57975E-01 +4.72931E+00 +8.52529E+00
 -4.72618E+00 +7.31907E+00 -7.95395E+00 -1.40819E+00 -1.56895E+00 -8.17593E+00 +7.62936E+00 -5.39492E+00
 +9.57276E+00 +4.54766E+00 +1.47686E+00 +1.14981E+01 -8.98220E+00 +7.98908E+00 -1.14031E+01 -2.84488E+00
 -3.45331E+00 -1.02765E+01 +6.54443E+00 -7.02435E+00 +8.14087E+00 +3.08543E+00 -3.02823E-01 +8.95800E+00
 -9.70981E+00 +3.79261E+00 -9.61884E+00 -7.61377E+00 +8.04332E-01 -1.35964E+01 +1.16096E+01 -7.68724E+00
 +1.21933E+01 +4.49347E+00 +2.32653E+00 +1.08608E+01 -7.46711E+00 +5.35914E+00 -6.78630E+00 -5.64228E+00
 +3.71647E+00 -9.87612E+00 +1.28182E+01 -2.01813E+00 +1.03332E+01 +1.05185E+01 -2.12630E+00 +1.50545E+01
 -1.25440E+01 +6.79729E+00 -1.08143E+01 -6.00909E+00 +7.30326E-01 -1.04755E+01 +9.63414E+00 -2.43932E+00
 +6.25679E+00 +9.10855E+00 -6.05413E+00 +1.13204E+01 -1.42656E+01 +9.84649E-01 -9.19268E+00 -1.18674E+01
 +4.75752E+00 -1.41848E+01 +1.39031E+01 -3.46614E+00 +9.36839E+00 +9.48001E+00 -3.65989E+00 +1.16321E+01
 -1.12504E+01 +1.29423E+00 -5.24913E+00 -1.00556E+01 +8.07508E+00 -9.69859E+00 +1.43978E+01 +2.92403E+00
 +6.25787E+00 +1.53598E+01 -8.97368E+00 +1.49138E+01 -1.65113E+01 +1.86535E+00 -9.40706E+00 -1.06820E+01
 +4.20702E+00 -1.03239E+01 +9.54641E+00 +1.72651E+00 +6.33460E-01 +1.18396E+01 -1.33053E+01 +8.18859E+00
 -1.73047E+01 -6.74163E+00 -6.27436E+00 -1.84703E+01 +9.49818E+00 -1.54189E+01 +1.48264E+01 -9.67577E-01
 +5.31530E+00 +9.95384E+00 -8.06631E+00 +6.33510E+00 -1.04095E+01 -7.42612E+00 +1.50553E+00 -1.60561E+01
 +1.56741E+01 -9.36955E+00 +1.72443E+01 +6.91482E+00 +4.02819E+00 +1.68714E+01 -1.10284E+01 +1.07933E+01
 -1.31242E+01 -4.69809E+00 -9.13142E-01 -1.34644E+01 +1.21093E+01 -6.61062E+00 +1.16928E+01 +8.22133E+00
 -2.20161E+00 +1.47865E+01 -1.51874E+01 +5.24336E+00 -1.33380E+01 -1.14622E+01 +2.24606E+00 -1.86703E+01
 +1.63974E+01 -9.21634E+00 +1.54914E+01 +7.11104E+00 +1.53295E+00 +1.37043E+01 -9.97359E+00 +4.40772E+00
 -6.24388E+00 -1.00484E+01 +9.32278E+00 -1.32302E+01 +2.05128E+01 -2.37382E-01 +1.51028E+01 +1.69626E+01
 -2.34263E+00 +2.17580E+01 -1.50541E+01 +1.00496E+01 -1.13528E+01 -5.50923E+00 +3.29401E+00 -8.67166E+00
 +1.20404E+01 +3.47717E+00 +4.31703E+00 +1.74571E+01 -1.29897E+01 +1.74541E+01 -2.25362E+01 +1.92230E+00
 -1.45034E+01 -1.45826E+01 +3.12619E+00 -1.63380E+01 +1.27442E+01 -2.68552E+00 +5.31348E+00 +1.13339E+01
 -1.03212E+01 +1.06578E+01 -1.67322E+01 -4.08619E+00 -6.18303E+00 -1.72090E+01 +1.11461E+01 -1.43317E+01
 +1.76051E+01 +2.50829E+00 +6.38648E+00 +1.67734E+01 -1.13389E+01 +1.44450E+01 -1.79344E+01 -1.51390E+00
 -7.53173E+00 -1.43073E+01 +7.97068E+00 -1.08238E+01 +1.14099E+01 +4.68772E+00 -1.62755E+00 +1.50396E+01
 -1.80429E+01 +8.06244E+00 -2.07223E+01 -1.05775E+01 -6.29517E+00 -2.30718E+01 +1.13183E+01 -1.78068E+01
 +1.52924E+01 -1.29985E+00 +3.27994E+00 +8.68409E+00 -1.02813E+01 +1.68611E+00 -9.34771E+00 -1.45241E+01
 +6.85858E+00 -2.20402E+01 +2.28607E+01 -1.15272E+01 +2.28881E+01 +7.91962E+00 +7.21115E+00 +1.80487E+01
 -8.13876E+00 +1.02460E+01 -7.98347E+00 -5.67579E+00 +6.32035E+00 -1.18232E+01 +1.84335E+01 -9.33026E-01
 +1.41954E+01 +1.60218E+01 -3.47235E+00 +2.12526E+01 -1.74416E+01 +8.72203E+00 -1.40612E+01 -9.45885E+00
 +2.72865E+00 -1.54711E+01 +1.55184E+01 -4.14233E+00 +1.14917E+01 +1.18506E+01 -4.35311E+00 +1.53124E+01
 -1.45534E+01 +2.50513E+00 -7.51136E+00 -1.29351E+01 +1.02851E+01 -1.42056E+01 +2.08673E+01 +1.12015E+00
 +1.33500E+01 +1.84606E+01 -4.83998E+00 +2.12364E+01 -1.57200E+01 +7.91759E+00 -9.40108E+00 -6.58961E+00
 +5.76315E+00 -6.61075E+00 +1.20459E+01 +7.90394E+00 +9.66778E-01 +2.13091E+01 -1.77251E+01 +1.85628E+01
 -2.60375E+01 +9.26834E-01 -1.62953E+01 -1.52496E+01 +1.01014E+00 -1.53713E+01 +8.19665E+00 -1.55174E+00
 -1.26165E+00 +9.82614E+00 -1.60876E+01 +5.33690E+00 -1.91116E+01 -1.14240E+01 -5.29789E+00 -2.35504E+01
 +1.28717E+01 -1.84074E+01 +1.82271E+01 -7.85644E-01 +6.59110E+00 +1.20217E+01 -9.04265E+00 +8.05704E+00
