 Created: 16-Jan-2021
 $NMID
 ID='D:\BASISSIMULATI'
 FMTDAT='(8E13.5)'
 VOLUME=   1.00000E+00
 TRAMP=   1.00000E+00
 $END
 +5.94800E+01 +6.20535E-01 +4.33333E+01 -2.42164E+01 +6.53402E+00 -2.71222E+01 -2.56769E+01 -3.16778E+00
 -3.28765E+01 +3.16308E+01 -1.40612E+01 +5.24882E+01 +1.27715E+01 +4.44254E+01 +2.51379E+01 +1.30363E+01
 +1.31106E+01 -2.03145E+01 -1.40030E+01 -3.45317E+01 -3.56903E+01 -2.35600E+01 -3.60027E+01 +8.34006E-01
 -1.48457E+01 +1.92807E+01 +1.30918E+01 +1.93654E+01 +2.98227E+01 +3.54089E+00 +2.66121E+01 -1.45244E+01
 +8.57605E+00 -2.10812E+01 -1.07972E+01 -1.19691E+01 -1.98461E+01 +5.77793E+00 -1.58507E+01 +2.02030E+01
 -4.84037E+00 +2.28869E+01 +4.21524E+00 +1.35048E+01 +5.69012E+00 -1.61377E+00 -9.98968E-02 -1.44939E+01
 -8.52220E+00 -2.00325E+01 -1.41343E+01 -1.76202E+01 -1.34772E+01 -1.01466E+01 -6.17131E+00 -2.00610E+00
 +5.24772E+00 +2.76075E+00 +1.62141E+01 +2.00885E+00 +2.17773E+01 -3.36639E+00 +1.89943E+01 -9.38734E+00
 +9.06757E+00 -1.08595E+01 -2.53234E+00 -4.73576E+00 -8.91350E+00 +7.11789E+00 -6.28510E+00 +1.82135E+01
 +3.00776E+00 +2.13683E+01 +1.16230E+01 +1.38856E+01 +1.22820E+01 +8.57048E-02 +3.26514E+00 -1.11683E+01
 -9.90393E+00 -1.25626E+01 -1.81831E+01 -3.64771E+00 -1.55885E+01 +8.71998E+00 -3.71144E+00 +1.53199E+01
 +9.29993E+00 +1.12757E+01 +1.45860E+01 -4.77732E-01 +8.87965E+00 -1.15045E+01 -3.37505E+00 -1.41113E+01
 -1.34868E+01 -6.81336E+00 -1.47951E+01 +4.90192E+00 -7.11207E+00 +1.27800E+01 +3.66630E+00 +1.16412E+01
 +1.00845E+01 +2.64449E+00 +8.26967E+00 -8.02272E+00 +1.47032E-01 -1.36504E+01 -8.38891E+00 -1.13462E+01
 -1.16331E+01 -3.42755E+00 -7.61145E+00 +4.59618E+00 +1.07379E+00 +7.72042E+00 +9.19987E+00 +4.39077E+00
 +1.21752E+01 -2.87093E+00 +8.64230E+00 -9.20744E+00 +1.11341E+00 -1.03688E+01 -5.57692E+00 -5.23381E+00
 -7.15324E+00 +3.43722E+00 -2.56530E+00 +1.05175E+01 +5.15591E+00 +1.16076E+01 +1.06103E+01 +5.96124E+00
 +9.53138E+00 -2.71974E+00 +1.90828E+00 -8.48150E+00 -7.57739E+00 -7.16105E+00 -1.25006E+01 +4.51593E-01
 -9.25427E+00 +8.82159E+00 +5.96543E-02 +1.14833E+01 +8.81189E+00 +5.89970E+00 +1.05728E+01 -4.31358E+00
 +3.99739E+00 -1.17699E+01 -5.94265E+00 -1.07816E+01 -1.15784E+01 -1.82263E+00 -8.42358E+00 +8.58884E+00
 +1.22650E+00 +1.27175E+01 +9.91442E+00 +7.52924E+00 +1.07484E+01 -2.92811E+00 +2.81215E+00 -1.06383E+01
 -8.02818E+00 -9.85303E+00 -1.36184E+01 -1.55784E+00 -9.80771E+00 +7.36279E+00 +4.07913E-01 +9.59494E+00
 +9.33240E+00 +3.15563E+00 +1.06095E+01 -7.09602E+00 +4.05814E+00 -1.33187E+01 -4.44457E+00 -1.07879E+01
 -7.78633E+00 -1.41939E+00 -3.22036E+00 +7.93178E+00 +5.64693E+00 +1.08717E+01 +1.18670E+01 +6.23316E+00
 +1.05944E+01 -1.41794E+00 +2.65554E+00 -5.66674E+00 -6.36713E+00 -3.26856E+00 -1.05404E+01 +3.59740E+00
 -7.90135E+00 +9.33962E+00 -1.47913E+00 +9.37494E+00 +3.43195E+00 +3.45127E+00 +3.36009E+00 -4.48058E+00
 -1.03108E+00 -9.40294E+00 -5.87516E+00 -8.78429E+00 -7.21434E+00 -3.98009E+00 -3.80714E+00 +1.20618E+00
 +2.27527E+00 +3.39782E+00 +7.34573E+00 +1.79148E+00 +8.61304E+00 -1.71922E+00 +5.77094E+00 -4.16661E+00
 +8.52891E-01 -3.54997E+00 -3.24189E+00 +5.78660E-03 -4.48055E+00 +4.48116E+00 -2.72042E+00 +7.23470E+00
 +3.92645E-01 +6.52580E+00 +2.48751E+00 +2.50712E+00 +1.92059E+00 -2.79919E+00 -1.14382E+00 -6.57563E+00
 -4.68704E+00 -6.83502E+00 -6.00040E+00 -3.68690E+00 -3.48730E+00 +6.27839E-01 +2.04292E+00 +3.14024E+00
 +7.60335E+00 +2.20142E+00 +9.84627E+00 -1.23634E+00 +7.34292E+00 -4.15352E+00 +1.68987E+00 -3.60765E+00
 -3.48967E+00 +9.85024E-01 -5.06103E+00 +7.15981E+00 -2.61793E+00 +1.09541E+01 +1.24153E+00 +9.67194E+00
 +2.87001E+00 +3.85412E+00 +3.38710E-01 -3.02874E+00 -5.04296E+00 -6.97195E+00 -9.59719E+00 -6.17922E+00
 -9.89731E+00 -2.17102E+00 -5.21750E+00 +1.48611E+00 +1.93632E+00 +1.82838E+00 +7.52780E+00 -1.41833E+00
 +8.65379E+00 -5.74665E+00 +5.31824E+00 -7.71983E+00 +2.05274E-01 -5.38869E+00 -3.24108E+00 +3.74884E-01
 -3.06006E+00 +6.42876E+00 +9.45400E-02 +9.33176E+00 +3.54325E+00 +7.44195E+00 +4.41462E+00 +1.88153E+00
 +1.56045E+00 -4.15093E+00 -3.59878E+00 -7.28631E+00 -7.82481E+00 -6.00283E+00 -8.03215E+00 -1.56561E+00
 -3.35028E+00 +2.74481E+00 +4.03432E+00 +3.76280E+00 +9.96765E+00 +6.56655E-01 +1.08754E+01 -4.27811E+00
 +6.20220E+00 -6.99925E+00 -9.97128E-01 -4.56001E+00 -5.96840E+00 +2.49950E+00 -5.55238E+00 +1.00743E+01
 -5.52143E-01 +1.30888E+01 +4.70210E+00 +9.10978E+00 +5.50384E+00 +3.39377E-01 +4.28191E-01 -7.67669E+00
 -7.30374E+00 -9.89793E+00 -1.19787E+01 -5.43028E+00 -9.61480E+00 +1.82083E+00 -1.09681E+00 +6.09049E+00
 +8.24193E+00 +4.12755E+00 +1.23891E+01 -2.33492E+00 +8.97280E+00 -7.93337E+00 +8.68378E-01 -7.82181E+00
 -6.08604E+00 -1.41436E+00 -7.45377E+00 +7.13993E+00 -3.29184E+00 +1.20464E+01 +2.27990E+00 +1.00782E+01
 +4.49033E+00 +2.72223E+00 +1.53911E+00 -5.19280E+00 -4.29193E+00 -9.09669E+00 -8.62735E+00 -7.67613E+00
 -8.29388E+00 -3.19961E+00 -3.37574E+00 +6.66074E-01 +3.24634E+00 +1.57373E+00 +8.10818E+00 -2.60984E-01
 +9.26218E+00 -2.81476E+00 +6.92689E+00 -3.97062E+00 +2.74774E+00 -2.76631E+00 -1.33854E+00 +4.23836E-01
 -3.82799E+00 +4.36443E+00 -3.94092E+00 +7.44791E+00 -1.86063E+00 +8.07774E+00 +1.06550E+00 +5.27579E+00
 +2.68029E+00 -4.47656E-01 +1.27930E+00 -6.65793E+00 -2.81830E+00 -9.88749E+00 -6.79126E+00 -7.83082E+00
 -6.90019E+00 -1.41030E+00 -1.43461E+00 +5.20373E+00 +7.23121E+00 +7.25634E+00 +1.35583E+01 +3.11171E+00
 +1.26471E+01 -3.97104E+00 +4.25148E+00 -7.86581E+00 -6.35838E+00 -4.30776E+00 -1.18866E+01 +5.28546E+00
 -8.52819E+00 +1.42354E+01 +8.04166E-01 +1.54211E+01 +8.40492E+00 +6.96527E+00 +7.69485E+00 -5.80737E+00
 -1.41353E+00 -1.40373E+01 -1.21074E+01 -1.20296E+01 -1.58159E+01 -1.75553E+00 -8.99236E+00 +8.54791E+00
 +3.87259E+00 +1.07454E+01 +1.35356E+01 +3.16941E+00 +1.30943E+01 -8.08646E+00 +3.29935E+00 -1.40085E+01
 -8.12046E+00 -9.78817E+00 -1.25464E+01 +1.43595E+00 -7.09905E+00 +1.11350E+01 +3.40394E+00 +1.21051E+01
 +1.05413E+01 +3.95051E+00 +8.98638E+00 -6.91266E+00 +4.50714E-01 -1.24929E+01 -8.05829E+00 -9.35141E+00
 -9.95967E+00 -8.15198E-01 -4.08088E+00 +6.15569E+00 +4.90488E+00 +6.59306E+00 +1.05318E+01 +1.07034E+00
 +9.53004E+00 -5.35626E+00 +3.81849E+00 -7.50017E+00 -1.66818E+00 -3.95177E+00 -3.10267E+00 +2.40228E+00
 -3.98975E-01 +7.16230E+00 +3.42339E+00 +7.85244E+00 +5.08620E+00 +5.26998E+00 +3.50014E+00 +2.12007E+00
 +1.38992E-02 +5.71484E-01 -3.20662E+00 +8.88233E-01 -4.90237E+00 +1.92630E+00 -5.13965E+00 +2.53720E+00
 -4.52311E+00 +2.39375E+00 -3.37968E+00 +1.70057E+00 -1.78933E+00 +5.15054E-01 -1.73969E-01 -1.32629E+00
 +5.43558E-01 -3.57258E+00 -3.16020E-01 -5.10793E+00 -2.22246E+00 -4.53671E+00 -3.43573E+00 -1.54156E+00
 -2.35195E+00 +2.29089E+00 +8.42427E-01 +4.27181E+00 +3.84088E+00 +2.69115E+00 +3.85803E+00 -1.54138E+00
 +7.71904E-02 -5.31413E+00 -5.22860E+00 -5.72829E+00 -8.12127E+00 -2.59911E+00 -6.03514E+00 +1.16692E+00
 +3.64890E-02 +1.85311E+00 +6.13726E+00 -1.89217E+00 +8.39152E+00 -7.65657E+00 +6.05773E+00 -1.09422E+01
 +2.05636E+00 -8.66500E+00 +4.97852E-01 -1.64503E+00 +3.23619E+00 +5.96039E+00 +8.28842E+00 +9.82226E+00
 +1.14000E+01 +8.63238E+00 +9.43510E+00 +4.79433E+00 +2.82523E+00 +2.20079E+00 -4.81809E+00 +3.04470E+00
 -9.45282E+00 +6.25423E+00 -9.41804E+00 +8.63933E+00 -6.17789E+00 +7.58152E+00 -2.72381E+00 +3.00563E+00
 -1.20923E+00 -2.77890E+00 -1.72022E+00 -6.91256E+00 -2.83542E+00 -7.83211E+00 -3.08853E+00 -5.81508E+00
 -1.97057E+00 -2.24710E+00 +1.00349E-01 +1.38503E+00 +2.33947E+00 +3.95188E+00 +3.91711E+00 +4.67007E+00
 +3.92446E+00 +3.22532E+00 +1.54362E+00 +2.20922E-01 -3.20064E+00 -2.65209E+00 -8.64429E+00 -3.44289E+00
 -1.17561E+01 -1.55238E+00 -9.93990E+00 +1.21758E+00 -3.29800E+00 +1.53793E+00 +4.66035E+00 -2.78659E+00
 +9.04436E+00 -1.03552E+01 +7.25416E+00 -1.62878E+01 +1.42094E+00 -1.54842E+01 -2.76481E+00 -6.83252E+00
 -4.41876E-01 +5.12480E+00 +8.10748E+00 +1.29387E+01 +1.69326E+01 +1.17519E+01 +1.86228E+01 +3.30739E+00
 +1.02630E+01 -5.01189E+00 -3.65224E+00 -5.78046E+00 -1.40490E+01 +2.46053E+00 -1.40080E+01 +1.36734E+01
 -4.21224E+00 +1.87989E+01 +7.34547E+00 +1.29197E+01 +1.14100E+01 -5.62357E-01 +4.63413E+00 -1.22229E+01
 -7.79766E+00 -1.37531E+01 -1.62300E+01 -4.37704E+00 -1.41089E+01 +8.52961E+00 -3.08429E+00 +1.51224E+01
 +8.35406E+00 +1.05918E+01 +1.15442E+01 -1.37730E+00 +4.29752E+00 -1.17615E+01 -7.64496E+00 -1.32888E+01
 -1.52779E+01 -5.81626E+00 -1.32370E+01 +4.05672E+00 -3.52492E+00 +8.48332E+00 +6.56691E+00 +4.39578E+00
 +1.03020E+01 -4.59995E+00 +6.33479E+00 -1.15517E+01 -1.01577E+00 -1.16688E+01 -5.73246E+00 -5.58742E+00
 -4.76071E+00 +1.81292E+00 +2.69585E-01 +5.55377E+00 +5.11800E+00 +4.09523E+00 +6.58066E+00 -2.98888E-01
 +4.61845E+00 -4.04744E+00 +1.61795E+00 -5.09420E+00 -1.33667E-02 -3.82222E+00 +3.95852E-01 -1.81221E+00
 +1.94113E+00 -8.05314E-02 +3.53658E+00 +1.48749E+00 +4.88544E+00 +3.29380E+00 +6.13557E+00 +5.02122E+00
 +6.88658E+00 +5.72845E+00 +5.93551E+00 +4.98371E+00 +2.32184E+00 +3.72950E+00 -3.27281E+00 +3.71448E+00
 -8.33700E+00 +5.76998E+00 -1.01340E+01 +8.53876E+00 -7.93662E+00 +9.10405E+00 -3.89450E+00 +5.32173E+00
 -1.52163E+00 -2.02364E+00 -2.84165E+00 -9.23592E+00 -6.54719E+00 -1.21902E+01 -8.85535E+00 -9.44216E+00
 -6.54186E+00 -3.43372E+00 +2.53120E-01 +1.29963E+00 +7.78913E+00 +1.58354E+00 +1.13693E+01 -2.00847E+00
 +8.83388E+00 -5.73960E+00 +2.16502E+00 -5.78303E+00 -4.03498E+00 -1.31834E+00 -5.95587E+00 +4.78800E+00
 -3.21871E+00 +8.18900E+00 +1.20628E+00 +6.35039E+00 +3.55430E+00 +3.73883E-01 +2.17777E+00 -5.93618E+00
 -1.40155E+00 -8.87675E+00 -3.91478E+00 -7.31297E+00 -2.94109E+00 -3.06985E+00 +1.35650E+00 +7.70930E-01
 +6.51347E+00 +2.16834E+00 +9.60803E+00 +1.30590E+00 +9.16752E+00 +2.36505E-02 +5.84290E+00 +2.06517E-01
 +1.63939E+00 +2.42612E+00 -1.50558E+00 +5.69223E+00 -2.77290E+00 +8.24475E+00 -2.61667E+00 +8.67669E+00
 -2.17826E+00 +6.67299E+00 -2.46904E+00 +3.06984E+00 -3.77697E+00 -6.44235E-01 -5.51970E+00 -3.07646E+00
 -6.56960E+00 -3.60133E+00 -5.92212E+00 -2.65859E+00 -3.40010E+00 -1.47533E+00 +4.58173E-02 -1.27129E+00
