 Created: 16-Jan-2021
 $NMID
 ID='D:\BASISSIMULATI'
 FMTDAT='(8E13.5)'
 VOLUME=   1.00000E+00
 TRAMP=   1.00000E+00
 $END
 +5.64881E+01 +2.86217E-01 +4.49554E+01 -1.40615E+01 +1.61344E+01 -1.72625E+01 -1.56492E+01 -4.97144E+00
 -3.53294E+01 +1.72036E+01 -3.50987E+01 +3.67786E+01 -1.81213E+01 +4.16867E+01 +3.97848E+00 +2.74854E+01
 +1.81753E+01 +2.32069E-01 +1.74301E+01 -2.66629E+01 +4.17272E+00 -3.97727E+01 -1.19110E+01 -3.29514E+01
 -2.01842E+01 -1.04710E+01 -1.55427E+01 +1.56357E+01 -1.24864E+00 +3.23128E+01 +1.33833E+01 +3.23608E+01
 +1.88344E+01 +1.76495E+01 +1.11450E+01 -2.83374E+00 -5.80406E+00 -1.85806E+01 -2.26769E+01 -2.33379E+01
 -3.01197E+01 -1.78040E+01 -2.39535E+01 -8.05695E+00 -7.17060E+00 -1.12149E+00 +1.21604E+01 -6.10236E-01
 +2.55545E+01 -5.02719E+00 +2.84710E+01 -9.44988E+00 +2.19742E+01 -9.17892E+00 +1.11219E+01 -2.87540E+00
 +1.48517E+00 +6.73329E+00 -3.88408E+00 +1.47953E+01 -5.32583E+00 +1.74522E+01 -5.16331E+00 +1.40534E+01
 -5.36385E+00 +7.15851E+00 -6.03983E+00 +5.65883E-01 -5.74885E+00 -3.13606E+00 -3.15724E+00 -3.83068E+00
 +1.35328E+00 -3.24624E+00 +5.46597E+00 -3.11061E+00 +6.36339E+00 -3.58035E+00 +2.82118E+00 -3.15986E+00
 -3.59265E+00 -1.73049E-01 -9.21105E+00 +5.35105E+00 -1.05456E+01 +1.09069E+01 -6.67783E+00 +1.26581E+01
 -9.45914E-02 +7.93717E+00 +4.74684E+00 -2.53448E+00 +4.33057E+00 -1.43444E+01 -1.39190E+00 -2.15013E+01
 -8.60382E+00 -1.98725E+01 -1.18018E+01 -9.86557E+00 -7.32393E+00 +3.42811E+00 +3.97457E+00 +1.29300E+01
 +1.67052E+01 +1.36397E+01 +2.38100E+01 +5.65396E+00 +2.07149E+01 -5.75620E+00 +8.27581E+00 -1.31787E+01
 -7.36001E+00 -1.14767E+01 -1.80506E+01 -9.60563E-01 -1.82667E+01 +1.26310E+01 -8.30904E+00 +2.14055E+01
 +5.80063E+00 +1.99509E+01 +1.57514E+01 +8.59122E+00 +1.57200E+01 -6.68651E+00 +5.70740E+00 -1.76193E+01
 -8.50855E+00 -1.83921E+01 -1.87602E+01 -8.93646E+00 -1.92157E+01 +5.10561E+00 -9.68723E+00 +1.56900E+01
 +4.36508E+00 +1.69817E+01 +1.50625E+01 +8.58016E+00 +1.66282E+01 -4.45766E+00 +8.56799E+00 -1.47054E+01
 -4.25796E+00 -1.66787E+01 -1.45850E+01 -9.84576E+00 -1.68977E+01 +1.32867E+00 -1.03694E+01 +1.01891E+01
 +1.00471E+00 +1.17904E+01 +1.09752E+01 +5.60480E+00 +1.46625E+01 -4.43662E+00 +1.11060E+01 -1.24239E+01
 +3.38055E+00 -1.38910E+01 -3.57438E+00 -8.17861E+00 -5.96270E+00 +1.50677E+00 -3.17315E+00 +1.01682E+01
 +2.22846E+00 +1.38626E+01 +6.34782E+00 +1.16443E+01 +6.39282E+00 +5.63005E+00 +2.21395E+00 -6.14148E-01
 -3.84683E+00 -4.22542E+00 -8.52616E+00 -4.43543E+00 -9.55758E+00 -2.52100E+00 -6.79013E+00 -5.79352E-01
 -1.97171E+00 -5.60568E-02 +2.48367E+00 -9.66186E-01 +4.87308E+00 -2.18104E+00 +4.90393E+00 -2.42775E+00
 +3.43757E+00 -1.24134E+00 +1.63527E+00 +7.59316E-01 +1.77032E-01 +2.37529E+00 -9.46096E-01 +2.68144E+00
 -2.04603E+00 +1.61194E+00 -3.16804E+00 -9.42802E-02 -3.83790E+00 -1.48329E+00 -3.34226E+00 -2.04468E+00
 -1.32982E+00 -1.96409E+00 +1.73831E+00 -1.82250E+00 +4.66718E+00 -2.00825E+00 +6.14059E+00 -2.31176E+00
 +5.48743E+00 -2.02911E+00 +3.09477E+00 -5.20088E-01 +1.82966E-01 +2.17837E+00 -1.92261E+00 +5.14628E+00
 -2.55716E+00 +6.98068E+00 -2.03195E+00 +6.58723E+00 -1.31341E+00 +3.86959E+00 -1.29875E+00 -1.32949E-01
 -2.17892E+00 -3.76641E+00 -3.30874E+00 -5.63408E+00 -3.65885E+00 -5.29588E+00 -2.53822E+00 -3.39106E+00
 -1.04783E-01 -1.14977E+00 +2.66898E+00 +3.65889E-01 +4.54591E+00 +8.10135E-01 +4.72961E+00 +5.82910E-01
 +3.28140E+00 +3.88268E-01 +1.01118E+00 +6.67500E-01 -1.04705E+00 +1.30048E+00 -2.21104E+00 +1.75143E+00
 -2.41586E+00 +1.51565E+00 -2.04837E+00 +5.24622E-01 -1.53156E+00 -7.81837E-01 -9.92136E-01 -1.75412E+00
 -2.51327E-01 -1.97153E+00 +8.83416E-01 -1.49718E+00 +2.28273E+00 -7.69563E-01 +3.41027E+00 -2.24170E-01
 +3.59519E+00 +5.87229E-02 +2.49334E+00 +4.01001E-01 +4.04839E-01 +1.21617E+00 -1.80869E+00 +2.56525E+00
 -3.19488E+00 +3.92637E+00 -3.27791E+00 +4.39790E+00 -2.34151E+00 +3.25393E+00 -1.22044E+00 +5.02853E-01
 -7.21377E-01 -2.94352E+00 -1.05516E+00 -5.65538E+00 -1.67267E+00 -6.43248E+00 -1.63804E+00 -4.97046E+00
 -3.10586E-01 -2.03139E+00 +2.11593E+00 +9.95180E-01 +4.59537E+00 +2.87308E+00 +5.78182E+00 +3.16138E+00
 +4.82717E+00 +2.33276E+00 +1.92700E+00 +1.32773E+00 -1.73347E+00 +8.67765E-01 -4.60586E+00 +9.94329E-01
 -5.59264E+00 +1.13060E+00 -4.55763E+00 +5.96962E-01 -2.25291E+00 -8.00694E-01 +2.34185E-01 -2.53622E+00
 +2.11396E+00 -3.65718E+00 +3.19320E+00 -3.40902E+00 +3.69558E+00 -1.75480E+00 +3.81590E+00 +5.75745E-01
 +3.40744E+00 +2.54576E+00 +2.08428E+00 +3.45723E+00 -3.20147E-01 +3.32634E+00 -3.30992E+00 +2.72418E+00
 -5.71567E+00 +2.21193E+00 -6.25062E+00 +1.81284E+00 -4.34104E+00 +9.61073E-01 -6.69455E-01 -9.72668E-01
 +3.02131E+00 -3.93199E+00 +4.85902E+00 -6.79418E+00 +3.98499E+00 -7.77104E+00 +1.16589E+00 -5.48499E+00
 -1.60100E+00 -8.60122E-02 -2.33686E+00 +6.38268E+00 -4.36187E-01 +1.07875E+01 +2.77716E+00 +1.05700E+01
 +4.75934E+00 +5.34613E+00 +3.38921E+00 -2.58253E+00 -1.45100E+00 -9.26617E+00 -7.42561E+00 -1.12280E+01
 -1.08712E+01 -7.48229E+00 -8.96352E+00 -2.17336E-01 -1.65666E+00 +6.36531E+00 +7.86398E+00 +8.46674E+00
 +1.46662E+01 +4.96646E+00 +1.47770E+01 -1.83306E+00 +7.57884E+00 -7.51976E+00 -3.56709E+00 -8.23338E+00
 -1.29659E+01 -3.10233E+00 -1.56699E+01 +5.05279E+00 -1.02629E+01 +1.12633E+01 +2.80691E-01 +1.13640E+01
 +1.02176E+01 +4.61562E+00 +1.42483E+01 -5.61396E+00 +1.04806E+01 -1.36085E+01 +1.42814E+00 -1.45509E+01
 -7.53549E+00 -7.38245E+00 -1.13491E+01 +4.42363E+00 -8.19209E+00 +1.46837E+01 -4.50138E-01 +1.79091E+01
 +6.82275E+00 +1.23515E+01 +8.99806E+00 +9.44576E-01 +4.65949E+00 -1.03769E+01 -3.57325E+00 -1.59834E+01
 -1.06467E+01 -1.35695E+01 -1.21129E+01 -5.19297E+00 -6.77919E+00 +4.16279E+00 +2.59394E+00 +9.55184E+00
 +1.09161E+01 +8.77355E+00 +1.37048E+01 +3.29360E+00 +9.59020E+00 -3.01450E+00 +9.57582E-01 -6.39380E+00
 -7.54848E+00 -5.39658E+00 -1.16794E+01 -1.46531E+00 -9.80602E+00 +2.30738E+00 -3.48806E+00 +3.32120E+00
 +3.76762E+00 +1.10732E+00 +8.64151E+00 -2.52547E+00 +9.68269E+00 -4.81871E+00 +7.62125E+00 -3.91665E+00
 +4.35012E+00 -2.38704E-02 +1.44608E+00 +4.82313E+00 -7.16240E-01 +8.12209E+00 -2.73823E+00 +8.44049E+00
 -5.18566E+00 +6.11234E+00 -7.67765E+00 +2.72152E+00 -8.85504E+00 -1.53078E-01 -7.32333E+00 -1.97571E+00
 -2.89747E+00 -3.33210E+00 +2.82067E+00 -5.04595E+00 +7.09426E+00 -7.07232E+00 +7.64134E+00 -8.11078E+00
 +4.15507E+00 -6.38103E+00 -1.31354E+00 -1.12704E+00 -5.49340E+00 +6.22427E+00 -5.92408E+00 +1.22419E+01
 -2.58795E+00 +1.31819E+01 +1.98644E+00 +7.31483E+00 +4.33973E+00 -3.56848E+00 +2.46289E+00 -1.45944E+01
 -2.60537E+00 -2.01870E+01 -7.12514E+00 -1.71505E+01 -6.91499E+00 -6.64200E+00 -2.22062E-01 +6.24279E+00
 +1.06275E+01 +1.51838E+01 +2.00144E+01 +1.61546E+01 +2.20198E+01 +9.68395E+00 +1.39839E+01 +4.73290E-01
 -1.50743E+00 -5.46827E+00 -1.75448E+01 -4.49612E+00 -2.63965E+01 +2.40596E+00 -2.36967E+01 +1.01890E+01
 -1.09289E+01 +1.28593E+01 +5.28233E+00 +7.31019E+00 +1.67391E+01 -4.47125E+00 +1.81046E+01 -1.62465E+01
 +9.68768E+00 -2.10286E+01 -2.98946E+00 -1.52405E+01 -1.25393E+01 -1.06487E+00 -1.39853E+01 +1.44656E+01
 -7.46996E+00 +2.32011E+01 +2.13661E+00 +2.03369E+01 +8.40759E+00 +7.06722E+00 +7.35473E+00 -1.00682E+01
 -1.53449E-01 -2.27446E+01 -8.96683E+00 -2.52752E+01 -1.28301E+01 -1.74159E+01 -8.22737E+00 -4.07160E+00
 +3.40108E+00 +7.75972E+00 +1.63633E+01 +1.29237E+01 +2.38913E+01 +1.06544E+01 +2.19060E+01 +4.40083E+00
 +1.12065E+01 -7.34954E-01 -3.09897E+00 -1.25002E+00 -1.44705E+01 +2.78965E+00 -1.83870E+01 +8.13009E+00
 -1.44240E+01 +1.06454E+01 -5.93886E+00 +8.03955E+00 +2.21258E+00 +1.25834E+00 +6.42420E+00 -6.16627E+00
 +5.95205E+00 -1.03115E+01 +2.64118E+00 -9.17181E+00 -7.71973E-01 -3.68787E+00 -2.52444E+00 +3.01200E+00
 -2.66963E+00 +7.54482E+00 -2.52001E+00 +8.11144E+00 -3.27963E+00 +5.16279E+00 -4.94082E+00 +6.60650E-01
 -6.23718E+00 -3.38931E+00 -5.63613E+00 -6.07325E+00 -2.59878E+00 -7.67163E+00 +1.84758E+00 -8.83002E+00
 +5.67709E+00 -9.57225E+00 +7.19964E+00 -9.00600E+00 +6.21988E+00 -6.01269E+00 +4.17101E+00 -4.26513E-01
 +3.07567E+00 +6.23725E+00 +4.02244E+00 +1.12084E+01 +6.23604E+00 +1.19610E+01 +7.46809E+00 +7.89411E+00
 +5.55041E+00 +1.04597E+00 +1.14290E-01 -4.79176E+00 -6.73190E+00 -6.18609E+00 -1.13729E+01 -2.17543E+00
 -1.08450E+01 +4.96250E+00 -4.87608E+00 +1.08859E+01 +3.55121E+00 +1.17175E+01 +9.63881E+00 +6.44288E+00
 +9.49969E+00 -2.31384E+00 +2.58280E+00 -9.70462E+00 -7.72339E+00 -1.14996E+01 -1.58053E+01 -6.67953E+00
 -1.69643E+01 +1.81653E+00 -1.01785E+01 +8.71681E+00 +1.16901E+00 +9.51385E+00 +1.10999E+01 +3.20923E+00
 +1.43966E+01 -6.95815E+00 +9.57666E+00 -1.52922E+01 -2.53018E-01 -1.69256E+01 -9.17663E+00 -1.06884E+01
 -1.18612E+01 +1.42555E-01 -6.59295E+00 +9.68411E+00 +3.79215E+00 +1.28171E+01 +1.35948E+01 +8.12650E+00
 +1.75383E+01 -1.29951E+00 +1.37265E+01 -9.66508E+00 +4.57911E+00 -1.17993E+01 -4.73174E+00 -6.09151E+00
 -9.35472E+00 +4.64019E+00 -7.50701E+00 +1.47930E+01 -1.31694E+00 +1.91292E+01 +4.64808E+00 +1.56027E+01
 +6.21119E+00 +6.29400E+00 +2.06226E+00 -3.96811E+00 -5.54985E+00 -1.03830E+01 -1.22357E+01 -1.07056E+01
 -1.40758E+01 -6.13419E+00 -9.85955E+00 -2.07099E-01 -1.68405E+00 +3.47345E+00 +6.33351E+00 +3.27077E+00
 +1.03831E+01 +1.51454E-01 +8.94719E+00 -3.28895E+00 +3.36992E+00 -4.65724E+00 -3.16346E+00 -3.25611E+00
 -7.49217E+00 -3.62399E-01 -8.05100E+00 +1.76677E+00 -5.32056E+00 +1.43195E+00 -1.09295E+00 -1.42615E+00
 +2.80549E+00 -5.23313E+00 +5.46948E+00 -7.78394E+00 +7.02601E+00 -7.54571E+00 +8.01053E+00 -4.44628E+00
 +8.59781E+00 +2.63608E-01 +8.30541E+00 +4.86589E+00 +6.38194E+00 +8.11751E+00 +2.56095E+00 +9.68023E+00
 -2.41961E+00 +9.86422E+00 -6.97391E+00 +9.01246E+00 -9.46254E+00 +7.07867E+00 -9.12348E+00 +3.75789E+00
 -6.51653E+00 -9.32542E-01 -3.16614E+00 -6.11282E+00 -6.20451E-01 -1.00628E+01 +4.57753E-01 -1.09593E+01
 +5.64608E-01 -7.95862E+00 +8.12827E-01 -1.93643E+00 +1.95047E+00 +4.67182E+00 +3.63549E+00 +8.96655E+00
 +4.51506E+00 +9.05585E+00 +3.12876E+00 +5.06104E+00 -9.20401E-01 -9.55670E-01 -6.32147E+00 -6.12994E+00
