 Created: 16-Jan-2021
 $NMID
 ID='D:\BASISSIMULATI'
 FMTDAT='(8E13.5)'
 VOLUME=   1.00000E+00
 TRAMP=   1.00000E+00
 $END
 +6.61066E+01 -6.01971E-01 +3.36315E+01 +5.38701E+01 -2.72491E+01 +4.92228E+01 -4.71300E+01 -4.43156E+00
 -7.79667E+00 -4.06889E+01 +3.80451E+01 -1.76007E+01 +3.25895E+01 +3.31254E+01 -1.70265E+01 +4.71472E+01
 -4.94257E+01 +6.97905E+00 -2.57071E+01 -3.76387E+01 +2.28422E+01 -3.23615E+01 +3.42609E+01 +1.41593E+01
 -6.72519E+00 +4.10113E+01 -4.90220E+01 +1.06074E+01 -3.74714E+01 -4.39640E+01 +1.91662E+01 -5.80975E+01
 +5.76915E+01 -1.36910E+01 +3.59006E+01 +3.88710E+01 -1.75828E+01 +4.11260E+01 -3.88416E+01 -4.27892E+00
 -5.48735E+00 -3.88876E+01 +3.83676E+01 -2.02636E+01 +3.77222E+01 +2.77037E+01 -6.35581E+00 +4.61291E+01
 -3.98342E+01 +1.39918E+01 -2.33991E+01 -2.71354E+01 +1.93325E+01 -2.57068E+01 +3.18809E+01 +1.56150E+01
 -4.58838E+00 +4.32338E+01 -4.72899E+01 +1.88711E+01 -4.36457E+01 -3.27536E+01 +4.65153E+00 -5.30906E+01
 +4.33493E+01 -1.99950E+01 +3.05691E+01 +2.62809E+01 -1.40447E+01 +3.20952E+01 -3.46752E+01 -5.78181E+00
 -7.03262E+00 -3.84022E+01 +3.39642E+01 -2.52990E+01 +3.85684E+01 +1.72227E+01 +2.88857E+00 +3.79943E+01
 -2.80702E+01 +1.44311E+01 -1.70774E+01 -2.07629E+01 +1.95493E+01 -2.13170E+01 +3.28729E+01 +1.48848E+01
 +2.30363E+00 +4.30803E+01 -3.85415E+01 +2.66256E+01 -4.23726E+01 -1.80085E+01 -5.23544E+00 -4.08970E+01
 +2.91979E+01 -1.84312E+01 +2.23808E+01 +1.94257E+01 -1.38136E+01 +2.64002E+01 -3.32684E+01 -4.63093E+00
 -1.20013E+01 -3.48923E+01 +2.41525E+01 -2.80762E+01 +3.27348E+01 +6.22833E+00 +6.53524E+00 +2.61503E+01
 -1.92138E+01 +9.71189E+00 -1.15743E+01 -1.90166E+01 +1.94188E+01 -2.08712E+01 +3.36944E+01 +9.52966E+00
 +1.08138E+01 +3.70496E+01 -2.48304E+01 +2.89349E+01 -3.35134E+01 -5.58580E+00 -7.73162E+00 -2.68382E+01
 +1.97981E+01 -1.24062E+01 +1.62507E+01 +1.71014E+01 -1.25100E+01 +2.43278E+01 -3.06980E+01 +2.71085E-01
 -1.65979E+01 -2.63548E+01 +1.22702E+01 -2.51858E+01 +2.21332E+01 -5.25461E-01 +4.38335E+00 +1.57271E+01
 -1.52928E+01 +4.17918E+00 -9.85389E+00 -1.87677E+01 +1.55696E+01 -2.21298E+01 +3.03579E+01 +1.11792E+00
 +1.60769E+01 +2.54930E+01 -1.13142E+01 +2.40494E+01 -2.11254E+01 +5.11893E-01 -4.64041E+00 -1.61321E+01
 +1.55976E+01 -6.86822E+00 +1.39468E+01 +1.54145E+01 -7.82446E+00 +2.28238E+01 -2.40621E+01 +6.29565E+00
 -1.69002E+01 -1.47233E+01 +3.10159E+00 -1.70141E+01 +1.14012E+01 -1.38014E+00 -1.69248E-01 +9.94877E+00
 -1.44425E+01 +1.61254E+00 -1.11284E+01 -1.62587E+01 +8.03617E+00 -2.11901E+01 +2.17399E+01 -6.09634E+00
 +1.51460E+01 +1.24305E+01 -2.68186E+00 +1.45050E+01 -1.04829E+01 +4.55054E-01 -3.96174E-01 -1.06938E+01
 +1.36156E+01 -4.72747E+00 +1.35709E+01 +1.12744E+01 -1.07144E+00 +1.85718E+01 -1.38911E+01 +9.51884E+00
 -1.19354E+01 -4.31489E+00 -5.67912E-01 -7.28539E+00 +4.50270E+00 +1.49620E+00 -3.04783E+00 +8.32748E+00
 -1.30459E+01 +2.61563E+00 -1.20657E+01 -1.02172E+01 +6.71201E-02 -1.58398E+01 +1.04844E+01 -8.48397E+00
 +9.00607E+00 +2.66492E+00 -2.10678E-01 +5.10051E+00 -4.61827E+00 -2.24475E+00 +1.38878E+00 -8.70700E+00
 +1.04519E+01 -5.34294E+00 +1.18640E+01 +4.71763E+00 +4.27119E+00 +1.08757E+01 -3.65793E+00 +7.92853E+00
 -4.26497E+00 +1.39430E+00 +4.07283E-01 -2.09200E-01 +2.24240E+00 +4.22154E+00 -2.49078E+00 +7.81964E+00
 -8.88689E+00 +4.76912E+00 -9.83441E+00 -2.67813E+00 -4.55435E+00 -7.31845E+00 +1.00317E+00 -5.65235E+00
 +1.58710E+00 -1.42302E+00 -1.54125E+00 -4.55731E-01 -2.94555E+00 -3.73567E+00 +1.69460E-01 -6.90154E+00
 +5.05558E+00 -5.90995E+00 +7.21043E+00 -1.55164E+00 +5.55962E+00 +2.14920E+00 +2.93347E+00 +2.86162E+00
 +2.10834E+00 +2.04615E+00 +2.72449E+00 +2.35834E+00 +2.43923E+00 +4.22383E+00 +1.63602E-01 +5.69254E+00
 -2.76892E+00 +5.09632E+00 -4.42835E+00 +2.88338E+00 -4.38141E+00 +7.23402E-01 -3.64838E+00 -4.48283E-01
 -3.17864E+00 -9.97690E-01 -2.99624E+00 -1.62014E+00 -2.67448E+00 -2.49491E+00 -1.97845E+00 -3.43603E+00
 -8.18452E-01 -4.26816E+00 +9.22205E-01 -4.68110E+00 +3.01529E+00 -4.09089E+00 +4.55523E+00 -2.23292E+00
 +4.61270E+00 +1.21284E-01 +3.39251E+00 +1.61027E+00 +2.26200E+00 +1.76289E+00 +2.20084E+00 +1.66496E+00
 +2.47712E+00 +2.63800E+00 +1.46397E+00 +4.36651E+00 -1.14515E+00 +4.98898E+00 -3.55761E+00 +3.36487E+00
 -3.84152E+00 +7.50743E-01 -2.36707E+00 -4.78128E-01 -1.51694E+00 +2.63316E-01 -2.72751E+00 +9.04556E-01
 -4.48080E+00 -7.38875E-01 -3.98023E+00 -4.01230E+00 -6.71502E-01 -5.86887E+00 +2.77900E+00 -4.42923E+00
 +3.48108E+00 -1.33768E+00 +1.73601E+00 +1.28246E-01 +6.06248E-01 -9.99336E-01 +2.06805E+00 -2.25621E+00
 +4.49744E+00 -9.07684E-01 +4.67300E+00 +2.50833E+00 +1.84312E+00 +4.71884E+00 -1.24444E+00 +3.71993E+00
 -1.69261E+00 +1.24461E+00 -1.13048E-02 +5.66202E-01 +6.00343E-01 +2.36602E+00 -1.62866E+00 +3.86304E+00
 -4.69405E+00 +2.32683E+00 -5.20701E+00 -1.41987E+00 -2.54545E+00 -3.89892E+00 +4.07190E-01 -3.14628E+00
 +8.07677E-01 -9.54985E-01 -7.85706E-01 -4.73570E-01 -1.36932E+00 -2.27275E+00 +5.87860E-01 -3.80096E+00
 +3.25996E+00 -2.75558E+00 +3.87399E+00 +1.71169E-02 +2.19304E+00 +1.71045E+00 +6.31953E-01 +1.14564E+00
 +1.01700E+00 +9.97991E-02 +2.27705E+00 +7.82461E-01 +1.99493E+00 +2.86565E+00 -3.28225E-01 +3.92506E+00
 -2.58544E+00 +2.61129E+00 -2.76501E+00 +3.53655E-01 -1.42586E+00 -5.57688E-01 -7.52940E-01 +1.22572E-01
 -1.58767E+00 +5.27511E-01 -2.44004E+00 -6.08793E-01 -1.70744E+00 -2.21220E+00 +3.45154E-02 -2.43417E+00
 +8.45840E-01 -1.28854E+00 +1.98421E-01 -6.43495E-01 -2.08403E-01 -1.51372E+00 +1.12783E+00 -2.43634E+00
 +3.13698E+00 -1.37896E+00 +3.31634E+00 +1.25964E+00 +1.12435E+00 +2.78033E+00 -9.72002E-01 +1.62097E+00
 -5.46290E-01 -3.88237E-01 +1.46941E+00 -2.42893E-01 +1.79444E+00 +2.16592E+00 -8.17671E-01 +3.59659E+00
 -3.55626E+00 +1.63002E+00 -2.95513E+00 -1.81653E+00 +3.81613E-01 -2.57593E+00 +2.10085E+00 +3.15610E-01
 -3.80437E-01 +2.90143E+00 -4.09625E+00 +1.11588E+00 -3.84435E+00 -3.65091E+00 +1.05520E+00 -5.67694E+00
 +5.24068E+00 -1.98465E+00 +3.64074E+00 +3.40672E+00 -1.89691E+00 +3.98543E+00 -4.37781E+00 -1.04733E+00
 -2.99945E-01 -5.27669E+00 +5.51654E+00 -2.83338E+00 +5.52936E+00 +3.91686E+00 -9.29986E-01 +6.77200E+00
 -6.22562E+00 +1.87193E+00 -3.65715E+00 -4.95574E+00 +3.79238E+00 -4.99961E+00 +6.58341E+00 +2.26661E+00
 +4.81653E-01 +7.86109E+00 -7.52294E+00 +4.17060E+00 -7.33172E+00 -5.09518E+00 +1.52151E+00 -8.76470E+00
 +8.53816E+00 -1.92844E+00 +4.84747E+00 +7.36209E+00 -5.41859E+00 +7.46224E+00 -9.55253E+00 -2.32151E+00
 -1.86106E+00 -1.01950E+01 +8.71763E+00 -6.08635E+00 +9.10097E+00 +5.51532E+00 -1.62595E+00 +1.04499E+01
 -1.04251E+01 +2.27468E+00 -6.08012E+00 -9.20665E+00 +6.52996E+00 -9.53543E+00 +1.18030E+01 +2.33509E+00
 +2.62935E+00 +1.20365E+01 -1.01694E+01 +7.19090E+00 -1.06100E+01 -6.81733E+00 +2.50659E+00 -1.27264E+01
 +1.33106E+01 -2.58292E+00 +7.99425E+00 +1.17499E+01 -7.71288E+00 +1.25195E+01 -1.47903E+01 -1.92148E+00
 -4.13276E+00 -1.43182E+01 +1.16492E+01 -9.26785E+00 +1.31016E+01 +7.48424E+00 -2.06644E+00 +1.54173E+01
 -1.55167E+01 +4.29747E+00 -1.04480E+01 -1.27127E+01 +7.39599E+00 -1.47114E+01 +1.61862E+01 +1.09117E+00
 +4.79716E+00 +1.53139E+01 -1.29022E+01 +9.96619E+00 -1.45864E+01 -8.91561E+00 +2.78734E+00 -1.79438E+01
 +1.83791E+01 -5.06132E+00 +1.26082E+01 +1.48754E+01 -8.32428E+00 +1.75777E+01 -1.91788E+01 -7.77669E-01
 -6.36507E+00 -1.80799E+01 +1.48329E+01 -1.28654E+01 +1.83278E+01 +9.08858E+00 -8.01169E-01 +2.11732E+01
 -1.97164E+01 +8.31500E+00 -1.54296E+01 -1.41664E+01 +6.79776E+00 -1.89193E+01 +1.94804E+01 -2.19876E-01
 +6.66130E+00 +1.85228E+01 -1.59342E+01 +1.33546E+01 -1.97623E+01 -1.02588E+01 +1.16673E+00 -2.33899E+01
 +2.20456E+01 -9.06814E+00 +1.71805E+01 +1.61425E+01 -8.09332E+00 +2.16472E+01 -2.30876E+01 +3.12954E-01
 -8.99346E+00 -2.20682E+01 +1.76265E+01 -1.77637E+01 +2.44366E+01 +8.82111E+00 +2.73171E+00 +2.59599E+01
 -2.15643E+01 +1.31033E+01 -1.93280E+01 -1.38340E+01 +6.02464E+00 -2.17680E+01 +2.25385E+01 -1.13116E+00
 +9.06949E+00 +2.20438E+01 -1.82153E+01 +1.80344E+01 -2.52690E+01 -9.51767E+00 -2.24933E+00 -2.73194E+01
 +2.35505E+01 -1.31172E+01 +2.05974E+01 +1.63491E+01 -7.93962E+00 +2.50585E+01 -2.72562E+01 +1.71653E+00
 -1.30561E+01 -2.57904E+01 +1.84359E+01 -2.38530E+01 +2.96979E+01 +5.86039E+00 +7.43634E+00 +2.81011E+01
 -2.11473E+01 +1.68193E+01 -2.15524E+01 -1.30945E+01 +5.76689E+00 -2.41518E+01 +2.59898E+01 -2.46048E+00
 +1.29375E+01 +2.49563E+01 -1.82488E+01 +2.33538E+01 -2.92948E+01 -6.54972E+00 -5.98720E+00 -2.87450E+01
 +2.36412E+01 -1.58924E+01 +2.31053E+01 +1.66197E+01 -7.65125E+00 +2.87628E+01 -3.14482E+01 +4.64057E+00
 -1.87770E+01 -2.75965E+01 +1.61038E+01 -2.94932E+01 +3.21683E+01 +1.09483E+00 +1.12975E+01 +2.74116E+01
 -1.99275E+01 +1.85696E+01 -2.29905E+01 -1.29599E+01 +5.32223E+00 -2.70196E+01 +2.91457E+01 -5.39023E+00
 +1.79272E+01 +2.56039E+01 -1.55598E+01 +2.74647E+01 -3.05471E+01 -2.76925E+00 -8.45670E+00 -2.82901E+01
 +2.36953E+01 -1.74492E+01 +2.58689E+01 +1.70265E+01 -5.90673E+00 +3.29032E+01 -3.40564E+01 +9.73163E+00
 -2.47251E+01 -2.59480E+01 +1.11865E+01 -3.24688E+01 +3.12680E+01 -3.32254E+00 +1.30097E+01 +2.53595E+01
 -1.93149E+01 +1.91176E+01 -2.49344E+01 -1.29830E+01 +3.27204E+00 -3.00470E+01 +3.02582E+01 -1.00021E+01
 +2.22426E+01 +2.31007E+01 -1.13974E+01 +2.87119E+01 -2.93968E+01 -6.96960E-02 -9.37683E+00 -2.75687E+01
 +2.42073E+01 -1.90882E+01 +2.95094E+01 +1.62635E+01 -1.59545E+00 +3.60714E+01 -3.31768E+01 +1.59245E+01
 -2.84769E+01 -2.09271E+01 +5.86699E+00 -3.16882E+01 +2.83232E+01 -5.59733E+00 +1.30404E+01 +2.37698E+01
 -1.92819E+01 +2.00485E+01 -2.75529E+01 -1.16122E+01 -9.67259E-01 -3.15258E+01 +2.79893E+01 -1.46942E+01
 +2.38622E+01 +1.83806E+01 -7.91720E+00 +2.70585E+01 -2.75957E+01 +7.86319E-01 -1.00296E+01 -2.76015E+01
 +2.40737E+01 -2.19472E+01 +3.30039E+01 +1.27891E+01 +4.74425E+00 +3.60904E+01 -2.82946E+01 +2.07273E+01
 -2.83562E+01 -1.45703E+01 +2.43616E+00 -2.81379E+01 +2.55062E+01 -5.71029E+00 +1.31347E+01 +2.31842E+01
 -1.83150E+01 +2.21119E+01 -2.93573E+01 -7.73561E+00 -6.16163E+00 -2.96899E+01 +2.27935E+01 -1.71489E+01
