 Created: 16-Jan-2021
 $NMID
 ID='D:\BASISSIMULATI'
 FMTDAT='(8E13.5)'
 VOLUME=   1.00000E+00
 TRAMP=   1.00000E+00
 $END
 +1.48387E+01 +1.62224E-02 +1.10717E+01 +8.64587E+00 +2.75683E+00 +1.19600E+01 -4.81059E+00 +8.57519E+00
 -7.18357E+00 +1.37331E+00 -3.53037E+00 -4.60551E+00 +3.10085E+00 -5.51403E+00 +8.01576E+00 -1.03754E+00
 +7.97104E+00 +5.70667E+00 +3.07183E+00 +1.04337E+01 -3.62817E+00 +1.04644E+01 -8.32695E+00 +6.18912E+00
 -8.87173E+00 +4.46649E-01 -5.81683E+00 -3.52356E+00 -1.66570E+00 -4.07047E+00 +9.49062E-01 -1.82728E+00
 +8.34341E-01 +1.09954E+00 -1.37179E+00 +2.66327E+00 -3.98370E+00 +2.03513E+00 -5.47333E+00 -2.39318E-01
 -5.24671E+00 -2.92219E+00 -3.64035E+00 -4.93703E+00 -1.40540E+00 -5.80677E+00 +7.88057E-01 -5.56566E+00
 +2.50363E+00 -4.46017E+00 +3.43651E+00 -2.80106E+00 +3.36498E+00 -1.03546E+00 +2.32322E+00 +1.99479E-01
 +8.32647E-01 +2.95614E-01 -1.46454E-01 -8.73611E-01 +2.96971E-01 -2.62930E+00 +2.34226E+00 -3.68017E+00
 +5.08366E+00 -2.86823E+00 +6.89747E+00 -2.67506E-02 +6.42170E+00 +3.69157E+00 +3.53345E+00 +6.37035E+00
 -3.92741E-01 +6.50808E+00 -3.22896E+00 +4.05919E+00 -3.42811E+00 +5.88175E-01 -1.07507E+00 -1.65084E+00
 +2.08728E+00 -1.15611E+00 +3.73405E+00 +1.80759E+00 +2.46054E+00 +5.32394E+00 -1.27831E+00 +7.02855E+00
 -5.42474E+00 +5.62638E+00 -7.61497E+00 +1.72959E+00 -6.67066E+00 -2.53087E+00 -3.31782E+00 -4.85729E+00
 +3.14611E-01 -4.21401E+00 +2.06333E+00 -1.41892E+00 +1.06723E+00 +1.44779E+00 -1.76898E+00 +2.39320E+00
 -4.42981E+00 +7.35248E-01 -5.08910E+00 -2.55357E+00 -3.20969E+00 -5.53687E+00 +2.17423E-01 -6.54036E+00
 +3.37078E+00 -5.12443E+00 +4.73055E+00 -2.23911E+00 +3.92735E+00 +4.53856E-01 +1.83457E+00 +1.60560E+00
 -6.73995E-02 +9.13319E-01 -6.01919E-01 -8.28998E-01 +4.73604E-01 -2.30769E+00 +2.43835E+00 -2.48743E+00
 +4.11590E+00 -1.15546E+00 +4.56630E+00 +1.05176E+00 +3.56294E+00 +3.08081E+00 +1.63248E+00 +4.05784E+00
 -3.00127E-01 +3.71577E+00 -1.42451E+00 +2.45890E+00 -1.43771E+00 +1.08244E+00 -6.39383E-01 +3.29723E-01
 +2.81711E-01 +5.21417E-01 +6.34960E-01 +1.42846E+00 +8.66499E-02 +2.42935E+00 -1.18295E+00 +2.85620E+00
 -2.59235E+00 +2.34886E+00 -3.47574E+00 +1.03796E+00 -3.43635E+00 -5.34145E-01 -2.54942E+00 -1.70968E+00
 -1.30708E+00 -2.06778E+00 -3.37469E-01 -1.63958E+00 -5.66956E-02 -8.68166E-01 -4.50421E-01 -3.40209E-01
 -1.10629E+00 -4.46681E-01 -1.47115E+00 -1.16908E+00 -1.17688E+00 -2.10925E+00 -2.44109E-01 -2.73474E+00
 +9.46771E-01 -2.68704E+00 +1.88640E+00 -1.97221E+00 +2.22321E+00 -9.33678E-01 +1.93963E+00 -3.98889E-02
 +1.32888E+00 +3.77678E-01 +8.04688E-01 +2.86162E-01 +6.65674E-01 -6.53585E-02 +9.46795E-01 -3.12080E-01
 +1.42694E+00 -1.83642E-01 +1.77084E+00 +3.56893E-01 +1.71722E+00 +1.10891E+00 +1.21300E+00 +1.75300E+00
 +4.31561E-01 +2.02176E+00 -3.25033E-01 +1.83406E+00 -7.84441E-01 +1.32848E+00 -8.41963E-01 +7.83227E-01
 -6.08318E-01 +4.65009E-01 -3.42079E-01 +4.85196E-01 -3.00448E-01 +7.40736E-01 -5.88351E-01 +9.75816E-01
 -1.09251E+00 +9.34507E-01 -1.54409E+00 +5.18818E-01 -1.67900E+00 -1.43560E-01 -1.40179E+00 -7.68849E-01
 -8.50013E-01 -1.08745E+00 -3.12834E-01 -1.01075E+00 -5.05641E-02 -6.86284E-01 -1.29525E-01 -4.00842E-01
 -3.82136E-01 -3.91006E-01 -5.22131E-01 -6.85226E-01 -3.40624E-01 -1.08456E+00 +1.48540E-01 -1.29754E+00
 +7.13952E-01 -1.13953E+00 +1.06050E+00 -6.60833E-01 +1.02772E+00 -1.15322E-01 +6.96830E-01 +2.09862E-01
 +3.32741E-01 +1.86731E-01 +2.01339E-01 -7.10666E-02 +3.88043E-01 -2.91743E-01 +7.42160E-01 -2.36071E-01
 +9.83625E-01 +1.36556E-01 +8.96943E-01 +6.39731E-01 +4.79003E-01 +9.86317E-01 -5.82196E-02 +9.81028E-01
 -4.28624E-01 +6.48552E-01 -4.58887E-01 +2.13610E-01 -1.96519E-01 -4.92499E-02 +1.28734E-01 +6.82007E-03
 +2.59107E-01 +3.12179E-01 +7.45321E-02 +6.33431E-01 -3.35592E-01 +7.27178E-01 -7.34375E-01 +4.93276E-01
 -8.87375E-01 +3.32475E-02 -7.04405E-01 -4.16021E-01 -2.89080E-01 -6.26225E-01 +1.27407E-01 -5.10111E-01
 +3.23206E-01 -1.66714E-01 +2.11750E-01 +1.81429E-01 -1.13249E-01 +3.18500E-01 -4.35309E-01 +1.58167E-01
 -5.40516E-01 -2.08435E-01 -3.40788E-01 -5.64770E-01 +7.30107E-02 -6.92353E-01 +4.78969E-01 -4.97987E-01
 +6.49224E-01 -7.28764E-02 +4.83732E-01 +3.53460E-01 +7.48244E-02 +5.43230E-01 -3.40165E-01 +3.91909E-01
 -5.16613E-01 -3.85902E-03 -3.51565E-01 -3.98561E-01 +4.84866E-02 -5.45070E-01 +4.28618E-01 -3.49152E-01
 +5.43051E-01 +6.72452E-02 +3.12070E-01 +4.39054E-01 -1.23801E-01 +5.25422E-01 -4.91182E-01 +2.64921E-01
 -5.58872E-01 -1.83717E-01 -2.86498E-01 -5.44192E-01 +1.51904E-01 -6.01833E-01 +4.85053E-01 -3.40428E-01
 +5.23152E-01 +5.41387E-02 +2.77742E-01 +3.23701E-01 -5.62694E-02 +3.10832E-01 -2.40031E-01 +5.72744E-02
 -1.52809E-01 -2.35945E-01 +1.34339E-01 -3.53609E-01 +4.19186E-01 -2.12447E-01 +5.14416E-01 +9.19277E-02
 +3.73440E-01 +3.63813E-01 +1.09959E-01 +4.49428E-01 -9.54308E-02 +3.38849E-01 -1.28330E-01 +1.58811E-01
 -1.61979E-02 +6.87233E-02 +1.03956E-01 +1.40636E-01 +9.59985E-02 +3.10926E-01 -7.15535E-02 +4.35031E-01
 -3.04242E-01 +4.00170E-01 -4.55239E-01 +2.10642E-01 -4.36343E-01 -1.63293E-02 -2.83625E-01 -1.38818E-01
 -1.30378E-01 -9.60275E-02 -1.08425E-01 +4.58060E-02 -2.49949E-01 +1.40162E-01 -4.60264E-01 +6.55862E-02
 -5.80549E-01 -1.85195E-01 -4.96428E-01 -4.94511E-01 -2.17653E-01 -6.94207E-01 +1.24338E-01 -6.74342E-01
 +3.57964E-01 -4.54026E-01 +3.77764E-01 -1.69796E-01 +2.07906E-01 +8.46776E-03 -1.41526E-02 -2.02544E-02
 -1.20297E-01 -2.29442E-01 -9.42216E-03 -4.81364E-01 +2.95217E-01 -6.04878E-01 +6.57302E-01 -4.89183E-01
 +8.97558E-01 -1.44270E-01 +8.85150E-01 +3.00110E-01 +6.06341E-01 +6.54603E-01 +1.78747E-01 +7.61759E-01
 -1.97618E-01 +5.78289E-01 -3.35342E-01 +2.08853E-01 -1.60834E-01 -1.31747E-01 +2.29096E-01 -2.21353E-01
 +5.95290E-01 +4.40796E-02 +6.71898E-01 +5.68844E-01 +3.21145E-01 +1.07827E+00 -3.58652E-01 +1.25278E+00
 -1.05002E+00 +9.16335E-01 -1.37419E+00 +1.70959E-01 -1.11650E+00 -6.20561E-01 -3.85908E-01 -1.02125E+00
 +4.07513E-01 -7.84040E-01 +7.72148E-01 -3.31271E-02 +4.37643E-01 +7.68986E-01 -4.46061E-01 +1.07747E+00
 -1.35756E+00 +6.05334E-01 -1.69850E+00 -4.64939E-01 -1.16829E+00 -1.55085E+00 +1.72172E-02 -2.00336E+00
 +1.21943E+00 -1.51177E+00 +1.74793E+00 -3.23554E-01 +1.28941E+00 +8.75809E-01 +1.23066E-01 +1.36758E+00
 -1.02699E+00 +8.45710E-01 -1.42487E+00 -3.77553E-01 -7.78255E-01 -1.54555E+00 +5.69806E-01 -1.91198E+00
 +1.83793E+00 -1.19803E+00 +2.27456E+00 +2.31770E-01 +1.60986E+00 +1.58441E+00 +2.15402E-01 +2.11054E+00
 -1.12088E+00 +1.54488E+00 -1.66092E+00 +2.51763E-01 -1.14057E+00 -1.00083E+00 +9.47385E-02 -1.49187E+00
 +1.30646E+00 -9.52187E-01 +1.78922E+00 +3.03082E-01 +1.25647E+00 +1.57042E+00 -2.12958E-02 +2.15286E+00
 -1.38076E+00 +1.72924E+00 -2.12453E+00 +5.08966E-01 -1.87965E+00 -8.89951E-01 -7.80631E-01 -1.76131E+00
 +6.01117E-01 -1.66654E+00 +1.54048E+00 -6.58188E-01 +1.52216E+00 +7.32975E-01 +5.15870E-01 +1.74844E+00
 -9.75627E-01 +1.78526E+00 -2.14254E+00 +7.32887E-01 -2.28399E+00 -9.18736E-01 -1.21380E+00 -2.29158E+00
 +5.75923E-01 -2.58084E+00 +2.12669E+00 -1.53348E+00 +2.53143E+00 +3.41046E-01 +1.48554E+00 +1.99668E+00
 -4.67477E-01 +2.43348E+00 -2.19047E+00 +1.31624E+00 -2.60518E+00 -7.60341E-01 -1.36865E+00 -2.56804E+00
 +8.59059E-01 -2.96802E+00 +2.76448E+00 -1.63122E+00 +3.16942E+00 +7.09208E-01 +1.77814E+00 +2.66802E+00
 -6.02317E-01 +3.05296E+00 -2.53565E+00 +1.61898E+00 -2.84336E+00 -7.58261E-01 -1.34512E+00 -2.61681E+00
 +1.02572E+00 -2.81899E+00 +2.80943E+00 -1.25735E+00 +2.93262E+00 +1.09427E+00 +1.36111E+00 +2.80773E+00
 -9.14197E-01 +2.89247E+00 -2.52650E+00 +1.38044E+00 -2.58110E+00 -7.48518E-01 -1.16219E+00 -2.21662E+00
 +7.91547E-01 -2.23116E+00 +2.11428E+00 -9.08586E-01 +2.11312E+00 +8.83799E-01 +9.11234E-01 +2.10871E+00
 -7.24512E-01 +2.16280E+00 -1.89520E+00 +1.14657E+00 -2.07016E+00 -2.99184E-01 -1.29733E+00 -1.41627E+00
 -7.21364E-02 -1.72476E+00 +9.81394E-01 -1.19208E+00 +1.40738E+00 -1.57614E-01 +1.06781E+00 +8.72942E-01
 +1.43566E-01 +1.43718E+00 -9.54935E-01 +1.27018E+00 -1.72742E+00 +3.98706E-01 -1.76625E+00 -8.35406E-01
 -9.55363E-01 -1.86640E+00 +4.03920E-01 -2.13735E+00 +1.65916E+00 -1.40893E+00 +2.10844E+00 +2.83208E-02
 +1.41723E+00 +1.42008E+00 -1.03596E-01 +1.93237E+00 -1.58721E+00 +1.16842E+00 -2.08545E+00 -5.11353E-01
 -1.17162E+00 -2.12297E+00 +7.22430E-01 -2.62551E+00 +2.50054E+00 -1.59108E+00 +3.05576E+00 +4.65439E-01
 +1.98512E+00 +2.35183E+00 -1.09978E-01 +2.92789E+00 -1.96509E+00 +1.84067E+00 -2.44151E+00 -2.22795E-01
 -1.25796E+00 -1.95113E+00 +8.17766E-01 -2.23712E+00 +2.45129E+00 -8.83596E-01 +2.58821E+00 +1.27331E+00
 +1.11560E+00 +2.90091E+00 -1.08423E+00 +3.01247E+00 -2.70802E+00 +1.57039E+00 -2.84911E+00 -5.24779E-01
 -1.53361E+00 -2.02688E+00 +3.45417E-01 -2.11876E+00 +1.61917E+00 -8.78592E-01 +1.56117E+00 +8.27331E-01
 +2.86353E-01 +1.91592E+00 -1.38113E+00 +1.74031E+00 -2.44335E+00 +4.29879E-01 -2.31354E+00 -1.24947E+00
 -1.10932E+00 -2.38213E+00 +4.77459E-01 -2.42199E+00 +1.61061E+00 -1.45343E+00 +1.76982E+00 -8.58691E-02
 +9.95235E-01 +9.16045E-01 -1.81773E-01 +1.04437E+00 -1.05036E+00 +2.91551E-01 -1.09745E+00 -8.75199E-01
 -2.64754E-01 -1.77401E+00 +1.02993E+00 -1.86632E+00 +2.11140E+00 -1.03883E+00 +2.40083E+00 +3.29279E-01
 +1.73068E+00 +1.55617E+00 +4.52470E-01 +2.02047E+00 -7.38117E-01 +1.51269E+00 -1.18471E+00 +3.74298E-01
 -6.57288E-01 -6.76486E-01 +4.89285E-01 -9.56598E-01 +1.50251E+00 -2.36236E-01 +1.67713E+00 +1.09663E+00
 +7.96498E-01 +2.24796E+00 -7.10397E-01 +2.49605E+00 -2.01330E+00 +1.64569E+00 -2.38880E+00 +1.65071E-01
 -1.67495E+00 -1.09559E+00 -3.76930E-01 -1.43453E+00 +6.52157E-01 -7.40119E-01 +7.54100E-01 +4.43495E-01
 -1.18645E-01 +1.27084E+00 -1.38281E+00 +1.13859E+00 -2.20798E+00 +6.43079E-02 -2.04824E+00 -1.34046E+00
 -9.75226E-01 -2.27375E+00 +3.93385E-01 -2.25019E+00 +1.30542E+00 -1.38262E+00 +1.34455E+00 -2.71756E-01
 +6.57617E-01 +4.00147E-01 -1.85860E-01 +2.92849E-01 -5.81781E-01 -4.18182E-01 -2.61040E-01 -1.20153E+00
 +5.85806E-01 -1.52744E+00 +1.47477E+00 -1.17971E+00 +1.94456E+00 -3.39621E-01 +1.81069E+00 +5.72813E-01
