 Created: 16-Jan-2021
 $NMID
 ID='D:\BASISSIMULATI'
 FMTDAT='(8E13.5)'
 VOLUME=   1.00000E+00
 TRAMP=   1.00000E+00
 $END
 +1.21582E+01 +1.33652E-02 +7.71216E+00 +9.37941E+00 -2.33067E+00 +1.19016E+01 -1.06535E+01 +5.76313E+00
 -1.12087E+01 -4.55066E+00 -3.61195E+00 -1.15295E+01 +6.59218E+00 -1.01071E+01 +1.19771E+01 -1.33873E+00
 +8.63929E+00 +8.38105E+00 -9.72311E-01 +1.19821E+01 -9.85276E+00 +6.86119E+00 -1.15464E+01 -3.23602E+00
 -4.83971E+00 -1.09548E+01 +5.36937E+00 -1.06883E+01 +1.16484E+01 -2.65040E+00 +9.44149E+00 +7.29459E+00
 +3.74604E-01 +1.19103E+01 -8.94192E+00 +7.85373E+00 -1.17329E+01 -1.90356E+00 -5.98514E+00 -1.02522E+01
 +4.10030E+00 -1.11249E+01 +1.11789E+01 -3.90583E+00 +1.01108E+01 +6.13525E+00 +1.69331E+00 +1.16898E+01
 -7.93439E+00 +8.73009E+00 -1.17684E+01 -5.70372E-01 -7.03524E+00 -9.43274E+00 +2.80173E+00 -1.14138E+01
 +1.05767E+01 -5.09019E+00 +1.06412E+01 +4.91888E+00 +2.96771E+00 +1.13260E+01 -6.84454E+00 +9.48126E+00
 -1.16551E+01 +7.46744E-01 -7.97846E+00 -8.50885E+00 +1.49055E+00 -1.15539E+01 +9.85192E+00 -6.18981E+00
 +1.10284E+01 +3.66181E+00 +4.18252E+00 +1.08260E+01 -5.68753E+00 +1.01000E+01 -1.13971E+01 +2.03149E+00
 -8.80479E+00 -7.49395E+00 +1.83458E-01 -1.15462E+01 +9.01574E+00 -7.19234E+00 +1.12700E+01 +2.38055E+00
 +5.32349E+00 +1.01984E+01 -4.47910E+00 +1.05807E+01 -1.10001E+01 +3.26826E+00 -9.50587E+00 -6.40241E+00
 -1.10315E+00 -1.13932E+01 +8.08065E+00 -8.08683E+00 +1.13655E+01 +1.09168E+00 +6.37755E+00 +9.45332E+00
 -3.23535E+00 +1.09199E+01 -1.04715E+01 +4.44231E+00 -1.00750E+01 -5.24930E+00 -2.35342E+00 -1.10995E+01
 +7.06013E+00 -8.86392E+00 +1.13162E+01 -1.88470E-01 +7.33293E+00 +8.60226E+00 -1.97256E+00 +1.11157E+01
 -9.82033E+00 +5.53996E+00 -1.05075E+01 -4.05022E+00 -3.55227E+00 -1.06712E+01 +5.96852E+00 -9.51587E+00
 +1.11254E+01 -1.44392E+00 +8.17934E+00 +7.65773E+00 -7.06960E-01 +1.11681E+01 -9.05688E+00 +6.54873E+00
 -1.08001E+01 -2.82106E+00 -4.68549E+00 -1.01160E+01 +4.82082E+00 -1.00367E+01 +1.07978E+01 -2.65929E+00
 +8.90802E+00 +6.63328E+00 +5.45468E-01 +1.10791E+01 -8.19273E+00 +7.45747E+00 -1.09516E+01 -1.57782E+00
 -5.73996E+00 -9.44310E+00 +3.63244E+00 -1.04220E+01 +1.03400E+01 -3.82000E+00 +9.51184E+00 +5.54318E+00
 +1.76919E+00 +1.08521E+01 -7.24051E+00 +8.25647E+00 -1.09626E+01 -3.36395E-01 -6.70378E+00 -8.66308E+00
 +2.41905E+00 -1.06694E+01 +9.75995E+00 -4.91237E+00 +9.98539E+00 +4.40231E+00 +2.94930E+00 +1.04924E+01
 -6.21374E+00 +8.93760E+00 -1.08354E+01 +8.87613E-01 -7.56640E+00 -7.78760E+00 +1.19637E+00 -1.07782E+01
 +9.06720E+00 -5.92385E+00 +1.03250E+01 +3.22591E+00 +4.07169E+00 +1.00070E+01 -5.12666E+00 +9.49433E+00
 -1.05740E+01 +2.07910E+00 -8.31872E+00 -6.82935E+00 -2.00465E-02 -1.07494E+01 +8.27237E+00 -6.84311E+00
 +1.05286E+01 +2.02942E+00 +5.12326E+00 +9.40397E+00 -3.99399E+00 +9.92182E+00 -1.01841E+01 +3.22364E+00
 -8.95319E+00 -5.80183E+00 -1.21500E+00 -1.05858E+01 +7.38727E+00 -7.66019E+00 +1.05962E+01 +8.28245E-01
 +6.09199E+00 +8.69311E+00 -2.83079E+00 +1.02170E+01 -9.67273E+00 +4.30763E+00 -9.46389E+00 -4.71920E+00
 -2.37382E+00 -1.02918E+01 +6.42460E+00 -8.36659E+00 +1.05292E+01 -3.62411E-01 +6.96713E+00 +7.88520E+00
 -1.65224E+00 +1.03783E+01 -9.04853E+00 +5.31849E+00 -9.84654E+00 -3.59603E+00 -3.48254E+00 -9.87329E+00
 +5.39784E+00 -8.95534E+00 +1.03308E+01 -1.52774E+00 +7.73930E+00 +6.99212E+00 -4.73440E-01 +1.04062E+01
 -8.32130E+00 +6.24476E+00 -1.00986E+01 -2.44718E+00 -4.52809E+00 -9.33781E+00 +4.32103E+00 -9.42108E+00
 +1.00059E+01 -2.65351E+00 +8.40057E+00 +6.02659E+00 +6.90761E-01 +1.03026E+01 -7.50199E+00 +7.07627E+00
 -1.02190E+01 -1.28755E+00 -5.49840E+00 -8.69413E+00 +3.20860E+00 -9.76010E+00 +9.56058E+00 -3.72625E+00
 +8.94456E+00 +5.00203E+00 +1.82596E+00 +1.00711E+01 -6.60253E+00 +7.80419E+00 -1.02088E+01 -1.31941E-01
 -6.38257E+00 -7.95221E+00 +2.07518E+00 -9.97033E+00 +9.00271E+00 -4.73337E+00 +9.36645E+00 +3.93236E+00
 +2.91838E+00 +9.71688E+00 -5.63563E+00 +8.42117E+00 -1.00702E+01 +1.00518E+00 -7.17096E+00 -7.12312E+00
 +9.35394E-01 -1.00514E+01 +8.34122E+00 -5.66333E+00 +9.66307E+00 +2.83184E+00 +3.95501E+00 +9.24649E+00
 -4.61464E+00 +8.92137E+00 -9.80720E+00 +2.10981E+00 -7.85534E+00 -6.21882E+00 -1.96288E-01 -1.00045E+01
 +7.58627E+00 -6.50578E+00 +9.83286E+00 +1.71486E+00 +4.92377E+00 +8.66790E+00 -3.55337E+00 +9.30054E+00
 -9.42536E+00 +3.16862E+00 -8.42888E+00 -5.25199E+00 -1.30576E+00 -9.83244E+00 +6.74897E+00 -7.25164E+00
 +9.87591E+00 +5.95774E-01 +5.81365E+00 +7.99027E+00 -2.46587E+00 +9.55601E+00 -8.93152E+00 +4.16908E+00
 -8.88631E+00 -4.23591E+00 -2.37945E+00 -9.53962E+00 +5.84131E+00 -7.89320E+00 +9.79388E+00 -5.11298E-01
 +6.61482E+00 +7.22387E+00 -1.36629E+00 +9.68672E+00 -8.33385E+00 +5.09960E+00 -9.22389E+00 -3.18422E+00
 -3.40446E+00 -9.13182E+00 +4.87595E+00 -8.42420E+00 +9.58998E+00 -1.59263E+00 +7.31874E+00 +6.37989E+00
 -2.68686E-01 +9.69320E+00 -7.64169E+00 +5.94970E+00 -9.43946E+00 -2.11079E+00 -4.36873E+00 -8.61616E+00
 +3.86603E+00 -8.83989E+00 +9.26891E+00 -2.63505E+00 +7.91825E+00 +5.47031E+00 +8.13159E-01 +9.57754E+00
 -6.86540E+00 +6.71007E+00 -9.53244E+00 -1.02950E+00 -5.26119E+00 -8.00103E+00 +2.82506E+00 -9.13704E+00
 +8.83675E+00 -3.62612E+00 +8.40762E+00 +4.50773E+00 +1.86590E+00 +9.34333E+00 -6.01621E+00 +7.37270E+00
 -9.50379E+00 +4.58947E-02 -6.07185E+00 -7.29589E+00 +1.76667E+00 -9.31398E+00 +8.30087E+00 -4.55425E+00
 +8.78262E+00 +3.50519E+00 +2.87679E+00 +8.99557E+00 -5.10609E+00 +7.93096E+00 -9.35600E+00 +1.10196E+00
 -6.79194E+00 -6.51121E+00 +7.04504E-01 -9.37058E+00 +7.66984E+00 -5.40887E+00 +9.04050E+00 +2.47600E+00
 +3.83384E+00 +8.54063E+00 -4.14757E+00 +8.37965E+00 -9.09300E+00 +2.12573E+00 -7.41396E+00 -5.65823E+00
 -3.48011E-01 -9.30822E+00 +6.95326E+00 -6.18049E+00 +9.18008E+00 +1.43359E+00 +4.72593E+00 +7.98611E+00
 -3.15354E+00 +8.71501E+00 -8.72011E+00 +3.10488E+00 -7.93180E+00 -4.74890E+00 -1.37779E+00 -9.12977E+00
 +6.16164E+00 -6.86085E+00 +9.20165E+00 +3.91309E-01 +5.54297E+00 +7.34072E+00 -2.13715E+00 +8.93481E+00
 -8.24394E+00 +4.02788E+00 -8.34075E+00 -3.79565E+00 -2.37227E+00 -8.83949E+00 +5.30626E+00 -7.44296E+00
 +9.10701E+00 -6.37720E-01 +6.27598E+00 +6.61417E+00 -1.11158E+00 +9.03830E+00 -7.67230E+00 +4.88407E+00
 -8.63757E+00 -2.81123E+00 -3.31953E+00 -8.44300E+00 +4.39898E+00 -7.92123E+00 +8.89937E+00 -1.64078E+00
 +6.91720E+00 +5.81702E+00 -8.98982E-02 +9.02620E+00 -7.01404E+00 +5.66384E+00 -8.82047E+00 -1.80859E+00
 -4.20849E+00 -7.94713E+00 +3.45216E+00 -8.29143E+00 +8.58331E+00 -2.60568E+00 +7.46015E+00 +4.96054E+00
 +9.15096E-01 +8.90067E+00 -6.27895E+00 +6.35871E+00 -8.88914E+00 -8.00665E-01 -5.02896E+00 -7.35986E+00
 +2.47838E+00 -8.55080E+00 +8.16471E+00 -3.52096E+00 +7.89972E+00 +4.05655E+00 +1.89104E+00 +8.66528E+00
 -5.47764E+00 +6.96141E+00 -8.84471E+00 +1.99762E-01 -5.77182E+00 -6.69017E+00 +1.49039E+00 -8.69799E+00
 +7.65062E+00 -4.37595E+00 +8.23217E+00 +3.11725E+00 +2.82617E+00 +8.32491E+00 -4.62134E+00 +7.46596E+00
 -8.68970E+00 +1.18023E+00 -6.42906E+00 -5.94794E+00 +5.00858E-01 -8.73312E+00 +7.04918E+00 -5.16094E+00
 +8.45518E+00 +2.15510E+00 +3.70940E+00 +7.88567E+00 -3.72179E+00 +7.86773E+00 -8.42800E+00 +2.12874E+00
 -6.99390E+00 -5.14378E+00 -4.77719E-01 -8.65769E+00 +6.36948E+00 -5.86727E+00 +8.56787E+00 +1.18259E+00
 +4.53053E+00 +7.35482E+00 -2.79108E+00 +8.16343E+00 -8.06476E+00 +3.03391E+00 -7.46084E+00 -4.28888E+00
 -1.43322E+00 -8.47458E+00 +5.62145E+00 -6.48741E+00 +8.57072E+00 +2.12150E-01 +5.28031E+00 +6.74063E+00
 -1.84146E+00 +8.35121E+00 -7.60633E+00 +3.88509E+00 -7.82571E+00 -3.39490E+00 -2.35401E+00 -8.18798E+00
 +4.81570E+00 -7.01507E+00 +8.46563E+00 -7.44035E-01 +5.95054E+00 +6.05229E+00 -8.85225E-01 +8.43058E+00
 -7.06013E+00 +4.67253E+00 -8.08570E+00 -2.47376E+00 -3.22911E+00 -7.80330E+00 +3.96337E+00 -7.44522E+00
 +8.25580E+00 -1.67418E+00 +6.53417E+00 +5.29977E+00 +6.54834E-02 +8.40244E+00 -6.43458E+00 +5.38741E+00
 -8.23937E+00 -1.53755E+00 -4.04829E+00 -7.32709E+00 +3.07601E+00 -7.77413E+00 +7.94569E+00 -2.56702E+00
 +7.02536E+00 +4.49365E+00 +9.98788E-01 +8.26900E+00 -5.73893E+00 +6.02200E+00 -8.28662E+00 -5.98313E-01
 -4.80223E+00 -6.76694E+00 +2.16541E+00 -7.99944E+00 +7.54095E+00 -3.41198E+00 +7.41954E+00 +3.64501E+00
 +1.90324E+00 +8.03379E+00 -4.98317E+00 +6.56971E+00 -8.22874E+00 +3.32080E-01 -5.48256E+00 -6.13137E+00
 +1.24342E+00 -8.12011E+00 +7.04835E+00 -4.19925E+00 +7.71344E+00 +2.76529E+00 +2.76796E+00 +7.70154E+00
 -4.17785E+00 +7.02516E+00 -8.06826E+00 +1.24207E+00 -6.08200E+00 -5.42969E+00 +3.21852E-01 -8.13645E+00
 +6.47560E+00 -4.91993E+00 +7.90511E+00 +1.86610E+00 +3.58276E+00 +7.27814E+00 -3.33397E+00 +7.38423E+00
 -7.80902E+00 +2.12055E+00 -6.59443E+00 -4.67190E+00 -5.87692E-01 -8.05008E+00 +5.83131E+00 -5.56610E+00
 +7.99391E+00 +9.59089E-01 +4.33824E+00 +6.77049E+00 -2.46285E+00 +7.64408E+00 -7.45598E+00 +2.95701E+00
 -7.01490E+00 -3.86850E+00 -1.47398E+00 -7.86387E+00 +5.12485E+00 -6.13092E+00 +7.98054E+00 +5.58264E-02
 +5.02593E+00 +6.18645E+00 -1.57591E+00 +7.80316E+00 -7.01524E+00 +3.74167E+00 -7.33973E+00 -3.03042E+00
 -2.32625E+00 -7.58190E+00 +4.36620E+00 -6.60872E+00 +7.86692E+00 -8.32387E-01 +5.63836E+00 +5.53472E+00
 -6.84593E-01 +7.86123E+00 -6.49387E+00 +4.46553E+00 -7.56648E+00 -2.16879E+00 -3.13437E+00 -7.20941E+00
 +3.56580E+00 -6.99498E+00 +7.65625E+00 -1.69463E+00 +6.16912E+00 +4.82468E+00 +1.99794E-01 +7.81932E+00
 -5.89983E+00 +5.12055E+00 -7.69403E+00 -1.29490E+00 -3.88894E+00 -6.75265E+00 +2.73447E+00 -7.28645E+00
 +7.35287E+00 -2.52051E+00 +6.61297E+00 +4.06628E+00 +1.06624E+00 +7.67970E+00 -5.24189E+00 +5.69969E+00
 -7.72250E+00 -4.19935E-01 -4.58140E+00 -6.21884E+00 +1.88322E+00 -7.48110E+00 +6.96221E+00 -3.30025E+00
 +6.96582E+00 +3.26992E+00 +1.90416E+00 +7.44584E+00 -4.52942E+00 +6.19697E+00 -7.65324E+00 +4.45053E-01
 -5.20410E+00 -5.61605E+00 +1.02310E+00 -7.57818E+00 +6.49072E+00 -4.02484E+00 +7.22482E+00 +2.44628E+00
 +2.70349E+00 +7.12232E+00 -3.77236E+00 +6.60757E+00 -7.48885E+00 +1.28935E+00 -5.75043E+00 -4.95307E+00
