 Created: 16-Jan-2021
 $NMID
 ID='D:\BASISSIMULATI'
 FMTDAT='(8E13.5)'
 VOLUME=   1.00000E+00
 TRAMP=   1.00000E+00
 $END
 +1.50472E+01 +1.65153E-02 +9.44649E+00 +1.08884E+01 -2.25593E+00 +1.23264E+01 -9.28642E+00 +3.76961E+00
 -5.58253E+00 -5.96915E+00 +4.51525E+00 -7.20800E+00 +1.05326E+01 +1.34688E+00 +5.94754E+00 +1.14196E+01
 -5.56216E+00 +1.31256E+01 -1.36386E+01 +4.42218E+00 -1.11079E+01 -6.96542E+00 -7.48620E-01 -1.09228E+01
 +7.45292E+00 -4.53307E+00 +5.86958E+00 +5.26999E+00 -3.54431E+00 +8.44596E+00 -1.12292E+01 +1.48289E+00
 -9.23046E+00 -9.27782E+00 +1.19216E+00 -1.37383E+01 +1.07887E+01 -7.67635E+00 +1.11344E+01 +3.28537E+00
 +2.58144E+00 +9.09871E+00 -6.20683E+00 +4.85256E+00 -6.60976E+00 -4.65614E+00 +1.73663E+00 -9.63750E+00
 +1.06788E+01 -4.72535E+00 +1.14025E+01 +5.91434E+00 +2.84787E+00 +1.25997E+01 -7.32728E+00 +9.35987E+00
 -1.00744E+01 -4.54107E-01 -3.51667E+00 -7.46812E+00 +5.40265E+00 -5.25491E+00 +7.66769E+00 +3.61508E+00
 +8.18586E-01 +1.01565E+01 -8.76470E+00 +7.62409E+00 -1.20172E+01 -2.06143E+00 -5.83109E+00 -1.01982E+01
 +4.05668E+00 -9.60683E+00 +8.60093E+00 -1.38709E+00 +4.04415E+00 +6.26632E+00 -4.62975E+00 +5.95707E+00
 -8.58993E+00 -1.89765E+00 -3.63602E+00 -9.57826E+00 +5.84265E+00 -9.50886E+00 +1.11226E+01 -1.47034E+00
 +7.46202E+00 +7.26400E+00 -1.47270E+00 +8.89859E+00 -7.21041E+00 +2.47589E+00 -4.57010E+00 -5.35867E+00
 +3.49981E+00 -6.80831E+00 +8.87442E+00 -3.58696E-01 +6.07064E+00 +7.87277E+00 -2.56359E+00 +1.00541E+01
 -9.16843E+00 +4.09355E+00 -7.87933E+00 -4.46026E+00 -3.22207E-01 -7.78206E+00 +6.07461E+00 -3.19191E+00
 +5.22586E+00 +4.43006E+00 -1.87415E+00 +7.43236E+00 -8.23169E+00 +2.71592E+00 -7.60148E+00 -5.39159E+00
 -4.05836E-01 -9.35154E+00 +6.76502E+00 -5.59672E+00 +7.47802E+00 +2.17452E+00 +1.51073E+00 +6.63441E+00
 -5.08735E+00 +3.81546E+00 -5.86167E+00 -3.22530E+00 -7.53721E-02 -7.46407E+00 +6.70838E+00 -4.65632E+00
 +8.01853E+00 +2.68707E+00 +2.61683E+00 +7.79535E+00 -4.43402E+00 +6.10732E+00 -6.67382E+00 -4.85025E-01
 -2.35473E+00 -5.57751E+00 +4.03955E+00 -4.40461E+00 +6.19201E+00 +1.70645E+00 +1.97378E+00 +6.74317E+00
 -4.63553E+00 +5.80651E+00 -7.44181E+00 -2.79969E-01 -3.92739E+00 -5.87148E+00 +2.46821E+00 -5.92674E+00
 +5.73700E+00 -7.25982E-01 +3.01912E+00 +4.54674E+00 -2.80198E+00 +4.82656E+00 -5.98587E+00 -6.21112E-02
 -3.43248E+00 -5.37534E+00 +2.46118E+00 -6.05550E+00 +6.20082E+00 -1.50467E+00 +4.44182E+00 +3.97296E+00
 -9.36704E-01 +5.35026E+00 -4.75770E+00 +1.60974E+00 -3.50883E+00 -3.43677E+00 +1.41693E+00 -4.88981E+00
 +5.19317E+00 -1.40428E+00 +4.20935E+00 +3.65830E+00 -5.73167E-01 +5.53538E+00 -4.66635E+00 +2.57527E+00
 -4.37269E+00 -2.31926E+00 -2.12512E-01 -4.56414E+00 +3.71990E+00 -2.23837E+00 +3.72118E+00 +2.22410E+00
 -7.16907E-02 +4.48135E+00 -3.95713E+00 +2.42225E+00 -4.26887E+00 -1.94127E+00 -8.02610E-01 -4.51080E+00
 +3.12735E+00 -3.00661E+00 +3.91755E+00 +9.83208E-01 +1.03907E+00 +3.64563E+00 -2.60864E+00 +2.58733E+00
 -3.55208E+00 -1.00483E+00 -1.00234E+00 -3.63415E+00 +2.53489E+00 -2.85474E+00 +3.74163E+00 +5.03043E-01
 +1.60558E+00 +3.25754E+00 -1.75446E+00 +2.93723E+00 -3.20673E+00 +2.94081E-02 -1.55175E+00 -2.62731E+00
 +1.47775E+00 -2.59191E+00 +2.98126E+00 -5.00765E-02 +1.63216E+00 +2.50809E+00 -1.19171E+00 +2.71623E+00
 -2.83550E+00 +5.00899E-01 -1.88136E+00 -1.99070E+00 +6.31998E-01 -2.49662E+00 +2.32012E+00 -7.13199E-01
 +1.71859E+00 +1.56314E+00 -4.50368E-01 +2.22060E+00 -2.09521E+00 +7.73707E-01 -1.75529E+00 -1.31959E+00
 +1.27041E-01 -2.12782E+00 +1.75805E+00 -1.02544E+00 +1.71634E+00 +8.54389E-01 +1.91579E-01 +1.78647E+00
 -1.33162E+00 +1.04381E+00 -1.51364E+00 -5.53438E-01 -3.27385E-01 -1.51642E+00 +1.05475E+00 -1.06426E+00
 +1.41419E+00 +2.71424E-01 +5.47133E-01 +1.25572E+00 -6.80598E-01 +1.09447E+00 -1.20278E+00 +5.48125E-02
 -6.75157E-01 -8.98156E-01 +3.38345E-01 -9.97755E-01 +9.57219E-01 -2.73304E-01 +7.38551E-01 +5.93215E-01
 -4.30423E-02 +9.04764E-01 -7.20183E-01 +4.86236E-01 -7.92886E-01 -2.68178E-01 -2.63808E-01 -7.67757E-01
 +4.35082E-01 -6.66071E-01 +7.86703E-01 -6.71492E-02 +5.40769E-01 +5.80694E-01 -1.27014E-01 +7.95833E-01
 -7.24757E-01 +3.94459E-01 -7.74625E-01 -3.51513E-01 -1.81908E-01 -8.64686E-01 +6.26542E-01 -6.82672E-01
 +9.73468E-01 +1.27269E-01 +4.84063E-01 +9.29990E-01 -5.17652E-01 +9.95501E-01 -1.18453E+00 +1.59095E-01
 -8.54061E-01 -9.27093E-01 +2.91669E-01 -1.28202E+00 +1.27153E+00 -4.85844E-01 +1.13639E+00 +8.34250E-01
 -1.06814E-01 +1.46912E+00 -1.37816E+00 +7.28228E-01 -1.44550E+00 -8.23437E-01 -1.09447E-01 -1.77001E+00
 +1.48727E+00 -1.13309E+00 +1.83482E+00 +6.26607E-01 +4.94512E-01 +1.91630E+00 -1.37193E+00 +1.46071E+00
 -1.99478E+00 -4.23006E-01 -6.75222E-01 -1.99903E+00 +1.44217E+00 -1.69436E+00 +2.34211E+00 +3.48557E-01
 +1.04260E+00 +2.27843E+00 -1.36859E+00 +2.21714E+00 -2.64886E+00 +9.10521E-02 -1.50995E+00 -2.17562E+00
 +1.06482E+00 -2.40859E+00 +2.63958E+00 -2.88607E-01 +1.61597E+00 +2.22578E+00 -1.15707E+00 +2.67638E+00
 -3.07021E+00 +4.75915E-01 -2.19880E+00 -2.41327E+00 +7.85401E-01 -3.25094E+00 +3.13228E+00 -1.14324E+00
 +2.58298E+00 +1.99765E+00 -4.12262E-01 +3.17958E+00 -3.00848E+00 +1.19054E+00 -2.62699E+00 -2.14172E+00
 +5.21724E-01 -3.59252E+00 +3.51759E+00 -1.61623E+00 +3.44995E+00 +2.07701E+00 +2.42598E-01 +4.04279E+00
 -3.15888E+00 +2.37071E+00 -3.52619E+00 -1.40790E+00 -4.65993E-01 -3.68040E+00 +3.09895E+00 -2.18408E+00
 +3.65071E+00 +1.74841E+00 +4.72719E-01 +4.35371E+00 -3.55214E+00 +3.00281E+00 -4.60694E+00 -1.21011E+00
 -1.60138E+00 -4.39990E+00 +2.68946E+00 -3.55596E+00 +4.19292E+00 +5.24506E-01 +1.44043E+00 +3.90127E+00
 -2.93741E+00 +3.21926E+00 -4.64267E+00 -1.02073E+00 -1.82822E+00 -4.83087E+00 +3.03775E+00 -4.49229E+00
 +5.42965E+00 -1.57628E-01 +3.07326E+00 +4.19051E+00 -1.80775E+00 +4.48247E+00 -4.53383E+00 +4.82477E-01
 -2.43423E+00 -3.89945E+00 +2.52269E+00 -4.29569E+00 +5.52159E+00 -1.00962E-01 +3.48868E+00 +4.84310E+00
 -1.89189E+00 +5.84415E+00 -5.68456E+00 +1.86128E+00 -4.37930E+00 -3.41432E+00 +7.06639E-01 -5.01856E+00
 +4.61298E+00 -1.47131E+00 +3.45887E+00 +3.73375E+00 -1.78264E+00 +5.41110E+00 -6.12083E+00 +1.66562E+00
 -5.27922E+00 -4.19949E+00 +1.65376E-01 -6.75057E+00 +5.24017E+00 -3.60423E+00 +5.27492E+00 +2.23422E+00
 +3.89819E-01 +5.17974E+00 -4.55637E+00 +2.40690E+00 -4.58561E+00 -3.38332E+00 +5.88095E-01 -6.47989E+00
 +6.18984E+00 -3.62453E+00 +6.88708E+00 +2.79469E+00 +1.90664E+00 +6.93271E+00 -4.15241E+00 +5.03759E+00
 -5.65858E+00 -9.29928E-01 -1.33978E+00 -5.11962E+00 +4.44764E+00 -3.38109E+00 +5.85250E+00 +2.70857E+00
 +1.16095E+00 +7.27833E+00 -5.47406E+00 +5.75454E+00 -7.92488E+00 -7.13848E-01 -3.93478E+00 -6.26940E+00
 +2.67886E+00 -5.89575E+00 +5.62778E+00 -2.23891E-01 +2.16784E+00 +5.03427E+00 -4.22924E+00 +4.54318E+00
 -7.15567E+00 -1.49998E+00 -3.41337E+00 -7.47274E+00 +3.85117E+00 -7.65632E+00 +8.07113E+00 -1.72331E+00
 +5.50024E+00 +4.88724E+00 -1.18916E+00 +6.12184E+00 -5.43262E+00 +1.09910E+00 -3.05688E+00 -5.02066E+00
 +3.68097E+00 -5.96399E+00 +8.20047E+00 -3.90067E-01 +5.88469E+00 +6.74507E+00 -1.45267E+00 +8.86085E+00
 -7.22646E+00 +4.03076E+00 -6.32735E+00 -3.14474E+00 -1.05422E-03 -5.90459E+00 +5.33238E+00 -1.79177E+00
 +4.23126E+00 +4.97166E+00 -2.51245E+00 +7.50899E+00 -8.56728E+00 +2.89709E+00 -8.08481E+00 -4.96585E+00
 -1.31155E+00 -9.01342E+00 +5.59590E+00 -5.72857E+00 +6.41436E+00 +1.49434E+00 +7.89769E-01 +5.58656E+00
 -5.42459E+00 +2.57557E+00 -5.78277E+00 -4.58361E+00 +5.38702E-01 -8.80791E+00 +7.88382E+00 -5.66929E+00
 +9.47189E+00 +2.32062E+00 +3.86656E+00 +8.04663E+00 -3.63370E+00 +6.54394E+00 -6.03988E+00 -2.78231E-01
 -1.34739E+00 -5.47613E+00 +5.54642E+00 -3.73743E+00 +7.53810E+00 +3.49586E+00 +2.15260E+00 +9.36427E+00
 -6.02550E+00 +8.13348E+00 -9.67263E+00 +6.95789E-01 -5.68808E+00 -6.24283E+00 +1.85801E+00 -6.53420E+00
 +5.62372E+00 -4.36469E-01 +2.02626E+00 +5.65925E+00 -5.31969E+00 +5.37599E+00 -9.05737E+00 -1.50177E+00
 -5.14519E+00 -8.76909E+00 +3.23338E+00 -9.69405E+00 +8.65870E+00 -3.43872E+00 +6.51903E+00 +4.13504E+00
 -6.20219E-01 +6.05531E+00 -5.50359E+00 +8.87247E-01 -3.15535E+00 -5.91963E+00 +4.33397E+00 -7.27688E+00
 +9.78756E+00 -1.28087E+00 +7.80200E+00 +6.91492E+00 -7.11275E-02 +9.97712E+00 -6.77918E+00 +5.36230E+00
 -6.47236E+00 -2.28203E+00 -5.10927E-02 -5.57952E+00 +5.74419E+00 -1.48247E+00 +4.82557E+00 +5.82421E+00
 -2.38009E+00 +8.94684E+00 -9.30644E+00 +4.38306E+00 -9.50065E+00 -4.09300E+00 -2.77527E+00 -8.99617E+00
 +4.61913E+00 -6.23623E+00 +5.95906E+00 +1.02628E+00 +4.44067E-01 +5.45091E+00 -6.08599E+00 +2.56724E+00
 -6.78545E+00 -4.94073E+00 -3.91164E-01 -9.80528E+00 +7.53451E+00 -7.13215E+00 +9.88569E+00 +9.10896E-01
 +4.76422E+00 +7.14835E+00 -2.74795E+00 +6.21871E+00 -5.47267E+00 -3.59623E-01 -9.93047E-01 -5.70688E+00
 +6.06879E+00 -4.21169E+00 +8.51266E+00 +3.07713E+00 +3.47705E+00 +9.44282E+00 -4.80178E+00 +8.91035E+00
 -9.01046E+00 +1.93800E+00 -5.70015E+00 -5.03783E+00 +1.48267E+00 -5.74682E+00 +5.34062E+00 -3.36270E-02
 +2.03153E+00 +6.06131E+00 -5.26966E+00 +6.13678E+00 -9.43238E+00 -4.15857E-01 -6.20282E+00 -7.81586E+00
 +1.72933E+00 -9.39809E+00 +7.29616E+00 -3.94185E+00 +5.77092E+00 +3.21379E+00 -7.84956E-01 +5.30232E+00
 -5.57117E+00 +5.80698E-01 -3.59908E+00 -6.05843E+00 +3.53132E+00 -7.81972E+00 +9.17330E+00 -2.53014E+00
 +7.98657E+00 +5.27737E+00 +1.01669E+00 +8.68244E+00 -5.33155E+00 +4.94388E+00 -5.40842E+00 -1.95485E+00
 +3.37876E-01 -5.17593E+00 +5.87189E+00 -1.57790E+00 +5.40261E+00 +5.31466E+00 -1.06243E+00 +8.72459E+00
 -7.73166E+00 +5.11788E+00 -8.55821E+00 -2.43045E+00 -2.97605E+00 -7.18273E+00 +3.61819E+00 -5.14323E+00
 +5.05226E+00 +1.20277E+00 +2.47389E-01 +5.34912E+00 -5.82236E+00 +3.02893E+00 -6.94773E+00 -3.72053E+00
 -1.63852E+00 -8.53877E+00 +5.46547E+00 -6.82837E+00 +8.02926E+00 -1.16696E-01 +4.03047E+00 +5.44111E+00
 -2.38849E+00 +4.93745E+00 -4.94207E+00 -6.64852E-01 -1.21011E+00 -5.54421E+00 +5.10282E+00 -4.64223E+00
 +7.76555E+00 +1.50225E+00 +3.98995E+00 +7.29785E+00 -2.93158E+00 +7.44889E+00 -6.79298E+00 +1.97065E+00
