 Created: 16-Jan-2021
 $NMID
 ID='D:\BASISSIMULATI'
 FMTDAT='(8E13.5)'
 VOLUME=   1.00000E+00
 TRAMP=   1.00000E+00
 $END
 +1.54928E+01 +1.49595E-02 +1.50291E+01 +3.23192E+00 +1.37639E+01 +6.20146E+00 +1.17990E+01 +8.71697E+00
 +9.28897E+00 +1.06092E+01 +6.42818E+00 +1.17597E+01 +3.43499E+00 +1.21092E+01 +5.33690E-01 +1.16622E+01
 -2.06363E+00 +1.04853E+01 -4.17396E+00 +8.70045E+00 -5.65768E+00 +6.47464E+00 -6.42891E+00 +4.00492E+00
 -6.46138E+00 +1.50188E+00 -5.78913E+00 -8.27920E-01 -4.50221E+00 -2.79882E+00 -2.73779E+00 -4.26083E+00
 -6.67487E-01 -5.11107E+00 +1.51791E+00 -5.30100E+00 +3.62499E+00 -4.83891E+00 +5.47408E+00 -3.78752E+00
 +6.91407E+00 -2.25691E+00 +7.83439E+00 -3.93755E-01 +8.17324E+00 +1.63254E+00 +7.92129E+00 +3.64514E+00
 +7.12088E+00 +5.47545E+00 +5.86059E+00 +6.97761E+00 +4.26594E+00 +8.04065E+00 +2.48704E+00 +8.59723E+00
 +6.84392E-01 +8.62838E+00 -9.85949E-01 +8.16367E+00 -2.38645E+00 +7.27716E+00 -3.41019E+00 +6.07933E+00
 -3.98996E+00 +4.70594E+00 -4.10352E+00 +3.30474E+00 -3.77471E+00 +2.02142E+00 -3.07026E+00 +9.85872E-01
 -2.09280E+00 +3.00218E-01 -9.70511E-01 +2.94579E-02 +1.55308E-01 +1.95715E-01 +1.14388E+00 +7.76473E-01
 +1.86840E+00 +1.70696E+00 +2.22807E+00 +2.88643E+00 +2.15776E+00 +4.18772E+00 +1.63429E+00 +5.46924E+00
 +6.78863E-01 +6.58829E+00 -6.44541E-01 +7.41443E+00 -2.23475E+00 +7.84182E+00 -3.96233E+00 +7.79932E+00
 -5.68116E+00 +7.25747E+00 -7.24156E+00 +6.23175E+00 -8.50376E+00 +4.78186E+00 -9.35067E+00 +3.00695E+00
 -9.69861E+00 +1.03738E+00 -9.50520E+00 -9.76353E-01 -8.77366E+00 -2.87654E+00 -7.55317E+00 -4.51193E+00
 -5.93514E+00 -5.75084E+00 -4.04594E+00 -6.49274E+00 -2.03643E+00 -6.67716E+00 -6.94150E-02 -6.28922E+00
 +1.69394E+00 -5.36127E+00 +3.10770E+00 -3.97055E+00 +4.05339E+00 -2.23305E+00 +4.45003E+00 -2.94027E-01
 +4.26095E+00 +1.68384E+00 +3.49694E+00 +3.53382E+00 +2.21544E+00 +5.09883E+00 +5.15838E-01 +6.24422E+00
 -1.46865E+00 +6.86874E+00 -3.58193E+00 +6.91269E+00 -5.65770E+00 +6.36255E+00 -7.53296E+00 +5.25180E+00
 -9.06109E+00 +3.65794E+00 -1.01235E+01 +1.69586E+00 -1.06389E+01 -4.91749E-01 -1.05691E+01 -2.74613E+00
 -9.92184E+00 -4.90536E+00 -8.74937E+00 -6.81734E+00 -7.14338E+00 -8.35177E+00 -5.22710E+00 -9.41012E+00
 -3.14478E+00 -9.93292E+00 -1.04975E+00 -9.90359E+00 +9.08141E-01 -9.34887E+00 +2.59439E+00 -8.33551E+00
 +3.90028E+00 -6.96394E+00 +4.75098E+00 -5.35919E+00 +5.11056E+00 -3.66009E+00 +4.98377E+00 -2.00759E+00
 +4.41443E+00 -5.33176E-01 +3.48054E+00 +6.51551E-01 +2.28679E+00 +1.46344E+00 +9.54986E-01 +1.85368E+00
 -3.86611E-01 +1.81071E+00 -1.61422E+00 +1.35986E+00 -2.61874E+00 +5.59988E-01 -3.31444E+00 -5.02690E-01
 -3.64537E+00 -1.72283E+00 -3.58906E+00 -2.98560E+00 -3.15727E+00 -4.17681E+00 -2.39374E+00 -5.19268E+00
 -1.36934E+00 -5.94839E+00 -1.74992E-01 -6.38479E+00 +1.08697E+00 -6.47261E+00 +2.31204E+00 -6.21398E+00
 +3.40284E+00 -5.64120E+00 +4.27735E+00 -4.81285E+00 +4.87573E+00 -3.80777E+00 +5.16479E+00 -2.71742E+00
 +5.14019E+00 -1.63733E+00 +4.82586E+00 -6.58458E-01 +4.27102E+00 +1.40841E-01 +3.54501E+00 +7.01455E-01
 +2.73047E+00 +9.88312E-01 +1.91552E+00 +9.92903E-01 +1.18563E+00 +7.33357E-01 +6.15909E-01 +2.52146E-01
 +2.64581E-01 -3.88329E-01 +1.68012E-01 -1.11185E+00 +3.37877E-01 -1.83555E+00 +7.60569E-01 -2.47762E+00
 +1.39888E+00 -2.96460E+00 +2.19574E+00 -3.23795E+00 +3.07969E+00 -3.25903E+00 +3.97149E+00 -3.01228E+00
 +4.79128E+00 -2.50628E+00 +5.46571E+00 -1.77264E+00 +5.93430E+00 -8.62872E-01 +6.15462E+00 +1.56401E-01
 +6.10569E+00 +1.20950E+00 +5.78950E+00 +2.21841E+00 +5.23052E+00 +3.10958E+00 +4.47317E+00 +3.82018E+00
 +3.57768E+00 +4.30331E+00 +2.61470E+00 +4.53175E+00 +1.65900E+00 +4.49986E+00 +7.83108E-01 +4.22368E+00
 +5.11647E-02 +3.73907E+00 -4.86271E-01 +3.09825E+00 -7.96185E-01 +2.36505E+00 -8.65458E-01 +1.60925E+00
 -7.01468E-01 +9.00572E-01 -3.30946E-01 +3.02879E-01 +2.02770E-01 -1.31012E-01 +8.43792E-01 -3.63415E-01
 +1.52867E+00 -3.74471E-01 +2.19187E+00 -1.63270E-01 +2.77120E+00 +2.52639E-01 +3.21284E+00 +8.39259E-01
 +3.47545E+00 +1.54945E+00 +3.53315E+00 +2.32718E+00 +3.37705E+00 +3.11240E+00 +3.01539E+00 +3.84596E+00
 +2.47225E+00 +4.47439E+00 +1.78502E+00 +4.95391E+00 +1.00088E+00 +5.25349E+00 +1.72732E-01 +5.35683E+00
 -6.45277E-01 +5.26297E+00 -1.40199E+00 +4.98568E+00 -2.05311E+00 +4.55169E+00 -2.56428E+00 +3.99799E+00
 -2.91324E+00 +3.36847E+00 -3.09086E+00 +2.71018E+00 -3.10120E+00 +2.06956E+00 -2.96036E+00 +1.48893E+00
 -2.69466E+00 +1.00358E+00 -2.33798E+00 +6.39458E-01 -1.92879E+00 +4.11860E-01 -1.50699E+00 +3.24926E-01
 -1.11092E+00 +3.72055E-01 -7.74566E-01 +5.37088E-01 -5.25474E-01 +7.96106E-01 -3.83147E-01 +1.11967E+00
 -3.58229E-01 +1.47528E+00 -4.52364E-01 +1.82984E+00 -6.58705E-01 +2.15202E+00 -9.62967E-01 +2.41418E+00
 -1.34489E+00 +2.59401E+00 -1.77997E+00 +2.67556E+00 -2.24129E+00 +2.64982E+00 -2.70138E+00 +2.51480E+00
 -3.13385E+00 +2.27517E+00 -3.51490E+00 +1.94154E+00 -3.82443E+00 +1.52949E+00 -4.04701E+00 +1.05841E+00
 -4.17231E+00 +5.50284E-01 -4.19547E+00 +2.83877E-02 -4.11703E+00 -4.83894E-01 -3.94271E+00 -9.64219E-01
 -3.68301E+00 -1.39232E+00 -3.35256E+00 -1.75092E+00 -2.96947E+00 -2.02652E+00 -2.55437E+00 -2.20999E+00
 -2.12953E+00 -2.29713E+00 -1.71775E+00 -2.28890E+00 -1.34125E+00 -2.19155E+00 -1.02042E+00 -2.01648E+00
 -7.72716E-01 -1.77983E+00 -6.11456E-01 -1.50185E+00 -5.44847E-01 -1.20586E+00 -5.75167E-01 -9.17074E-01
 -6.98262E-01 -6.61115E-01 -9.03391E-01 -4.62348E-01 -1.17352E+00 -3.42188E-01 -1.48606E+00 -3.17415E-01
 -1.81407E+00 -3.98687E-01 -2.12795E+00 -5.89348E-01 -2.39733E+00 -8.84695E-01 -2.59338E+00 -1.27178E+00
 -2.69101E+00 -1.72983E+00 -2.67106E+00 -2.23134E+00 -2.52216E+00 -2.74374E+00 -2.24210E+00 -3.23164E+00
 -1.83853E+00 -3.65939E+00 -1.32897E+00 -3.99391E+00 -7.39994E-01 -4.20748E+00 -1.05554E-01 -4.28020E+00
 +5.35318E-01 -4.20206E+00 +1.14142E+00 -3.97420E+00 +1.67261E+00 -3.60940E+00 +2.09317E+00 -3.13157E+00
 +2.37485E+00 -2.57429E+00 +2.49964E+00 -1.97846E+00 +2.46156E+00 -1.38920E+00 +2.26775E+00 -8.52292E-01
 +1.93828E+00 -4.10357E-01 +1.50505E+00 -9.91676E-02 +1.00942E+00 +5.56225E-02 +4.99138E-01 +4.10042E-02
 +2.44427E-02 -1.41845E-01 -3.66109E-01 -4.77184E-01 -6.29848E-01 -9.35571E-01 -7.33842E-01 -1.47594E+00
 -6.58025E-01 -2.04875E+00 -3.97324E-01 -2.59998E+00 +3.74441E-02 -3.07562E+00 +6.20025E-01 -3.42633E+00
 +1.31053E+00 -3.61180E+00 +2.05847E+00 -3.60448E+00 +2.80682E+00 -3.39232E+00 +3.49668E+00 -2.98017E+00
 +4.07235E+00 -2.38986E+00 +4.48615E+00 -1.65873E+00 +4.70270E+00 -8.36783E-01 +4.70224E+00 +1.72898E-02
 +4.48267E+00 +8.40957E-01 +4.06008E+00 +1.57313E+00 +3.46776E+00 +2.15946E+00 +2.75363E+00 +2.55708E+00
 +1.97640E+00 +2.73857E+00 +1.20069E+00 +2.69452E+00 +4.91523E-01 +2.43468E+00 -9.12387E-02 +1.98743E+00
 -4.98212E-01 +1.39754E+00 -6.94917E-01 +7.22612E-01 -6.65003E-01 +2.82027E-02 -4.11939E-01 -6.17761E-01
 +4.10012E-02 -1.15088E+00 +6.52488E-01 -1.51598E+00 +1.36649E+00 -1.67207E+00 +2.11699E+00 -1.59615E+00
 +2.83361E+00 -1.28550E+00 +3.44775E+00 -7.58219E-01 +3.89865E+00 -5.19639E-02 +4.13885E+00 +7.79094E-01
 +4.13856E+00 +1.66877E+00 +3.88859E+00 +2.54450E+00 +3.40142E+00 +3.33365E+00 +2.71052E+00 +3.96990E+00
 +1.86762E+00 +4.39918E+00 +9.38554E-01 +4.58465E+00 -2.41672E-03 +4.51017E+00 -8.78963E-01 +4.18211E+00
 -1.61940E+00 +3.62910E+00 -2.16311E+00 +2.89985E+00 -2.46603E+00 +2.05925E+00 -2.50484E+00 +1.18282E+00
 -2.27940E+00 +3.50276E-01 -1.81311E+00 -3.61467E-01 -1.15131E+00 -8.85133E-01 -3.57617E-01 -1.16921E+00
 +4.91289E-01 -1.18277E+00 +1.31223E+00 -9.18641E-01 +2.02270E+00 -3.94453E-01 +2.54817E+00 +3.48379E-01
 +2.82877E+00 +1.24782E+00 +2.82487E+00 +2.22621E+00 +2.52098E+00 +3.19675E+00 +1.92757E+00 +4.07084E+00
 +1.08079E+00 +4.76579E+00 +3.98366E-02 +5.21208E+00 -1.11767E+00 +5.35968E+00 -2.30195E+00 +5.18276E+00
 -3.41856E+00 +4.68244E+00 -4.37637E+00 +3.88718E+00 -5.09540E+00 +2.85099E+00 -5.51387E+00 +1.64923E+00
 -5.59375E+00 +3.72691E-01 -5.32446E+00 -8.79866E-01 -4.72415E+00 -2.00989E+00 -3.83876E+00 -2.92735E+00
 -2.73850E+00 -3.55847E+00 -1.51234E+00 -3.85211E+00 -2.60842E-01 -3.78444E+00 +9.12125E-01 -3.36126E+00
 +1.90803E+00 -2.61789E+00 +2.64198E+00 -1.61657E+00 +3.04992E+00 -4.41567E-01 +3.09423E+00 +8.07630E-01
 +2.76707E+00 +2.02446E+00 +2.09131E+00 +3.10409E+00 +1.11886E+00 +3.95215E+00 -7.34508E-02 +4.49267E+00
 -1.39009E+00 +4.67447E+00 -2.72465E+00 +4.47558E+00 -3.96869E+00 +3.90515E+00 -5.02065E+00 +3.00287E+00
 -5.79437E+00 +1.83568E+00 -6.22623E+00 +4.92295E-01 -6.28050E+00 -9.24135E-01 -5.95226E+00 -2.30464E+00
 -5.26780E+00 -3.54349E+00 -4.28237E+00 -4.54700E+00 -3.07549E+00 -5.24133E+00 -1.74417E+00 -5.57858E+00
 -3.94740E-01 -5.54069E+00 +8.66165E-01 -5.14080E+00 +1.94060E+00 -4.42198E+00 +2.74752E+00 -3.45334E+00
 +3.22956E+00 -2.32404E+00 +3.35776E+00 -1.13549E+00 +3.13378E+00 +7.39322E-03 +2.58956E+00 +1.00521E+00
 +1.78429E+00 +1.77264E+00 +7.99083E-01 +2.24570E+00 -2.70220E-01 +2.38714E+00 -1.32157E+00 +2.18949E+00
 -2.25566E+00 +1.67552E+00 -2.98466E+00 +8.96054E-01 -3.43990E+00 -7.47279E-02 -3.57785E+00 -1.14595E+00
 -3.38383E+00 -2.21818E+00 -2.87330E+00 -3.19236E+00 -2.09029E+00 -3.97860E+00 -1.10345E+00 -4.50425E+00
 +1.39180E-04 -4.72035E+00 +1.12280E+00 -4.60604E+00 +2.16503E+00 -4.17046E+00 +3.03450E+00 -3.45196E+00
 +3.65432E+00 -2.51468E+00 +3.97008E+00 -1.44293E+00 +3.95482E+00 -3.33591E-01 +3.61162E+00 +7.12528E-01
 +2.97350E+00 +1.59975E+00 +2.10062E+00 +2.24619E+00 +1.07509E+00 +2.59125E+00 -6.20637E-03 +2.60123E+00
 -1.04023E+00 +2.27261E+00 -1.92692E+00 +1.63265E+00 -2.57819E+00 +7.37299E-01 -2.92592E+00 -3.33507E-01
 -2.92826E+00 -1.48267E+00 -2.57363E+00 -2.60433E+00 -1.88214E+00 -3.59315E+00 -9.04185E-01 -4.35359E+00
 +2.83589E-01 -4.80840E+00 +1.58467E+00 -4.90564E+00 +2.89087E+00 -4.62350E+00 +4.09154E+00 -3.97253E+00
 +5.08316E+00 -2.99514E+00 +5.77829E+00 -1.76224E+00 +6.11329E+00 -3.67509E-01 +6.05395E+00 +1.08046E+00
 +5.59869E+00 +2.46724E+00 +4.77895E+00 +3.68227E+00 +3.65676E+00 +4.62826E+00 +2.31968E+00 +5.22946E+00
