 Created: 16-Jan-2021
 $NMID
 ID='D:\BASISSIMULATI'
 FMTDAT='(8E13.5)'
 VOLUME=   1.00000E+00
 TRAMP=   1.00000E+00
 $END
 +9.55434E+00 +9.71084E-03 +8.29118E+00 +4.20294E+00 +5.16200E+00 +7.04449E+00 +1.24840E+00 +7.79413E+00
 -2.16980E+00 +6.45881E+00 -4.07594E+00 +3.75676E+00 -4.06625E+00 +8.26326E-01 -2.46441E+00 -1.20633E+00
 -1.67259E-01 -1.63870E+00 +1.71335E+00 -4.33375E-01 +2.27511E+00 +1.79279E+00 +1.15937E+00 +4.01989E+00
 -1.32424E+00 +5.21744E+00 -4.32185E+00 +4.73087E+00 -6.75577E+00 +2.52186E+00 -7.71972E+00 -8.20783E-01
 -6.80377E+00 -4.29703E+00 -4.23407E+00 -6.85449E+00 -7.82510E-01 -7.75725E+00 +2.51484E+00 -6.83257E+00
 +4.72399E+00 -4.51107E+00 +5.33107E+00 -1.65260E+00 +4.40037E+00 +7.73241E-01 +2.52134E+00 +2.03341E+00
 +5.70491E-01 +1.88004E+00 -6.20748E-01 +6.15810E-01 -5.70285E-01 -1.04183E+00 +6.86758E-01 -2.24267E+00
 +2.62322E+00 -2.32676E+00 +4.42430E+00 -1.07084E+00 +5.29355E+00 +1.22878E+00 +4.74827E+00 +3.86362E+00
 +2.79811E+00 +5.96870E+00 -5.52411E-02 +6.83223E+00 -2.99442E+00 +6.14752E+00 -5.17324E+00 +4.11799E+00
 -6.00970E+00 +1.37998E+00 -5.38083E+00 -1.22629E+00 -3.65114E+00 -2.95325E+00 -1.52769E+00 -3.40305E+00
 +2.03682E-01 -2.65377E+00 +9.63862E-01 -1.21155E+00 +5.84506E-01 +1.91125E-01 -6.42183E-01 +8.75573E-01
 -2.08396E+00 +4.72551E-01 -3.01333E+00 -9.39843E-01 -2.88593E+00 -2.86536E+00 -1.54987E+00 -4.57406E+00
 +6.90247E-01 -5.37343E+00 +3.17779E+00 -4.86630E+00 +5.13808E+00 -3.10105E+00 +5.95577E+00 -5.59283E-01
 +5.39412E+00 +2.01374E+00 +3.67622E+00 +3.87325E+00 +1.39953E+00 +4.53660E+00 -6.83528E-01 +3.94687E+00
 -1.93758E+00 +2.47970E+00 -2.06837E+00 +7.92719E-01 -1.21741E+00 -4.25078E-01 +1.05901E-01 -7.10219E-01
 +1.22729E+00 +7.09783E-03 +1.56864E+00 +1.38473E+00 +8.69189E-01 +2.80499E+00 -7.14924E-01 +3.61293E+00
 -2.66838E+00 +3.36658E+00 -4.30826E+00 +2.00587E+00 -5.03680E+00 -1.21579E-01 -4.56074E+00 -2.38550E+00
 -2.99681E+00 -4.10044E+00 -8.26267E-01 -4.77023E+00 +1.28184E+00 -4.25936E+00 +2.71118E+00 -2.83002E+00
 +3.11270E+00 -1.03460E+00 +2.51571E+00 +4.92936E-01 +1.29794E+00 +1.26750E+00 +3.02660E-02 +1.12017E+00
 -7.42598E-01 +2.43280E-01 -7.02775E-01 -8.98697E-01 +1.31607E-01 -1.75462E+00 +1.42521E+00 -1.89680E+00
 +2.66022E+00 -1.17781E+00 +3.33313E+00 +2.21136E-01 +3.13911E+00 +1.86342E+00 +2.07784E+00 +3.21982E+00
 +4.46048E-01 +3.85817E+00 -1.27500E+00 +3.59053E+00 -2.59143E+00 +2.52765E+00 -3.16408E+00 +1.02659E+00
 -2.91248E+00 -4.43501E-01 -2.02343E+00 -1.46541E+00 -8.67686E-01 -1.80836E+00 +1.39486E-01 -1.48888E+00
 +6.81542E-01 -7.42870E-01 +6.38415E-01 +7.43370E-02 +1.09430E-01 +6.19530E-01 -6.39642E-01 +6.77648E-01
 -1.28063E+00 +2.24765E-01 -1.53876E+00 -5.77819E-01 -1.28106E+00 -1.44976E+00 -5.51640E-01 -2.09083E+00
 +4.52128E-01 -2.27827E+00 +1.44908E+00 -1.93237E+00 +2.16368E+00 -1.13351E+00 +2.40705E+00 -9.06252E-02
 +2.12703E+00 +9.25055E-01 +1.41644E+00 +1.65935E+00 +4.80761E-01 +1.94483E+00 -4.23035E-01 +1.74321E+00
 -1.05895E+00 +1.15123E+00 -1.27662E+00 +3.69970E-01 -1.05185E+00 -3.53634E-01 -4.92325E-01 -7.97975E-01
 +1.93674E-01 -8.31922E-01 +7.58683E-01 -4.55780E-01 +9.91840E-01 +1.95148E-01 +7.87659E-01 +8.88301E-01
 +1.85982E-01 +1.36483E+00 -6.32313E-01 +1.42431E+00 -1.39677E+00 +9.96736E-01 -1.83340E+00 +1.76347E-01
 -1.75913E+00 -7.98160E-01 -1.15270E+00 -1.61535E+00 -1.74464E-01 -1.99431E+00 +8.76485E-01 -1.78531E+00
 +1.65795E+00 -1.03151E+00 +1.90260E+00 +3.40620E-02 +1.51689E+00 +1.06009E+00 +6.23397E-01 +1.69568E+00
 -4.72941E-01 +1.71575E+00 -1.38670E+00 +1.10714E+00 -1.78818E+00 +8.12993E-02 -1.52508E+00 -9.94905E-01
 -6.83599E-01 -1.72844E+00 +4.36438E-01 -1.84368E+00 +1.42659E+00 -1.28727E+00 +1.91845E+00 -2.53324E-01
 +1.72160E+00 +8.82889E-01 +8.98520E-01 +1.70089E+00 -2.53387E-01 +1.89111E+00 -1.30834E+00 +1.37287E+00
 -1.86906E+00 +3.28860E-01 -1.71583E+00 -8.58576E-01 -8.91338E-01 -1.74711E+00 +3.11593E-01 -1.99851E+00
 +1.45608E+00 -1.50562E+00 +2.12200E+00 -4.34139E-01 +2.06155E+00 +8.37226E-01 +1.29107E+00 +1.85616E+00
 +8.44506E-02 +2.26357E+00 -1.12914E+00 +1.92523E+00 -1.92482E+00 +9.79036E-01 -2.03853E+00 -2.19406E-01
 -1.46209E+00 -1.23168E+00 -4.41482E-01 -1.70062E+00 +6.19584E-01 -1.48170E+00 +1.31375E+00 -6.92850E-01
 +1.38292E+00 +3.34841E-01 +8.12664E-01 +1.18546E+00 -1.66232E-01 +1.51634E+00 -1.16821E+00 +1.18594E+00
 -1.79973E+00 +3.04399E-01 -1.80646E+00 -8.10943E-01 -1.16590E+00 -1.75622E+00 -9.20730E-02 -2.19153E+00
 +1.04738E+00 -1.96441E+00 +1.86886E+00 -1.16121E+00 +2.11266E+00 -6.92088E-02 +1.73326E+00 +9.34175E-01
 +9.08079E-01 +1.52177E+00 -3.62000E-02 +1.53401E+00 -7.49753E-01 +1.03043E+00 -9.90014E-01 +2.58428E-01
 -7.07827E-01 -4.46701E-01 -5.87987E-02 -7.91084E-01 +6.62070E-01 -6.32190E-01 +1.13598E+00 -2.90907E-02
 +1.14181E+00 +7.83906E-01 +6.38344E-01 +1.48837E+00 -2.22275E-01 +1.80221E+00 -1.15301E+00 +1.58417E+00
 -1.83900E+00 +8.84279E-01 -2.05274E+00 -7.71020E-02 -1.73463E+00 -9.92176E-01 -1.01035E+00 -1.57865E+00
 -1.40104E-01 -1.68057E+00 +5.80170E-01 -1.32028E+00 +9.27993E-01 -6.83513E-01 +8.33628E-01 -4.45210E-02
 +4.00628E-01 +3.39882E-01 -1.38933E-01 +3.27457E-01 -5.16882E-01 -5.71813E-02 -5.33921E-01 -6.34200E-01
 -1.37651E-01 -1.13918E+00 +5.55557E-01 -1.32591E+00 +1.30301E+00 -1.06256E+00 +1.82650E+00 -3.84958E-01
 +1.91745E+00 +5.13307E-01 +1.51676E+00 +1.35052E+00 +7.39009E-01 +1.86042E+00 -1.68470E-01 +1.89077E+00
 -9.16759E-01 +1.45973E+00 -1.28265E+00 +7.48098E-01 -1.19141E+00 +3.00269E-02 -7.43109E-01 -4.32146E-01
 -1.71902E-01 -4.88868E-01 +2.46964E-01 -1.61174E-01 +3.07062E-01 +3.67719E-01 -4.49580E-02 +8.24884E-01
 -6.84253E-01 +9.57081E-01 -1.35301E+00 +6.34875E-01 -1.75989E+00 -8.96732E-02 -1.69592E+00 -9.95762E-01
 -1.12138E+00 -1.77397E+00 -1.88731E-01 -2.14404E+00 +8.09487E-01 -1.96480E+00 +1.54929E+00 -1.29278E+00
 +1.79898E+00 -3.64674E-01 +1.50959E+00 +4.91097E-01 +8.35290E-01 +9.80828E-01 +7.39604E-02 +9.60527E-01
 -4.50323E-01 +4.93532E-01 -5.17417E-01 -1.73673E-01 -1.02006E-01 -7.09765E-01 +6.12244E-01 -8.33372E-01
 +1.30303E+00 -4.30995E-01 +1.63813E+00 +3.90023E-01 +1.41219E+00 +1.33675E+00 +6.36403E-01 +2.04250E+00
 -4.56479E-01 +2.21222E+00 -1.49644E+00 +1.74383E+00 -2.11824E+00 +7.75666E-01 -2.10573E+00 -3.60916E-01
 -1.48015E+00 -1.26748E+00 -4.95774E-01 -1.63407E+00 +4.57832E-01 -1.36258E+00 +1.00954E+00 -6.07556E-01
 +9.55616E-01 +2.83970E-01 +3.43657E-01 +9.11221E-01 -5.43753E-01 +9.82692E-01 -1.30119E+00 +4.37824E-01
 -1.56487E+00 -5.22849E-01 -1.16382E+00 -1.51330E+00 -1.96077E-01 -2.11498E+00 +1.00260E+00 -2.04681E+00
 +1.98730E+00 -1.28358E+00 +2.37976E+00 -7.38084E-02 +2.02132E+00 +1.15245E+00 +1.04082E+00 +1.95062E+00
 -1.91639E-01 +2.03770E+00 -1.20828E+00 +1.40644E+00 -1.62857E+00 +3.30752E-01 -1.31152E+00 -7.41558E-01
 -4.13624E-01 -1.36712E+00 +6.72169E-01 -1.28562E+00 +1.47340E+00 -5.26681E-01 +1.62903E+00 +5.98862E-01
 +1.03777E+00 +1.62135E+00 -9.63501E-02 +2.10043E+00 -1.34097E+00 +1.80401E+00 -2.20537E+00 +8.06022E-01
 -2.33637E+00 -5.37440E-01 -1.66179E+00 -1.72529E+00 -4.23485E-01 -2.30838E+00 +9.14493E-01 -2.06792E+00
 +1.84698E+00 -1.10409E+00 +2.02662E+00 +2.01362E-01 +1.40158E+00 +1.33446E+00 +2.36685E-01 +1.85155E+00
 -9.90692E-01 +1.55489E+00 -1.77951E+00 +5.71318E-01 -1.80382E+00 -6.97405E-01 -1.04275E+00 -1.73342E+00
 +2.10009E-01 -2.10801E+00 +1.46121E+00 -1.65218E+00 +2.21225E+00 -5.25063E-01 +2.15608E+00 +8.47033E-01
 +1.29918E+00 +1.93691E+00 -3.95176E-02 +2.32279E+00 -1.35213E+00 +1.85360E+00 -2.13932E+00 +7.08361E-01
 -2.10432E+00 -6.73204E-01 -1.26771E+00 -1.76148E+00 +4.14285E-02 -2.14216E+00 +1.31406E+00 -1.67592E+00
 +2.05869E+00 -5.50665E-01 +1.99089E+00 +7.93009E-01 +1.14152E+00 +1.83346E+00 -1.57488E-01 +2.16956E+00
 -1.40320E+00 +1.67418E+00 -2.11639E+00 +5.40993E-01 -2.02536E+00 -7.92430E-01 -1.16853E+00 -1.81421E+00
 +1.22590E-01 -2.13464E+00 +1.35228E+00 -1.63409E+00 +2.05066E+00 -5.06546E-01 +1.95205E+00 +8.16532E-01
 +1.09400E+00 +1.83151E+00 -1.99407E-01 +2.15338E+00 -1.44208E+00 +1.65961E+00 -2.16980E+00 +5.33584E-01
 -2.11354E+00 -8.07228E-01 -1.29744E+00 -1.86955E+00 -2.60542E-02 -2.26864E+00 +1.23246E+00 -1.86938E+00
 +2.02214E+00 -8.32654E-01 +2.06761E+00 +4.48878E-01 +1.37300E+00 +1.49955E+00 +2.15948E-01 +1.93780E+00
 -9.59116E-01 +1.61580E+00 -1.70760E+00 +6.70755E-01 -1.74902E+00 -5.29282E-01 -1.06880E+00 -1.52377E+00
 +7.87043E-02 -1.93018E+00 +1.26552E+00 -1.58407E+00 +2.04783E+00 -5.98090E-01 +2.12792E+00 +6.80410E-01
 +1.46166E+00 +1.79653E+00 +2.73265E-01 +2.35281E+00 -1.02690E+00 +2.15200E+00 -1.99089E+00 +1.26659E+00
 -2.29395E+00 +1.06135E-02 -1.84965E+00 -1.17498E+00 -8.38485E-01 -1.88163E+00 +3.59752E-01 -1.87958E+00
 +1.30475E+00 -1.19892E+00 +1.65549E+00 -1.16512E-01 +1.29352E+00 +9.46087E-01 +3.65437E-01 +1.57674E+00
 -7.70587E-01 +1.52340E+00 -1.67508E+00 +7.86965E-01 -1.98749E+00 -3.77234E-01 -1.55857E+00 -1.55022E+00
 -5.07148E-01 -2.30004E+00 +8.19847E-01 -2.33822E+00 +1.97010E+00 -1.62556E+00 +2.54763E+00 -3.88557E-01
 +2.35528E+00 +9.59949E-01 +1.46619E+00 +1.96794E+00 +1.97944E-01 +2.30625E+00 -1.00189E+00 +1.88671E+00
 -1.71772E+00 +8.93259E-01 -1.71667E+00 -2.85959E-01 -1.03297E+00 -1.20119E+00 +4.53184E-02 -1.50664E+00
 +1.08293E+00 -1.08842E+00 +1.65883E+00 -1.07460E-01 +1.52312E+00 +1.05882E+00 +6.91716E-01 +1.95539E+00
 -5.56772E-01 +2.21799E+00 -1.78132E+00 +1.70927E+00 -2.53933E+00 +5.71765E-01 -2.54892E+00 -8.21820E-01
 -1.79256E+00 -2.00331E+00 -5.23783E-01 -2.57892E+00 +8.25530E-01 -2.37153E+00 +1.80294E+00 -1.48299E+00
 +2.09960E+00 -2.53627E-01 +1.66016E+00 +8.65474E-01 +6.98108E-01 +1.47941E+00 -3.88239E-01 +1.39350E+00
 -1.16692E+00 +6.81213E-01 -1.33371E+00 -3.48333E-01 -8.23565E-01 -1.26988E+00 +1.68465E-01 -1.70292E+00
 +1.26344E+00 -1.45343E+00 +2.04177E+00 -5.84157E-01 +2.19910E+00 +6.11414E-01 +1.65688E+00 +1.71984E+00
 +5.87542E-01 +2.36038E+00 -6.52840E-01 +2.32213E+00 -1.65718E+00 +1.63553E+00 -2.11453E+00 +5.53844E-01
 -1.91721E+00 -5.45570E-01 -1.19019E+00 -1.30117E+00 -2.34963E-01 -1.49544E+00 +5.87969E-01 -1.12498E+00
