 Created: 16-Jan-2021
 $NMID
 ID='D:\BASISSIMULATI'
 FMTDAT='(8E13.5)'
 VOLUME=   1.00000E+00
 TRAMP=   1.00000E+00
 $END
 +2.20963E+01 +2.51249E-02 +1.38662E+01 +1.56862E+01 -2.91162E+00 +1.74873E+01 -1.25387E+01 +5.39788E+00
 -7.54779E+00 -7.45896E+00 +4.57571E+00 -8.90971E+00 +1.05031E+01 +1.39691E-01 +5.49897E+00 +8.21802E+00
 -2.57110E+00 +6.84756E+00 -3.39612E+00 -2.76569E-01 +3.46201E+00 -2.47333E+00 +8.13747E+00 +4.71839E+00
 +2.30763E+00 +1.36189E+01 -1.02779E+01 +1.27653E+01 -1.68630E+01 +3.28963E-01 -9.44694E+00 -1.26095E+01
 +5.81864E+00 -1.31393E+01 +1.42408E+01 -2.66859E-01 +7.57697E+00 +1.35850E+01 -7.51862E+00 +1.51555E+01
 -1.65499E+01 +3.68545E+00 -1.20640E+01 -9.00960E+00 -5.24109E-01 -1.13721E+01 +5.67032E+00 -3.77345E+00
 +1.74191E+00 +3.25963E+00 -5.19998E+00 +1.55577E+00 -5.31359E+00 -5.71477E+00 +2.20918E+00 -8.41483E+00
 +8.17468E+00 -1.82908E+00 +4.24379E+00 +7.22777E+00 -6.77957E+00 +7.72711E+00 -1.31124E+01 -2.86689E+00
 -6.63487E+00 -1.48023E+01 +7.78455E+00 -1.58011E+01 +1.67210E+01 -4.06854E+00 +1.19128E+01 +9.51902E+00
 -1.32847E+00 +1.25109E+01 -9.89483E+00 +3.44627E+00 -6.46980E+00 -7.35345E+00 +3.60955E+00 -9.16544E+00
 +9.10719E+00 -1.85052E+00 +5.31568E+00 +5.19175E+00 -1.54807E+00 +4.25826E+00 -2.34449E+00 -2.08916E+00
 +4.05436E+00 -4.55541E+00 +9.37145E+00 +1.58339E+00 +5.61060E+00 +1.04197E+01 -5.19106E+00 +1.16530E+01
 -1.23424E+01 +2.31629E+00 -7.85240E+00 -9.13569E+00 +4.57967E+00 -1.12393E+01 +1.29085E+01 -1.56492E+00
 +9.04313E+00 +1.05754E+01 -2.97473E+00 +1.36902E+01 -1.14960E+01 +5.71127E+00 -9.39800E+00 -4.57868E+00
 -8.04553E-01 -7.35497E+00 +4.37256E+00 -1.87479E+00 +1.52154E+00 +3.84407E+00 -4.25050E+00 +2.77633E+00
 -4.82418E+00 -3.17308E+00 +1.10604E+00 -5.84010E+00 +6.34689E+00 -7.62076E-01 +3.56546E+00 +7.06617E+00
 -5.79599E+00 +8.35574E+00 -1.22735E+01 +1.86608E-02 -8.32310E+00 -1.07079E+01 +3.29267E+00 -1.33513E+01
 +1.19052E+01 -5.07960E+00 +9.72655E+00 +6.26983E+00 -3.96993E-01 +1.02204E+01 -8.32702E+00 +4.14523E+00
 -7.20341E+00 -4.77800E+00 +1.10149E-01 -7.73400E+00 +5.16547E+00 -3.37625E+00 +3.50792E+00 +1.81095E+00
 -1.00215E+00 +1.62958E+00 -1.51041E+00 -2.72144E+00 +3.34731E+00 -4.47489E+00 +7.61118E+00 +2.92950E-01
 +4.92448E+00 +7.44818E+00 -3.65202E+00 +8.92158E+00 -9.93192E+00 +1.76684E+00 -7.04353E+00 -7.91907E+00
 +3.02849E+00 -1.08055E+01 +1.10473E+01 -3.85984E+00 +9.71802E+00 +6.50463E+00 +8.15837E-01 +1.09479E+01
 -7.07327E+00 +6.41858E+00 -7.46333E+00 -1.51051E+00 -1.97344E+00 -5.14123E+00 +2.53262E+00 -2.57927E+00
 +1.88444E+00 +1.32288E+00 -1.32240E+00 +1.36988E+00 -1.65820E+00 -1.86853E+00 +2.16297E+00 -3.12065E+00
 +5.44674E+00 +8.38357E-01 +2.97753E+00 +6.69999E+00 -4.45144E+00 +7.75802E+00 -1.00045E+01 +1.38965E+00
 -7.68004E+00 -7.41724E+00 +1.19241E+00 -1.06267E+01 +8.88518E+00 -5.17950E+00 +8.78843E+00 +3.93001E+00
 +1.70384E+00 +8.67828E+00 -5.45011E+00 +5.77842E+00 -6.79358E+00 -7.94125E-01 -2.83883E+00 -4.64378E+00
 +1.20413E+00 -3.53365E+00 +1.63541E+00 -7.33085E-01 -9.67311E-02 -3.18984E-01 -2.69263E-02 -2.21734E+00
 +2.93712E+00 -2.63346E+00 +5.31547E+00 +8.78398E-01 +3.08185E+00 +5.78020E+00 -3.19087E+00 +6.76996E+00
 -8.07229E+00 +1.61243E+00 -6.55015E+00 -5.85678E+00 +6.67493E-01 -9.06753E+00 +7.51255E+00 -5.08945E+00
 +8.30713E+00 +2.53530E+00 +3.00937E+00 +7.33711E+00 -3.24984E+00 +6.04975E+00 -5.47991E+00 +1.10497E+00
 -3.29570E+00 -2.60194E+00 -2.19228E-01 -2.77157E+00 +7.52020E-01 -1.22515E+00 +1.45918E-01 -8.30789E-01
 +5.25194E-01 -1.81054E+00 +2.69874E+00 -1.70987E+00 +4.29070E+00 +1.15141E+00 +2.42216E+00 +4.96995E+00
 -2.56187E+00 +5.84860E+00 -6.68939E+00 +1.95940E+00 -6.03133E+00 -4.06684E+00 -6.97369E-01 -7.27870E+00
 +5.04173E+00 -5.01743E+00 +6.67620E+00 +6.53911E-01 +3.46169E+00 +5.05106E+00 -1.36167E+00 +5.20551E+00
 -3.98688E+00 +2.10111E+00 -3.39105E+00 -1.03888E+00 -1.43383E+00 -2.15257E+00 -2.04923E-01 -1.80411E+00
 +1.51050E-01 -1.61167E+00 +8.94632E-01 -1.90280E+00 +2.47670E+00 -1.40559E+00 +3.49920E+00 +8.19480E-01
 +2.17245E+00 +3.64933E+00 -1.37945E+00 +4.56420E+00 -4.65899E+00 +2.16409E+00 -4.89682E+00 -2.13746E+00
 -1.66151E+00 -5.11964E+00 +2.64573E+00 -4.54702E+00 +4.88134E+00 -1.04582E+00 +3.77184E+00 +2.63349E+00
 +6.51504E-01 +4.06468E+00 -2.06795E+00 +2.92219E+00 -2.96264E+00 +6.68973E-01 -2.29532E+00 -1.10599E+00
 -1.10458E+00 -1.88736E+00 -3.09509E-03 -2.02874E+00 +1.05376E+00 -1.81013E+00 +2.08831E+00 -1.01842E+00
 +2.57103E+00 +5.37936E-01 +1.78365E+00 +2.33427E+00 -2.98168E-01 +3.20389E+00 -2.60781E+00 +2.25422E+00
 -3.60995E+00 -2.30734E-01 -2.46915E+00 -2.79138E+00 +2.31647E-01 -3.76986E+00 +2.82789E+00 -2.49525E+00
 +3.70622E+00 +2.33915E-01 +2.38695E+00 +2.70412E+00 -2.02659E-01 +3.44792E+00 -2.41592E+00 +2.18365E+00
 -3.01557E+00 -1.02382E-01 -1.93179E+00 -1.94427E+00 -1.25488E-01 -2.43354E+00 +1.26835E+00 -1.70543E+00
 +1.76167E+00 -5.48177E-01 +1.60730E+00 +4.11770E-01 +1.19803E+00 +1.12183E+00 +5.16821E-01 +1.74242E+00
 -6.83496E-01 +2.02884E+00 -2.16387E+00 +1.33023E+00 -2.89650E+00 -5.94166E-01 -1.82331E+00 -2.80947E+00
 +8.87592E-01 -3.57713E+00 +3.47410E+00 -1.85807E+00 +3.83151E+00 +1.43101E+00 +1.43643E+00 +3.86076E+00
 -1.95104E+00 +3.51108E+00 -3.70646E+00 +7.35530E-01 -2.66412E+00 -2.12760E+00 -8.40604E-02 -2.91846E+00
 +1.71528E+00 -1.57044E+00 +1.64278E+00 +1.39342E-01 +6.56067E-01 +6.54759E-01 +3.28067E-01 +2.32082E-01
 +8.58945E-01 +3.16156E-01 +8.66590E-01 +1.47716E+00 -7.38770E-01 +2.39486E+00 -2.98232E+00 +1.26609E+00
 -3.42584E+00 -1.81436E+00 -8.01137E-01 -4.31461E+00 +3.15612E+00 -3.55847E+00 +4.95787E+00 +3.54744E-01
 +2.73874E+00 +4.21393E+00 -1.69660E+00 +4.61739E+00 -4.46116E+00 +1.30738E+00 -3.34195E+00 -2.56745E+00
 +1.29469E-01 -3.61995E+00 +2.44972E+00 -1.53620E+00 +1.83590E+00 +9.37325E-01 -1.42553E-01 +1.21328E+00
 -6.89620E-01 -3.18832E-01 +8.15205E-01 -1.00904E+00 +2.06292E+00 +6.63050E-01 +6.48294E-01 +2.97753E+00
 -2.72739E+00 +2.74607E+00 -4.52208E+00 -8.52261E-01 -2.12891E+00 -4.75531E+00 +2.89268E+00 -4.86906E+00
 +5.91378E+00 -4.76917E-01 +3.84600E+00 +4.60478E+00 -1.53431E+00 +5.65548E+00 -5.21886E+00 +1.81781E+00
 -3.99709E+00 -3.04413E+00 +3.91201E-01 -4.36878E+00 +3.31207E+00 -1.53687E+00 +2.23174E+00 +1.81516E+00
 -7.92277E-01 +2.03464E+00 -1.77415E+00 -5.10820E-01 +4.63467E-01 -2.09200E+00 +2.88460E+00 -1.83602E-01
 +1.83474E+00 +3.30697E+00 -2.40641E+00 +3.98284E+00 -5.42306E+00 +7.68327E-02 -3.36372E+00 -5.02658E+00
 +2.51329E+00 -5.99659E+00 +6.64616E+00 -1.28427E+00 +4.80407E+00 +4.86712E+00 -1.37812E+00 +6.56175E+00
 -5.93861E+00 +2.30603E+00 -4.70456E+00 -3.48079E+00 +5.05284E-01 -5.15860E+00 +4.06798E+00 -1.72426E+00
 +2.68846E+00 +2.46081E+00 -1.24353E+00 +2.74443E+00 -2.68421E+00 -6.37492E-01 +1.36792E-01 -3.04424E+00
 +3.61992E+00 -9.89976E-01 +2.97172E+00 +3.55382E+00 -2.01172E+00 +5.13116E+00 -6.20056E+00 +1.03456E+00
 -4.56961E+00 -5.17332E+00 +2.02959E+00 -7.05196E+00 +7.27002E+00 -2.17480E+00 +5.81268E+00 +4.97034E+00
 -1.00685E+00 +7.43470E+00 -6.46983E+00 +3.00269E+00 -5.46651E+00 -3.57762E+00 +2.93935E-01 -5.73189E+00
 +4.42558E+00 -1.98728E+00 +2.91885E+00 +2.80489E+00 -1.67265E+00 +3.15102E+00 -3.45563E+00 -9.02149E-01
 -1.17279E-01 -3.99245E+00 +4.30513E+00 -1.79333E+00 +4.01977E+00 +3.71168E+00 -1.65713E+00 +6.13537E+00
 -6.98919E+00 +1.86550E+00 -5.83601E+00 -5.45353E+00 +1.44616E+00 -8.36520E+00 +7.91021E+00 -3.50724E+00
 +7.12527E+00 +4.57496E+00 -5.04375E-02 +8.00460E+00 -6.36378E+00 +3.74906E+00 -5.81139E+00 -3.37049E+00
 +2.05302E-01 -6.02794E+00 +4.80107E+00 -2.21335E+00 +3.33749E+00 +2.98652E+00 -1.62925E+00 +3.43860E+00
 -3.59670E+00 -1.02534E+00 +1.95825E-01 -4.51827E+00 +5.37931E+00 -2.02913E+00 +5.31863E+00 +4.46658E+00
 -1.12014E+00 +7.77465E+00 -7.69463E+00 +3.42952E+00 -7.22404E+00 -4.93411E+00 +5.05095E-01 -8.95939E+00
 +8.08520E+00 -4.32298E+00 +8.05090E+00 +4.54825E+00 +6.41726E-01 +9.00062E+00 -6.57561E+00 +5.13378E+00
 -6.78031E+00 -2.38873E+00 -9.04606E-01 -5.68456E+00 +3.92141E+00 -2.17629E+00 +2.53893E+00 +3.03831E+00
 -2.61922E+00 +3.38359E+00 -4.65423E+00 -1.53471E+00 -4.35926E-01 -5.48093E+00 +5.45278E+00 -2.89267E+00
 +5.69484E+00 +4.31532E+00 -1.27826E+00 +8.30777E+00 -8.86318E+00 +3.84615E+00 -8.97159E+00 -5.54671E+00
 -7.78083E-01 -1.07830E+01 +8.03340E+00 -6.61436E+00 +9.08981E+00 +2.80964E+00 +1.93367E+00 +8.25897E+00
 -5.77054E+00 +5.00371E+00 -6.52494E+00 -2.61011E+00 -7.27308E-01 -6.33155E+00 +4.42854E+00 -3.03952E+00
 +3.35279E+00 +2.30399E+00 -1.74380E+00 +2.81786E+00 -3.73362E+00 -2.15352E+00 +8.44402E-01 -6.19569E+00
 +7.33441E+00 -3.30222E+00 +7.89892E+00 +4.76211E+00 +5.19651E-01 +9.72062E+00 -8.04454E+00 +5.64899E+00
 -8.99593E+00 -4.18806E+00 -8.81472E-01 -1.02329E+01 +8.56591E+00 -6.44639E+00 +1.02939E+01 +3.40886E+00
 +3.17448E+00 +9.75818E+00 -5.19818E+00 +7.16661E+00 -6.81788E+00 -4.17736E-01 -1.55218E+00 -4.54198E+00
 +3.46996E+00 -1.60843E+00 +2.31977E+00 +3.63332E+00 -3.05871E+00 +4.08462E+00 -5.40401E+00 -1.21215E+00
 -9.01294E-01 -5.80185E+00 +5.90097E+00 -3.28930E+00 +6.82155E+00 +4.86174E+00 -6.35101E-01 +1.01956E+01
 -9.80163E+00 +6.23688E+00 -1.14265E+01 -4.14173E+00 -3.45499E+00 -1.12027E+01 +6.56186E+00 -8.29524E+00
 +9.16850E+00 +1.29750E+00 +2.64671E+00 +7.92627E+00 -5.63597E+00 +5.65692E+00 -7.38363E+00 -1.96387E+00
 -2.02408E+00 -6.41950E+00 +3.43248E+00 -3.72774E+00 +2.77509E+00 +1.60437E+00 -2.36743E+00 +2.31503E+00
 -4.69439E+00 -2.90619E+00 -2.82219E-02 -7.70347E+00 +7.34749E+00 -5.36032E+00 +9.06933E+00 +3.08880E+00
 +2.13231E+00 +9.25342E+00 -7.14334E+00 +6.23443E+00 -9.33240E+00 -3.63188E+00 -1.83672E+00 -1.07504E+01
 +8.19044E+00 -8.09594E+00 +1.11842E+01 +1.55974E+00 +4.95803E+00 +8.72367E+00 -3.46416E+00 +7.15608E+00
 -5.69343E+00 -4.95813E-03 -7.94990E-01 -4.33212E+00 +4.41931E+00 -1.57650E+00 +3.55994E+00 +4.01211E+00
 -2.05936E+00 +5.07618E+00 -5.16941E+00 -6.79260E-02 -1.22409E+00 -5.28710E+00 +5.91308E+00 -3.62648E+00
 +7.88874E+00 +4.40469E+00 +1.22645E+00 +1.07141E+01 -8.27681E+00 +8.14528E+00 -1.12561E+01 -1.56428E+00
