 Created: 16-Jan-2021
 $NMID
 ID='D:\BASISSIMULATI'
 FMTDAT='(8E13.5)'
 VOLUME=   1.00000E+00
 TRAMP=   1.00000E+00
 $END
 +5.08054E+01 +5.02274E-02 +4.61463E+01 +2.04928E+01 +3.33109E+01 +3.68965E+01 +1.49173E+01 +4.61354E+01
 -5.32005E+00 +4.65736E+01 -2.33716E+01 +3.83909E+01 -3.57337E+01 +2.35236E+01 -4.01510E+01 +5.23729E+00
 -3.60689E+01 -1.25770E+01 -2.47209E+01 -2.62298E+01 -8.83637E+00 -3.30073E+01 +7.96458E+00 -3.17282E+01
 +2.19581E+01 -2.29665E+01 +3.01141E+01 -8.89716E+00 +3.07343E+01 +7.19955E+00 +2.37950E+01 +2.16627E+01
 +1.09255E+01 +3.12475E+01 -4.96982E+00 +3.38216E+01 -2.03598E+01 +2.88112E+01 -3.18615E+01 +1.73041E+01
 -3.69731E+01 +1.79191E+00 -3.46067E+01 -1.43905E+01 -2.53063E+01 -2.78007E+01 -1.11088E+01 -3.56397E+01
 +4.92031E+00 -3.63535E+01 +1.93696E+01 -2.99553E+01 +2.92327E+01 -1.80012E+01 +3.25625E+01 -3.22754E+00
 +2.88849E+01 +1.10673E+01 +1.92849E+01 +2.17594E+01 +6.14631E+00 +2.65906E+01 -7.39331E+00 +2.46621E+01
 -1.81521E+01 +1.66238E+01 -2.36192E+01 +4.51803E+00 -2.25182E+01 -8.68733E+00 -1.50937E+01 -1.97702E+01
 -3.05912E+00 -2.59830E+01 +1.07845E+01 -2.56768E+01 +2.31733E+01 -1.86816E+01 +3.11115E+01 -6.35993E+00
 +3.25478E+01 +8.68151E+00 +2.68463E+01 +2.31575E+01 +1.49489E+01 +3.38258E+01 -8.09772E-01 +3.82047E+01
 -1.71958E+01 +3.51311E+01 -3.07706E+01 +2.50334E+01 -3.86376E+01 +9.85973E+00 -3.90767E+01 -7.32629E+00
 -3.19283E+01 -2.29951E+01 -1.86425E+01 -3.39070E+01 -1.97986E+00 -3.78106E+01 +1.45721E+01 -3.39316E+01
 +2.75428E+01 -2.31467E+01 +3.42213E+01 -7.80193E+00 +3.32394E+01 +8.78504E+00 +2.48677E+01 +2.30329E+01
 +1.09603E+01 +3.18631E+01 -5.43972E+00 +3.33605E+01 -2.07509E+01 +2.71841E+01 -3.16196E+01 +1.46425E+01
 -3.56380E+01 -1.58486E+00 -3.18596E+01 -1.80201E+01 -2.10023E+01 -3.11290E+01 -5.29480E+00 -3.80749E+01
 +1.19985E+01 -3.73226E+01 +2.72734E+01 -2.89628E+01 +3.73517E+01 -1.46891E+01 +4.01538E+01 +2.56691E+00
 +3.51334E+01 +1.92624E+01 +2.33841E+01 +3.19971E+01 +7.39497E+00 +3.82321E+01 -9.48916E+00 +3.68190E+01
 -2.37858E+01 +2.82297E+01 -3.26158E+01 +1.44362E+01 -3.43087E+01 -1.52779E+00 -2.87425E+01 -1.62290E+01
 -1.73479E+01 -2.65757E+01 -2.77833E+00 -3.04768E+01 +1.16801E+01 -2.72787E+01 +2.28288E+01 -1.78864E+01
 +2.82505E+01 -4.54626E+00 +2.68269E+01 +9.66096E+00 +1.89677E+01 +2.15028E+01 +6.50573E+00 +2.83052E+01
 -7.71797E+00 +2.85353E+01 -2.04868E+01 +2.21293E+01 -2.89186E+01 +1.04979E+01 -3.10987E+01 -3.79184E+00
 -2.64973E+01 -1.75861E+01 -1.60818E+01 -2.78402E+01 -2.10032E+00 -3.22876E+01 +1.24146E+01 -2.99364E+01
 +2.43131E+01 -2.12850E+01 +3.10186E+01 -8.21066E+00 +3.10925E+01 +6.44352E+00 +2.45478E+01 +1.94927E+01
 +1.28447E+01 +2.81081E+01 -1.43020E+00 +3.04363E+01 -1.51311E+01 +2.60047E+01 -2.52423E+01 +1.58241E+01
 -2.95390E+01 +2.16757E+00 -2.70749E+01 -1.19270E+01 -1.83903E+01 -2.33220E+01 -5.39644E+00 -2.94669E+01
 +9.04076E+00 -2.89579E+01 +2.17250E+01 -2.18475E+01 +2.98274E+01 -9.63750E+00 +3.15045E+01 +5.04423E+00
 +2.63043E+01 +1.90124E+01 +1.52685E+01 +2.92154E+01 +7.12609E-01 +3.33981E+01 -1.42725E+01 +3.05935E+01
 -2.64864E+01 +2.13357E+01 -3.33102E+01 +7.54805E+00 -3.32717E+01 -7.86860E+00 -2.63642E+01 -2.16595E+01
 -1.40478E+01 -3.09155E+01 +1.06459E+00 -3.36976E+01 +1.57698E+01 -2.94523E+01 +2.69631E+01 -1.91269E+01
 +3.23045E+01 -4.96212E+00 +3.07179E+01 +9.99389E+00 +2.26171E+01 +2.25437E+01 +9.80972E+00 +3.00287E+01
 -4.89907E+00 +3.08986E+01 -1.83164E+01 +2.50391E+01 -2.75525E+01 +1.37888E+01 -3.06431E+01 -3.58254E-01
 -2.69692E+01 -1.42986E+01 -1.73830E+01 -2.49942E+01 -4.01633E+00 -3.01306E+01 +1.01889E+01 -2.86152E+01
 +2.21229E+01 -2.08089E+01 +2.91840E+01 -8.44084E+00 +2.98424E+01 +5.77239E+00 +2.39684E+01 +1.87215E+01
 +1.28560E+01 +2.75818E+01 -1.06321E+00 +3.04267E+01 -1.47520E+01 +2.66442E+01 -2.52302E+01 +1.70662E+01
 -3.02222E+01 +3.78408E+00 -2.86503E+01 -1.03090E+01 -2.08666E+01 -2.21493E+01 -8.57292E+00 -2.91688E+01
 +5.55171E+00 -2.98523E+01 +1.84354E+01 -2.40650E+01 +2.72819E+01 -1.30793E+01 +3.01779E+01 +7.04890E-01
 +2.65077E+01 +1.42830E+01 +1.70847E+01 +2.47002E+01 +3.97273E+00 +2.96938E+01 -9.96395E+00 +2.81837E+01
 -2.16841E+01 +2.05061E+01 -2.86302E+01 +8.33941E+00 -2.92842E+01 -5.66143E+00 -2.34958E+01 -1.84419E+01
 -1.25153E+01 -2.72108E+01 +1.27817E+00 -3.00455E+01 +1.48924E+01 -2.63088E+01 +2.53701E+01 -1.67861E+01
 +3.04284E+01 -3.51567E+00 +2.89522E+01 +1.06524E+01 +2.12339E+01 +2.26720E+01 +8.90922E+00 +2.99580E+01
 -5.39724E+00 +3.09427E+01 -1.86385E+01 +2.54109E+01 -2.80018E+01 +1.45433E+01 -3.15121E+01 +6.58393E-01
 -2.84537E+01 -1.32902E+01 -1.95180E+01 -2.43508E+01 -6.64833E+00 -3.02078E+01 +7.38544E+00 -2.96760E+01
 +1.95874E+01 -2.29482E+01 +2.73825E+01 -1.15444E+01 +2.91679E+01 +2.02545E+00 +2.46524E+01 +1.48101E+01
 +1.49087E+01 +2.40588E+01 +2.13121E+00 +2.78146E+01 -1.08483E+01 +2.53330E+01 -2.11804E+01 +1.72348E+01
 -2.66174E+01 +5.36133E+00 -2.59992E+01 -7.63446E+00 -1.94992E+01 -1.88711E+01 -8.57927E+00 -2.58687E+01
 +4.33587E+00 -2.70885E+01 +1.63930E+01 -2.22647E+01 +2.49356E+01 -1.24573E+01 +2.80838E+01 +1.83933E-01
 +2.51429E+01 +1.28936E+01 +1.67515E+01 +2.28966E+01 +4.73874E+00 +2.80147E+01 -8.27857E+00 +2.71415E+01
 -1.94700E+01 +2.04818E+01 -2.64104E+01 +9.50401E+00 -2.76098E+01 -3.38316E+00 -2.28377E+01 -1.53593E+01
 -1.31717E+01 -2.38098E+01 -7.60419E-01 -2.68984E+01 +1.16476E+01 -2.39685E+01 +2.13062E+01 -1.56871E+01
 +2.60731E+01 -3.89970E+00 +2.48805E+01 +8.77330E+00 +1.79704E+01 +1.95089E+01 +6.84534E+00 +2.58992E+01
 -6.05659E+00 +2.64797E+01 -1.78913E+01 +2.10527E+01 -2.60278E+01 +1.07360E+01 -2.86221E+01 -2.27529E+00
 -2.50223E+01 -1.51808E+01 -1.59154E+01 -2.51799E+01 -3.18466E+00 -3.00783E+01 +1.04927E+01 -2.87644E+01
 +2.22194E+01 -2.14535E+01 +2.95013E+01 -9.64475E+00 +3.07838E+01 +4.19732E+00 +2.57865E+01 +1.71705E+01
 +1.55644E+01 +2.65559E+01 +2.28095E+00 +3.04004E+01 -1.12557E+01 +2.79325E+01 -2.21949E+01 +1.97254E+01
 -2.82527E+01 +7.57008E+00 -2.81991E+01 -5.91219E+00 -2.21157E+01 -1.78345E+01 -1.13726E+01 -2.56639E+01
 +1.67203E+00 -2.77619E+01 +1.41837E+01 -2.37314E+01 +2.34622E+01 -1.44947E+01 +2.75210E+01 -2.08718E+00
 +2.55099E+01 +1.07867E+01 +1.78905E+01 +2.13390E+01 +6.32894E+00 +2.72987E+01 -6.67065E+00 +2.73969E+01
 -1.83107E+01 +2.16333E+01 -2.61045E+01 +1.12676E+01 -2.84096E+01 -1.46128E+00 -2.47751E+01 -1.38245E+01
 -1.60295E+01 -2.31957E+01 -4.09125E+00 -2.76168E+01 +8.45474E+00 -2.62147E+01 +1.89222E+01 -1.93804E+01
 +2.51058E+01 -8.67271E+00 +2.57550E+01 +3.53056E+00 +2.08369E+01 +1.45572E+01 +1.15321E+01 +2.20250E+01
 -3.34473E-02 +2.43589E+01 -1.12613E+01 +2.11288E+01 -1.96535E+01 +1.31350E+01 -2.33603E+01 +2.22410E+00
 -2.15831E+01 -9.12300E+00 -1.47454E+01 -1.83407E+01 -4.39507E+00 -2.33444E+01 +7.14021E+00 -2.29892E+01
 +1.72672E+01 -1.73211E+01 +2.36995E+01 -7.56621E+00 +2.49612E+01 +4.13855E+00 +2.07136E+01 +1.52151E+01
 +1.18315E+01 +2.32103E+01 +2.14096E-01 +2.63351E+01 -1.16284E+01 +2.38589E+01 -2.11231E+01 +1.62728E+01
 -2.61966E+01 +5.18559E+00 -2.57296E+01 -7.02349E+00 -1.98035E+01 -1.77220E+01 -9.68658E+00 -2.45966E+01
 +2.43928E+00 -2.61580E+01 +1.39505E+01 -2.20661E+01 +2.23510E+01 -1.32075E+01 +2.58143E+01 -1.50517E+00
 +2.35818E+01 +1.04963E+01 +1.61291E+01 +2.01814E+01 +5.06593E+00 +2.54304E+01 -7.21035E+00 +2.50794E+01
 -1.80319E+01 +1.91744E+01 -2.50368E+01 +8.96341E+00 -2.66795E+01 -3.37065E+00 -2.25659E+01 -1.51795E+01
 -1.35396E+01 -2.39195E+01 -1.50188E+00 -2.76992E+01 +1.09968E+01 -2.56863E+01 +2.13042E+01 -1.82864E+01
 +2.72351E+01 -7.05508E+00 +2.75393E+01 +5.63686E+00 +2.21670E+01 +1.71127E+01 +1.22762E+01 +2.49639E+01
 -1.92274E-02 +2.75639E+01 -1.21067E+01 +2.44136E+01 -2.14363E+01 +1.62416E+01 -2.60668E+01 +4.84152E+00
 -2.50778E+01 -7.31944E+00 -1.87603E+01 -1.76347E+01 -8.54556E+00 -2.39193E+01 +3.31181E+00 -2.48767E+01
 +1.42255E+01 -2.03714E+01 +2.18383E+01 -1.14492E+01 +2.45294E+01 -1.02284E-01 +2.17596E+01 +1.11689E+01
 +1.41804E+01 +1.99009E+01 +3.48423E+00 +2.42013E+01 -7.96998E+00 +2.31553E+01 -1.76732E+01 +1.70187E+01
 -2.35128E+01 +7.15473E+00 -2.42299E+01 -4.26840E+00 -1.96884E+01 -1.47541E+01 -1.08992E+01 -2.20223E+01
 +2.06077E-01 -2.45056E+01 +1.11999E+01 -2.16865E+01 +1.96902E+01 -1.42064E+01 +2.38420E+01 -3.72044E+00
 +2.27752E+01 +7.46766E+00 +1.67532E+01 +1.69105E+01 +7.12119E+00 +2.25519E+01 -3.99070E+00 +2.31747E+01
 -1.41352E+01 +1.86639E+01 -2.10835E+01 +1.00299E+01 -2.33117E+01 -8.15655E-01 -2.03330E+01 -1.14784E+01
 -1.28029E+01 -1.96056E+01 -2.37482E+00 -2.34007E+01 +8.66148E+00 -2.20148E+01 +1.78799E+01 -1.57329E+01
 +2.32477E+01 -5.91168E+00 +2.35691E+01 +5.31588E+00 +1.87464E+01 +1.55046E+01 +9.80250E+00 +2.24293E+01
 -1.34075E+00 +2.45692E+01 -1.22792E+01 +2.14388E+01 -2.06481E+01 +1.36944E+01 -2.46348E+01 +2.99250E+00
 -2.33721E+01 -8.36879E+00 -1.71258E+01 -1.79471E+01 -7.23763E+00 -2.36845E+01 +4.16599E+00 -2.43518E+01
 +1.46336E+01 -1.98140E+01 +2.19190E+01 -1.10582E+01 +2.44657E+01 +2.15009E-02 +2.17422E+01 +1.10344E+01
 +1.43546E+01 +1.96104E+01 +3.91252E+00 +2.39120E+01 -7.32029E+00 +2.30295E+01 -1.69173E+01 +1.71748E+01
 -2.28137E+01 +7.63267E+00 -2.37514E+01 -3.52062E+00 -1.95483E+01 -1.38684E+01 -1.11342E+01 -2.11775E+01
 -3.45471E-01 -2.38800E+01 +1.04749E+01 -2.14107E+01 +1.89863E+01 -1.43253E+01 +2.33572E+01 -4.17650E+00
 +2.26597E+01 +6.82632E+00 +1.70673E+01 +1.62976E+01 +7.81283E+00 +2.21931E+01 -3.08193E+00 +2.32517E+01
 -1.32479E+01 +1.92662E+01 -2.04833E+01 +1.11236E+01 -2.32310E+01 +6.09935E-01 -2.09137E+01 -9.98127E+00
 -1.40562E+01 -1.83480E+01 -4.16778E+00 -2.26798E+01 +6.58885E+00 -2.20491E+01 +1.58691E+01 -1.66103E+01
 +2.16564E+01 -7.56295E+00 +2.26998E+01 +3.11191E+00 +1.87835E+01 +1.30841E+01 +1.07714E+01 +2.01816E+01
 +4.16823E-01 +2.28626E+01 -1.00201E+01 +2.05488E+01 -1.82651E+01 +1.37498E+01 -2.25235E+01 +3.95017E+00
 -2.18700E+01 -6.71475E+00 -1.64477E+01 -1.59234E+01 -7.43609E+00 -2.16727E+01 +3.20660E+00 -2.27121E+01
 +1.31693E+01 -1.88145E+01 +2.02899E+01 -1.08237E+01 +2.30234E+01 -4.70569E-01 +2.07768E+01 +1.00034E+01
