 Created: 16-Jan-2021
 $NMID
 ID='D:\BASISSIMULATI'
 FMTDAT='(8E13.5)'
 VOLUME=   1.00000E+00
 TRAMP=   1.00000E+00
 $END
 +2.43021E+01 +2.38443E-02 +2.16264E+01 +5.54485E+00 +1.44438E+01 +1.03005E+01 +4.80473E+00 +1.35983E+01
 -4.61833E+00 +1.48864E+01 -1.13616E+01 +1.38858E+01 -1.39100E+01 +1.07335E+01 -1.21097E+01 +6.06380E+00
 -7.13281E+00 +9.56622E-01 -1.02710E+00 -3.28209E+00 +3.98312E+00 -5.47620E+00 +6.20409E+00 -4.97136E+00
 +4.96125E+00 -1.92349E+00 +7.29828E-01 +2.64350E+00 -5.10338E+00 +7.07158E+00 -1.07365E+01 +9.55400E+00
 -1.45231E+01 +8.73244E+00 -1.54305E+01 +4.20774E+00 -1.32563E+01 -3.22412E+00 -8.57479E+00 -1.17189E+01
 -2.47366E+00 -1.88954E+01 +3.79853E+00 -2.25619E+01 +9.14811E+00 -2.14261E+01 +1.28311E+01 -1.55470E+01
 +1.45062E+01 -6.36732E+00 +1.41819E+01 +3.69932E+00 +1.21237E+01 +1.19997E+01 +8.77534E+00 +1.64558E+01
 +4.71592E+00 +1.61958E+01 +6.31209E-01 +1.17951E+01 -2.74246E+00 +5.05148E+00 -4.73530E+00 -1.62309E+00
 -4.91847E+00 -5.98891E+00 -3.28567E+00 -6.68051E+00 -3.60318E-01 -3.60024E+00 +2.84912E+00 +2.11085E+00
 +5.07852E+00 +8.49412E+00 +5.18368E+00 +1.34285E+01 +2.55302E+00 +1.52942E+01 -2.58969E+00 +1.34334E+01
 -9.12391E+00 +8.27826E+00 -1.52730E+01 +1.13691E+00 -1.91035E+01 -6.25866E+00 -1.91383E+01 -1.22750E+01
 -1.48827E+01 -1.57992E+01 -7.07283E+00 -1.64459E+01 +2.46224E+00 -1.45259E+01 +1.13051E+01 -1.08303E+01
 +1.71730E+01 -6.33943E+00 +1.86284E+01 -1.96340E+00 +1.55387E+01 +1.61828E+00 +9.12565E+00 +4.00484E+00
 +1.57839E+00 +5.04750E+00 -4.64648E+00 +4.80246E+00 -7.60992E+00 +3.50445E+00 -6.50114E+00 +1.56513E+00
 -1.87481E+00 -4.34651E-01 +4.55767E+00 -1.80447E+00 +1.05056E+01 -1.88412E+00 +1.38468E+01 -2.49448E-01
 +1.32966E+01 +3.07808E+00 +8.78543E+00 +7.50915E+00 +1.43649E+00 +1.19334E+01 -6.82749E+00 +1.49657E+01
 -1.38987E+01 +1.53479E+01 -1.81099E+01 +1.23869E+01 -1.86728E+01 +6.27709E+00 -1.58114E+01 -1.82987E+00
 -1.05805E+01 -1.00672E+01 -4.46607E+00 -1.63619E+01 +1.07981E+00 -1.90624E+01 +5.01596E+00 -1.74807E+01
 +6.90132E+00 -1.21571E+01 +6.87610E+00 -4.74008E+00 +5.48808E+00 +2.50110E+00 +3.45756E+00 +7.38292E+00
 +1.47175E+00 +8.50598E+00 +6.15045E-02 +5.71098E+00 -4.37076E-01 +1.35311E-01 +1.27430E-01 -6.15454E+00
 +1.73366E+00 -1.08361E+01 +4.17439E+00 -1.20876E+01 +7.02803E+00 -9.17807E+00 +9.65560E+00 -2.69869E+00
 +1.12713E+01 +5.63365E+00 +1.11104E+01 +1.35274E+01 +8.66935E+00 +1.88317E+01 +3.94614E+00 +2.01805E+01
 -2.42110E+00 +1.73615E+01 -9.20126E+00 +1.13093E+01 -1.48330E+01 +3.74950E+00 -1.78516E+01 -3.36677E+00
 -1.73565E+01 -8.44219E+00 -1.33573E+01 -1.06434E+01 -6.86098E+00 -1.00333E+01 +3.60533E-01 -7.41892E+00
 +6.27662E+00 -4.00254E+00 +9.22677E+00 -9.75268E-01 +8.46735E+00 +8.11414E-01 +4.44461E+00 +1.00945E+00
 -1.31379E+00 -2.40558E-01 -6.66987E+00 -2.45322E+00 -9.56458E+00 -4.98927E+00 -8.70026E+00 -7.21856E+00
 -3.98764E+00 -8.61646E+00 +3.39616E+00 -8.79949E+00 +1.13626E+01 -7.53630E+00 +1.75648E+01 -4.77247E+00
 +2.01328E+01 -6.82918E-01 +1.82517E+01 +4.27093E+00 +1.23949E+01 +9.32927E+00 +4.14829E+00 +1.35177E+01
 -4.30674E+00 +1.58454E+01 -1.08699E+01 +1.55847E+01 -1.41350E+01 +1.25466E+01 -1.37485E+01 +7.24459E+00
 -1.04171E+01 +8.57130E-01 -5.59046E+00 -5.03957E+00 -9.48797E-01 -8.91278E+00 +2.12406E+00 -9.75819E+00
 +2.91395E+00 -7.46333E+00 +1.49805E+00 -2.90839E+00 -1.38900E+00 +2.25718E+00 -4.66409E+00 +6.11340E+00
 -7.25426E+00 +7.09369E+00 -8.38491E+00 +4.52823E+00 -7.72433E+00 -1.08325E+00 -5.37598E+00 -8.17602E+00
 -1.76469E+00 -1.45831E+01 +2.51247E+00 -1.82136E+01 +6.81055E+00 -1.77265E+01 +1.05110E+01 -1.29749E+01
 +1.30595E+01 -5.07245E+00 +1.40033E+01 +3.94357E+00 +1.30580E+01 +1.17395E+01 +1.02053E+01 +1.63969E+01
 +5.78657E+00 +1.69762E+01 +5.31745E-01 +1.37550E+01 -4.52756E+00 +8.07511E+00 -8.27752E+00 +1.86767E+00
 -9.83152E+00 -2.97735E+00 -8.83595E+00 -5.18386E+00 -5.65661E+00 -4.42677E+00 -1.35265E+00 -1.34414E+00
 +2.58939E+00 +2.75088E+00 +4.70233E+00 +6.33812E+00 +4.03110E+00 +8.17110E+00 +5.02814E-01 +7.61772E+00
 -4.96842E+00 +4.77265E+00 -1.07031E+01 +3.40131E-01 -1.47546E+01 -4.63911E+00 -1.55331E+01 -9.10420E+00
 -1.23500E+01 -1.22290E+01 -5.69439E+00 -1.35546E+01 +2.86365E+00 -1.29954E+01 +1.11248E+01 -1.07620E+01
 +1.69267E+01 -7.26052E+00 +1.88088E+01 -3.01313E+00 +1.64578E+01 +1.38715E+00 +1.07871E+01 +5.30952E+00
 +3.62696E+00 +8.14185E+00 -2.86843E+00 +9.39378E+00 -6.89777E+00 +8.83638E+00 -7.55222E+00 +6.63069E+00
 -5.04786E+00 +3.37789E+00 -5.90067E-01 +3.52632E-02 +4.06778E+00 -2.31435E+00 +7.21093E+00 -2.79076E+00
 +7.69759E+00 -1.04083E+00 +5.27376E+00 +2.56299E+00 +5.86697E-01 +6.94524E+00 -5.07945E+00 +1.05980E+01
 -1.02339E+01 +1.20368E+01 -1.36220E+01 +1.03030E+01 -1.45411E+01 +5.34196E+00 -1.29517E+01 -1.88791E+00
 -9.38427E+00 -9.63448E+00 -4.70855E+00 -1.58503E+01 +1.35127E-01 -1.88183E+01 +4.35219E+00 -1.77015E+01
 +7.40949E+00 -1.28295E+01 +9.05177E+00 -5.61723E+00 +9.25828E+00 +1.86503E+00 +8.18890E+00 +7.53536E+00
 +6.15156E+00 +9.94651E+00 +3.59015E+00 +8.72324E+00 +1.06370E+00 +4.64905E+00 -8.19280E-01 -6.20913E-01
 -1.52866E+00 -5.11879E+00 -7.82298E-01 -7.20508E+00 +1.30035E+00 -6.08040E+00 +4.13541E+00 -2.00736E+00
 +6.76045E+00 +3.81538E+00 +8.07829E+00 +9.66719E+00 +7.20380E+00 +1.38572E+01 +3.80515E+00 +1.52280E+01
 -1.68781E+00 +1.34561E+01 -8.10542E+00 +9.07404E+00 -1.38161E+01 +3.23505E+00 -1.71945E+01 -2.67429E+00
 -1.71388E+01 -7.43527E+00 -1.34618E+01 -1.02864E+01 -7.01345E+00 -1.10320E+01 +5.27689E-01 -9.97319E+00
 +7.14294E+00 -7.72058E+00 +1.10919E+01 -4.97764E+00 +1.14595E+01 -2.36783E+00 +8.44780E+00 -3.43483E-01
 +3.30884E+00 +8.31147E-01 -2.06283E+00 +1.05949E+00 -5.74677E+00 +3.95061E-01 -6.41849E+00 -9.54159E-01
 -3.77148E+00 -2.61185E+00 +1.39681E+00 -4.04590E+00 +7.45724E+00 -4.64417E+00 +1.24820E+01 -3.86497E+00
 +1.48569E+01 -1.43262E+00 +1.37727E+01 +2.48907E+00 +9.44139E+00 +7.22657E+00 +2.98564E+00 +1.16893E+01
 -3.94545E+00 +1.46313E+01 -9.69076E+00 +1.50221E+01 -1.30501E+01 +1.24097E+01 -1.35717E+01 +7.14608E+00
 -1.15847E+01 +3.73428E-01 -7.99798E+00 -6.25264E+00 -3.96037E+00 -1.10362E+01 -5.07666E-01 -1.27661E+01
 +1.69190E+00 -1.11179E+01 +2.43505E+00 -6.78860E+00 +1.92864E+00 -1.30238E+00 +6.37728E-01 +3.46146E+00
 -8.88075E-01 +5.87171E+00 -2.14905E+00 +5.08067E+00 -2.76474E+00 +1.31157E+00 -2.49094E+00 -4.20222E+00
 -1.21871E+00 -9.60983E+00 +1.01272E+00 -1.30386E+01 +3.98174E+00 -1.31961E+01 +7.25178E+00 -9.78111E+00
 +1.01825E+01 -3.57144E+00 +1.20218E+01 +3.83172E+00 +1.20837E+01 +1.05105E+01 +9.97554E+00 +1.48153E+01
 +5.79586E+00 +1.58377E+01 +2.17989E-01 +1.36270E+01 -5.60362E+00 +9.09887E+00 -1.03079E+01 +3.68911E+00
 -1.27167E+01 -1.11632E+00 -1.22188E+01 -4.21548E+00 -9.01305E+00 -5.15644E+00 -4.10701E+00 -4.17284E+00
 +9.51098E-01 -2.00965E+00 +4.54095E+00 +3.74812E-01 +5.49295E+00 +2.11676E+00 +3.49071E+00 +2.66771E+00
 -7.90741E-01 +1.87854E+00 -5.87105E+00 -4.55364E-02 -9.92567E+00 -2.66884E+00 -1.13762E+01 -5.46378E+00
 -9.41573E+00 -7.91554E+00 -4.29269E+00 -9.57770E+00 +2.74473E+00 -1.00960E+01 +9.82719E+00 -9.23235E+00
 +1.50417E+01 -6.91234E+00 +1.70179E+01 -3.29305E+00 +1.53324E+01 +1.18256E+00 +1.06059E+01 +5.79228E+00
 +4.27111E+00 +9.63970E+00 -1.89960E+00 +1.18585E+01 -6.34375E+00 +1.18698E+01 -8.15611E+00 +9.60755E+00
 -7.29844E+00 +5.62034E+00 -4.52379E+00 +9.84323E-01 -1.06452E+00 -2.97382E+00 +1.79418E+00 -5.07502E+00
 +3.10806E+00 -4.68224E+00 +2.51484E+00 -1.95214E+00 +2.67077E-01 +2.15868E+00 -2.92297E+00 +6.15741E+00
 -6.14757E+00 +8.47946E+00 -8.57552E+00 +8.00807E+00 -9.64714E+00 +4.47505E+00 -9.15201E+00 -1.40024E+00
 -7.19899E+00 -8.09250E+00 -4.12387E+00 -1.37240E+01 -3.88131E-01 -1.66468E+01 +3.49487E+00 -1.59634E+01
 +7.00128E+00 -1.18130E+01 +9.62716E+00 -5.32908E+00 +1.09379E+01 +1.71834E+00 +1.06524E+01 +7.47398E+00
 +8.74729E+00 +1.05615E+01 +5.53887E+00 +1.04771E+01 +1.68866E+00 +7.69186E+00 -1.90557E+00 +3.44347E+00
 -4.33002E+00 -7.00276E-01 -4.93299E+00 -3.35216E+00 -3.56999E+00 -3.72193E+00 -7.17810E-01 -1.81238E+00
 +2.60740E+00 +1.64871E+00 +5.12922E+00 +5.49465E+00 +5.71437E+00 +8.51083E+00 +3.77274E+00 +9.79581E+00
 -4.87235E-01 +8.98358E+00 -6.05071E+00 +6.27808E+00 -1.13604E+01 +2.31988E+00 -1.47817E+01 -2.04361E+00
 -1.51245E+01 -5.99471E+00 -1.20477E+01 -8.91656E+00 -6.20454E+00 -1.04667E+01 +9.27247E-01 -1.05652E+01
 +7.48579E+00 -9.33722E+00 +1.17936E+01 -7.05344E+00 +1.28700E+01 -4.09301E+00 +1.07191E+01 -9.23296E-01
 +6.30047E+00 +1.92892E+00 +1.19780E+00 +3.94370E+00 -2.90214E+00 +4.72009E+00 -4.74380E+00 +4.11056E+00
 -3.87758E+00 +2.32623E+00 -7.60079E-01 -4.66659E-02 +3.43888E+00 -2.15733E+00 +7.24398E+00 -3.12156E+00
 +9.35214E+00 -2.31436E+00 +9.02267E+00 +3.72943E-01 +6.26284E+00 +4.41282E+00 +1.76862E+00 +8.72496E+00
 -3.33588E+00 +1.19624E+01 -7.85610E+00 +1.29250E+01 -1.08586E+01 +1.09690E+01 -1.18786E+01 +6.27114E+00
 -1.09612E+01 -1.57957E-01 -8.55452E+00 -6.73308E+00 -5.32008E+00 -1.17572E+01 -1.93723E+00 -1.39427E+01
 +1.03756E+00 -1.28196E+01 +3.23345E+00 -8.89112E+00 +4.46451E+00 -3.47872E+00 +4.70106E+00 +1.69662E+00
 +4.04718E+00 +5.06160E+00 +2.73729E+00 +5.68586E+00 +1.13769E+00 +3.56319E+00 -2.77612E-01 -4.10854E-01
 -1.00396E+00 -4.75164E+00 -6.38549E-01 -7.87889E+00 +9.63581E-01 -8.62448E+00 +3.56930E+00 -6.58932E+00
 +6.54680E+00 -2.24083E+00 +8.98341E+00 +3.26649E+00 +9.93168E+00 +8.47317E+00 +8.71945E+00 +1.20640E+01
 +5.22137E+00 +1.32371E+01 -1.31855E-02 +1.18848E+01 -5.84289E+00 +8.54900E+00 -1.08261E+01 +4.19207E+00
 -1.36434E+01 -1.21425E-01 -1.35188E+01 -3.52145E+00 -1.04943E+01 -5.52015E+00 -5.45609E+00 -6.05448E+00
 +1.13526E-01 -5.40260E+00 +4.58712E+00 -4.03127E+00 +6.70419E+00 -2.44097E+00 +5.97484E+00 -1.05712E+00
 +2.83818E+00 -1.82233E-01 -1.48105E+00 +7.91886E-03 -5.37308E+00 -5.43690E-01 -7.36886E+00 -1.76983E+00
 -6.61719E+00 -3.45722E+00 -3.15663E+00 -5.23065E+00 +2.10378E+00 -6.57797E+00 +7.68216E+00 -6.94141E+00
 +1.19952E+01 -5.87214E+00 +1.38448E+01 -3.20830E+00 +1.27628E+01 +7.89830E-01 +9.11241E+00 +5.41555E+00
