 Created: 16-Jan-2021
 $NMID
 ID='D:\BASISSIMULATI'
 FMTDAT='(8E13.5)'
 VOLUME=   1.00000E+00
 TRAMP=   1.00000E+00
 $END
 +8.10176E+00 +7.82089E-03 +7.86433E+00 +1.90422E+00 +7.18986E+00 +3.68990E+00 +6.11697E+00 +5.26575E+00
 +4.70638E+00 +6.54462E+00 +3.03742E+00 +7.45607E+00 +1.20362E+00 +7.95031E+00 -6.92562E-01 +8.00089E+00
 -2.54544E+00 +7.60610E+00 -4.25201E+00 +6.78903E+00 -5.71769E+00 +5.59620E+00 -6.86150E+00 +4.09495E+00
 -7.62060E+00 +2.36959E+00 -7.95372E+00 +5.16692E-01 -7.84339E+00 -1.36031E+00 -7.29686E+00 -3.15690E+00
 -6.34563E+00 -4.77330E+00 -5.04367E+00 -6.12001E+00 -3.46430E+00 -7.12277E+00 -1.69612E+00 -7.72664E+00
 +1.62022E-01 -7.89902E+00 +2.00648E+00 -7.63139E+00 +3.73465E+00 -6.93975E+00 +5.25065E+00 -5.86366E+00
 +6.47065E+00 -4.46397E+00 +7.32751E+00 -2.81937E+00 +7.77445E+00 -1.02201E+00 +7.78762E+00 +8.27719E-01
 +7.36739E+00 +2.62674E+00 +6.53823E+00 +4.27507E+00 +5.34730E+00 +5.68136E+00 +3.86179E+00 +6.76796E+00
 +2.16511E+00 +7.47520E+00 +3.52196E-01 +7.76468E+00 -1.47576E+00 +7.62133E+00 -3.21701E+00 +7.05423E+00
 -4.77487E+00 +6.09599E+00 -6.06309E+00 +4.80092E+00 -7.01068E+00 +3.24194E+00 -7.56576E+00 +1.50645E+00
 -7.69841E+00 -3.08505E-01 -7.40232E+00 -2.10174E+00 -6.69505E+00 -3.77351E+00 -5.61698E+00 -5.23110E+00
 -4.22903E+00 -6.39392E+00 -2.60923E+00 -7.19801E+00 -8.48292E-01 -7.59952E+00 +9.55432E-01 -7.57711E+00
 +2.70146E+00 -7.13311E+00 +4.29277E+00 -6.29327E+00 +5.64120E+00 -5.10532E+00 +6.67231E+00 -3.63625E+00
 +7.32954E+00 -1.96851E+00 +7.57723E+00 -1.95416E-01 +7.40263E+00 +1.58410E+00 +6.81653E+00 +3.27100E+00
 +5.85256E+00 +4.77164E+00 +4.56532E+00 +6.00297E+00 +3.02726E+00 +6.89716E+00 +1.32460E+00 +7.40528E+00
 -4.47501E-01 +7.50003E+00 -2.19025E+00 +7.17717E+00 -3.80674E+00 +6.45572E+00 -5.20734E+00 +5.37683E+00
 -6.31463E+00 +4.00143E+00 -7.06774E+00 +2.40681E+00 -7.42565E+00 +6.82254E-01 -7.36943E+00 -1.07594E+00
 -6.90326E+00 -2.76984E+00 -6.05409E+00 -4.30536E+00 -4.87015E+00 -5.59743E+00 -3.41816E+00 -6.57477E+00
 -1.77961E+00 -7.18377E+00 -4.61282E-02 -7.39148E+00 +1.68557E+00 -7.18734E+00 +3.31911E+00 -6.58374E+00
 +4.76386E+00 -5.61528E+00 +5.93987E+00 -4.33677E+00 +6.78238E+00 -2.82012E+00 +7.24535E+00 -1.15035E+00
 +7.30395E+00 +5.79240E-01 +6.95596E+00 +2.27226E+00 +6.22174E+00 +3.83458E+00 +5.14314E+00 +5.17959E+00
 +3.78103E+00 +6.23298E+00 +2.21193E+00 +6.93688E+00 +5.23681E-01 +7.25297E+00 -1.18948E+00 +7.16465E+00
 -2.83214E+00 +6.67785E+00 -4.31307E+00 +5.82065E+00 -5.55027E+00 +4.64170E+00 -6.47550E+00 +3.20739E+00
 -7.03805E+00 +1.59820E+00 -7.20753E+00 -9.58864E-02 -6.97549E+00 -1.78039E+00 -6.35585E+00 -3.36158E+00
 -5.38408E+00 -4.75174E+00 -4.11512E+00 -5.87398E+00 -2.62035E+00 -6.66653E+00 -9.83513E-01 -7.08609E+00
 +7.03949E-01 -7.11027E+00 +2.34800E+00 -6.73872E+00 +3.85726E+00 -5.99309E+00 +5.14808E+00 -4.91582E+00
 +6.14918E+00 -3.56770E+00 +6.80557E+00 -2.02442E+00 +7.08158E+00 -3.72364E-01 +6.96283E+00 +1.29627E+00
 +6.45689E+00 +2.88858E+00 +5.59291E+00 +4.31615E+00 +4.41985E+00 +5.49994E+00 +3.00379E+00 +6.37470E+00
 +1.42411E+00 +6.89251E+00 -2.30844E-01 +7.02547E+00 -1.86880E+00 +6.76713E+00 -3.39865E+00 +6.13286E+00
 -4.73553E+00 +5.15889E+00 -5.80552E+00 +3.90028E+00 -6.54976E+00 +2.42778E+00 -6.92764E+00 +8.23878E-01
 -6.91906E+00 -8.21849E-01 -6.52546E+00 -2.41771E+00 -5.76972E+00 -3.87502E+00 -4.69479E+00 -5.11303E+00
 -3.36130E+00 -6.06340E+00 -1.84411E+00 -6.67397E+00 -2.28097E-01 -6.91160E+00 +1.39655E+00 -6.76401E+00
 +2.93940E+00 -6.24038E+00 +4.31480E+00 -5.37080E+00 +5.44664E+00 -4.20452E+00 +6.27254E+00 -2.80719E+00
 +6.74730E+00 -1.25715E+00 +6.84539E+00 +3.58958E-01 +6.56230E+00 +1.95103E+00 +5.91473E+00 +3.43054E+00
 +4.93964E+00 +4.71543E+00 +3.69211E+00 +5.73468E+00 +2.24225E+00 +6.43225E+00 +6.71254E-01 +6.77011E+00
 -9.33156E-01 +6.73038E+00 -2.48161E+00 +6.31621E+00 -3.88808E+00 +5.55159E+00 -5.07465E+00 +4.47995E+00
 -5.97584E+00 +3.16170E+00 -6.54222E+00 +1.67081E+00 -6.74312E+00 +9.06777E-02 -6.56826E+00 -1.49053E+00
 -6.02832E+00 -2.98482E+00 -5.15427E+00 -4.30926E+00 -3.99558E+00 -5.39057E+00 -2.61746E+00 -6.16919E+00
 -1.09713E+00 -6.60254E+00 +4.80436E-01 -6.66738E+00 +2.02731E+00 -6.36102E+00 +3.45747E+00 -5.70145E+00
 +4.69165E+00 -4.72626E+00 +5.66164E+00 -3.49050E+00 +6.31413E+00 -2.06360E+00 +6.61361E+00 -5.25450E-01
 +6.54430E+00 +1.03808E+00 +6.11098E+00 +2.53992E+00 +5.33868E+00 +3.89665E+00 +4.27122E+00 +5.03313E+00
 +2.96875E+00 +5.88666E+00 +1.50435E+00 +6.41047E+00 -4.00950E-02 +6.57623E+00 -1.57843E+00 +6.37561E+00
 -3.02507E+00 +5.82070E+00 -4.29973E+00 +4.94326E+00 -5.33192E+00 +3.79294E+00 -6.06480E+00 +2.43444E+00
 -6.45834E+00 +9.43868E-01 -6.49150E+00 -5.95484E-01 -6.16333E+00 -2.09783E+00 -5.49299E+00 -3.47967E+00
 -4.51867E+00 -4.66440E+00 -3.29532E+00 -5.58659E+00 -1.89167E+00 -6.19557E+00 -3.86273E-01 -6.45825E+00
 +1.13684E+00 -6.36087E+00 +2.59287E+00 -5.90977E+00 +3.90095E+00 -5.13092E+00 +4.98867E+00 -4.06850E+00
 +5.79604E+00 -2.78233E+00 +6.27884E+00 -1.34457E+00 +6.41102E+00 +1.64417E-01 +6.18610E+00 +1.66046E+00
 +5.61750E+00 +3.06035E+00 +4.73771E+00 +4.28642E+00 +3.59648E+00 +5.27087E+00 +2.25798E+00 +5.95954E+00
 +7.97188E-01 +6.31484E+00 -7.04304E-01 +6.31783E+00 -2.16283E+00 +5.96923E+00 -3.49734E+00 +5.28932E+00
 -4.63388E+00 +4.31678E+00 -5.50969E+00 +3.10646E+00 -6.07670E+00 +1.72630E+00 -6.30412E+00 +2.53538E-01
 -6.18015E+00 -1.22964E+00 -5.71257E+00 -2.64066E+00 -4.92827E+00 -3.90119E+00 -3.87169E+00 -4.94146E+00
 -2.60230E+00 -5.70413E+00 -1.19129E+00 -6.14746E+00 +2.82482E-01 -6.24757E+00 +1.73683E+00 -5.99977E+00
 +3.09088E+00 -5.41870E+00 +4.26952E+00 -4.53755E+00 +5.20761E+00 -3.40610E+00 +5.85355E+00 -2.08795E+00
 +6.17212E+00 -6.56910E-01 +6.14642E+00 +8.07093E-01 +5.77875E+00 +2.22251E+00 +5.09041E+00 +3.51069E+00
 +4.12053E+00 +4.60027E+00 +2.92378E+00 +5.43112E+00 +1.56733E+00 +5.95764E+00 +1.27059E-01 +6.15131E+00
 -1.31666E+00 +6.00218E+00 -2.68349E+00 +5.51940E+00 -3.89756E+00 +4.73069E+00 -4.89168E+00 +3.68071E+00
 -5.61109E+00 +2.42853E+00 -6.01644E+00 +1.04434E+00 -6.08597E+00 -3.94480E-01 -5.81664E+00 -1.80774E+00
 -5.22430E+00 -3.11685E+00 -4.34272E+00 -4.24923E+00 -3.22169E+00 -5.14230E+00 -1.92419E+00 -5.74697E+00
 -5.22860E-01 -6.03030E+00 +9.04044E-01 -5.97734E+00 +2.27706E+00 -5.59189E+00 +3.51991E+00 -4.89622E+00
 +4.56376E+00 -3.92982E+00 +5.35103E+00 -2.74716E+00 +5.83853E+00 -1.41460E+00 +5.99991E+00 -6.65449E-03
 +5.82699E+00 +1.39812E+00 +5.33025E+00 +2.72157E+00 +4.53812E+00 +3.89025E+00 +3.49544E+00 +4.83950E+00
 +2.26087E+00 +5.51706E+00 +9.03572E-01 +5.88590E+00 -5.00597E-01 +5.92626E+00 -1.87338E+00 +5.63674E+00
 -3.13847E+00 +5.03426E+00 -4.22574E+00 +4.15315E+00 -5.07511E+00 +3.04313E+00 -5.63993E+00 +1.76655E+00
 -5.88947E+00 +3.94865E-01 -5.81065E+00 -9.95350E-01 -5.40866E+00 -2.32668E+00 -4.70670E+00 -3.52520E+00
 -3.74458E+00 -4.52453E+00 -2.57649E+00 -5.26957E+00 -1.26796E+00 -5.71950E+00 +1.07854E-01 -5.85001E+00
 +1.47421E+00 -5.65464E+00 +2.75510E+00 -5.14509E+00 +3.87945E+00 -4.35051E+00 +4.78510E+00 -3.31581E+00
 +5.42218E+00 -2.09919E+00 +5.75593E+00 -7.68809E-01 +5.76853E+00 +6.01018E-01 +5.46009E+00 +1.93396E+00
 +4.84857E+00 +3.15593E+00 +3.96877E+00 +4.19922E+00 +2.87032E+00 +5.00620E+00 +1.61489E+00 +5.53256E+00
 +2.72754E-01 +5.74973E+00 -1.08120E+00 +5.64638E+00 -2.37158E+00 +5.22908E+00 -3.52675E+00 +4.52183E+00
 -4.48276E+00 +3.56472E+00 -5.18690E+00 +2.41164E+00 -5.60064E+00 +1.12725E+00 -5.70167E+00 -2.16642E-01
 -5.48515E+00 -1.54511E+00 -4.96393E+00 -2.78426E+00 -4.16779E+00 -3.86535E+00 -3.14171E+00 -4.72863E+00
 -1.94337E+00 -5.32660E+00 -6.39892E-01 -5.62665E+00 +6.95921E-01 -5.61283E+00 +1.98965E+00 -5.28670E+00
 +3.16942E+00 -4.66718E+00 +4.16984E+00 -3.78950E+00 +4.93571E+00 -2.70314E+00 +5.42499E+00 -1.46908E+00
 +5.61115E+00 -1.56359E-01 +5.48458E+00 +1.16176E+00 +5.05312E+00 +2.41193E+00 +4.34155E+00 +3.52473E+00
 +3.39015E+00 +4.43859E+00 +2.25249E+00 +5.10316E+00 +9.92333E-01 +5.48207E+00 -3.19882E-01 +5.55496E+00
 -1.61100E+00 +5.31854E+00 -2.80923E+00 +4.78674E+00 -3.84812E+00 +3.98990E+00 -4.67026E+00 +2.97303E+00
 -5.23044E+00 +1.79326E+00 -5.49815E+00 +5.16663E-01 -5.45922E+00 -7.85484E-01 -5.11658E+00 -2.04065E+00
 -4.49008E+00 -3.17911E+00 -3.61527E+00 -4.13779E+00 -2.54148E+00 -4.86381E+00 -1.32896E+00 -5.31733E+00
 -4.55163E-02 -5.47382E+00 +1.23723E+00 -5.32530E+00 +2.44791E+00 -4.88080E+00 +3.51933E+00 -4.16581E+00
 +4.39221E+00 -3.22079E+00 +5.01848E+00 -2.09891E+00 +5.36390E+00 -8.63046E-01 +5.40996E+00 +4.17746E-01
 +5.15485E+00 +1.67208E+00 +4.61351E+00 +2.83021E+00 +3.81680E+00 +3.82793E+00 +2.80968E+00 +4.61014E+00
 +1.64874E+00 +5.13383E+00 +3.98963E-01 +5.37051E+00 -8.69880E-01 +5.30774E+00 -2.08713E+00 +4.94975E+00
 -3.18518E+00 +4.31721E+00 -4.10322E+00 +3.44602E+00 -4.79062E+00 +2.38524E+00 -5.20970E+00 +1.19439E+00
 -5.33781E+00 -5.99378E-02 -5.16856E+00 -1.30778E+00 -4.71210E+00 -2.47972E+00 -3.99457E+00 -3.51072E+00
 -3.05655E+00 -4.34376E+00 -1.95079E+00 -4.93299E+00 -7.39244E-01 -5.24622E+00 +5.10399E-01 -5.26672E+00
 +1.72850E+00 -4.99408E+00 +2.84736E+00 -4.44421E+00 +3.80495E+00 -3.64841E+00 +4.54840E+00 -2.65157E+00
 +5.03687E+00 -1.50968E+00 +5.24382E+00 -2.86640E-01 +5.15843E+00 +9.49279E-01 +4.78620E+00 +2.12927E+00
 +4.14856E+00 +3.18781E+00 +3.28165E+00 +4.06629E+00 +2.23430E+00 +4.71628E+00 +1.06524E+00 +5.10218E+00
 -1.60163E-01 +5.20319E+00 -1.37358E+00 +5.01439E+00 -2.50751E+00 +4.54702E+00 -3.49905E+00 +3.82778E+00
 -4.29339E+00 +2.89734E+00 -4.84681E+00 +1.80800E+00 -5.12912E+00 +6.20780E-01 -5.12529E+00 -5.98005E-01
 -4.83626E+00 -1.78045E+00 -4.27882E+00 -2.86085E+00 -3.48466E+00 -3.77933E+00 -2.49859E+00 -4.48520E+00
 -1.37594E+00 -4.93969E+00 -1.79540E-01 -5.11816E+00 +1.02385E+00 -5.01135E+00 +2.16724E+00 -4.62594E+00
 +3.18715E+00 -3.98407E+00 +4.02715E+00 -3.12210E+00 +4.64093E+00 -2.08855E+00 +4.99490E+00 -9.41370E-01
 +5.07003E+00 +2.55316E-01 +4.86282E+00 +1.43479E+00 +4.38553E+00 +2.53146E+00 +3.66538E+00 +3.48450E+00
