 Created: 16-Jan-2021
 $NMID
 ID='D:\BASISSIMULATI'
 FMTDAT='(8E13.5)'
 VOLUME=   1.00000E+00
 TRAMP=   1.00000E+00
 $END
 +1.62003E+01 +1.60234E-02 +1.37621E+01 +3.64062E+00 +7.25398E+00 +6.61058E+00 -1.31224E+00 +8.33258E+00
 -9.32470E+00 +8.34175E+00 -1.43990E+01 +6.42971E+00 -1.51136E+01 +2.78319E+00 -1.14171E+01 -1.93709E+00
 -4.58737E+00 -6.64948E+00 +3.22492E+00 -1.00711E+01 +9.70081E+00 -1.10724E+01 +1.30656E+01 -9.06632E+00
 +1.25818E+01 -4.29307E+00 +8.68355E+00 +2.12681E+00 +2.74000E+00 +8.43189E+00 -3.43960E+00 +1.27109E+01
 -8.17750E+00 +1.35057E+01 -1.03868E+01 +1.03278E+01 -9.79197E+00 +3.89866E+00 -6.87868E+00 -3.99229E+00
 -2.63568E+00 -1.09963E+01 +1.79205E+00 -1.49305E+01 +5.41346E+00 -1.44863E+01 +7.58049E+00 -9.68335E+00
 +8.03556E+00 -1.90335E+00 +6.85444E+00 +6.51869E+00 +4.34926E+00 +1.30217E+01 +9.87716E-01 +1.56280E+01
 -2.65147E+00 +1.35691E+01 -5.90702E+00 +7.51999E+00 -8.08977E+00 -6.29880E-01 -8.59710E+00 -8.39105E+00
 -7.08358E+00 -1.34641E+01 -3.63787E+00 -1.44452E+01 +1.11545E+00 -1.12216E+01 +6.06613E+00 -4.94338E+00
 +9.85339E+00 +2.39813E+00 +1.12468E+01 +8.62753E+00 +9.56370E+00 +1.20522E+01 +4.97607E+00 +1.19270E+01
 -1.42550E+00 +8.58677E+00 -7.87073E+00 +3.23865E+00 -1.24085E+01 -2.48515E+00 -1.35213E+01 -7.04395E+00
 -1.06536E+01 -9.40524E+00 -4.46360E+00 -9.24794E+00 +3.31053E+00 -6.92642E+00 +1.03496E+01 -3.25315E+00
 +1.44715E+01 +7.93674E-01 +1.43356E+01 +4.32987E+00 +9.89753E+00 +6.72360E+00 +2.45333E+00 +7.64109E+00
 -5.75115E+00 +7.01601E+00 -1.22237E+01 +4.99788E+00 -1.50126E+01 +1.92035E+00 -1.33177E+01 -1.70587E+00
 -7.72737E+00 -5.20629E+00 -7.65107E-03 -7.80745E+00 +7.47837E+00 -8.78128E+00 +1.25222E+01 -7.65473E+00
 +1.37441E+01 -4.42195E+00 +1.09757E+01 +3.31983E-01 +5.24323E+00 +5.47763E+00 -1.62016E+00 +9.58887E+00
 -7.58410E+00 +1.13464E+01 -1.10421E+01 +9.98011E+00 -1.12472E+01 +5.59484E+00 -8.44198E+00 -7.53927E-01
 -3.67725E+00 -7.29735E+00 +1.58802E+00 -1.20565E+01 +5.94996E+00 -1.34650E+01 +8.43413E+00 -1.09059E+01
 +8.68093E+00 -4.97336E+00 +6.92223E+00 +2.65140E+00 +3.80251E+00 +9.68844E+00 +1.38451E-01 +1.39667E+01
 -3.29210E+00 +1.41213E+01 -5.87836E+00 +1.00478E+01 -7.21946E+00 +2.95544E+00 -7.11792E+00 -5.00419E+00
 -5.57030E+00 -1.14154E+01 -2.78157E+00 -1.43599E+01 +8.06283E-01 -1.30127E+01 +4.51247E+00 -7.87828E+00
 +7.49032E+00 -5.99332E-01 +8.89845E+00 +6.59050E+00 +8.14567E+00 +1.15788E+01 +5.13562E+00 +1.30159E+01
 +4.11041E-01 +1.06837E+01 -4.88819E+00 +5.48864E+00 -9.28268E+00 -8.92201E-01 -1.13761E+01 -6.57416E+00
 -1.03185E+01 -1.00404E+01 -6.14974E+00 -1.05475E+01 +1.14509E-01 -8.25295E+00 +6.71639E+00 -4.05734E+00
 +1.16607E+01 +7.49202E-01 +1.33419E+01 +4.89872E+00 +1.10877E+01 +7.47794E+00 +5.42812E+00 +8.09555E+00
 -2.01773E+00 +6.86972E+00 -9.01787E+00 +4.28549E+00 -1.34218E+01 +1.00382E+00 -1.38483E+01 -2.30273E+00
 -1.01368E+01 -5.04876E+00 -3.40940E+00 -6.77507E+00 +4.28106E+00 -7.16393E+00 +1.06020E+01 -6.06874E+00
 +1.36759E+01 -3.57150E+00 +1.26588E+01 -4.52129E-02 +7.97507E+00 +3.82933E+00 +1.14451E+00 +7.14296E+00
 -5.73085E+00 +8.95285E+00 -1.06390E+01 +8.55920E+00 -1.22662E+01 +5.77945E+00 -1.03498E+01 +1.11173E+00
 -5.68155E+00 -4.30176E+00 +2.15062E-01 -8.93985E+00 +5.60096E+00 -1.13406E+01 +9.05170E+00 -1.05821E+01
 +9.83301E+00 -6.64149E+00 +8.02351E+00 -4.90678E-01 +4.38071E+00 +6.13220E+00 +3.06963E-02 +1.12264E+01
 -3.89296E+00 +1.31571E+01 -6.54081E+00 +1.12022E+01 -7.49623E+00 +5.82835E+00 -6.77253E+00 -1.41201E+00
 -4.70409E+00 -8.34268E+00 -1.80233E+00 -1.28428E+01 +1.36391E+00 -1.35220E+01 +4.23845E+00 -1.01677E+01
 +6.31220E+00 -3.81530E+00 +7.15792E+00 +3.58461E+00 +6.49569E+00 +9.78843E+00 +4.29061E+00 +1.29663E+01
 +8.46932E-01 +1.22608E+01 -3.16037E+00 +8.02028E+00 -6.76982E+00 +1.64287E+00 -8.94878E+00 -4.90244E+00
 -8.89836E+00 -9.70773E+00 -6.35434E+00 -1.15001E+01 -1.76854E+00 -9.97836E+00 +3.72200E+00 -5.82410E+00
 +8.56524E+00 -4.10821E-01 +1.12446E+01 +4.66731E+00 +1.07742E+01 +8.08043E+00 +7.07107E+00 +9.10825E+00
 +1.05990E+00 +7.75748E+00 -5.54884E+00 +4.64939E+00 -1.07591E+01 +7.51459E-01 -1.29157E+01 -2.93502E+00
 -1.12529E+01 -5.62650E+00 -6.17482E+00 -6.88724E+00 +8.36349E-01 -6.63435E+00 +7.66733E+00 -5.06055E+00
 +1.22350E+01 -2.53426E+00 +1.31471E+01 +4.77370E-01 +1.01436E+01 +3.45075E+00 +4.17350E+00 +5.83497E+00
 -2.91734E+00 +7.10376E+00 -8.97941E+00 +6.85385E+00 -1.22365E+01 +4.93973E+00 -1.18234E+01 +1.59756E+00
 -8.01661E+00 -2.50877E+00 -2.09442E+00 -6.37521E+00 +4.10787E+00 -8.89058E+00 +8.78936E+00 -9.16637E+00
 +1.07227E+01 -6.86152E+00 +9.57349E+00 -2.38027E+00 +5.91862E+00 +3.15230E+00 +9.85351E-01 +8.16356E+00
 -3.77560E+00 +1.10929E+01 -7.13053E+00 +1.08985E+01 -8.37774E+00 +7.43979E+00 -7.45866E+00 +1.59176E+00
 -4.86560E+00 -4.97008E+00 -1.41322E+00 -1.02637E+01 +2.02680E+00 -1.26227E+01 +4.73846E+00 -1.12433E+01
 +6.27264E+00 -6.46860E+00 +6.45890E+00 +2.92539E-01 +5.35733E+00 +6.99595E+00 +3.20023E+00 +1.16039E+01
 +3.55524E-01 +1.27288E+01 -2.68869E+00 +1.00678E+01 -5.34732E+00 +4.48463E+00 -7.00538E+00 -2.28138E+00
 -7.14615E+00 -8.17914E+00 -5.52001E+00 -1.14915E+01 -2.29614E+00 -1.13513E+01 +1.87743E+00 -7.96690E+00
 +5.96327E+00 -2.49946E+00 +8.78259E+00 +3.34937E+00 +9.36663E+00 +7.88797E+00 +7.30249E+00 +9.93865E+00
 +2.94607E+00 +9.13936E+00 -2.59573E+00 +5.96759E+00 -7.73936E+00 +1.50875E+00 -1.08904E+01 -2.92782E+00
 -1.09586E+01 -6.20563E+00 -7.74920E+00 -7.64572E+00 -2.08518E+00 -7.13086E+00 +4.39938E+00 -5.03173E+00
 +9.74524E+00 -2.01645E+00 +1.22832E+01 +1.16982E+00 +1.11771E+01 +3.87974E+00 +6.71097E+00 +5.65629E+00
 +2.17958E-01 +6.24985E+00 -6.33235E+00 +5.59704E+00 -1.09544E+01 +3.80116E+00 -1.22720E+01 +1.13379E+00
 -9.94360E+00 -1.95494E+00 -4.74961E+00 -4.85299E+00 +1.67849E+00 -6.86668E+00 +7.39156E+00 -7.37566E+00
 +1.07364E+01 -6.03289E+00 +1.08489E+01 -2.94204E+00 +7.87406E+00 +1.26893E+00 +2.85858E+00 +5.53795E+00
 -2.62879E+00 +8.62914E+00 -7.00726E+00 +9.50268E+00 -9.15257E+00 +7.67902E+00 -8.68006E+00 +3.46538E+00
 -5.97361E+00 -2.05510E+00 -1.98154E+00 -7.29699E+00 +2.12559E+00 -1.06417E+01 +5.30897E+00 -1.09584E+01
 +6.91620E+00 -8.00107E+00 +6.77778E+00 -2.53936E+00 +5.15032E+00 +3.83992E+00 +2.56191E+00 +9.20843E+00
 -3.65215E-01 +1.19020E+01 -3.05309E+00 +1.10580E+01 -5.04180E+00 +6.90346E+00 -6.01085E+00 +6.93996E-01
 -5.78248E+00 -5.68000E+00 -4.33831E+00 -1.02914E+01 -1.85679E+00 -1.17815E+01 +1.25187E+00 -9.77446E+00
 +4.35554E+00 -4.96956E+00 +6.69153E+00 +1.11015E+00 +7.54560E+00 +6.62022E+00 +6.48010E+00 +9.97579E+00
 +3.53499E+00 +1.03207E+01 -6.85583E-01 +7.74114E+00 -5.10302E+00 +3.17260E+00 -8.43450E+00 -1.94763E+00
 -9.57818E+00 -6.15059E+00 -7.99310E+00 -8.36863E+00 -3.93794E+00 -8.19957E+00 +1.53292E+00 -5.93939E+00
 +6.84057E+00 -2.40451E+00 +1.03516E+01 +1.37016E+00 +1.09016E+01 +4.44345E+00 +8.19741E+00 +6.19291E+00
 +2.95384E+00 +6.40307E+00 -3.29456E+00 +5.22404E+00 -8.65771E+00 +3.05065E+00 -1.14840E+01 +3.86223E-01
 -1.08899E+01 -2.26090E+00 -7.04779E+00 -4.43260E+00 -1.13472E+00 -5.74550E+00 +5.04209E+00 -5.91654E+00
 +9.61953E+00 -4.81315E+00 +1.12619E+01 -2.52424E+00 +9.56387E+00 +5.81546E-01 +5.14583E+00 +3.85832E+00
 -5.77459E-01 +6.48376E+00 -5.86836E+00 +7.65930E+00 -9.21406E+00 +6.86357E+00 -9.77100E+00 +4.07498E+00
 -7.57119E+00 -1.29388E-01 -3.44260E+00 -4.66206E+00 +1.30706E+00 -8.20290E+00 +5.32093E+00 -9.59685E+00
 +7.59081E+00 -8.24696E+00 +7.70174E+00 -4.36378E+00 +5.86772E+00 +1.03142E+00 +2.77870E+00 +6.37405E+00
 -6.62426E-01 +1.00246E+01 -3.61159E+00 +1.07923E+01 -5.47936E+00 +8.34040E+00 -6.01030E+00 +3.32839E+00
 -5.25562E+00 -2.76589E+00 -3.48397E+00 -8.09734E+00 -1.08405E+00 -1.10340E+01 +1.50522E+00 -1.06767E+01
 +3.83186E+00 -7.14586E+00 +5.45731E+00 -1.53958E+00 +6.00222E+00 +4.42147E+00 +5.22744E+00 +8.94306E+00
 +3.13614E+00 +1.07179E+01 +5.42819E-02 +9.31535E+00 -3.36446E+00 +5.27994E+00 -6.24712E+00 -8.12599E-02
 -7.72017E+00 -5.13887E+00 -7.18548E+00 -8.45532E+00 -4.56232E+00 -9.20400E+00 -3.97928E-01 -7.36734E+00
 +4.21840E+00 -3.66983E+00 +7.93845E+00 +7.07904E-01 +9.56250E+00 +4.52092E+00 +8.44300E+00 +6.82278E+00
 +4.74321E+00 +7.19032E+00 -5.52563E-01 +5.76142E+00 -5.90113E+00 +3.10536E+00 -9.66508E+00 -2.95779E-03
 -1.06345E+01 -2.81560E+00 -8.43239E+00 -4.77877E+00 -3.66306E+00 -5.60292E+00 +2.25620E+00 -5.24790E+00
 +7.53131E+00 -3.86340E+00 +1.05564E+01 -1.72815E+00 +1.04221E+01 +7.87796E-01 +7.19973E+00 +3.24252E+00
 +1.90826E+00 +5.14971E+00 -3.82068E+00 +6.04261E+00 -8.26604E+00 +5.58313E+00 -1.01538E+01 +3.69282E+00
 -9.03242E+00 +6.54156E-01 -5.37359E+00 -2.87687E+00 -3.77914E-01 -5.98527E+00 +4.43430E+00 -7.73170E+00
 +7.70339E+00 -7.44819E+00 +8.62370E+00 -4.99757E+00 +7.13272E+00 -8.94915E-01 +3.85575E+00 +3.77521E+00
 -1.50705E-01 +7.64519E+00 -3.75288E+00 +9.47895E+00 -6.06796E+00 +8.58377E+00 -6.66891E+00 +5.07675E+00
 -5.62338E+00 -9.80191E-02 -3.38597E+00 -5.42530E+00 -6.07981E-01 -9.27747E+00 +2.05735E+00 -1.04320E+01
 +4.09411E+00 -8.47586E+00 +5.18424E+00 -3.95813E+00 +5.20375E+00 +1.76750E+00 +4.19066E+00 +6.96334E+00
 +2.31868E+00 +1.00557E+01 -1.10063E-01 +1.01301E+01 -2.66726E+00 +7.21160E+00 -4.82601E+00 +2.24072E+00
 -6.04083E+00 -3.24196E+00 -5.88237E+00 -7.59225E+00 -4.19485E+00 -9.57376E+00 -1.21690E+00 -8.71859E+00
 +2.39825E+00 -5.42863E+00 +5.70176E+00 -7.99794E-01 +7.69738E+00 +3.75689E+00 +7.65421E+00 +6.96181E+00
 +5.38153E+00 +8.03395E+00 +1.36039E+00 +6.87045E+00 -3.33538E+00 +4.00199E+00 -7.32703E+00 +3.64292E-01
 -9.35004E+00 -3.01876E+00 -8.67197E+00 -5.32945E+00 -5.36519E+00 -6.14093E+00 -3.30791E-01 -5.45648E+00
 +4.94979E+00 -3.62215E+00 +8.86594E+00 -1.17042E+00 +1.01889E+01 +1.33837E+00 +8.47342E+00 +3.42808E+00
 +4.21412E+00 +4.75746E+00 -1.30151E+00 +5.12607E+00 -6.39693E+00 +4.46766E+00 -9.53609E+00 +2.85611E+00
 -9.80434E+00 +5.26852E-01 -7.18377E+00 -2.10855E+00 -2.53714E+00 -4.48942E+00 +2.68726E+00 -6.00004E+00
 +6.92517E+00 -6.12746E+00 +8.98194E+00 -4.64309E+00 +8.37732E+00 -1.74163E+00 +5.44702E+00 +1.93105E+00
