 Created: 16-Jan-2021
 $NMID
 ID='D:\BASISSIMULATI'
 FMTDAT='(8E13.5)'
 VOLUME=   1.00000E+00
 TRAMP=   1.00000E+00
 $END
 +2.70711E+01 +2.81008E-02 +2.29741E+01 +1.31217E+01 +1.26097E+01 +2.13405E+01 +3.07107E-01 +2.21869E+01
 -9.20471E+00 +1.64544E+01 -1.29784E+01 +7.57183E+00 -1.09799E+01 -2.68989E-01 -5.68307E+00 -4.15087E+00
 -4.90639E-01 -3.58039E+00 +2.07041E+00 -2.61946E-01 +1.40767E+00 +3.20356E+00 -1.27760E+00 +4.84809E+00
 -4.06842E+00 +4.22600E+00 -5.59108E+00 +2.26766E+00 -5.69366E+00 +3.50654E-01 -5.22386E+00 -7.26959E-01
 -5.17403E+00 -1.20879E+00 -5.82935E+00 -2.03973E+00 -6.49773E+00 -4.02167E+00 -5.98063E+00 -7.07380E+00
 -3.44774E+00 -1.01100E+01 +8.80806E-01 -1.16247E+01 +5.70857E+00 -1.06111E+01 +9.32957E+00 -7.22011E+00
 +1.05789E+01 -2.72991E+00 +9.47463E+00 +1.16578E+00 +7.15086E+00 +3.31635E+00 +5.12070E+00 +3.72804E+00
 +4.32736E+00 +3.45448E+00 +4.57287E+00 +3.83276E+00 +4.68445E+00 +5.54052E+00 +3.32495E+00 +8.06555E+00
 -4.57080E-02 +9.93442E+00 -4.65552E+00 +9.58800E+00 -8.69404E+00 +6.39425E+00 -1.02531E+01 +1.19015E+00
 -8.41356E+00 -3.99621E+00 -3.85757E+00 -6.92566E+00 +1.36097E+00 -6.30848E+00 +4.78779E+00 -2.51420E+00
 +4.77556E+00 +2.55863E+00 +1.29505E+00 +6.38720E+00 -4.06128E+00 +7.02989E+00 -8.86097E+00 +4.01598E+00
 -1.09739E+01 -1.50594E+00 -9.49368E+00 -7.38359E+00 -5.01362E+00 -1.14772E+01 +8.03552E-01 -1.25483E+01
 +6.06420E+00 -1.06169E+01 +9.42986E+00 -6.70457E+00 +1.04883E+01 -2.19885E+00 +9.62255E+00 +1.77148E+00
 +7.56977E+00 +4.64632E+00 +4.98636E+00 +6.35991E+00 +2.26057E+00 +7.04723E+00 -3.94330E-01 +6.79137E+00
 -2.72601E+00 +5.58827E+00 -4.32926E+00 +3.51775E+00 -4.75599E+00 +9.48549E-01 -3.79234E+00 -1.42491E+00
 -1.70774E+00 -2.80039E+00 +7.23983E-01 -2.64612E+00 +2.49847E+00 -1.01931E+00 +2.83051E+00 +1.38345E+00
 +1.53942E+00 +3.50560E+00 -8.49381E-01 +4.41043E+00 -3.35276E+00 +3.71039E+00 -4.99971E+00 +1.71855E+00
 -5.27194E+00 -7.51710E-01 -4.28600E+00 -2.81783E+00 -2.63832E+00 -3.94799E+00 -1.02377E+00 -4.14634E+00
 +1.42630E-01 -3.82432E+00 +8.88210E-01 -3.46118E+00 +1.55451E+00 -3.27058E+00 +2.47767E+00 -3.07402E+00
 +3.68495E+00 -2.44928E+00 +4.79831E+00 -1.05570E+00 +5.20836E+00 +1.06561E+00 +4.42172E+00 +3.40251E+00
 +2.38338E+00 +5.15672E+00 -4.10375E-01 +5.61068E+00 -3.07785E+00 +4.48408E+00 -4.71596E+00 +2.09516E+00
 -4.78184E+00 -7.52333E-01 -3.31056E+00 -3.09548E+00 -8.78448E-01 -4.19085E+00 +1.65030E+00 -3.77455E+00
 +3.46111E+00 -2.10664E+00 +4.05946E+00 +1.86595E-01 +3.37914E+00 +2.37277E+00 +1.72298E+00 +3.85368E+00
 -3.97215E-01 +4.30297E+00 -2.43357E+00 +3.68650E+00 -3.92703E+00 +2.20445E+00 -4.57145E+00 +2.09156E-01
 -4.23841E+00 -1.86864E+00 -2.98817E+00 -3.58419E+00 -1.07114E+00 -4.54985E+00 +1.09773E+00 -4.51965E+00
 +3.01284E+00 -3.46883E+00 +4.20014E+00 -1.63097E+00 +4.35554E+00 +5.40413E-01 +3.44704E+00 +2.48949E+00
 +1.73413E+00 +3.72048E+00 -3.09591E-01 +3.94563E+00 -2.14319E+00 +3.16283E+00 -3.31860E+00 +1.63735E+00
 -3.59659E+00 -1.97718E-01 -2.98490E+00 -1.87760E+00 -1.70019E+00 -3.02769E+00 -8.28124E-02 -3.43654E+00
 +1.49759E+00 -3.07266E+00 +2.71803E+00 -2.05969E+00 +3.35025E+00 -6.31927E-01 +3.28573E+00 +9.13794E-01
 +2.54633E+00 +2.26574E+00 +1.28281E+00 +3.14679E+00 -2.43843E-01 +3.36646E+00 -1.70516E+00 +2.86765E+00
 -2.77217E+00 +1.75267E+00 -3.19452E+00 +2.73402E-01 -2.86980E+00 -1.22055E+00 -1.87916E+00 -2.36668E+00
 -4.74032E-01 -2.88472E+00 +9.86032E-01 -2.65359E+00 +2.12777E+00 -1.74604E+00 +2.66371E+00 -4.09675E-01
 +2.46791E+00 +1.00013E+00 +1.60657E+00 +2.11597E+00 +3.16109E-01 +2.65519E+00 -1.06376E+00 +2.49098E+00
 -2.18181E+00 +1.67937E+00 -2.76579E+00 +4.36625E-01 -2.68722E+00 -9.23939E-01 -1.98468E+00 -2.07615E+00
 -8.42462E-01 -2.76190E+00 +4.65480E-01 -2.84758E+00 +1.64766E+00 -2.34378E+00 +2.46259E+00 -1.38835E+00
 +2.76567E+00 -2.02631E-01 +2.52803E+00 +9.63843E-01 +1.82907E+00 +1.88554E+00 +8.30016E-01 +2.40040E+00
 -2.62323E-01 +2.43271E+00 -1.23444E+00 +1.99994E+00 -1.90281E+00 +1.20552E+00 -2.14520E+00 +2.19561E-01
 -1.92342E+00 -7.51134E-01 -1.29338E+00 -1.50127E+00 -3.98350E-01 -1.86851E+00 +5.56212E-01 -1.77045E+00
 +1.34430E+00 -1.22835E+00 +1.77029E+00 -3.69594E-01 +1.71838E+00 +5.94881E-01 +1.18800E+00 +1.41653E+00
 +3.03644E-01 +1.87047E+00 -7.07756E-01 +1.81787E+00 -1.57115E+00 +1.25204E+00 -2.03842E+00 +3.11304E-01
 -1.96410E+00 -7.50752E-01 -1.35673E+00 -1.63476E+00 -3.85005E-01 -2.08665E+00 +6.69543E-01 -1.98092E+00
 +1.50171E+00 -1.36497E+00 +1.88431E+00 -4.44388E-01 +1.74436E+00 +4.89179E-01 +1.18297E+00 +1.16237E+00
 +4.29426E-01 +1.41627E+00 -2.52834E-01 +1.25549E+00 -6.69503E-01 +8.30120E-01 -7.64298E-01 +3.58995E-01
 -6.24504E-01 +2.87822E-02 -4.22185E-01 -8.59086E-02 -3.19232E-01 -4.52556E-02 -3.81358E-01 +1.88693E-04
 -5.42591E-01 -1.00249E-01 -6.38849E-01 -4.04854E-01 -4.96726E-01 -8.30966E-01 -3.63560E-02 -1.17760E+00
 +6.61999E-01 -1.21386E+00 +1.36419E+00 -7.95836E-01 +1.76614E+00 +4.18018E-02 +1.62428E+00 +1.06613E+00
 +8.76770E-01 +1.91546E+00 -3.00613E-01 +2.23592E+00 -1.53562E+00 +1.83100E+00 -2.38824E+00 +7.59753E-01
 -2.51872E+00 -6.62183E-01 -1.82680E+00 -1.96545E+00 -5.03375E-01 -2.69624E+00 +1.02926E+00 -2.58564E+00
 +2.26652E+00 -1.65149E+00 +2.80161E+00 -1.93079E-01 +2.46657E+00 +1.31729E+00 +1.38296E+00 +2.40086E+00
 -9.13389E-02 +2.73253E+00 -1.49161E+00 +2.23775E+00 -2.39977E+00 +1.09919E+00 -2.56808E+00 -3.17896E-01
 -1.97880E+00 -1.58679E+00 -8.32530E-01 -2.34447E+00 +5.20009E-01 -2.38730E+00 +1.67830E+00 -1.71942E+00
 +2.30049E+00 -5.49231E-01 +2.19926E+00 +7.63894E-01 +1.40476E+00 +1.80618E+00 +1.72956E-01 +2.23396E+00
 -1.07736E+00 +1.89596E+00 -1.89699E+00 +9.09335E-01 -1.97520E+00 -3.53962E-01 -1.28218E+00 -1.38866E+00
 -1.14073E-01 -1.75680E+00 +1.00259E+00 -1.29097E+00 +1.52933E+00 -2.02198E-01 +1.17234E+00 +9.78403E-01
 +5.51285E-02 +1.62374E+00 -1.29362E+00 +1.31341E+00 -2.15825E+00 +7.21431E-02 -1.97714E+00 -1.58706E+00
 -6.47353E-01 -2.86246E+00 +1.36721E+00 -3.03258E+00 +3.20108E+00 -1.82517E+00 +3.96920E+00 +4.00816E-01
 +3.19272E+00 +2.76832E+00 +1.05958E+00 +4.25635E+00 -1.61898E+00 +4.16707E+00 -3.74986E+00 +2.46199E+00
 -4.44225E+00 -1.99582E-01 -3.40568E+00 -2.74363E+00 -1.07337E+00 -4.15218E+00 +1.60185E+00 -3.89795E+00
 +3.57205E+00 -2.14287E+00 +4.13128E+00 +3.76371E-01 +3.16574E+00 +2.69760E+00 +1.12523E+00 +4.03394E+00
 -1.23157E+00 +4.04000E+00 -3.16479E+00 +2.84990E+00 -4.19305E+00 +9.21082E-01 -4.16367E+00 -1.19248E+00
 -3.18174E+00 -3.01070E+00 -1.49646E+00 -4.18615E+00 +5.65388E-01 -4.48810E+00 +2.60110E+00 -3.79576E+00
 +4.12967E+00 -2.15533E+00 +4.66812E+00 +1.25950E-01 +3.91340E+00 +2.44634E+00 +1.95700E+00 +4.03334E+00
 -6.11394E-01 +4.23464E+00 -2.83517E+00 +2.86149E+00 -3.76351E+00 +3.90266E-01 -2.91662E+00 -2.14013E+00
 -5.99181E-01 -3.55046E+00 +2.14520E+00 -3.09107E+00 +3.97482E+00 -8.69188E-01 +3.90166E+00 +2.12107E+00
 +1.82596E+00 +4.43132E+00 -1.34835E+00 +4.86878E+00 -4.11675E+00 +3.12563E+00 -5.11890E+00 -1.67099E-02
 -3.84731E+00 -3.04494E+00 -9.38939E-01 -4.47174E+00 +2.12403E+00 -3.60667E+00 +3.76478E+00 -9.30010E-01
 +3.12619E+00 +2.13866E+00 +5.19048E-01 +3.96369E+00 -2.73395E+00 +3.52990E+00 -4.97321E+00 +9.53350E-01
 -5.03551E+00 -2.59454E+00 -2.80883E+00 -5.49223E+00 +7.64683E-01 -6.46694E+00 +4.20481E+00 -5.16546E+00
 +6.22249E+00 -2.22377E+00 +6.26788E+00 +1.14848E+00 +4.63940E+00 +3.79368E+00 +2.16529E+00 +5.08538E+00
 -2.94465E-01 +5.03412E+00 -2.21241E+00 +4.04307E+00 -3.44355E+00 +2.54382E+00 -4.01285E+00 +7.81971E-01
 -3.86864E+00 -1.12305E+00 -2.83392E+00 -2.94274E+00 -8.19315E-01 -4.17263E+00 +1.86117E+00 -4.14120E+00
 +4.35005E+00 -2.40077E+00 +5.48173E+00 +8.26638E-01 +4.35222E+00 +4.47700E+00 +9.28221E-01 +6.95723E+00
 -3.69395E+00 +6.87063E+00 -7.62032E+00 +3.79969E+00 -8.99730E+00 -1.30766E+00 -6.95391E+00 -6.43117E+00
 -2.13538E+00 -9.37266E+00 +3.50413E+00 -8.82176E+00 +7.59356E+00 -5.03237E+00 +8.48332E+00 +2.70712E-01
 +6.03790E+00 +4.73095E+00 +1.66179E+00 +6.51581E+00 -2.45306E+00 +5.18376E+00 -4.45127E+00 +1.81437E+00
 -3.70896E+00 -1.64383E+00 -1.03917E+00 -3.43024E+00 +1.86305E+00 -2.85309E+00 +3.39081E+00 -5.36850E-01
 +2.86003E+00 +2.04935E+00 +7.68428E-01 +3.46821E+00 -1.61072E+00 +3.08109E+00 -3.01160E+00 +1.29360E+00
 -2.86090E+00 -8.02300E-01 -1.49028E+00 -2.12111E+00 +1.88680E-01 -2.17672E+00 +1.29091E+00 -1.24458E+00
 +1.44980E+00 -5.46004E-02 +9.12167E-01 +7.34101E-01 +2.32156E-01 +9.16472E-01 -1.81042E-01 +7.51423E-01
 -3.32877E-01 +6.36492E-01 -5.50537E-01 +7.14340E-01 -1.11382E+00 +7.16211E-01 -1.89882E+00 +1.72925E-01
 -2.32520E+00 -1.14502E+00 -1.69415E+00 -2.87849E+00 +2.74260E-01 -4.10993E+00 +3.06333E+00 -3.82578E+00
 +5.43931E+00 -1.57075E+00 +6.02022E+00 +2.10800E+00 +4.05362E+00 +5.74587E+00 -4.14088E-02 +7.60126E+00
 -4.71685E+00 +6.54456E+00 -7.95926E+00 +2.71489E+00 -8.25754E+00 -2.43778E+00 -5.37053E+00 -6.78472E+00
 -4.80825E-01 -8.51631E+00 +4.35594E+00 -6.99428E+00 +7.18297E+00 -3.02249E+00 +7.03508E+00 +1.58740E+00
 +4.30895E+00 +4.90897E+00 +4.59089E-01 +5.78142E+00 -2.77660E+00 +4.24362E+00 -4.19364E+00 +1.35231E+00
 -3.57286E+00 -1.45312E+00 -1.59467E+00 -3.06273E+00 +6.56263E-01 -3.11871E+00 +2.27284E+00 -1.98812E+00
 +2.87841E+00 -3.90779E-01 +2.61626E+00 +1.04428E+00 +1.87131E+00 +2.03288E+00 +9.56690E-01 +2.60313E+00
 -2.78176E-02 +2.87501E+00 -1.11064E+00 +2.85527E+00 -2.25008E+00 +2.40712E+00 -3.20800E+00 +1.40543E+00
 -3.61637E+00 -5.74042E-02 -3.20663E+00 -1.59340E+00 -2.04190E+00 -2.66064E+00 -5.72350E-01 -2.86012E+00
 +5.59451E-01 -2.20232E+00 +8.70917E-01 -1.15704E+00 +3.41363E-01 -4.23798E-01 -5.33394E-01 -5.35148E-01
 -9.92521E-01 -1.52036E+00 -4.42868E-01 -2.83810E+00 +1.16972E+00 -3.63874E+00 +3.27104E+00 -3.22585E+00
 +4.91869E+00 -1.46407E+00 +5.28230E+00 +1.09856E+00 +4.08689E+00 +3.47204E+00 +1.77785E+00 +4.70840E+00
 -6.84252E-01 +4.37322E+00 -2.29165E+00 +2.75765E+00 -2.47530E+00 +7.24777E-01 -1.36105E+00 -7.21796E-01
 +3.22854E-01 -9.19272E-01 +1.62156E+00 +1.63792E-01 +1.80916E+00 +1.95575E+00 +6.97668E-01 +3.58694E+00
