 Created: 16-Jan-2021
 $NMID
 ID='D:\BASISSIMULATI'
 FMTDAT='(8E13.5)'
 VOLUME=   1.00000E+00
 TRAMP=   1.00000E+00
 $END
 +1.51097E+01 +1.50117E-02 +1.39359E+01 +5.49838E+00 +1.07338E+01 +1.00117E+01 +6.11970E+00 +1.28194E+01
 +9.56896E-01 +1.35355E+01 -3.82821E+00 +1.21925E+01 -7.43992E+00 +9.21820E+00 -9.37285E+00 +5.32833E+00
 -9.50301E+00 +1.35948E+00 -8.09154E+00 -1.91808E+00 -5.70255E+00 -3.96547E+00 -3.05587E+00 -4.58124E+00
 -8.50136E-01 -3.92593E+00 +4.02344E-01 -2.46140E+00 +4.91018E-01 -8.21221E-01 -4.53197E-01 +3.56115E-01
 -2.00174E+00 +5.91248E-01 -3.54416E+00 -3.13504E-01 -4.44750E+00 -2.22169E+00 -4.22115E+00 -4.69233E+00
 -2.64799E+00 -7.08424E+00 +1.49366E-01 -8.71040E+00 +3.72288E+00 -9.00605E+00 +7.39113E+00 -7.67114E+00
 +1.03881E+01 -4.75371E+00 +1.20347E+01 -6.54713E-01 +1.18939E+01 +3.94766E+00 +9.87362E+00 +8.23706E+00
 +6.25491E+00 +1.14304E+01 +1.63811E+00 +1.29430E+01 -3.18034E+00 +1.25116E+01 -7.37276E+00 +1.02462E+01
 -1.02500E+01 +6.60245E+00 -1.13989E+01 +2.28010E+00 -1.07571E+01 -1.92864E+00 -8.61078E+00 -5.30588E+00
 -5.51734E+00 -7.35322E+00 -2.17213E+00 -7.88367E+00 +7.49416E-01 -7.04137E+00 +2.73801E+00 -5.24700E+00
 +3.55257E+00 -3.08363E+00 +3.25644E+00 -1.15088E+00 +2.18141E+00 +7.81786E-02 +8.30325E-01 +3.64289E-01
 -2.57503E-01 -2.50320E-01 -6.45392E-01 -1.46364E+00 -1.10100E-01 -2.79823E+00 +1.30136E+00 -3.72705E+00
 +3.28160E+00 -3.81038E+00 +5.33634E+00 -2.81126E+00 +6.90364E+00 -7.62230E-01 +7.49067E+00 +2.03213E+00
 +6.79572E+00 +5.05730E+00 +4.78725E+00 +7.70109E+00 +1.72164E+00 +9.39010E+00 -1.90454E+00 +9.71917E+00
 -5.45661E+00 +8.54423E+00 -8.29505E+00 +6.01787E+00 -9.91010E+00 +2.55988E+00 -1.00274E+01 -1.22998E+00
 -8.66196E+00 -4.69716E+00 -6.10928E+00 -7.26705E+00 -2.87659E+00 -8.55960E+00 +4.28840E-01 -8.45903E+00
 +3.22904E+00 -7.12470E+00 +5.09307E+00 -4.94234E+00 +5.81767E+00 -2.42862E+00 +5.45425E+00 -1.11867E-01
 +4.27822E+00 +1.58359E+00 +2.71001E+00 +2.42351E+00 +1.20745E+00 +2.40206E+00 +1.55368E-01 +1.72551E+00
 -2.22169E-01 +7.47141E-01 +9.26223E-02 -1.29516E-01 +9.17037E-01 -5.55613E-01 +1.92205E+00 -3.25033E-01
 +2.72070E+00 +5.74701E-01 +2.96895E+00 +1.95981E+00 +2.45488E+00 +3.49555E+00 +1.15535E+00 +4.77795E+00
 -7.52760E-01 +5.43215E+00 -2.92892E+00 +5.20416E+00 -4.94387E+00 +4.02477E+00 -6.37552E+00 +2.03093E+00
 -6.90360E+00 -4.59701E-01 -6.38148E+00 -3.01492E+00 -4.86936E+00 -5.17934E+00 -2.62184E+00 -6.57018E+00
 -3.34917E-02 -6.95605E+00 +2.44465E+00 -6.30170E+00 +4.39860E+00 -4.76967E+00 +5.53406E+00 -2.67977E+00
 +5.73048E+00 -4.36629E-01 +5.05572E+00 +1.55771E+00 +3.73973E+00 +2.98621E+00 +2.11467E+00 +3.67650E+00
 +5.36565E-01 +3.62561E+00 -6.93509E-01 +2.98592E+00 -1.39075E+00 +2.01760E+00 -1.51778E+00 +1.01987E+00
 -1.17991E+00 +2.57932E-01 -5.87728E-01 -9.75357E-02 +2.94451E-03 -4.86065E-03 +3.58457E-01 +4.46811E-01
 +3.26019E-01 +1.06737E+00 -1.29785E-01 +1.61886E+00 -9.20431E-01 +1.87835E+00 -1.85732E+00 +1.69539E+00
 -2.69944E+00 +1.03059E+00 -3.21292E+00 -3.32942E-02 -3.22807E+00 -1.30947E+00 -2.68076E+00 -2.54967E+00
 -1.62878E+00 -3.50047E+00 -2.40191E-01 -3.96025E+00 +1.24318E+00 -3.82367E+00 +2.55790E+00 -3.10389E+00
 +3.47483E+00 -1.92829E+00 +3.84588E+00 -5.09475E-01 +3.63180E+00 +9.01136E-01 +2.90557E+00 +2.06615E+00
 +1.83160E+00 +2.80954E+00 +6.26756E-01 +3.04841E+00 -4.87499E-01 +2.80304E+00 -1.33071E+00 +2.18416E+00
 -1.79687E+00 +1.36190E+00 -1.86919E+00 +5.24260E-01 -1.61407E+00 -1.64815E-01 -1.15735E+00 -5.98324E-01
 -6.49348E-01 -7.43412E-01 -2.27539E-01 -6.40102E-01 +1.42544E-02 -3.83328E-01 +4.36634E-02 -9.37286E-02
 -1.08668E-01 +1.15089E-01 -3.62879E-01 +1.64809E-01 -6.14615E-01 +2.97978E-02 -7.63975E-01 -2.59760E-01
 -7.41413E-01 -6.28746E-01 -5.24557E-01 -9.78462E-01 -1.42441E-01 -1.21262E+00 +3.33073E-01 -1.26139E+00
 +8.05859E-01 -1.09788E+00 +1.17902E+00 -7.43484E-01 +1.37741E+00 -2.61551E-01 +1.36390E+00 +2.58467E-01
 +1.14595E+00 +7.21978E-01 +7.71598E-01 +1.05010E+00 +3.16513E-01 +1.19555E+00 -1.34103E-01 +1.15020E+00
 -5.04244E-01 +9.43271E-01 -7.42009E-01 +6.31412E-01 -8.27582E-01 +2.83689E-01 -7.73152E-01 -3.44511E-02
 -6.15654E-01 -2.74380E-01 -4.04906E-01 -4.11851E-01 -1.90567E-01 -4.47804E-01 -1.12651E-02 -4.03134E-01
 +1.11689E-01 -3.09559E-01 +1.75058E-01 -1.99525E-01 +1.89555E-01 -9.79848E-02 +1.72734E-01 -1.80253E-02
 +1.41446E-01 +3.89742E-02 +1.06209E-01 +7.93897E-02 +6.90883E-02 +1.11405E-01 +2.53912E-02 +1.39340E-01
 -3.17336E-02 +1.60293E-01 -1.05636E-01 +1.64258E-01 -1.91607E-01 +1.37706E-01 -2.75216E-01 +6.94399E-02
 -3.34427E-01 -4.32807E-02 -3.45120E-01 -1.90521E-01 -2.88552E-01 -3.49051E-01 -1.58519E-01 -4.85990E-01
 +3.40829E-02 -5.66096E-01 +2.61009E-01 -5.60922E-01 +4.81279E-01 -4.57354E-01 +6.49865E-01 -2.63007E-01
 +7.28399E-01 -6.70082E-03 +6.95166E-01 +2.66587E-01 +5.51628E-01 +5.05333E-01 +3.23482E-01 +6.63453E-01
 +5.56410E-02 +7.11624E-01 -1.97936E-01 +6.44969E-01 -3.87180E-01 +4.84879E-01 -4.78387E-01 +2.74207E-01
 -4.62973E-01 +6.67679E-02 -3.60039E-01 -8.64010E-02 -2.11800E-01 -1.50567E-01 -7.27331E-02 -1.17088E-01
 +5.02438E-03 -6.70436E-03 -1.36062E-02 +1.34843E-01 -1.35651E-01 +2.48145E-01 -3.35887E-01 +2.75827E-01
 -5.60932E-01 +1.78813E-01 -7.41072E-01 -5.10220E-02 -8.07267E-01 -3.85269E-01 -7.09363E-01 -7.62341E-01
 -4.31001E-01 -1.09948E+00 +2.68856E-03 -1.31100E+00 +5.26928E-01 -1.32860E+00 +1.04878E+00 -1.11899E+00
 +1.46602E+00 -6.94456E-01 +1.68936E+00 -1.13415E-01 +1.66281E+00 +5.29530E-01 +1.37748E+00 +1.12221E+00
 +8.75309E-01 +1.55814E+00 +2.41594E-01 +1.75921E+00 -4.12262E-01 +1.69262E+00 -9.72036E-01 +1.37795E+00
 -1.34476E+00 +8.82819E-01 -1.47810E+00 +3.07784E-01 -1.37059E+00 -2.35961E-01 -1.07029E+00 -6.51065E-01
 -6.62295E-01 -8.74999E-01 -2.47947E-01 -8.92680E-01 +7.93719E-02 -7.37831E-01 +2.56057E-01 -4.82811E-01
 +2.62637E-01 -2.19388E-01 +1.27228E-01 -3.50642E-02 -8.27200E-02 +9.33130E-03 -2.78413E-01 -1.04611E-01
 -3.73098E-01 -3.47661E-01 -3.05227E-01 -6.49601E-01 -5.57378E-02 -9.16273E-01 +3.44813E-01 -1.05302E+00
 +8.21181E-01 -9.88962E-01 +1.26947E+00 -6.96315E-01 +1.58066E+00 -1.99940E-01 +1.66624E+00 +4.25262E-01
 +1.47986E+00 +1.06879E+00 +1.03000E+00 +1.60770E+00 +3.80431E-01 +1.93320E+00 -3.61669E-01 +1.97469E+00
 -1.06754E+00 +1.71574E+00 -1.61356E+00 +1.19828E+00 -1.90705E+00 +5.14070E-01 -1.90511E+00 -2.14647E-01
 -1.62271E+00 -8.60857E-01 -1.12789E+00 -1.31913E+00 -5.25730E-01 -1.52668E+00 +6.53384E-02 -1.47447E+00
 +5.39339E-01 -1.20624E+00 +8.24752E-01 -8.05815E-01 +8.97899E-01 -3.76057E-01 +7.84878E-01 -1.44331E-02
 +5.51991E-01 +2.09041E-01 +2.87245E-01 +2.66458E-01 +7.75284E-02 +1.76089E-01 -1.30389E-02 -4.78530E-03
 +4.15298E-02 -1.96251E-01 +2.23499E-01 -3.17218E-01 +4.76722E-01 -3.06701E-01 +7.21383E-01 -1.39826E-01
 +8.74459E-01 +1.65206E-01 +8.70949E-01 +5.50755E-01 +6.80767E-01 +9.33003E-01 +3.17319E-01 +1.22161E+00
 -1.64209E-01 +1.34106E+00 -6.78376E-01 +1.24868E+00 -1.12807E+00 +9.45177E-01 -1.42577E+00 +4.75275E-01
 -1.51265E+00 -8.15292E-02 -1.37107E+00 -6.27860E-01 -1.02791E+00 -1.06905E+00 -5.48102E-01 -1.33273E+00
 -2.01141E-02 -1.38296E+00 +4.63130E-01 -1.22614E+00 +8.23458E-01 -9.07426E-01 +1.01253E+00 -4.99107E-01
 +1.01960E+00 -8.37079E-02 +8.70662E-01 +2.63982E-01 +6.19617E-01 +4.91947E-01 +3.33946E-01 +5.79813E-01
 +7.85403E-02 +5.39933E-01 -9.85200E-02 +4.10976E-01 -1.75079E-01 +2.46043E-01 -1.57150E-01 +9.84584E-02
 -7.42795E-02 +8.78692E-03 +3.03752E-02 -3.94344E-03 +1.12455E-01 +5.50099E-02 +1.38119E-01 +1.59610E-01
 +9.22291E-02 +2.71503E-01 -1.87581E-02 +3.51013E-01 -1.69589E-01 +3.67761E-01 -3.23620E-01 +3.08297E-01
 -4.42700E-01 +1.79005E-01 -4.96913E-01 +3.85617E-03 -4.71735E-01 -1.82131E-01 -3.70991E-01 -3.41810E-01
 -2.15113E-01 -4.44840E-01 -3.54664E-02 -4.74403E-01 +1.33589E-01 -4.30170E-01 +2.62748E-01 -3.27065E-01
 +3.33890E-01 -1.90457E-01 +3.42912E-01 -4.93034E-02 +2.98850E-01 +7.08336E-02 +2.19880E-01 +1.53078E-01
 +1.27578E-01 +1.91640E-01 +4.11727E-02 +1.91009E-01 -2.66165E-02 +1.62539E-01 -7.11693E-02 +1.19735E-01
 -9.48162E-02 +7.38051E-02 -1.03645E-01 +3.08503E-02 -1.03544E-01 -8.53437E-03 -9.69542E-02 -4.73107E-02
 -8.15143E-02 -8.85348E-02 -5.11397E-02 -1.31741E-01 +7.73110E-04 -1.70612E-01 +7.70751E-02 -1.93005E-01
 +1.73045E-01 -1.83657E-01 +2.74528E-01 -1.29007E-01 +3.59063E-01 -2.28034E-02 +4.00167E-01 +1.29260E-01
 +3.73976E-01 +3.07565E-01 +2.66618E-01 +4.80317E-01 +8.02411E-02 +6.09133E-01 -1.64223E-01 +6.57478E-01
 -4.28816E-01 +6.00019E-01 -6.64956E-01 +4.30501E-01 -8.23382E-01 +1.65877E-01 -8.65449E-01 -1.54798E-01
 -7.73053E-01 -4.76984E-01 -5.54529E-01 -7.41625E-01 -2.44711E-01 -8.98105E-01 +1.01327E-01 -9.16140E-01
 +4.19746E-01 -7.93564E-01 +6.52151E-01 -5.57831E-01 +7.59173E-01 -2.60479E-01 +7.30042E-01 +3.44817E-02
 +5.85541E-01 +2.65677E-01 +3.73276E-01 +3.89401E-01 +1.56060E-01 +3.90783E-01 -4.01595E-03 +2.88095E-01
 -6.20038E-02 +1.28745E-01 -2.87114E-03 -2.24653E-02 +1.52837E-01 -1.00253E-01 +3.52309E-01 -5.69353E-02
 +5.22460E-01 +1.22876E-01 +5.88121E-01 +4.14906E-01 +4.92224E-01 +7.57550E-01 +2.13049E-01 +1.06398E+00
 -2.25986E-01 +1.24168E+00 -7.56947E-01 +1.21513E+00 -1.27899E+00 +9.46265E-01 -1.67888E+00 +4.47546E-01
 -1.85608E+00 -2.15848E-01 -1.74676E+00 -9.36078E-01 -1.34095E+00 -1.58320E+00 -6.88484E-01 -2.03206E+00
 +1.08238E-01 -2.18954E+00 +9.13564E-01 -2.01596E+00 +1.58611E+00 -1.53543E+00 +2.00842E+00 -8.32457E-01
 +2.11215E+00 -3.49747E-02 +1.89277E+00 +7.12465E-01 +1.41030E+00 +1.27962E+00 +7.75572E-01 +1.57850E+00
 +1.24965E-01 +1.58188E+00 -4.10722E-01 +1.32786E+00 -7.36038E-01 +9.09433E-01 -8.12298E-01 +4.51048E-01
 -6.65474E-01 +7.78169E-02 -3.78495E-01 -1.15551E-01 -6.95489E-02 -8.85680E-02 +1.38601E-01 +1.34341E-01
 +1.51044E-01 +4.69154E-01 -7.29743E-02 +7.92675E-01 -5.06465E-01 +9.73519E-01 -1.05756E+00 +9.06444E-01
 -1.58868E+00 +5.41788E-01 -1.94805E+00 -9.73004E-02 -2.00642E+00 -9.14482E-01 -1.69036E+00 -1.75748E+00
 -1.00425E+00 -2.44961E+00 -3.51700E-02 -2.82870E+00 +1.06102E+00 -2.78467E+00 +2.08996E+00 -2.28700E+00
