 Created: 16-Jan-2021
 $NMID
 ID='D:\BASISSIMULATI'
 FMTDAT='(8E13.5)'
 VOLUME=   1.00000E+00
 TRAMP=   1.00000E+00
 $END
 +2.08245E+01 +2.24406E-02 +1.53720E+01 +1.33876E+01 +2.70452E+00 +1.93078E+01 -9.91756E+00 +1.52534E+01
 -1.58956E+01 +4.51825E+00 -1.31397E+01 -6.24644E+00 -4.80416E+00 -1.13604E+01 +3.30983E+00 -9.39426E+00
 +6.70526E+00 -3.39509E+00 +4.79678E+00 +1.77244E+00 +6.14680E-01 +2.90331E+00 -1.85999E+00 +3.40703E-01
 -6.51213E-01 -2.81316E+00 +3.02401E+00 -3.31392E+00 +5.96238E+00 -2.02310E-01 +5.47843E+00 +4.63245E+00
 +1.32172E+00 +7.95511E+00 -4.26681E+00 +7.49332E+00 -8.19583E+00 +3.37246E+00 -8.53789E+00 -2.19713E+00
 -5.50575E+00 -6.52639E+00 -9.06699E-01 -8.05846E+00 +3.26207E+00 -6.90111E+00 +5.91837E+00 -4.16476E+00
 +6.99019E+00 -8.98017E-01 +6.72487E+00 +2.43189E+00 +5.05895E+00 +5.60446E+00 +1.72388E+00 +7.98347E+00
 -3.00964E+00 +8.36368E+00 -7.73138E+00 +5.69228E+00 -1.02089E+01 +1.78913E-01 -8.66359E+00 -6.18829E+00
 -3.17289E+00 -1.03860E+01 +3.92095E+00 -1.00828E+01 +9.11336E+00 -5.22914E+00 +9.78363E+00 +1.67170E+00
 +5.84868E+00 +6.95429E+00 -1.47422E-01 +8.01599E+00 -4.64906E+00 +4.90402E+00 -5.36372E+00 +1.72941E-01
 -2.66321E+00 -2.90855E+00 +8.38822E-01 -2.57901E+00 +2.22660E+00 +2.91413E-01 +3.81105E-01 +2.93684E+00
 -3.22418E+00 +2.76013E+00 -5.57926E+00 -7.26108E-01 -4.30548E+00 -5.44050E+00 +5.70213E-01 -8.08253E+00
 +6.46184E+00 -6.37290E+00 +9.80717E+00 -6.67346E-01 +8.33413E+00 +6.13575E+00 +2.52364E+00 +1.03239E+01
 -4.65512E+00 +9.59992E+00 -9.51692E+00 +4.39696E+00 -9.77824E+00 -2.48609E+00 -5.71793E+00 -7.59930E+00
 +2.28970E-01 -8.77178E+00 +5.04189E+00 -6.10154E+00 +6.79170E+00 -1.54731E+00 +5.44068E+00 +2.43827E+00
 +2.45167E+00 +4.28850E+00 -3.45764E-01 +3.91932E+00 -1.82310E+00 +2.36039E+00 -1.94677E+00 +8.54066E-01
 -1.42946E+00 +8.41363E-02 -1.03962E+00 -3.52770E-02 -1.08454E+00 -3.14969E-02 -1.34231E+00 -3.59344E-01
 -1.36072E+00 -1.07892E+00 -8.29958E-01 -1.87542E+00 +2.24577E-01 -2.30916E+00 +1.48743E+00 -2.07489E+00
 +2.52618E+00 -1.12530E+00 +2.95393E+00 +3.40327E-01 +2.52898E+00 +1.94142E+00 +1.22404E+00 +3.18690E+00
 -7.05353E-01 +3.57810E+00 -2.69768E+00 +2.78579E+00 -4.00064E+00 +8.66512E-01 -3.96156E+00 -1.61704E+00
 -2.38927E+00 -3.71898E+00 +2.29823E-01 -4.49999E+00 +2.85139E+00 -3.51514E+00 +4.33443E+00 -1.11468E+00
 +4.02133E+00 +1.66133E+00 +2.10175E+00 +3.58234E+00 -4.73074E-01 +3.85731E+00 -2.49620E+00 +2.53222E+00
 -3.14224E+00 +4.20899E-01 -2.36508E+00 -1.38367E+00 -8.34837E-01 -2.11781E+00 +5.21120E-01 -1.71382E+00
 +1.07316E+00 -7.28490E-01 +8.01729E-01 +8.44941E-02 +2.02699E-01 +2.64988E-01 -1.14576E-01 -1.07740E-01
 +1.45298E-01 -5.42659E-01 +7.84147E-01 -5.22351E-01 +1.27301E+00 +1.22036E-01 +1.12875E+00 +1.08650E+00
 +2.51325E-01 +1.78567E+00 -9.89367E-01 +1.72408E+00 -1.96020E+00 +8.10020E-01 -2.12854E+00 -5.74874E-01
 -1.36300E+00 -1.78048E+00 -3.31499E-03 -2.23719E+00 +1.32564E+00 -1.74803E+00 +2.03851E+00 -5.70788E-01
 +1.87162E+00 +7.36274E-01 +9.82039E-01 +1.60500E+00 -1.68145E-01 +1.72454E+00 -1.06169E+00 +1.15530E+00
 -1.37185E+00 +2.51758E-01 -1.08478E+00 -5.44472E-01 -4.55001E-01 -9.23599E-01 +1.61524E-01 -8.29979E-01
 +4.97431E-01 -4.40777E-01 +4.88518E-01 -3.18140E-02 +2.64722E-01 +1.84888E-01 +3.92674E-02 +1.62620E-01
 -3.05868E-02 +1.36746E-02 +7.00860E-02 -8.79029E-02 +2.24181E-01 -2.83436E-02 +2.74089E-01 +1.73660E-01
 +1.32638E-01 +3.84310E-01 -1.55784E-01 +4.45454E-01 -4.39358E-01 +2.79493E-01 -5.50688E-01 -5.64880E-02
 -4.08907E-01 -3.99116E-01 -7.06390E-02 -5.71074E-01 +2.99298E-01 -4.81748E-01 +5.18708E-01 -1.77668E-01
 +4.86916E-01 +1.84647E-01 +2.35911E-01 +4.25575E-01 -9.27041E-02 +4.38299E-01 -3.28637E-01 +2.40585E-01
 -3.64334E-01 -4.33109E-02 -2.06688E-01 -2.56426E-01 +3.61749E-02 -2.94958E-01 +2.21292E-01 -1.59119E-01
 +2.50808E-01 +5.57900E-02 +1.21498E-01 +2.18874E-01 -8.05885E-02 +2.38004E-01 -2.33601E-01 +1.07901E-01
 -2.49318E-01 -9.22563E-02 -1.19914E-01 -2.47086E-01 +8.17956E-02 -2.70043E-01 +2.45748E-01 -1.49016E-01
 +2.85408E-01 +5.07434E-02 +1.82289E-01 +2.24925E-01 -8.05517E-03 +2.86377E-01 -1.88578E-01 +2.08583E-01
 -2.71868E-01 +3.52736E-02 -2.22584E-01 -1.45558E-01 -7.12336E-02 -2.47171E-01 +1.04626E-01 -2.25490E-01
 +2.19949E-01 -9.73688E-02 +2.22574E-01 +7.06965E-02 +1.16096E-01 +1.96061E-01 -4.38907E-02 +2.19283E-01
 -1.77319E-01 +1.31590E-01 -2.18115E-01 -2.15218E-02 -1.46252E-01 -1.62163E-01 +1.55356E-03 -2.17986E-01
 +1.48655E-01 -1.58941E-01 +2.16472E-01 -1.46922E-02 +1.66180E-01 +1.37901E-01 +2.24365E-02 +2.13650E-01
 -1.35710E-01 +1.65947E-01 -2.15334E-01 +1.64923E-02 -1.62163E-01 -1.50984E-01 +3.62628E-03 -2.33465E-01
 +1.90868E-01 -1.67354E-01 +2.82527E-01 +2.88717E-02 +2.01355E-01 +2.54301E-01 -3.88563E-02 +3.72569E-01
 -3.26841E-01 +2.85347E-01 -5.01216E-01 -5.11404E-03 -4.32512E-01 -3.79865E-01 -1.00307E-01 -6.48270E-01
 +3.76111E-01 -6.38573E-01 +7.76253E-01 -2.93039E-01 +8.76392E-01 +2.81167E-01 +5.65518E-01 +8.38557E-01
 -7.77822E-02 +1.09814E+00 -7.93901E-01 +8.81822E-01 -1.24620E+00 +2.22067E-01 -1.18176E+00 -6.23017E-01
 -5.72615E-01 -1.27070E+00 +3.41715E-01 -1.39487E+00 +1.14873E+00 -9.00693E-01 +1.46146E+00 +4.71928E-03
 +1.12320E+00 +8.98600E-01 +3.03123E-01 +1.35468E+00 -5.83092E-01 +1.17190E+00 -1.09617E+00 +4.87877E-01
 -1.01839E+00 -2.98206E-01 -4.75048E-01 -7.58534E-01 +1.48498E-01 -6.90970E-01 +4.51516E-01 -2.37374E-01
 +2.76065E-01 +2.14835E-01 -1.87536E-01 +2.93486E-01 -5.24037E-01 -9.86075E-02 -3.75448E-01 -6.97141E-01
 +2.96633E-01 -1.03062E+00 +1.14421E+00 -7.27992E-01 +1.61829E+00 +2.13073E-01 +1.30217E+00 +1.37387E+00
 +1.89337E-01 +2.12362E+00 -1.26835E+00 +1.97228E+00 -2.37763E+00 +8.59798E-01 -2.56267E+00 -7.86456E-01
 -1.66323E+00 -2.25481E+00 -1.47268E-02 -2.89354E+00 +1.71580E+00 -2.41019E+00 +2.83414E+00 -9.84987E-01
 +2.90694E+00 +8.29685E-01 +1.91438E+00 +2.34801E+00 +2.33009E-01 +3.01268E+00 -1.51565E+00 +2.58795E+00
 -2.68760E+00 +1.23773E+00 -2.84763E+00 -5.25394E-01 -1.94583E+00 -2.01615E+00 -3.68142E-01 -2.64358E+00
 +1.19620E+00 -2.18159E+00 +2.05873E+00 -9.09292E-01 +1.88725E+00 +4.93622E-01 +9.13344E-01 +1.29666E+00
 -1.72358E-01 +1.14906E+00 -6.32831E-01 +3.25055E-01 -1.83674E-01 -4.17946E-01 +7.54654E-01 -3.40182E-01
 +1.27640E+00 +7.14111E-01 +6.08653E-01 +2.08430E+00 -1.25061E+00 +2.62755E+00 -3.33865E+00 +1.48166E+00
 -4.20340E+00 -1.21822E+00 -2.82945E+00 -4.19341E+00 +5.61972E-01 -5.64980E+00 +4.41553E+00 -4.36993E+00
 +6.61691E+00 -5.92973E-01 +5.73466E+00 +3.93353E+00 +1.96376E+00 +6.85483E+00 -2.86638E+00 +6.56447E+00
 -6.28755E+00 +3.17928E+00 -6.60951E+00 -1.49986E+00 -3.87997E+00 -5.04263E+00 +2.13880E-01 -5.80559E+00
 +3.42564E+00 -3.82136E+00 +4.30358E+00 -6.21420E-01 +2.95198E+00 +1.84342E+00 +7.52796E-01 +2.44081E+00
 -6.95278E-01 +1.44201E+00 -6.59555E-01 +1.23936E-01 +3.48306E-01 -2.61209E-01 +1.09585E+00 +6.07485E-01
 +6.18674E-01 +1.95484E+00 -1.05404E+00 +2.54514E+00 -2.92923E+00 +1.61266E+00 -3.76002E+00 -5.87168E-01
 -2.89010E+00 -2.96015E+00 -6.41562E-01 -4.29749E+00 +1.96274E+00 -3.99193E+00 +3.85961E+00 -2.27166E+00
 +4.47938E+00 +1.09546E-01 +3.82867E+00 +2.38377E+00 +2.20759E+00 +4.06042E+00 -7.22918E-02 +4.85411E+00
 -2.68075E+00 +4.47671E+00 -5.03512E+00 +2.64890E+00 -6.20041E+00 -5.52730E-01 -5.23394E+00 -4.29773E+00
 -1.88835E+00 -7.02996E+00 +2.83651E+00 -7.15650E+00 +6.86184E+00 -4.09113E+00 +8.04815E+00 +1.07015E+00
 +5.53120E+00 +5.86898E+00 +4.67162E-01 +7.79756E+00 -4.45616E+00 +5.85188E+00 -6.58234E+00 +1.27054E+00
 -4.96426E+00 -3.15003E+00 -1.00621E+00 -4.82307E+00 +2.45254E+00 -3.07771E+00 +3.07060E+00 +3.88794E-01
 +6.51102E-01 +2.69768E+00 -2.67774E+00 +1.85634E+00 -3.95109E+00 -1.72363E+00 -1.54596E+00 -5.37553E+00
 +3.47529E+00 -5.98119E+00 +7.86838E+00 -2.23650E+00 +8.31156E+00 +4.20356E+00 +3.72599E+00 +9.57097E+00
 -3.78477E+00 +1.03421E+01 -1.00792E+01 +5.56538E+00 -1.15074E+01 -2.40362E+00 -7.17990E+00 -9.27721E+00
 +5.01382E-01 -1.14302E+01 +7.36842E+00 -8.02782E+00 +1.00273E+01 -1.34654E+00 +7.75340E+00 +4.82181E+00
 +2.59063E+00 +7.53845E+00 -2.24672E+00 +6.29184E+00 -4.46965E+00 +2.86128E+00 -3.89679E+00 -2.29994E-01
 -2.07459E+00 -1.46485E+00 -8.20718E-01 -1.08188E+00 -8.59807E-01 -4.60362E-01 -1.50923E+00 -7.84788E-01
 -1.49626E+00 -2.07490E+00 -1.42020E-01 -3.26975E+00 +2.04682E+00 -3.18439E+00 +3.78875E+00 -1.50513E+00
 +4.03344E+00 +9.67042E-01 +2.72009E+00 +2.95873E+00 +7.06184E-01 +3.66997E+00 -1.00265E+00 +3.23739E+00
 -2.02258E+00 +2.37759E+00 -2.69779E+00 +1.58699E+00 -3.48015E+00 +6.53981E-01 -4.17980E+00 -1.03555E+00
 -3.84172E+00 -3.63055E+00 -1.49834E+00 -6.17408E+00 +2.73290E+00 -6.89222E+00 +7.15321E+00 -4.39919E+00
 +9.19343E+00 +1.00274E+00 +7.04040E+00 +6.99008E+00 +1.09433E+00 +1.03256E+01 -5.87190E+00 +8.83840E+00
 -1.01647E+01 +2.97226E+00 -9.40580E+00 -4.23992E+00 -4.08629E+00 -8.90586E+00 +2.66145E+00 -8.65159E+00
 +7.00258E+00 -4.08263E+00 +6.80218E+00 +1.67028E+00 +2.89570E+00 +5.03863E+00 -1.61893E+00 +4.33887E+00
 -3.56912E+00 +7.67369E-01 -1.86965E+00 -2.58265E+00 +1.81584E+00 -2.97318E+00 +4.33991E+00 +2.94345E-02
 +3.35769E+00 +4.24991E+00 -9.60957E-01 +6.43370E+00 -5.97016E+00 +4.53666E+00 -8.29601E+00 -8.02050E-01
 -6.09047E+00 -6.59547E+00 -2.75057E-01 -9.40110E+00 +6.02163E+00 -7.48741E+00 +9.40558E+00 -1.86168E+00
 +8.23330E+00 +4.43969E+00 +3.43273E+00 +8.23795E+00 -2.27629E+00 +8.00793E+00 -6.11420E+00 +4.49416E+00
 -6.75156E+00 -7.39344E-02 -4.71722E+00 -3.47738E+00 -1.65512E+00 -4.67944E+00 +8.78665E-01 -4.02370E+00
 +2.22197E+00 -2.56154E+00 +2.60062E+00 -1.16649E+00 +2.54310E+00 -9.16287E-02 +2.30835E+00 +8.42260E-01
 +1.77337E+00 +1.75937E+00 +7.62638E-01 +2.44450E+00 -5.75121E-01 +2.50183E+00 -1.73283E+00 +1.76603E+00
 -2.19950E+00 +5.49302E-01 -1.88067E+00 -5.35067E-01 -1.18897E+00 -1.04290E+00 -6.91016E-01 -1.05306E+00
 -5.94329E-01 -1.07014E+00 -5.28566E-01 -1.51932E+00 +1.40251E-01 -2.24745E+00 +1.66808E+00 -2.49064E+00
 +3.48522E+00 -1.42468E+00 +4.37744E+00 +1.06794E+00 +3.27460E+00 +4.01927E+00 +1.30559E-01 +5.77147E+00
