 Created: 16-Jan-2021
 $NMID
 ID='D:\BASISSIMULATI'
 FMTDAT='(8E13.5)'
 VOLUME=   1.00000E+00
 TRAMP=   1.00000E+00
 $END
 +2.40505E+01 +2.40287E-02 +2.26194E+01 +6.57962E+00 +1.88833E+01 +1.21469E+01 +1.33836E+01 +1.60052E+01
 +6.88564E+00 +1.76938E+01 +2.60554E-01 +1.70716E+01 -5.64467E+00 +1.43268E+01 -1.01289E+01 +9.93660E+00
 -1.27313E+01 +4.58284E+00 -1.32842E+01 -9.58243E-01 -1.19189E+01 -5.93597E+00 -9.02502E+00 -9.73428E+00
 -5.17255E+00 -1.19535E+01 -1.01159E+00 -1.24531E+01 +2.83318E+00 -1.13516E+01 +5.85570E+00 -8.98574E+00
 +7.73544E+00 -5.83886E+00 +8.36894E+00 -2.45210E+00 +7.86362E+00 +6.65681E-01 +6.49791E+00 +3.11466E+00
 +4.65695E+00 +4.65573E+00 +2.75675E+00 +5.23088E+00 +1.17031E+00 +4.95155E+00 +1.68019E-01 +4.05979E+00
 -1.18931E-01 +2.87123E+00 +2.92082E-01 +1.71110E+00 +1.25204E+00 +8.54906E-01 +2.51838E+00 +4.83316E-01
 +3.80578E+00 +6.57711E-01 +4.84016E+00 +1.31865E+00 +5.40618E+00 +2.30548E+00 +5.38120E+00 +3.39186E+00
 +4.75110E+00 +4.32990E+00 +3.60695E+00 +4.89483E+00 +2.12494E+00 +4.92288E+00 +5.34114E-01 +4.33683E+00
 -9.21860E-01 +3.15642E+00 -2.02245E+00 +1.49320E+00 -2.60204E+00 -4.67866E-01 -2.57160E+00 -2.49627E+00
 -1.92822E+00 -4.34843E+00 -7.52369E-01 -5.79996E+00 +8.05470E-01 -6.67355E+00 +2.54620E+00 -6.85947E+00
 +4.24805E+00 -6.32685E+00 +5.69383E+00 -5.12546E+00 +6.69632E+00 -3.37846E+00 +7.11940E+00 -1.26766E+00
 +6.89313E+00 +9.86874E-01 +6.02161E+00 +3.15070E+00 +4.58306E+00 +5.00007E+00 +2.72223E+00 +6.34600E+00
 +6.35578E-01 +7.05489E+00 -1.44939E+00 +7.06384E+00 -3.29912E+00 +6.38869E+00 -4.70069E+00 +5.12357E+00
 -5.48745E+00 +3.43131E+00 -5.56054E+00 +1.52536E+00 -4.90316E+00 -3.55423E-01 -3.58537E+00 -1.97630E+00
 -1.75788E+00 -3.13691E+00 +3.64952E-01 -3.69819E+00 +2.53146E+00 -3.60201E+00 +4.48503E+00 -2.88014E+00
 +5.99824E+00 -1.65089E+00 +6.90381E+00 -1.02972E-01 +7.11764E+00 +1.53113E+00 +6.65012E+00 +3.00901E+00
 +5.60366E+00 +4.11415E+00 +4.15642E+00 +4.68829E+00 +2.53455E+00 +4.65512E+00 +9.77139E-01 +4.03138E+00
 -3.00729E-01 +2.92342E+00 -1.14068E+00 +1.50945E+00 -1.46434E+00 +1.05050E-02 -1.28332E+00 -1.34549E+00
 -6.94209E-01 -2.36038E+00 +1.40513E-01 -2.89726E+00 +1.02236E+00 -2.90146E+00 +1.75243E+00 -2.40755E+00
 +2.16667E+00 -1.53126E+00 +2.16460E+00 -4.47842E-01 +1.72678E+00 +6.39479E-01 +9.17952E-01 +1.53534E+00
 -1.24609E-01 +2.08628E+00 -1.21541E+00 +2.20712E+00 -2.15355E+00 +1.89520E+00 -2.75828E+00 +1.23007E+00
 -2.90120E+00 +3.58865E-01 -2.52962E+00 -5.30173E-01 -1.67696E+00 -1.24127E+00 -4.58629E-01 -1.60611E+00
 +9.46015E-01 -1.51425E+00 +2.32257E+00 -9.33761E-01 +3.45644E+00 +8.13275E-02 +4.16785E+00 +1.39804E+00
 +4.34131E+00 +2.82468E+00 +3.94461E+00 +4.14101E+00 +3.03447E+00 +5.13323E+00 +1.74788E+00 +5.62834E+00
 +2.80774E-01 +5.52207E+00 -1.14254E+00 +4.79618E+00 -2.30420E+00 +3.52240E+00 -3.02646E+00 +1.85251E+00
 -3.19872E+00 -3.82039E-03 -2.79417E+00 -1.80969E+00 -1.87331E+00 -3.33556E+00 -5.74290E-01 -4.39229E+00
 +9.08480E-01 -4.85775E+00 +2.35374E+00 -4.69309E+00 +3.54642E+00 -3.94655E+00 +4.30923E+00 -2.74444E+00
 +4.52801E+00 -1.27093E+00 +4.16746E+00 +2.60003E-01 +3.27486E+00 +1.63617E+00 +1.97168E+00 +2.67763E+00
 +4.34644E-01 +3.26146E+00 -1.13093E+00 +3.33741E+00 -2.52117E+00 +2.93243E+00 -3.56269E+00 +2.14363E+00
 -4.13648E+00 +1.12110E+00 -4.19309E+00 +4.34705E-02 -3.75731E+00 -9.10145E-01 -2.92177E+00 -1.58734E+00
 -1.83081E+00 -1.88487E+00 -6.57194E-01 -1.76297E+00 +4.24605E-01 -1.24980E+00 +1.26455E+00 -4.35275E-01
 +1.75866E+00 +5.44267E-01 +1.86293E+00 +1.52827E+00 +1.59766E+00 +2.35738E+00 +1.04175E+00 +2.89821E+00
 +3.18019E-01 +3.06364E+00 -4.28004E-01 +2.82561E+00 -1.05232E+00 +2.21851E+00 -1.43601E+00 +1.33284E+00
 -1.50429E+00 +3.00240E-01 -1.23825E+00 -7.27692E-01 -6.77429E-01 -1.60336E+00 +8.70648E-02 -2.20614E+00
 +9.27624E-01 -2.46077E+00 +1.70103E+00 -2.34832E+00 +2.27173E+00 -1.90815E+00 +2.53381E+00 -1.23049E+00
 +2.42815E+00 -4.41228E-01 +1.95216E+00 +3.18940E-01 +1.16040E+00 +9.17389E-01 +1.56335E-01 +1.25091E+00
 -9.23712E-01 +1.26216E+00 -1.93166E+00 +9.48553E-01 -2.73048E+00 +3.62428E-01 -3.21525E+00 -3.97703E-01
 -3.32895E+00 -1.20316E+00 -3.07082E+00 -1.91588E+00 -2.49584E+00 -2.41065E+00 -1.70566E+00 -2.59530E+00
 -8.32277E-01 -2.42561E+00 -1.72976E-02 -1.91284E+00 +6.10226E-01 -1.12247E+00 +9.53760E-01 -1.64635E-01
 +9.64093E-01 +8.22394E-01 +6.46734E-01 +1.69305E+00 +6.08225E-02 +2.31650E+00 -6.90232E-01 +2.59645E+00
 -1.47489E+00 +2.48580E+00 -2.15393E+00 +1.99397E+00 -2.60210E+00 +1.18574E+00 -2.72772E+00 +1.71949E-01
 -2.48722E+00 -9.06691E-01 -1.89262E+00 -1.90013E+00 -1.01060E+00 -2.67091E+00 +4.64744E-02 -3.11423E+00
 +1.13641E+00 -3.17319E+00 +2.10758E+00 -2.84704E+00 +2.82083E+00 -2.19120E+00 +3.16970E+00 -1.30903E+00
 +3.09609E+00 -3.36635E-01 +2.59893E+00 +5.77111E-01 +1.73469E+00 +1.29238E+00 +6.09526E-01 +1.69884E+00
 -6.35628E-01 +1.73168E+00 -1.84504E+00 +1.38096E+00 -2.87013E+00 +6.92729E-01 -3.59027E+00 -2.38059E-01
 -3.92926E+00 -1.28188E+00 -3.86515E+00 -2.29397E+00 -3.43189E+00 -3.13583E+00 -2.71277E+00 -3.69542E+00
 -1.82652E+00 -3.90329E+00 -9.08547E-01 -3.74188E+00 -8.99895E-02 -3.24684E+00 +5.21879E-01 -2.50024E+00
 +8.59003E-01 -1.61666E+00 +9.01225E-01 -7.24741E-01 +6.77068E-01 +5.30408E-02 +2.56641E-01 +6.18932E-01
 -2.61976E-01 +9.13925E-01 -7.70489E-01 +9.25026E-01 -1.16922E+00 +6.84742E-01 -1.38386E+00 +2.63102E-01
 -1.37726E+00 -2.46265E-01 -1.15459E+00 -7.43448E-01 -7.60819E-01 -1.13992E+00 -2.71539E-01 -1.37349E+00
 +2.21433E-01 -1.41801E+00 +6.26787E-01 -1.28637E+00 +8.69896E-01 -1.02634E+00 +9.05562E-01 -7.10426E-01
 +7.25183E-01 -4.21483E-01 +3.57264E-01 -2.37095E-01 -1.38596E-01 -2.15337E-01 -6.82938E-01 -3.84567E-01
 -1.19068E+00 -7.38873E-01 -1.58567E+00 -1.23981E+00 -1.81301E+00 -1.82380E+00 -1.84696E+00 -2.41366E+00
 -1.69332E+00 -2.93190E+00 -1.38617E+00 -3.31334E+00 -9.79973E-01 -3.51479E+00 -5.38728E-01 -3.52026E+00
 -1.24530E-01 -3.34103E+00 +2.12382E-01 -3.01103E+00 +4.40300E-01 -2.57881E+00 +5.48493E-01 -2.09797E+00
 +5.45394E-01 -1.61801E+00 +4.53373E-01 -1.17743E+00 +3.01577E-01 -8.00174E-01 +1.18621E-01 -4.95747E-01
 -7.32297E-02 -2.62479E-01 -2.61193E-01 -9.27809E-02 -4.41961E-01 +2.11779E-02 -6.18873E-01 +8.29069E-02
 -7.97254E-01 +8.93057E-02 -9.79328E-01 +3.11858E-02 -1.16017E+00 -1.03601E-01 -1.32588E+00 -3.25311E-01
 -1.45452E+00 -6.37056E-01 -1.51982E+00 -1.03062E+00 -1.49667E+00 -1.48451E+00 -1.36725E+00 -1.96504E+00
 -1.12621E+00 -2.43027E+00 -7.83634E-01 -2.83619E+00 -3.64916E-01 -3.14379E+00 +9.25098E-02 -3.32551E+00
 +5.45006E-01 -3.36955E+00 +9.49869E-01 -3.28122E+00 +1.27219E+00 -3.08080E+00 +1.48991E+00 -2.79870E+00
 +1.59595E+00 -2.46884E+00 +1.59696E+00 -2.12202E+00 +1.50912E+00 -1.78079E+00 +1.35205E+00 -1.45712E+00
 +1.14252E+00 -1.15347E+00 +8.89670E-01 -8.66953E-01 +5.93135E-01 -5.95439E-01 +2.44902E-01 -3.43942E-01
 -1.65396E-01 -1.29320E-01 -6.42823E-01 +1.83723E-02 -1.17904E+00 +5.88843E-02 -1.74597E+00 -5.09253E-02
 -2.29340E+00 -3.46588E-01 -2.75183E+00 -8.44411E-01 -3.04098E+00 -1.53140E+00 -3.08303E+00 -2.35935E+00
 -2.81835E+00 -3.24526E+00 -2.22086E+00 -4.07890E+00 -1.30957E+00 -4.73724E+00 -1.53597E-01 -5.10363E+00
 +1.13150E+00 -5.08875E+00 +2.39617E+00 -4.64932E+00 +3.47692E+00 -3.80088E+00 +4.22098E+00 -2.62169E+00
 +4.51150E+00 -1.24611E+00 +4.28881E+00 +1.52166E-01 +3.56364E+00 +1.38472E+00 +2.41946E+00 +2.27717E+00
 +1.00291E+00 +2.69712E+00 -4.96553E-01 +2.57650E+00 -1.87486E+00 +1.92419E+00 -2.94459E+00 +8.26269E-01
 -3.56418E+00 -5.66234E-01 -3.65990E+00 -2.06049E+00 -3.23689E+00 -3.45197E+00 -2.37712E+00 -4.55642E+00
 -1.22476E+00 -5.23830E+00 +3.85454E-02 -5.43071E+00 +1.22415E+00 -5.14353E+00 +2.16719E+00 -4.45853E+00
 +2.75236E+00 -3.51250E+00 +2.93030E+00 -2.47171E+00 +2.72191E+00 -1.50231E+00 +2.21023E+00 -7.42183E-01
 +1.52169E+00 -2.79176E-01 +8.00601E-01 -1.39350E-01 +1.81704E-01 -2.87119E-01 -2.34087E-01 -6.36699E-01
 -3.96331E-01 -1.07232E+00 -3.11312E-01 -1.47308E+00 -3.70983E-02 -1.73751E+00 +3.31217E-01 -1.80321E+00
 +6.82930E-01 -1.65805E+00 +9.15443E-01 -1.34086E+00 +9.55638E-01 -9.32022E-01 +7.74828E-01 -5.35942E-01
 +3.94580E-01 -2.59067E-01 -1.17512E-01 -1.87776E-01 -6.61040E-01 -3.70432E-01 -1.12229E+00 -8.06939E-01
 -1.39616E+00 -1.44765E+00 -1.40639E+00 -2.20162E+00 -1.12019E+00 -2.95253E+00 -5.54912E-01 -3.57911E+00
 +2.24467E-01 -3.97622E+00 +1.11621E+00 -4.07278E+00 +1.99888E+00 -3.84346E+00 +2.75133E+00 -3.31222E+00
 +3.27200E+00 -2.54749E+00 +3.49423E+00 -1.65012E+00 +3.39508E+00 -7.36700E-01 +2.99668E+00 +7.87776E-02
 +2.36028E+00 +7.01619E-01 +1.57450E+00 +1.06882E+00 +7.40398E-01 +1.15547E+00 -4.40197E-02 +9.74552E-01
 -6.97141E-01 +5.71033E-01 -1.16297E+00 +1.16578E-02 -1.41518E+00 -6.27170E-01 -1.45608E+00 -1.27119E+00
 -1.31130E+00 -1.85779E+00 -1.02191E+00 -2.34202E+00 -6.35723E-01 -2.69860E+00 -1.99465E-01 -2.92039E+00
 +2.46894E-01 -3.01428E+00 +6.73101E-01 -2.99595E+00 +1.05892E+00 -2.88468E+00 +1.39245E+00 -2.69944E+00
 +1.66733E+00 -2.45668E+00 +1.87998E+00 -2.16997E+00 +2.02753E+00 -1.85094E+00 +2.10709E+00 -1.51096E+00
 +2.11617E+00 -1.16260E+00 +2.05398E+00 -8.20336E-01 +1.92308E+00 -5.00243E-01 +1.73049E+00 -2.18584E-01
 +1.48799E+00 +1.01713E-02 +1.21128E+00 +1.75357E-01 +9.18098E-01 +2.71535E-01 +6.25926E-01 +2.98853E-01
 +3.49682E-01 +2.62209E-01 +1.00216E-01 +1.69392E-01 -1.16031E-01 +2.87386E-02 -2.96043E-01 -1.53025E-01
 -4.38173E-01 -3.72056E-01 -5.39603E-01 -6.27301E-01 -5.94098E-01 -9.18879E-01 -5.90865E-01 -1.24524E+00
 -5.15108E-01 -1.59974E+00 -3.50494E-01 -1.96762E+00 -8.32817E-02 -2.32422E+00 +2.92633E-01 -2.63548E+00
 +7.70823E-01 -2.86086E+00 +1.32880E+00 -2.95865E+00 +1.92696E+00 -2.89302E+00 +2.51065E+00 -2.64150E+00
 +3.01556E+00 -2.20156E+00 +3.37582E+00 -1.59473E+00 +3.53375E+00 -8.67280E-01 +3.44957E+00 -8.67617E-02
 +3.10942E+00 +6.65310E-01 +2.53006E+00 +1.30380E+00 +1.75925E+00 +1.75179E+00 +8.71304E-01 +1.95199E+00
 -4.16651E-02 +1.87589E+00 -8.81578E-01 +1.52891E+00 -1.55758E+00 +9.50665E-01 -1.99847E+00 +2.10084E-01
