 Created: 16-Jan-2021
 $NMID
 ID='D:\BASISSIMULATI'
 FMTDAT='(8E13.5)'
 VOLUME=   1.00000E+00
 TRAMP=   1.00000E+00
 $END
 +2.64032E+01 +3.02702E-02 +1.96049E+01 +5.21864E+00 +3.50689E+00 +8.46242E+00 -1.24553E+01 +8.58942E+00
 -1.94335E+01 +5.55988E+00 -1.44581E+01 +7.73023E-01 -1.80470E+00 -3.25708E+00 +1.01844E+01 -4.07954E+00
 +1.44766E+01 -8.76423E-01 +9.36129E+00 +4.62912E+00 -1.24955E+00 +8.83455E+00 -1.09413E+01 +8.40593E+00
 -1.48989E+01 +2.63578E+00 -1.22867E+01 -5.69340E+00 -5.76456E+00 -1.18034E+01 +9.26963E-01 -1.19895E+01
 +5.30475E+00 -6.21415E+00 +6.92164E+00 +1.68448E+00 +6.57028E+00 +6.48973E+00 +5.05886E+00 +5.17329E+00
 +2.72029E+00 -9.75836E-01 -1.35284E-01 -7.23477E+00 -2.59183E+00 -8.78137E+00 -3.23322E+00 -4.12286E+00
 -1.12965E+00 +3.84867E+00 +3.09399E+00 +9.94076E+00 +7.15970E+00 +1.03682E+01 +8.35716E+00 +5.38555E+00
 +5.33881E+00 -1.04887E+00 -8.20513E-01 -4.27681E+00 -7.14622E+00 -2.35361E+00 -1.05617E+01 +2.64595E+00
 -9.71432E+00 +6.33892E+00 -5.59222E+00 +5.41391E+00 -6.26538E-01 +1.19481E-01 +2.92861E+00 -5.97534E+00
 +4.13582E+00 -8.70443E+00 +3.37763E+00 -6.41577E+00 +1.54894E+00 -1.13418E+00 -6.62228E-01 +3.04522E+00
 -2.79197E+00 +3.06277E+00 -4.13043E+00 -8.55412E-01 -3.55234E+00 -5.45135E+00 -1.84941E-01 -6.92902E+00
 +5.44510E+00 -3.77282E+00 +1.08706E+01 +2.19137E+00 +1.26354E+01 +7.19378E+00 +8.50186E+00 +8.24468E+00
 -5.32454E-01 +5.14859E+00 -1.00901E+01 +4.16376E-01 -1.47006E+01 -2.69756E+00 -1.12914E+01 -2.47412E+00
 -1.53904E+00 +3.14893E-01 +8.74849E+00 +3.28906E+00 +1.31020E+01 +4.30981E+00 +8.55710E+00 +2.84700E+00
 -2.28626E+00 -2.10126E-02 -1.27962E+01 -2.70194E+00 -1.64986E+01 -4.23379E+00 -1.11608E+01 -4.60309E+00
 -7.50464E-02 -4.21677E+00 +1.02299E+01 -3.24834E+00 +1.42042E+01 -1.57157E+00 +1.05643E+01 +6.95044E-01
 +2.59358E+00 +2.70681E+00 -4.45711E+00 +3.17327E+00 -6.85384E+00 +1.38922E+00 -4.36483E+00 -1.81740E+00
 +3.30098E-01 -4.20611E+00 +3.97487E+00 -3.53423E+00 +4.90935E+00 +6.41379E-01 +3.60969E+00 +6.20092E+00
 +1.58148E+00 +9.56201E+00 -1.60912E-01 +8.08589E+00 -1.69157E+00 +2.11674E+00 -3.50765E+00 -4.93460E+00
 -5.43721E+00 -8.71835E+00 -6.30537E+00 -6.89818E+00 -4.80606E+00 -8.35131E-01 -8.69614E-01 +5.26541E+00
 +3.74217E+00 +7.21063E+00 +6.33205E+00 +3.68426E+00 +5.14101E+00 -2.90517E+00 +7.88407E-01 -8.16602E+00
 -3.92193E+00 -8.77047E+00 -5.82591E+00 -4.62395E+00 -3.58036E+00 +1.31904E+00 +1.39745E+00 +5.31643E+00
 +5.93207E+00 +5.42939E+00 +7.29158E+00 +2.57708E+00 +4.97214E+00 -5.48832E-01 +8.08672E-01 -1.69049E+00
 -2.54993E+00 -5.89195E-01 -3.55109E+00 +1.20096E+00 -2.58720E+00 +1.90295E+00 -1.26433E+00 +1.07956E+00
 -8.49170E-01 -1.30417E-01 -1.24853E+00 -2.20447E-01 -1.33793E+00 +1.14687E+00 -2.62296E-01 +2.65982E+00
 +1.51256E+00 +2.41440E+00 +2.40633E+00 -3.38808E-01 +1.10103E+00 -4.24997E+00 -2.06450E+00 -6.63022E+00
 -4.95768E+00 -5.44651E+00 -5.07934E+00 -1.02446E+00 -1.55408E+00 +3.93393E+00 +3.89260E+00 +6.15388E+00
 +7.87348E+00 +4.13089E+00 +7.64693E+00 -7.33505E-01 +3.13513E+00 -5.07954E+00 -2.87954E+00 -5.94485E+00
 -6.60225E+00 -2.80578E+00 -5.82042E+00 +2.16345E+00 -1.37676E+00 +5.73406E+00 +3.52495E+00 +5.89103E+00
 +5.63028E+00 +3.05769E+00 +3.84695E+00 -5.17009E-01 -2.15516E-01 -2.58326E+00 -3.65265E+00 -2.44899E+00
 -4.44435E+00 -1.13406E+00 -2.74095E+00 -1.81200E-01 -3.86966E-01 -2.47652E-01 +7.73681E-01 -6.83505E-01
 +3.63283E-01 -3.82574E-01 -4.51323E-01 +9.33383E-01 -2.24326E-01 +2.21586E+00 +1.31738E+00 +1.90967E+00
 +2.91826E+00 -5.50964E-01 +2.86648E+00 -3.88390E+00 +5.96466E-01 -5.61870E+00 -2.56696E+00 -3.92713E+00
 -4.24541E+00 +7.60524E-01 -2.84983E+00 +5.70972E+00 +1.02175E+00 +7.62336E+00 +4.80787E+00 +4.99034E+00
 +5.76448E+00 -6.96143E-01 +2.99995E+00 -5.82603E+00 -1.78912E+00 -7.10269E+00 -5.47710E+00 -3.79425E+00
 -5.72286E+00 +1.80621E+00 -2.59451E+00 +6.01908E+00 +1.58434E+00 +6.30259E+00 +4.00148E+00 +2.85202E+00
 +3.36676E+00 -1.79112E+00 +6.66625E-01 -4.69233E+00 -1.81813E+00 -4.51726E+00 -2.36402E+00 -2.14295E+00
 -1.03834E+00 +3.82535E-01 +6.03440E-01 +1.54080E+00 +1.00263E+00 +1.31885E+00 -2.88037E-02 +7.96758E-01
 -1.19983E+00 +8.77566E-01 -9.67178E-01 +1.36310E+00 +9.66341E-01 +1.20350E+00 +3.19434E+00 -3.27857E-01
 +3.65444E+00 -2.63436E+00 +1.38286E+00 -3.96744E+00 -2.46646E+00 -2.77408E+00 -5.25899E+00 +8.34884E-01
 -4.79173E+00 +4.77662E+00 -1.04462E+00 +6.28108E+00 +3.61792E+00 +3.92024E+00 +6.03706E+00 -1.15304E+00
 +4.50933E+00 -5.79219E+00 +3.04485E-02 -6.95792E+00 -4.39995E+00 -3.84826E+00 -5.90034E+00 +1.50528E+00
 -3.68978E+00 +5.63379E+00 +4.99158E-01 +6.01437E+00 +3.80316E+00 +2.72175E+00 +4.29991E+00 -1.80084E+00
 +2.21498E+00 -4.59332E+00 -5.44428E-01 -4.22669E+00 -2.02123E+00 -1.56422E+00 -1.65204E+00 +1.19401E+00
 -4.26857E-01 +2.30017E+00 +2.25585E-01 +1.64382E+00 -2.14554E-01 +4.88845E-01 -9.49439E-01 +1.34687E-01
 -7.15900E-01 +7.18327E-01 +8.82680E-01 +1.18107E+00 +2.77931E+00 +3.87147E-01 +3.18919E+00 -1.62453E+00
 +1.15379E+00 -3.40919E+00 -2.40326E+00 -3.20552E+00 -5.08622E+00 -5.02102E-01 -4.72954E+00 +3.24252E+00
 -1.13450E+00 +5.44142E+00 +3.54733E+00 +4.25588E+00 +6.19451E+00 +9.49312E-02 +4.91851E+00 -4.47217E+00
 +4.69614E-01 -6.42751E+00 -4.22623E+00 -4.42766E+00 -6.09486E+00 +2.25449E-01 -4.03673E+00 +4.49345E+00
 +3.88298E-01 +5.72332E+00 +4.16740E+00 +3.42692E+00 +4.98942E+00 -5.47366E-01 +2.75064E+00 -3.48851E+00
 -6.25748E-01 -3.76745E+00 -2.78722E+00 -1.80165E+00 -2.66542E+00 +5.76334E-01 -1.02104E+00 +1.70642E+00
 +4.65788E-01 +1.32102E+00 +6.91515E-01 +4.71312E-01 -5.02281E-02 +3.48041E-01 -5.43347E-01 +1.09107E+00
 +7.74616E-02 +1.64634E+00 +1.41407E+00 +8.00422E-01 +2.08275E+00 -1.51748E+00 +9.75558E-01 -3.85311E+00
 -1.57747E+00 -4.21632E+00 -3.80316E+00 -1.73168E+00 -3.76564E+00 +2.39209E+00 -9.72559E-01 +5.46886E+00
 +3.00313E+00 +5.19780E+00 +5.48766E+00 +1.42755E+00 +4.62206E+00 -3.54867E+00 +8.01273E-01 -6.48002E+00
 -3.49143E+00 -5.39901E+00 -5.39396E+00 -9.94431E-01 -3.68462E+00 +3.88408E+00 +3.73191E-01 +6.21628E+00
 +3.97191E+00 +4.83750E+00 +4.76833E+00 +1.06014E+00 +2.47042E+00 -2.46530E+00 -1.12416E+00 -3.70085E+00
 -3.57127E+00 -2.50443E+00 -3.54690E+00 -3.78396E-01 -1.61520E+00 +9.52613E-01 +4.75461E-01 +9.02938E-01
 +1.28386E+00 +2.50652E-01 +7.18960E-01 +1.57052E-01 -1.43969E-01 +9.23968E-01 -2.01089E-01 +1.62170E+00
 +6.32811E-01 +9.46317E-01 +1.38225E+00 -1.42182E+00 +9.90140E-01 -4.17585E+00 -5.68322E-01 -5.13758E+00
 -2.06534E+00 -2.94074E+00 -1.97304E+00 +1.66347E+00 +1.56525E-01 +6.00137E+00 +3.06708E+00 +7.18892E+00
 +4.56422E+00 +4.18638E+00 +3.18173E+00 -1.32082E+00 -5.38960E-01 -5.92687E+00 -4.23505E+00 -6.74203E+00
 -5.35284E+00 -3.30232E+00 -3.05005E+00 +2.17216E+00 +1.08608E+00 +6.30480E+00 +4.11452E+00 +6.75816E+00
 +3.86333E+00 +3.58061E+00 +5.30064E-01 -1.11148E+00 -3.45025E+00 -4.70855E+00 -5.18770E+00 -5.71796E+00
 -3.44587E+00 -4.34005E+00 +4.93883E-01 -1.84640E+00 +3.83834E+00 +5.13176E-01 +4.37339E+00 +2.15619E+00
 +2.05430E+00 +3.01628E+00 -1.07893E+00 +3.01640E+00 -2.54146E+00 +1.87333E+00 -1.30578E+00 -4.82057E-01
 +1.48645E+00 -3.30058E+00 +3.50216E+00 -4.98380E+00 +3.07394E+00 -3.96793E+00 +4.76440E-01 -1.69712E-02
 -2.34496E+00 +5.12471E+00 -3.33448E+00 +8.46738E+00 -1.92576E+00 +7.63275E+00 +5.63558E-01 +2.60592E+00
 +2.01614E+00 -3.95104E+00 +1.19515E+00 -8.22803E+00 -1.30189E+00 -7.70877E+00 -3.53718E+00 -2.85776E+00
 -3.75213E+00 +3.15832E+00 -1.70810E+00 +6.56075E+00 +1.17787E+00 +5.42044E+00 +2.96099E+00 +7.95897E-01
 +2.64125E+00 -4.17975E+00 +8.36458E-01 -6.51970E+00 -8.15094E-01 -5.28542E+00 -9.84958E-01 -1.87799E+00
 +3.57911E-01 +1.31318E+00 +2.04455E+00 +2.73486E+00 +2.73016E+00 +2.55751E+00 +1.96315E+00 +2.06859E+00
 +4.40506E-01 +2.24498E+00 -6.92095E-01 +2.79666E+00 -8.42728E-01 +2.50830E+00 -4.09975E-01 +5.59648E-01
 -3.08843E-01 -2.36891E+00 -1.04217E+00 -4.27264E+00 -2.16727E+00 -3.30113E+00 -2.65729E+00 +5.72133E-01
 -1.86066E+00 +5.08706E+00 -2.04645E-01 +6.99857E+00 +1.03495E+00 +4.34416E+00 +7.86305E-01 -1.94962E+00
 -8.03145E-01 -8.37863E+00 -2.30239E+00 -1.10087E+01 -2.06031E+00 -8.04369E+00 +3.83051E-01 -1.05557E+00
 +3.69910E+00 +5.97398E+00 +5.58819E+00 +9.14839E+00 +4.49940E+00 +7.01587E+00 +9.49833E-01 +1.28452E+00
 -2.65760E+00 -4.44289E+00 -3.71292E+00 -6.94134E+00 -1.38379E+00 -5.13249E+00 +2.61362E+00 -3.59140E-01
 +5.13855E+00 +4.73389E+00 +3.90715E+00 +7.77395E+00 -7.31707E-01 +7.69487E+00 -5.88869E+00 +4.84425E+00
 -8.10895E+00 +4.65858E-01 -5.83789E+00 -3.89675E+00 -5.80813E-01 -6.79245E+00 +4.11675E+00 -7.15730E+00
 +5.15732E+00 -4.70420E+00 +2.06214E+00 -3.11560E-01 -2.73051E+00 +4.00414E+00 -5.63109E+00 +5.87291E+00
 -4.43467E+00 +3.91408E+00 +1.87200E-01 -1.16480E+00 +5.25162E+00 -6.61031E+00 +7.59867E+00 -9.06113E+00
 +6.02018E+00 -6.63084E+00 +1.90379E+00 -2.71781E-01 -1.94044E+00 +6.61334E+00 -3.29814E+00 +1.02033E+01
 -1.93154E+00 +8.65219E+00 +5.62062E-01 +3.23538E+00 +2.12424E+00 -2.54785E+00 +1.70847E+00 -5.30235E+00
 -2.02846E-01 -3.88880E+00 -2.24854E+00 +5.52689E-02 -3.32412E+00 +3.49111E+00 -3.26515E+00 +4.16908E+00
 -2.64626E+00 +2.03464E+00 -2.04271E+00 -1.07766E+00 -1.49479E+00 -3.06947E+00 -6.35319E-01 -3.17536E+00
 +7.17496E-01 -2.30539E+00 +2.13661E+00 -1.97090E+00 +2.80321E+00 -2.77744E+00 +2.22538E+00 -3.79006E+00
 +8.12455E-01 -3.33135E+00 -2.79139E-01 -5.66078E-01 -7.90098E-03 +3.46703E+00 +1.64718E+00 +6.32704E+00
 +3.51792E+00 +5.91037E+00 +4.04498E+00 +2.16716E+00 +2.47864E+00 -2.57587E+00 -4.63178E-01 -5.06148E+00
 -3.04878E+00 -3.35877E+00 -3.79973E+00 +1.68543E+00 -2.60118E+00 +6.88506E+00 -7.68796E-01 +8.78498E+00
 +1.00453E-02 +5.93907E+00 -9.58766E-01 -1.65383E-01 -2.79720E+00 -6.12623E+00 -3.75384E+00 -8.82351E+00
 -2.65168E+00 -7.27623E+00 +7.31524E-02 -2.98411E+00 +2.61469E+00 +1.29784E+00 +3.19048E+00 +3.35903E+00
 +1.50971E+00 +2.67542E+00 -8.78106E-01 +3.01725E-01 -1.71147E+00 -2.13237E+00 +1.86495E-01 -3.44557E+00
 +3.83387E+00 -3.28693E+00 +6.64037E+00 -1.87507E+00 +6.26245E+00 +4.06624E-01 +2.41311E+00 +3.10935E+00
