 Created: 16-Jan-2021
 $NMID
 ID='D:\BASISSIMULATI'
 FMTDAT='(8E13.5)'
 VOLUME=   1.00000E+00
 TRAMP=   1.00000E+00
 $END
 +1.69976E+01 +1.90840E-02 +1.29580E+01 +1.02871E+01 +3.37201E+00 +1.50470E+01 -6.38258E+00 +1.21855E+01
 -1.11041E+01 +3.93724E+00 -8.73325E+00 -4.56954E+00 -1.39157E+00 -8.38588E+00 +6.04121E+00 -5.58605E+00
 +8.88280E+00 +1.76234E+00 +5.35398E+00 +8.98171E+00 -2.52114E+00 +1.16081E+01 -1.02484E+01 +7.95043E+00
 -1.35407E+01 -7.45975E-02 -1.07235E+01 -8.20954E+00 -3.51099E+00 -1.23682E+01 +4.17732E+00 -1.08765E+01
 +8.54254E+00 -5.19175E+00 +7.96809E+00 +1.18369E+00 +3.67801E+00 +4.82587E+00 -1.24777E+00 +4.25800E+00
 -3.78516E+00 +5.41547E-01 -2.63557E+00 -3.60752E+00 +1.25340E+00 -5.51824E+00 +5.47133E+00 -4.03579E+00
 +7.63373E+00 +2.50239E-02 +6.65869E+00 +4.55926E+00 +3.15937E+00 +7.44830E+00 -1.12487E+00 +7.64342E+00
 -4.38769E+00 +5.50136E+00 -5.64337E+00 +2.33027E+00 -5.00325E+00 -4.48124E-01 -3.33435E+00 -1.98582E+00
 -1.64085E+00 -2.21979E+00 -5.77231E-01 -1.63472E+00 -3.07025E-01 -8.54453E-01 -6.45918E-01 -3.48839E-01
 -1.27318E+00 -3.61889E-01 -1.84220E+00 -9.66933E-01 -1.98852E+00 -2.09171E+00 -1.36088E+00 -3.45680E+00
 +2.24005E-01 -4.52527E+00 +2.55373E+00 -4.61898E+00 +4.91267E+00 -3.24878E+00 +6.27858E+00 -5.05315E-01
 +5.82042E+00 +2.77283E+00 +3.44772E+00 +5.26553E+00 +4.30599E-02 +5.82283E+00 -2.86122E+00 +4.16276E+00
 -3.87080E+00 +1.16753E+00 -2.56036E+00 -1.48640E+00 +1.72607E-01 -2.23510E+00 +2.51917E+00 -5.75210E-01
 +2.77213E+00 +2.53282E+00 +3.78552E-01 +5.11550E+00 -3.61331E+00 +5.29700E+00 -7.04059E+00 +2.44766E+00
 -7.82471E+00 -2.32663E+00 -5.20827E+00 -6.69880E+00 -2.87587E-01 -8.39436E+00 +4.51841E+00 -6.50547E+00
 +6.79911E+00 -2.06494E+00 +5.52783E+00 +2.49140E+00 +1.67066E+00 +4.69503E+00 -2.35197E+00 +3.46409E+00
 -4.06087E+00 -2.62364E-01 -2.36605E+00 -4.06232E+00 +1.78226E+00 -5.44198E+00 +5.93020E+00 -3.30185E+00
 +7.53925E+00 +1.40013E+00 +5.46289E+00 +6.17969E+00 +6.20555E-01 +8.44349E+00 -4.52040E+00 +6.96759E+00
 -7.34727E+00 +2.58107E+00 -6.57045E+00 -2.33103E+00 -2.91206E+00 -5.20133E+00 +1.36517E+00 -4.72458E+00
 +3.79092E+00 -1.54351E+00 +3.09533E+00 +2.19556E+00 -1.15796E-01 +4.12830E+00 -3.78002E+00 +3.03569E+00
 -5.61257E+00 -4.96154E-01 -4.42096E+00 -4.46909E+00 -7.48672E-01 -6.65258E+00 +3.48860E+00 -5.84671E+00
 +6.12212E+00 -2.51046E+00 +5.93695E+00 +1.56763E+00 +3.28396E+00 +4.32090E+00 -2.11675E-01 +4.54846E+00
 -2.62809E+00 +2.50742E+00 -2.82142E+00 -3.41025E-01 -9.93421E-01 -2.23296E+00 +1.52755E+00 -2.10422E+00
 +3.11320E+00 -1.30463E-01 +2.76641E+00 +2.45964E+00 +6.34157E-01 +4.13927E+00 -2.14752E+00 +3.94611E+00
 -4.13815E+00 +1.97091E+00 -4.38952E+00 -7.64350E-01 -2.91190E+00 -2.92063E+00 -5.86682E-01 -3.57284E+00
 +1.37682E+00 -2.65363E+00 +2.10622E+00 -8.99424E-01 +1.48559E+00 +6.23698E-01 +1.31010E-01 +1.11958E+00
 -1.01926E+00 +4.55651E-01 -1.24283E+00 -8.36534E-01 -4.01638E-01 -1.91333E+00 +1.03586E+00 -2.10130E+00
 +2.29458E+00 -1.24316E+00 +2.72500E+00 +2.59467E-01 +2.12963E+00 +1.69753E+00 +8.26139E-01 +2.44035E+00
 -5.58032E-01 +2.24426E+00 -1.42722E+00 +1.33480E+00 -1.50794E+00 +2.44578E-01 -9.47074E-01 -4.85954E-01
 -1.88244E-01 -5.79794E-01 +2.88418E-01 -1.33118E-01 +2.18497E-01 +4.75594E-01 -3.28944E-01 +8.11812E-01
 -1.01515E+00 +6.19894E-01 -1.42908E+00 -5.27955E-02 -1.30783E+00 -8.96475E-01 -6.66917E-01 -1.51146E+00
 +2.19328E-01 -1.61624E+00 +9.67572E-01 -1.18371E+00 +1.28188E+00 -4.40936E-01 +1.09449E+00 +2.59248E-01
 +5.82755E-01 +6.22483E-01 +6.04007E-02 +5.55891E-01 -1.94242E-01 +1.98788E-01 -8.11728E-02 -1.68949E-01
 +2.80272E-01 -2.87176E-01 +6.29308E-01 -5.71184E-02 +7.14398E-01 +4.09983E-01 +4.33647E-01 +8.59862E-01
 -1.10217E-01 +1.03822E+00 -6.67549E-01 +8.30421E-01 -9.78021E-01 +3.22339E-01 -9.09622E-01 -2.48493E-01
 -5.25029E-01 -6.22277E-01 -4.12947E-02 -6.54488E-01 +2.92202E-01 -3.86641E-01 +3.28607E-01 -1.37990E-02
 +9.71370E-02 +2.30127E-01 -2.23015E-01 +2.03578E-01 -4.10659E-01 -6.78686E-02 -3.29890E-01 -4.12665E-01
 -5.28174E-03 -6.15464E-01 +3.95207E-01 -5.40784E-01 +6.57213E-01 -2.08590E-01 +6.40390E-01 +2.18810E-01
 +3.54681E-01 +5.28565E-01 -4.84587E-02 +5.74453E-01 -3.62249E-01 +3.53872E-01 -4.37985E-01 +3.59998E-03
 -2.62279E-01 -2.80277E-01 +4.28345E-02 -3.51266E-01 +2.93653E-01 -1.89197E-01 +3.48663E-01 +9.58174E-02
 +1.84171E-01 +3.30987E-01 -9.84107E-02 +3.79605E-01 -3.34460E-01 +2.15376E-01 -3.90116E-01 -6.73434E-02
 -2.35380E-01 -3.10154E-01 +4.28329E-02 -3.80125E-01 +2.92215E-01 -2.41756E-01 +3.80164E-01 +2.71850E-02
 +2.64488E-01 +2.82038E-01 +1.19428E-02 +3.91649E-01 -2.42870E-01 +3.07436E-01 -3.72808E-01 +8.42979E-02
 -3.25032E-01 -1.55313E-01 -1.43617E-01 -2.91375E-01 +6.17127E-02 -2.70269E-01 +1.80315E-01 -1.28157E-01
 +1.61168E-01 +3.64530E-02 +3.60738E-02 +1.22484E-01 -1.04787E-01 +8.30501E-02 -1.68033E-01 -5.21693E-02
 -1.09968E-01 -1.98965E-01 +4.21957E-02 -2.69427E-01 +2.10214E-01 -2.20938E-01 +3.11384E-01 -7.60698E-02
 +3.03472E-01 +9.53202E-02 +2.02905E-01 +2.18362E-01 +6.84787E-02 +2.53635E-01 -3.66682E-02 +2.12954E-01
 -8.06031E-02 +1.43990E-01 -7.51610E-02 +9.61447E-02 -6.05818E-02 +9.00199E-02 -7.45054E-02 +1.08605E-01
 -1.25990E-01 +1.13477E-01 -1.90422E-01 +7.37302E-02 -2.27111E-01 -1.16251E-02 -2.07163E-01 -1.11796E-01
 -1.33393E-01 -1.83414E-01 -3.95994E-02 -1.98147E-01 +3.03194E-02 -1.61004E-01 +5.03332E-02 -1.07511E-01
 +2.97154E-02 -8.09450E-02 +8.39845E-03 -1.03218E-01 +3.18252E-02 -1.57420E-01 +1.19442E-01 -1.93933E-01
 +2.45807E-01 -1.58650E-01 +3.47421E-01 -2.85590E-02 +3.54563E-01 +1.65942E-01 +2.32731E-01 +3.47276E-01
 +1.06960E-02 +4.26235E-01 -2.23413E-01 +3.50806E-01 -3.61008E-01 +1.42160E-01 -3.30373E-01 -1.05130E-01
 -1.42491E-01 -2.64832E-01 +1.03037E-01 -2.45789E-01 +2.62201E-01 -4.92634E-02 +2.23745E-01 +2.18091E-01
 -2.02225E-02 +3.90778E-01 -3.52795E-01 +3.33345E-01 -5.81065E-01 +2.63703E-02 -5.38211E-01 -4.01906E-01
 -1.87240E-01 -7.26245E-01 +3.35006E-01 -7.40983E-01 +7.69538E-01 -3.83920E-01 +8.67087E-01 +2.04980E-01
 +5.34118E-01 +7.35081E-01 -9.17026E-02 +9.12493E-01 -6.91482E-01 +6.09548E-01 -9.27972E-01 -4.13340E-02
 -6.39332E-01 -6.95016E-01 +4.74184E-02 -9.71759E-01 +7.60330E-01 -6.75935E-01 +1.07580E+00 +6.99858E-02
 +7.62881E-01 +8.65183E-01 -6.12519E-02 +1.23884E+00 -9.65965E-01 +9.20484E-01 -1.43006E+00 +1.80356E-02
 -1.13823E+00 -1.01064E+00 -1.82316E-01 -1.59379E+00 +9.59221E-01 -1.36752E+00 +1.66844E+00 -4.00408E-01
 +1.53296E+00 +8.17395E-01 +5.93516E-01 +1.62970E+00 -6.56164E-01 +1.57991E+00 -1.53023E+00 +6.80052E-01
 -1.53375E+00 -5.77515E-01 -6.51380E-01 -1.48348E+00 +6.28326E-01 -1.50846E+00 +1.57563E+00 -6.09494E-01
 +1.62663E+00 +7.32052E-01 +7.05632E-01 +1.76859E+00 -7.21399E-01 +1.89913E+00 -1.89556E+00 +1.00571E+00
 -2.17833E+00 -4.75304E-01 -1.39971E+00 -1.78680E+00 +5.04253E-02 -2.25840E+00 +1.43433E+00 -1.66308E+00
 +2.06124E+00 -3.30597E-01 +1.64864E+00 +1.03697E+00 +4.59206E-01 +1.74049E+00 -8.50403E-01 +1.44597E+00
 -1.57886E+00 +3.46610E-01 -1.34045E+00 -9.49650E-01 -2.54312E-01 -1.73778E+00 +1.12325E+00 -1.57186E+00
 +2.07918E+00 -4.84680E-01 +2.09392E+00 +1.02888E+00 +1.09472E+00 +2.24865E+00 -5.02980E-01 +2.57148E+00
 -1.98246E+00 +1.80103E+00 -2.65714E+00 +2.53392E-01 -2.19893E+00 -1.37406E+00 -8.12582E-01 -2.32045E+00
 +8.35202E-01 -2.12930E+00 +1.91820E+00 -8.94715E-01 +1.85902E+00 +7.46825E-01 +6.49180E-01 +1.90317E+00
 -1.09521E+00 +1.87682E+00 -2.40514E+00 +5.60884E-01 -2.45295E+00 -1.44067E+00 -1.02596E+00 -3.07020E+00
 +1.28759E+00 -3.35592E+00 +3.34110E+00 -1.96431E+00 +4.01398E+00 +5.47705E-01 +2.84185E+00 +2.95974E+00
 +3.33898E-01 +4.01484E+00 -2.23781E+00 +3.12360E+00 -3.50416E+00 +7.43391E-01 -2.77119E+00 -1.81655E+00
 -4.55940E-01 -3.09630E+00 +2.09463E+00 -2.31920E+00 +3.33699E+00 +1.21920E-01 +2.42055E+00 +2.83364E+00
 -2.81019E-01 +4.18444E+00 -3.32740E+00 +3.24331E+00 -4.99815E+00 +3.51558E-01 -4.27273E+00 -3.02255E+00
 -1.43766E+00 -5.08675E+00 +2.04450E+00 -4.73608E+00 +4.34520E+00 -2.18864E+00 +4.30009E+00 +1.12962E+00
 +2.06491E+00 +3.39241E+00 -9.83835E-01 +3.40933E+00 -3.04530E+00 +1.29282E+00 -2.92491E+00 -1.62574E+00
 -7.04569E-01 -3.57385E+00 +2.32518E+00 -3.35275E+00 +4.41632E+00 -1.00526E+00 +4.35286E+00 +2.23310E+00
 +2.11203E+00 +4.64866E+00 -1.16084E+00 +5.00312E+00 -3.81884E+00 +3.18353E+00 -4.61865E+00 +2.05470E-01
 -3.35347E+00 -2.39361E+00 -8.87562E-01 -3.39921E+00 +1.38110E+00 -2.52896E+00 +2.29508E+00 -4.99866E-01
 +1.51763E+00 +1.43282E+00 -3.65961E-01 +2.17242E+00 -2.22793E+00 +1.32953E+00 -3.01308E+00 -6.39315E-01
 -2.25632E+00 -2.72405E+00 -2.63579E-01 -3.89049E+00 +2.08666E+00 -3.56754E+00 +3.78247E+00 -1.87553E+00
 +4.13478E+00 +4.71714E-01 +3.05629E+00 +2.51064E+00 +1.06814E+00 +3.45147E+00 -9.45298E-01 +3.00758E+00
 -2.12544E+00 +1.50729E+00 -2.01782E+00 -2.53589E-01 -7.85882E-01 -1.36689E+00 +8.42728E-01 -1.23823E+00
 +1.90088E+00 +1.00966E-01 +1.65652E+00 +1.95899E+00 +1.99568E-02 +3.28255E+00 -2.33786E+00 +3.18088E+00
 -4.26102E+00 +1.42616E+00 -4.68152E+00 -1.34748E+00 -3.20912E+00 -3.89673E+00 -4.08019E-01 -4.98659E+00
 +2.43216E+00 -4.06245E+00 +3.95115E+00 -1.59834E+00 +3.46152E+00 +1.10808E+00 +1.35931E+00 +2.62016E+00
 -1.05939E+00 +2.16492E+00 -2.30723E+00 +9.55392E-02 -1.55688E+00 -2.27463E+00 +8.54069E-01 -3.40089E+00
 +3.57435E+00 -2.39895E+00 +4.98371E+00 +4.14194E-01 +4.11736E+00 +3.65667E+00 +1.23820E+00 +5.63506E+00
 -2.28191E+00 +5.29191E+00 -4.71399E+00 +2.80377E+00 -4.92992E+00 -5.17082E-01 -3.01792E+00 -2.96193E+00
 -2.05388E-01 -3.38024E+00 +1.85915E+00 -1.80255E+00 +2.04519E+00 +6.17618E-01 +3.61515E-01 +2.29492E+00
 -2.08490E+00 +2.12752E+00 -3.74933E+00 +1.11135E-01 -3.53497E+00 -2.68493E+00 -1.39722E+00 -4.74214E+00
 +1.65969E+00 -4.94283E+00 +4.16312E+00 -3.16282E+00 +4.97833E+00 -2.92896E-01 +3.88541E+00 +2.28846E+00
 +1.62793E+00 +3.46782E+00 -5.53968E-01 +2.95157E+00 -1.61410E+00 +1.34075E+00 -1.22637E+00 -2.72197E-01
 +1.16897E-01 -9.26862E-01 +1.44443E+00 -2.88783E-01 +1.86118E+00 +1.23021E+00 +1.01018E+00 +2.74737E+00
