 Created: 16-Jan-2021
 $NMID
 ID='D:\BASISSIMULATI'
 FMTDAT='(8E13.5)'
 VOLUME=   1.00000E+00
 TRAMP=   1.00000E+00
 $END
 +8.10450E+00 +8.49814E-03 +7.59012E+00 +2.81214E+00 +6.13813E+00 +5.26089E+00 +3.93050E+00 +7.05271E+00
 +1.24221E+00 +7.96761E+00 -1.59300E+00 +7.89462E+00 -4.22403E+00 +6.84525E+00 -6.32595E+00 +4.95175E+00
 -7.64007E+00 +2.45047E+00 -8.00581E+00 -3.47655E-01 -7.38031E+00 -3.09575E+00 -5.84344E+00 -5.45400E+00
 -3.58759E+00 -7.13167E+00 -8.93610E-01 -7.92294E+00 +1.90414E+00 -7.73216E+00 +4.45933E+00 -6.58538E+00
 +6.45648E+00 -4.62686E+00 +7.64996E+00 -2.10092E+00 +7.89413E+00 +6.78565E-01 +7.16118E+00 +3.36714E+00
 +5.54423E+00 +5.63244E+00 +3.24552E+00 +7.19533E+00 +5.51108E-01 +7.86423E+00 -2.20472E+00 +7.55864E+00
 -4.68090E+00 +6.31881E+00 -6.57184E+00 +4.30046E+00 -7.64509E+00 +1.75520E+00 -7.76995E+00 -1.00079E+00
 -6.93335E+00 -3.62606E+00 -5.24119E+00 -5.79619E+00 -2.90494E+00 -7.24389E+00 -2.15220E-01 -7.79188E+00
 +2.49438E+00 -7.37464E+00 +4.88862E+00 -6.04620E+00 +6.67212E+00 -3.97318E+00 +7.62581E+00 -1.41388E+00
 +7.63378E+00 +1.31390E+00 +6.69744E+00 +3.87230E+00 +4.93497E+00 +5.94527E+00 +2.56647E+00 +7.27761E+00
 -1.13564E-01 +7.70636E+00 -2.77282E+00 +7.18075E+00 -5.08240E+00 +5.76820E+00 -6.75749E+00 +3.64567E+00
 -7.59247E+00 +1.07750E+00 -7.48617E+00 -1.61751E+00 -6.45409E+00 -4.10568E+00 -4.62622E+00 -6.07972E+00
 -2.23068E+00 -7.29674E+00 +4.34780E-01 -7.60810E+00 +3.03977E+00 -6.97756E+00 +5.26220E+00 -5.48547E+00
 +6.82812E+00 -3.31857E+00 +7.54546E+00 -7.46602E-01 +7.32763E+00 +1.91126E+00 +6.20392E+00 +4.32604E+00
 +4.31559E+00 +6.19961E+00 +1.89817E+00 +7.30159E+00 -7.47985E-01 +7.49760E+00 -3.29498E+00 +6.76566E+00
 -5.42798E+00 +5.19864E+00 -6.88419E+00 +2.99248E+00 -7.48517E+00 +4.21686E-01 -7.15872E+00 -2.19482E+00
 -5.94756E+00 -4.53325E+00 -4.00372E+00 -6.30505E+00 -1.56949E+00 -7.29247E+00 +1.05276E+00 -7.37532E+00
 +3.53821E+00 -6.54564E+00 +5.57975E+00 -4.90835E+00 +6.92594E+00 -2.66799E+00 +7.41201E+00 -1.03235E-01
 +6.97999E+00 +2.46786E+00 +5.68563E+00 +4.72722E+00 +3.69121E+00 +6.39615E+00 +1.24518E+00 +7.26969E+00
 -1.34873E+00 +7.24177E+00 -3.76929E+00 +6.31811E+00 -5.71752E+00 +4.61522E+00 -6.95359E+00 +2.34570E+00
 -7.32640E+00 -2.08289E-01 -6.79200E+00 -2.73010E+00 -5.41877E+00 -4.90787E+00 -3.37868E+00 -6.47307E+00
 -9.25763E-01 -7.23361E+00 +1.63551E+00 -7.09745E+00 +3.98804E+00 -6.08367E+00 +5.84134E+00 -4.31989E+00
 +6.96742E+00 -2.02616E+00 +7.22880E+00 +5.12450E-01 +6.59531E+00 +2.98130E+00 +5.14758E+00 +5.07516E+00
 +3.06672E+00 +6.53597E+00 +6.11727E-01 +7.18461E+00 -1.91277E+00 +6.94288E+00 -4.19432E+00 +5.84292E+00
 -5.95131E+00 +4.02296E+00 -6.96770E+00 +1.70992E+00 -7.11964E+00 -8.08835E-01 -6.39049E+00 -3.22121E+00
 -4.87267E+00 -5.22906E+00 -2.75591E+00 -6.58504E+00 -3.03553E-01 -7.12305E+00 +2.18020E+00 -6.77857E+00
 +4.38802E+00 -5.59646E+00 +6.04751E+00 -3.72502E+00 +6.95475E+00 -1.39750E+00 +6.99940E+00 +1.09705E+00
 +6.17812E+00 +3.44964E+00 +4.59466E+00 +5.36960E+00 +2.44682E+00 +6.62051E+00 +1.69472E-03 +7.04933E+00
 -2.43750E+00 +6.60507E+00 -4.56906E+00 +5.34487E+00 -6.13007E+00 +3.42667E+00 -6.92887E+00 +1.08941E+00
 -6.86856E+00 -1.37674E+00 -5.95876E+00 -3.66641E+00 -4.31414E+00 -5.49679E+00 -2.13999E+00 -6.64262E+00
 +2.93416E-01 -6.96388E+00 +2.68442E+00 -6.42290E+00 +4.73736E+00 -5.08876E+00 +6.19914E+00 -3.12849E+00
 +6.89041E+00 -7.86148E-01 +6.72759E+00 +1.64756E+00 +5.73299E+00 +3.87136E+00 +4.03170E+00 +5.61069E+00
 +1.83597E+00 +6.65161E+00 -5.81368E-01 +6.86710E+00 -2.92072E+00 +6.23260E+00 -4.89290E+00 +4.82871E+00
 -6.25489E+00 +2.83104E+00 -6.83972E+00 +4.88173E-01 -6.57700E+00 -1.90920E+00 -5.50137E+00 -4.06438E+00
 -3.74792E+00 -5.71139E+00 -1.53525E+00 -6.64776E+00 +8.61776E-01 -6.75945E+00 +3.14618E+00 -6.03472E+00
 +5.03567E+00 -4.56531E+00 +6.29751E+00 -2.53485E+00 +6.77717E+00 -1.95935E-01 +6.41729E+00 +2.16135E+00
 +5.26449E+00 +4.24536E+00 +3.46337E+00 +5.79898E+00 +1.23834E+00 +6.63137E+00 -1.13428E+00 +6.64137E+00
 -3.36063E+00 +5.82980E+00 -5.16569E+00 +4.29912E+00 -6.32721E+00 +2.24048E+00 -6.70315E+00 -9.01387E-02
 -6.24895E+00 -2.40376E+00 -5.02290E+00 -4.41423E+00 -3.17860E+00 -5.87361E+00 -9.45727E-01 -6.60275E+00
 +1.39853E+00 -6.51331E+00 +3.56390E+00 -5.61839E+00 +5.28298E+00 -4.03072E+00 +6.34424E+00 -1.94844E+00
 +6.61805E+00 +3.69643E-01 +6.07252E+00 +2.63618E+00 +4.77718E+00 +4.57093E+00 +2.89416E+00 +5.93540E+00
 +6.57857E-01 +6.56223E+00 -1.65421E+00 +6.37574E+00 -3.75585E+00 +5.40104E+00 -5.38761E+00 +3.76067E+00
 -6.34883E+00 +1.65922E+00 -6.52228E+00 -6.42194E-01 -5.88849E+00 -2.85840E+00 -4.52788E+00 -4.71545E+00
 -2.61059E+00 -5.98454E+00 -3.75176E-01 -6.51016E+00 +1.90103E+00 -6.22914E+00 +3.93637E+00 -5.17829E+00
 +5.47967E+00 -3.48952E+00 +6.34126E+00 -1.37333E+00 +6.41626E+00 +9.07430E-01 +5.69739E+00 +3.07021E+00
 +4.27555E+00 +4.84778E+00 +2.32840E+00 +6.02121E+00 +9.81046E-02 +6.44688E+00 -2.13873E+00 +6.07399E+00
 -4.10538E+00 +4.95068E+00 -5.55926E+00 +3.21780E+00 -6.32181E+00 +1.09122E+00 -6.30043E+00 -1.16501E+00
 -5.49975E+00 -3.27146E+00 -4.02075E+00 -4.96794E+00 -2.04810E+00 -6.04563E+00 +1.72956E-01 -6.37277E+00
 +2.36704E+00 -5.91077E+00 +4.26281E+00 -4.71877E+00 +5.62651E+00 -2.94604E+00 +6.29079E+00 -8.13342E-01
 +6.17523E+00 +1.41462E+00 +5.29608E+00 +3.46199E+00 +3.76401E+00 +5.07598E+00 +1.77017E+00 +6.05802E+00
 -4.37626E-01 +6.28821E+00 -2.58575E+00 +5.73997E+00 -4.40862E+00 +4.48307E+00 -5.68157E+00 +2.67477E+00
 -6.24851E+00 +5.40138E-01 -6.04109E+00 -1.65595E+00 -5.08690E+00 -3.64169E+00 -3.50585E+00 -5.17196E+00
 -1.49510E+00 -6.05862E+00 +6.95545E-01 -6.19360E+00 +2.79466E+00 -5.56209E+00 +4.54280E+00 -4.24413E+00
 +5.72461E+00 -2.40448E+00 +6.19531E+00 -2.72018E-01 +5.89847E+00 +1.88874E+00 +4.87274E+00 +3.81044E+00
 +3.24682E+00 +5.25597E+00 +1.22335E+00 +6.04770E+00 -9.46375E-01 +6.08934E+00 -2.99358E+00 +5.37762E+00
 -4.66534E+00 +4.00248E+00 -5.75581E+00 +2.13568E+00 -6.13153E+00 +9.37751E-03 -5.74785E+00 -2.11274E+00
 -4.65411E+00 -3.96819E+00 -2.98741E+00 -5.32811E+00 -9.55343E-01 -6.02553E+00 +1.18980E+00 -5.97584E+00
 +3.18237E+00 -5.18706E+00 +4.77629E+00 -3.75862E+00 +5.77537E+00 -1.86882E+00 +6.05754E+00 +2.47406E-01
 +5.58967E+00 +2.32772E+00 +4.43153E+00 +4.11487E+00 +2.72812E+00 +5.38852E+00 +6.91520E-01 +5.99242E+00
 -1.42551E+00 +5.85353E+00 -3.36090E+00 +4.99091E+00 -4.87568E+00 +3.51308E+00 -5.78353E+00 +1.60439E+00
 -5.97369E+00 -4.97977E-01 -5.42441E+00 -2.53347E+00 -4.20552E+00 -4.25045E+00 -2.46946E+00 -5.43735E+00
 -4.32283E-01 -5.94866E+00 +1.65325E+00 -5.72284E+00 +3.52904E+00 -4.78967E+00 +4.96358E+00 -3.26636E+00
 +5.78053E+00 -1.34282E+00 +5.88036E+00 +7.41998E-01 +5.25255E+00 +2.72980E+00 +3.97657E+00 +4.37493E+00
 +2.21189E+00 +5.47475E+00 +1.78024E-01 +5.89459E+00 -1.87276E+00 +5.58420E+00 -3.68673E+00 +4.58383E+00
 -5.04009E+00 +3.01895E+00 -5.76660E+00 +1.08455E+00 -5.77796E+00 -9.79151E-01 -5.07455E+00 -2.91655E+00
 -3.74518E+00 -4.48831E+00 -1.95587E+00 -5.50092E+00 +7.08877E-02 -5.83052E+00 +2.08379E+00 -5.43806E+00
 +3.83388E+00 -4.37389E+00 +5.10532E+00 -2.77134E+00 +5.74204E+00 -8.29999E-01 +5.66687E+00 +1.20914E+00
 +4.89089E+00 +3.09359E+00 +3.51186E+00 +4.59063E+00 +1.70187E+00 +5.51606E+00 -3.14097E-01 +5.75682E+00
 -2.28615E+00 +5.28485E+00 -3.97046E+00 +4.16034E+00 -5.15939E+00 +2.52401E+00 -5.70712E+00 +5.79564E-01
 -5.54750E+00 -1.43169E+00 -4.70206E+00 -3.26080E+00 -3.27709E+00 -4.68195E+00 -1.45032E+00 -5.52037E+00
 +5.51271E-01 -5.67382E+00 +2.47964E+00 -5.12503E+00 +4.09644E+00 -3.94365E+00 +5.20245E+00 -2.27741E+00
 +5.66214E+00 -3.33628E-01 +5.42026E+00 +1.64654E+00 +4.50851E+00 +3.41806E+00 +3.04134E+00 +4.76232E+00
 +1.20164E+00 +5.51411E+00 -7.82092E-01 +5.58191E+00 -2.66410E+00 +4.95906E+00 -4.21182E+00 +3.72433E+00
 -5.23467E+00 +2.03200E+00 -5.60741E+00 +9.25597E-02 -5.28558E+00 -1.85346E+00 -4.31073E+00 -3.56532E+00
 -2.80508E+00 -4.83186E+00 -9.56232E-01 -5.49751E+00 +1.00627E+00 -5.48145E+00 +2.83936E+00 -4.78737E+00
 +4.31663E+00 -3.50283E+00 +5.25622E+00 -1.78822E+00 +5.54325E+00 +1.43293E-01 +5.14386E+00 +2.05223E+00
 +4.10918E+00 +3.70252E+00 +2.56879E+00 +4.89066E+00 +7.14501E-01 +5.47084E+00 -1.22351E+00 +5.37282E+00
 -3.00532E+00 +4.61043E+00 -4.41089E+00 +3.27964E+00 -5.26730E+00 +1.54650E+00 -5.47000E+00 -3.73599E-01
 -4.99555E+00 -2.24266E+00 -3.90434E+00 -3.82961E+00 -2.33290E+00 -4.93885E+00 -4.76819E-01 -5.43437E+00
 +1.43358E+00 -5.25642E+00 +3.16185E+00 -4.42869E+00 +4.49466E+00 -3.05520E+00 +5.26813E+00 -1.30724E+00
 +5.38799E+00 +5.98044E-01 +4.84106E+00 +2.42457E+00 +3.69666E+00 +3.94658E+00 +2.09785E+00 +4.97659E+00
 +2.43548E-01 +5.38840E+00 -1.63622E+00 +5.13263E+00 -3.30888E+00 +4.24260E+00 -4.56802E+00 +2.82999E+00
 -5.25894E+00 +1.07085E+00 -5.29759E+00 -8.16333E-01 -4.68083E+00 -2.59780E+00 -3.48660E+00 -4.05345E+00
 -1.86407E+00 -5.00403E+00 -1.50310E-02 -5.33322E+00 +1.83123E+00 -5.00187E+00 +3.44633E+00 -4.05261E+00
 +4.63106E+00 -2.60443E+00 +5.23996E+00 -8.37717E-01 +5.19914E+00 +1.02819E+00 +4.51529E+00 +2.76223E+00
 +3.27462E+00 +4.15022E+00 +1.63198E+00 +5.02135E+00 -2.08404E-01 +5.26915E+00 -2.01839E+00 +4.86453E+00
 -3.57416E+00 +3.85918E+00 -4.68390E+00 +2.37897E+00 -5.21145E+00 +6.08205E-01 -5.09303E+00 -1.23335E+00
 -4.34488E+00 -2.91773E+00 -3.06116E+00 -4.23694E+00 -1.40199E+00 -5.02874E+00 +4.26445E-01 -5.19649E+00
 +2.19754E+00 -4.72102E+00 +3.69235E+00 -3.66274E+00 +4.72666E+00 -2.15404E+00 +5.17369E+00 -3.82671E-01
 +4.97960E+00 +1.43159E+00 +4.17003E+00 +3.06421E+00 +2.84666E+00 +4.31368E+00 +1.17447E+00 +5.02642E+00
 -6.38800E-01 +5.11560E+00 -2.36850E+00 +4.57175E+00 -3.80087E+00 +3.46374E+00 -4.75948E+00 +1.93005E+00
 -5.12694E+00 +1.61454E-01 -4.85926E+00 -1.62267E+00 -3.99117E+00 -3.20159E+00 -2.63155E+00 -4.38051E+00
 -9.49813E-01 -5.01460E+00 +8.45192E-01 -5.02679E+00 +2.53114E+00 -4.41713E+00 +3.89975E+00 -3.26261E+00
 +4.78253E+00 -1.70739E+00 +5.07149E+00 +5.51214E-02 +4.73238E+00 +1.80639E+00 +3.80873E+00 +3.32982E+00
