 Created: 16-Jan-2021
 $NMID
 ID='D:\BASISSIMULATI'
 FMTDAT='(8E13.5)'
 VOLUME=   1.00000E+00
 TRAMP=   1.00000E+00
 $END
 +7.14128E+01 +7.04898E-02 +6.62761E+01 +2.47823E+01 +5.21008E+01 +4.53425E+01 +3.14475E+01 +5.84850E+01
 +7.98523E+00 +6.23486E+01 -1.42243E+01 +5.68046E+01 -3.15094E+01 +4.34394E+01 -4.12792E+01 +2.52010E+01
 -4.24868E+01 +5.78317E+00 -3.57730E+01 -1.11221E+01 -2.32692E+01 -2.25522E+01 -8.10600E+00 -2.68320E+01
 +6.26705E+00 -2.38544E+01 +1.68051E+01 -1.50287E+01 +2.14852E+01 -2.91751E+00 +1.96911E+01 +9.35730E+00
 +1.22885E+01 +1.88093E+01 +1.38356E+00 +2.32348E+01 -1.01816E+01 +2.16762E+01 -1.94813E+01 +1.46053E+01
 -2.41665E+01 +3.79174E+00 -2.29904E+01 -8.11180E+00 -1.60865E+01 -1.81752E+01 -4.94167E+00 -2.38553E+01
 +7.93033E+00 -2.35745E+01 +1.95419E+01 -1.70886E+01 +2.70931E+01 -5.56418E+00 +2.85978E+01 +8.65364E+00
 +2.33394E+01 +2.25320E+01 +1.20571E+01 +3.29980E+01 -3.18036E+00 +3.76034E+01 -1.93880E+01 +3.50661E+01
 -3.32808E+01 +2.55693E+01 -4.19624E+01 +1.07545E+01 -4.35424E+01 -6.59465E+00 -3.75496E+01 -2.31140E+01
 -2.50542E+01 -3.55491E+01 -8.46792E+00 -4.14315E+01 +8.93592E+00 -3.95995E+01 +2.36876E+01 -3.04522E+01
 +3.28325E+01 -1.58837E+01 +3.45422E+01 +1.09228E+00 +2.84988E+01 +1.69514E+01 +1.59702E+01 +2.83762E+01
 -4.38441E-01 +3.29358E+01 -1.73089E+01 +2.95856E+01 -3.11013E+01 +1.88874E+01 -3.88719E+01 +2.90060E+00
 -3.88706E+01 -1.52300E+01 -3.08946E+01 -3.19076E+01 -1.63289E+01 -4.38065E+01 +2.13619E+00 -4.85380E+01
 +2.10487E+01 -4.51227E+01 +3.68898E+01 -3.41745E+01 +4.67745E+01 -1.77617E+01 +4.90168E+01 +1.02542E+00
 +4.34448E+01 +1.87073E+01 +3.14038E+01 +3.21172E+01 +1.54506E+01 +3.90276E+01 -1.19270E+00 +3.85735E+01
 -1.53107E+01 +3.13876E+01 -2.43511E+01 +1.94246E+01 -2.69289E+01 +5.51559E+00 -2.30766E+01 -7.25074E+00
 -1.41910E+01 -1.61870E+01 -2.69298E+00 -1.95673E+01 +8.52393E+00 -1.69724E+01 +1.67367E+01 -9.34767E+00
 +1.99895E+01 +1.23306E+00 +1.75165E+01 +1.20462E+01 +9.90196E+00 +2.03344E+01 -1.05583E+00 +2.39261E+01
 -1.27465E+01 +2.17267E+01 -2.23281E+01 +1.39741E+01 -2.73617E+01 +2.20339E+00 -2.63632E+01 -1.10713E+01
 -1.91537E+01 -2.28926E+01 -6.93109E+00 -3.04987E+01 +7.95350E+00 -3.19298E+01 +2.24710E+01 -2.64724E+01
 +3.35414E+01 -1.48459E+01 +3.86824E+01 +9.11771E-01 +3.65432E+01 +1.78364E+01 +2.72093E+01 +3.26301E+01
 +1.22142E+01 +4.23312E+01 -5.74824E+00 +4.49230E+01 -2.33524E+01 +3.97543E+01 -3.73036E+01 +2.76843E+01
 -4.49977E+01 +1.09210E+01 -4.50432E+01 -7.41648E+00 -3.75376E+01 -2.39192E+01 -2.40421E+01 -3.55693E+01
 -7.25931E+00 -4.03381E+01 +9.51808E+00 -3.75814E+01 +2.30743E+01 -2.81504E+01 +3.09160E+01 -1.41977E+01
 +3.17638E+01 +1.27910E+00 +2.57898E+01 +1.50621E+01 +1.45548E+01 +2.43743E+01 +6.60631E-01 +2.74418E+01
 -1.28074E+01 +2.38411E+01 -2.29312E+01 +1.45621E+01 -2.75671E+01 +1.77622E+00 -2.57833E+01 -1.16389E+01
 -1.80386E+01 -2.27171E+01 -6.06740E+00 -2.90329E+01 +7.50356E+00 -2.92105E+01 +1.97222E+01 -2.32064E+01
 +2.79430E+01 -1.23081E+01 +3.03892E+01 +1.14839E+00 +2.65280E+01 +1.42822E+01 +1.71797E+01 +2.42842E+01
 +4.33986E+00 +2.90158E+01 -9.24759E+00 +2.74640E+01 -2.06750E+01 +1.99568E+01 -2.74895E+01 +8.09398E+00
 -2.82154E+01 -5.59160E+00 -2.26687E+01 -1.81702E+01 -1.19991E+01 -2.69358E+01 +1.54947E+00 -2.99797E+01
 +1.51108E+01 -2.65970E+01 +2.57994E+01 -1.74397E+01 +3.13192E+01 -4.38367E+00 +3.04492E+01 +9.86120E+00
 +2.33048E+01 +2.23179E+01 +1.13182E+01 +3.03660E+01 -3.05626E+00 +3.22922E+01 -1.68522E+01 +2.76518E+01
 -2.72088E+01 +1.73662E+01 -3.19678E+01 +3.53399E+00 -3.01242E+01 -1.10020E+01 -2.20379E+01 -2.32451E+01
 -9.36053E+00 -3.06657E+01 +5.30578E+00 -3.17269E+01 +1.89472E+01 -2.62026E+01 +2.87622E+01 -1.52231E+01
 +3.27401E+01 -1.04033E+00 +3.00755E+01 +1.34406E+01 +2.13303E+01 +2.52629E+01 +8.31355E+00 +3.20293E+01
 -6.29870E+00 +3.23946E+01 -1.95204E+01 +2.63384E+01 -2.86752E+01 +1.51611E+01 -3.19480E+01 +1.20656E+00
 -2.87556E+01 -1.26314E+01 -1.98579E+01 -2.35136E+01 -7.19010E+00 -2.92454E+01 +6.55031E+00 -2.87284E+01
 +1.84722E+01 -2.21816E+01 +2.60970E+01 -1.10849E+01 +2.78751E+01 +2.14012E+00 +2.35050E+01 +1.46453E+01
 +1.39886E+01 +2.37575E+01 +1.41344E+00 +2.75412E+01 -1.14932E+01 +2.52031E+01 -2.19420E+01 +1.72557E+01
 -2.76718E+01 +5.40555E+00 -2.74259E+01 -7.80974E+00 -2.12172E+01 -1.95582E+01 -1.03254E+01 -2.73116E+01
 +2.97267E+00 -2.93789E+01 +1.58808E+01 -2.52639E+01 +2.56713E+01 -1.57709E+01 +3.02581E+01 -2.83893E+00
 +2.86347E+01 +1.08633E+01 +2.10872E+01 +2.24938E+01 +9.13643E+00 +2.96314E+01 -4.77799E+00 +3.07800E+01
 -1.78046E+01 +2.56814E+01 -2.72730E+01 +1.53681E+01 -3.12476E+01 +1.94871E+00 -2.89284E+01 -1.18316E+01
 -2.08139E+01 -2.31612E+01 -8.59346E+00 -2.97448E+01 +5.20686E+00 -3.02770E+01 +1.77522E+01 -2.47080E+01
 +2.64881E+01 -1.42475E+01 +2.96694E+01 -1.10586E+00 +2.67173E+01 +1.19715E+01 +1.83322E+01 +2.22793E+01
 +6.33884E+00 +2.77157E+01 -6.70299E+00 +2.72172E+01 -1.80388E+01 +2.09740E+01 -2.52981E+01 +1.03813E+01
 -2.69898E+01 -2.26072E+00 -2.28108E+01 -1.42365E+01 -1.37035E+01 -2.29889E+01 -1.65182E+00 -2.66583E+01
 +1.07414E+01 -2.44725E+01 +2.08065E+01 -1.69076E+01 +2.63711E+01 -5.58459E+00 +2.62198E+01 +7.07391E+00
 +2.03503E+01 +1.83561E+01 +9.97561E+00 +2.58334E+01 -2.73061E+00 +2.78740E+01 -1.50901E+01 +2.39879E+01
 -2.44828E+01 +1.49335E+01 -2.88971E+01 +2.56110E+00 -2.73542E+01 -1.05716E+01 -2.01154E+01 -2.17330E+01
 -8.63131E+00 -2.85883E+01 +4.75814E+00 -2.96868E+01 +1.73090E+01 -2.47661E+01 +2.64430E+01 -1.48079E+01
 +3.02826E+01 -1.83523E+00 +2.80402E+01 +1.15065E+01 +2.01802E+01 +2.24981E+01 +8.32094E+00 +2.89088E+01
 -5.10270E+00 +2.94564E+01 -1.73451E+01 +2.40692E+01 -2.59188E+01 +1.38960E+01 -2.91075E+01 +1.06267E+00
 -2.63169E+01 -1.17729E+01 -1.81913E+01 -2.19742E+01 -6.47146E+00 -2.74723E+01 +6.37347E+00 -2.71916E+01
 +1.76646E+01 -2.12658E+01 +2.50723E+01 -1.10011E+01 +2.70984E+01 +1.40426E+00 +2.33835E+01 +1.33259E+01
 +1.47730E+01 +2.22645E+01 +3.13197E+00 +2.63684E+01 -9.05273E+00 +2.48168E+01 -1.91987E+01 +1.79861E+01
 -2.51711E+01 +7.36288E+00 -2.57295E+01 -4.77468E+00 -2.07842E+01 -1.58407E+01 -1.14107E+01 -2.34879E+01
 +3.82606E-01 -2.61023E+01 +1.20806E+01 -2.31410E+01 +2.11946E+01 -1.52439E+01 +2.57876E+01 -4.09671E+00
 +2.48827E+01 +7.92754E+00 +1.86690E+01 +1.82698E+01 +8.46102E+00 +2.47260E+01 -3.57855E+00 +2.59123E+01
 -1.48943E+01 +2.15578E+01 -2.30767E+01 +1.25634E+01 -2.63701E+01 +8.13750E-01 -2.40434E+01 -1.12171E+01
 -1.65465E+01 -2.09844E+01 -5.41911E+00 -2.64070E+01 +7.02936E+00 -2.63046E+01 +1.82007E+01 -2.06473E+01
 +2.57499E+01 -1.05653E+01 +2.80751E+01 +1.88461E+00 +2.46525E+01 +1.41447E+01 +1.61469E+01 +2.36873E+01
 +4.27538E+00 +2.85395E+01 -8.54847E+00 +2.76920E+01 -1.97139E+01 +2.13073E+01 -2.69530E+01 +1.06855E+01
 -2.88083E+01 -2.00715E+00 -2.49314E+01 -1.41878E+01 -1.61505E+01 -2.33915E+01 -4.29367E+00 -2.77794E+01
 +8.19367E+00 -2.65148E+01 +1.87583E+01 -1.99301E+01 +2.52680E+01 -9.44912E+00 +2.64497E+01 +2.71571E+00
 +2.21467E+01 +1.40287E+01 +1.33417E+01 +2.21606E+01 +1.94240E+00 +2.54715E+01 -9.62440E+00 +2.33475E+01
 -1.89248E+01 +1.63196E+01 -2.40276E+01 +5.94355E+00 -2.39061E+01 -5.53506E+00 -1.86472E+01 -1.56582E+01
 -9.42597E+00 -2.22745E+01 +1.74850E+00 -2.39923E+01 +1.24620E+01 -2.04693E+01 +2.04073E+01 -1.24815E+01
 +2.38728E+01 -1.75540E+00 +2.21033E+01 +9.39952E+00 +1.54594E+01 +1.85804E+01 +5.34070E+00 +2.37999E+01
 -6.10942E+00 +2.39066E+01 -1.64559E+01 +1.88298E+01 -2.34856E+01 +9.59604E+00 -2.56740E+01 -1.88450E+00
 -2.25079E+01 -1.32179E+01 -1.45956E+01 -2.20283E+01 -3.54260E+00 -2.64556E+01 +8.38257E+00 -2.55468E+01
 +1.87207E+01 -1.94566E+01 +2.53351E+01 -9.41708E+00 +2.68567E+01 +2.51745E+00 +2.29704E+01 +1.38976E+01
 +1.44801E+01 +2.23882E+01 +3.14189E+00 +2.62530E+01 -8.70194E+00 +2.47154E+01 -1.86095E+01 +1.81177E+01
 -2.45465E+01 +7.84804E+00 -2.53073E+01 -3.94981E+00 -2.07625E+01 -1.48238E+01 -1.18830E+01 -2.25235E+01
 -5.33726E-01 -2.54660E+01 +1.09166E+01 -2.30626E+01 +2.00895E+01 -1.58366E+01 +2.50914E+01 -5.30954E+00
 +2.49044E+01 +6.31970E+00 +1.95939E+01 +1.66355E+01 +1.02893E+01 +2.35091E+01 -1.05684E+00 +2.55406E+01
 -1.20803E+01 +2.23457E+01 -2.05001E+01 +1.46309E+01 -2.45940E+01 +4.03903E+00 -2.35550E+01 -7.19917E+00
 -1.76540E+01 -1.67346E+01 -8.17744E+00 -2.25924E+01 +2.84855E+00 -2.35829E+01 +1.30869E+01 -1.95474E+01
 +2.03822E+01 -1.13853E+01 +2.32123E+01 -8.60546E-01 +2.10063E+01 +9.77393E+00 +1.42607E+01 +1.82523E+01
 +4.43096E+00 +2.27736E+01 -6.37772E+00 +2.23801E+01 -1.58563E+01 +1.71575E+01 -2.19794E+01 +8.21525E+00
 -2.34321E+01 -2.54823E+00 -1.98876E+01 -1.28465E+01 -1.20758E+01 -2.04871E+01 -1.63093E+00 -2.38331E+01
 +9.25174E+00 -2.21489E+01 +1.82765E+01 -1.57558E+01 +2.35290E+01 -5.96655E+00 +2.38785E+01 +5.18807E+00
 +1.92161E+01 +1.53832E+01 +1.04790E+01 +2.24852E+01 -5.43060E-01 +2.49977E+01 -1.15802E+01 +2.23739E+01
 -2.03543E+01 +1.51312E+01 -2.50525E+01 +4.74415E+00 -2.47036E+01 -6.66232E+00 -1.93786E+01 -1.67541E+01
 -1.01741E+01 -2.34723E+01 +1.01688E+00 -2.54587E+01 +1.18998E+01 -2.23354E+01 +2.02554E+01 -1.47794E+01
 +2.43989E+01 -4.37738E+00 +2.35270E+01 +6.70753E+00 +1.78795E+01 +1.61877E+01 +8.68354E+00 +2.21269E+01
 -2.10772E+00 +2.33408E+01 -1.22263E+01 +1.96386E+01 -1.95643E+01 +1.18566E+01 -2.26130E+01 +1.67731E+00
 -2.07743E+01 -8.72798E+00 -1.44810E+01 -1.71563E+01 -5.10017E+00 -2.18349E+01 +5.35849E+00 -2.17913E+01
 +1.46677E+01 -1.70534E+01 +2.08514E+01 -8.63980E+00 +2.25995E+01 +1.65827E+00 +1.95413E+01 +1.16558E+01
 +1.23206E+01 +1.92349E+01 +2.45845E+00 +2.27898E+01 -7.96857E+00 +2.15639E+01 -1.67658E+01 +1.58069E+01
 -2.20815E+01 +6.72161E+00 -2.27956E+01 -3.79034E+00 -1.87538E+01 -1.35280E+01 -1.07991E+01 -2.04531E+01
 -5.93825E-01 -2.31173E+01 +9.72897E+00 -2.09653E+01 +1.80132E+01 -1.44498E+01 +2.25312E+01 -4.93601E+00
 +2.23445E+01 +5.58510E+00 +1.74996E+01 +1.49144E+01 +9.01696E+00 +2.11048E+01 -1.32386E+00 +2.28681E+01
 -1.13573E+01 +1.98435E+01 -1.89851E+01 +1.26721E+01 -2.26151E+01 +2.86082E+00 -2.14931E+01 -7.53337E+00
