 Created: 16-Jan-2021
 $NMID
 ID='D:\BASISSIMULATI'
 FMTDAT='(8E13.5)'
 VOLUME=   1.00000E+00
 TRAMP=   1.00000E+00
 $END
 +4.48831E+01 +4.95262E-02 +3.56022E+01 +9.57258E+00 +1.46238E+01 +1.93721E+01 -4.54988E+00 +2.63343E+01
 -1.22160E+01 +2.52645E+01 -8.77504E+00 +1.47615E+01 -1.72363E+00 +6.36307E-01 +2.27710E+00 -7.80810E+00
 +2.11324E+00 -5.62741E+00 +3.58068E-01 +3.54225E+00 -1.24204E+00 +1.11111E+01 -3.26373E+00 +1.12323E+01
 -6.21885E+00 +4.98578E+00 -8.40096E+00 -2.31056E+00 -7.33267E+00 -6.80194E+00 -3.08140E+00 -8.62945E+00
 +1.11116E+00 -9.63987E+00 +2.31282E+00 -1.01932E+01 +1.60758E+00 -9.19925E+00 +3.28740E+00 -6.70844E+00
 +9.85559E+00 -4.86916E+00 +1.83705E+01 -5.28773E+00 +2.26655E+01 -5.96303E+00 +1.95018E+01 -2.35744E+00
 +1.20129E+01 +7.46808E+00 +6.47173E+00 +1.91668E+01 +5.73835E+00 +2.48197E+01 +6.53914E+00 +2.02790E+01
 +3.58248E+00 +9.74197E+00 -4.07576E+00 +2.29572E+00 -1.15425E+01 +3.37727E+00 -1.31834E+01 +9.66211E+00
 -8.66816E+00 +1.26191E+01 -3.26943E+00 +7.11526E+00 -2.12593E+00 -3.63173E+00 -4.85679E+00 -1.14641E+01
 -6.42739E+00 -1.11416E+01 -3.14421E+00 -4.64174E+00 +2.99225E+00 +1.73070E+00 +6.38635E+00 +3.49523E+00
 +3.99144E+00 +9.34570E-01 -1.26607E+00 -3.11898E+00 -3.36683E+00 -6.79566E+00 +9.25295E-01 -9.67560E+00
 +9.37543E+00 -1.06260E+01 +1.69831E+01 -7.01980E+00 +2.04034E+01 +2.58021E+00 +1.93187E+01 +1.52030E+01
 +1.44023E+01 +2.42730E+01 +5.68679E+00 +2.47722E+01 -6.01748E+00 +1.77607E+01 -1.68118E+01 +9.28710E+00
 -2.07781E+01 +4.56109E+00 -1.49662E+01 +3.48591E+00 -3.41157E+00 +2.19670E+00 +5.00357E+00 -1.44969E+00
 +3.97560E+00 -4.91101E+00 -4.46755E+00 -4.04480E+00 -1.18866E+01 +1.31124E+00 -1.14411E+01 +5.94650E+00
 -4.09119E+00 +4.21347E+00 +3.08347E+00 -3.80026E+00 +4.37554E+00 -1.17082E+01 +8.66517E-01 -1.28341E+01
 -1.52043E+00 -6.64264E+00 +1.32454E+00 +1.07016E+00 +7.62377E+00 +4.23921E+00 +1.21308E+01 +2.34688E+00
 +1.17483E+01 +1.20278E-01 +8.05759E+00 +2.01193E+00 +4.56725E+00 +7.68931E+00 +2.53107E+00 +1.30222E+01
 +2.75179E-01 +1.47138E+01 -3.69629E+00 +1.31002E+01 -8.10883E+00 +1.04799E+01 -1.02049E+01 +7.79827E+00
 -9.23284E+00 +4.05587E+00 -7.57920E+00 -1.10265E+00 -7.84745E+00 -5.45094E+00 -9.34339E+00 -5.99763E+00
 -8.51867E+00 -2.75008E+00 -3.34172E+00 +3.72568E-01 +3.40945E+00 -6.56440E-01 +6.22620E+00 -5.30255E+00
 +2.61343E+00 -8.46151E+00 -3.74491E+00 -5.79086E+00 -6.26524E+00 +1.14145E+00 -2.06310E+00 +5.79451E+00
 +5.11791E+00 +3.23391E+00 +8.86651E+00 -4.40009E+00 +6.74429E+00 -9.48601E+00 +2.48267E+00 -6.21082E+00
 +1.47706E+00 +3.82395E+00 +4.62090E+00 +1.32819E+01 +7.23940E+00 +1.60574E+01 +4.21153E+00 +1.23076E+01
 -4.35052E+00 +6.89450E+00 -1.29257E+01 +3.74827E+00 -1.58801E+01 +2.50877E+00 -1.24766E+01 +4.98877E-01
 -6.62982E+00 -3.11660E+00 -2.42617E+00 -6.13706E+00 -6.79145E-01 -6.19485E+00 +1.78787E-01 -3.82573E+00
 +9.38168E-01 -1.87339E+00 +5.55405E-01 -2.04432E+00 -1.64873E+00 -2.97744E+00 -3.84728E+00 -2.28855E+00
 -3.01697E+00 -3.67386E-02 +1.37559E+00 +8.96647E-01 +5.87115E+00 -1.63011E+00 +6.19020E+00 -5.67709E+00
 +2.02827E+00 -6.49849E+00 -2.05182E+00 -1.62623E+00 -1.22297E+00 +5.81284E+00 +4.16454E+00 +9.68409E+00
 +8.37936E+00 +7.03999E+00 +6.01087E+00 +1.32418E+00 -2.26256E+00 -1.11442E+00 -1.00279E+01 +2.29215E+00
 -1.13906E+01 +7.54267E+00 -6.62235E+00 +8.21132E+00 -1.39360E+00 +2.16395E+00 -6.57873E-01 -6.20807E+00
 -3.80455E+00 -1.04184E+01 -5.99180E+00 -8.13269E+00 -3.74827E+00 -2.79314E+00 +1.42001E+00 +5.36632E-01
 +5.02406E+00 +1.85424E-01 +4.48295E+00 -1.48130E+00 +1.38575E+00 -1.69804E+00 -9.21156E-01 -5.13629E-01
 -1.08730E+00 -2.28697E-02 -4.57569E-01 -1.13620E+00 -4.34614E-01 -2.22006E+00 -2.97554E-01 -1.30413E+00
 +1.58380E+00 +1.08861E+00 +4.76872E+00 +2.30713E+00 +6.16474E+00 +9.45336E-01 +3.22320E+00 -9.54163E-01
 -2.58635E+00 +2.13679E-02 -6.47015E+00 +4.31552E+00 -5.08735E+00 +7.97015E+00 -3.50640E-01 +6.37364E+00
 +2.26218E+00 -5.06852E-01 -4.98348E-01 -7.30046E+00 -5.92069E+00 -8.24374E+00 -7.92818E+00 -3.01304E+00
 -3.48445E+00 +2.85521E+00 +3.98453E+00 +3.57697E+00 +7.89000E+00 -1.06456E+00 +5.07820E+00 -5.76556E+00
 -1.18224E+00 -5.40702E+00 -4.79089E+00 -2.76091E-01 -2.96859E+00 +4.57213E+00 +1.48177E+00 +4.75837E+00
 +3.74734E+00 +8.25166E-01 +2.10473E+00 -2.96436E+00 -9.14677E-01 -3.39407E+00 -1.96137E+00 -1.19262E+00
 -5.48483E-01 +6.97436E-01 +1.08028E+00 +8.27567E-01 +1.14093E+00 +4.27963E-01 +3.54247E-01 +1.07623E+00
 +4.64827E-01 +2.21527E+00 +1.44365E+00 +1.84331E+00 +1.23312E+00 -5.15413E-01 -1.40481E+00 -2.54221E+00
 -4.53804E+00 -1.59148E+00 -4.58724E+00 +1.81338E+00 -4.78022E-01 +3.88294E+00 +4.39534E+00 +1.58447E+00
 +5.20390E+00 -3.52361E+00 +8.58736E-01 -6.28903E+00 -4.39244E+00 -3.25979E+00 -5.11391E+00 +3.29882E+00
 -4.23834E-01 +7.27314E+00 +4.86164E+00 +4.81995E+00 +5.11943E+00 -1.64873E+00 -2.22247E-01 -5.90026E+00
 -6.05122E+00 -4.21609E+00 -6.80470E+00 +1.02238E+00 -2.00883E+00 +4.12445E+00 +3.58876E+00 +2.07167E+00
 +5.10355E+00 -2.67872E+00 +2.21907E+00 -5.21434E+00 -1.23876E+00 -3.36256E+00 -1.80430E+00 +5.45457E-01
 +2.61752E-01 +2.75433E+00 +2.10140E+00 +2.10496E+00 +1.93131E+00 +5.65973E-01 +7.50534E-01 +2.68334E-01
 +4.17713E-01 +9.89908E-01 +9.40790E-01 +1.02523E+00 +5.58012E-01 -4.85350E-02 -1.55092E+00 -5.26821E-01
 -3.57510E+00 +1.09014E+00 -2.91863E+00 +3.56096E+00 +3.79823E-01 +3.71731E+00 +2.95394E+00 +1.79729E-01
 +1.53656E+00 -4.33987E+00 -3.08291E+00 -5.33528E+00 -6.28845E+00 -1.38017E+00 -4.33922E+00 +3.80087E+00
 +1.37138E+00 +4.78473E+00 +5.35505E+00 +9.37758E-02 +3.61866E+00 -6.01141E+00 -2.03476E+00 -7.73261E+00
 -5.67859E+00 -3.63205E+00 -3.27200E+00 +1.99027E+00 +3.27358E+00 +3.66895E+00 +8.15167E+00 +3.99929E-01
 +7.50230E+00 -3.57779E+00 +2.86211E+00 -3.44280E+00 -1.08396E+00 +1.23757E+00 -1.56743E+00 +6.36326E+00
 -5.93782E-02 +7.70278E+00 +2.20237E-01 +4.86437E+00 -1.72692E+00 +8.76243E-01 -3.80443E+00 -1.45560E+00
 -3.65878E+00 -1.99374E+00 -1.54218E+00 -2.14548E+00 +1.81627E-01 -2.28248E+00 +2.49833E-02 -1.29503E+00
 -9.66036E-01 +1.22265E+00 -8.88852E-01 +3.30400E+00 +2.58017E-01 +2.17143E+00 +4.17543E-01 -2.36573E+00
 -1.64120E+00 -6.81581E+00 -3.97015E+00 -7.11676E+00 -2.96794E+00 -2.94503E+00 +2.40315E+00 +1.62763E+00
 +8.50796E+00 +2.24880E+00 +1.00093E+01 -1.06548E+00 +5.28230E+00 -3.86687E+00 -1.49599E+00 -2.05996E+00
 -4.18205E+00 +3.56023E+00 -7.29791E-01 +7.98042E+00 +4.78244E+00 +7.19805E+00 +6.30835E+00 +2.39123E+00
 +1.86320E+00 -1.42717E+00 -4.74449E+00 -7.35708E-01 -7.99325E+00 +2.95193E+00 -6.01827E+00 +4.98744E+00
 -1.78201E+00 +2.63496E+00 +6.16627E-01 -2.24147E+00 +7.82369E-02 -5.47000E+00 -1.22022E+00 -4.96173E+00
 -1.01341E+00 -2.36271E+00 +4.93055E-01 -6.00349E-01 +1.47333E+00 -5.90813E-01 +1.17862E+00 -8.93023E-01
 +8.59930E-01 -2.40206E-01 +1.81964E+00 +5.53161E-01 +3.29836E+00 -2.19523E-01 +3.20323E+00 -2.46498E+00
 +1.04238E+00 -3.72479E+00 -6.74398E-01 -1.81056E+00 +1.14138E+00 +2.38023E+00 +6.21762E+00 +5.46136E+00
 +1.01041E+01 +5.25763E+00 +8.08190E+00 +3.40554E+00 +9.32785E-02 +3.54586E+00 -8.58897E+00 +6.80046E+00
 -1.19943E+01 +9.69074E+00 -8.81034E+00 +7.34994E+00 -3.05570E+00 -9.71254E-01 +3.78931E-01 -1.00455E+01
 +4.18990E-01 -1.29091E+01 -1.22152E-01 -7.27111E+00 +1.33506E+00 +2.27038E+00 +3.78974E+00 +8.38008E+00
 +3.90137E+00 +7.31442E+00 +2.52637E-01 +1.37909E+00 -4.38583E+00 -4.21017E+00 -5.51388E+00 -6.19428E+00
 -1.47337E+00 -5.01258E+00 +4.81191E+00 -2.66176E+00 +8.69853E+00 -6.54784E-02 +8.08949E+00 +2.96931E+00
 +4.68987E+00 +5.93902E+00 +1.46862E+00 +7.08107E+00 -3.56289E-01 +5.28870E+00 -1.53120E+00 +2.12563E+00
 -2.65152E+00 +9.24731E-01 -2.94433E+00 +3.33563E+00 -1.66519E+00 +7.09899E+00 -9.29578E-02 +7.94906E+00
 -9.55563E-01 +4.01204E+00 -5.22347E+00 -2.00650E+00 -9.91673E+00 -5.41805E+00 -1.01484E+01 -4.29474E+00
 -4.02604E+00 -1.24840E+00 +4.66528E+00 -3.10337E-01 +9.34011E+00 -2.38066E+00 +6.65225E+00 -4.31294E+00
 -3.08227E-01 -2.64683E+00 -5.00648E+00 +2.20679E+00 -3.68526E+00 +6.05924E+00 +1.41658E+00 +5.29806E+00
 +4.86056E+00 +7.52975E-01 +3.61485E+00 -3.12984E+00 -3.33065E-01 -2.84705E+00 -2.62511E+00 +8.30130E-01
 -1.15314E+00 +4.18472E+00 +2.23067E+00 +4.77645E+00 +4.13771E+00 +3.78074E+00 +2.98399E+00 +4.05897E+00
 -3.13725E-01 +6.45123E+00 -4.24656E+00 +8.59673E+00 -8.23220E+00 +7.48799E+00 -1.18530E+01 +2.71630E+00
 -1.33764E+01 -3.17779E+00 -1.03752E+01 -7.30477E+00 -2.57495E+00 -8.75424E+00 +6.31296E+00 -8.19137E+00
 +1.06676E+01 -5.89370E+00 +7.67926E+00 -1.30608E+00 +9.32643E-02 +5.02580E+00 -6.09176E+00 +9.85951E+00
 -6.90819E+00 +8.99852E+00 -3.46226E+00 +1.53914E+00 +1.12248E-01 -7.84823E+00 +1.24595E+00 -1.18983E+01
 +1.03059E+00 -6.95962E+00 +1.86176E+00 +3.44430E+00 +3.77731E+00 +1.14608E+01 +3.99763E+00 +1.16886E+01
 +3.07782E-01 +5.50043E+00 -5.69278E+00 -9.69936E-01 -9.49128E+00 -2.76032E+00 -8.09248E+00 -1.16444E-02
 -3.26177E+00 +3.38323E+00 +3.88699E-02 +4.12664E+00 -1.48599E+00 +2.08974E+00 -6.31783E+00 -8.81925E-01
 -9.80255E+00 -3.56599E+00 -8.66629E+00 -6.03250E+00 -3.69040E+00 -8.10065E+00 +1.73044E+00 -8.28455E+00
 +4.94750E+00 -5.16872E+00 +5.62056E+00 +2.73284E-01 +4.50775E+00 +4.58973E+00 +1.86607E+00 +4.79279E+00
 -2.19866E+00 +1.38818E+00 -6.19062E+00 -2.00264E+00 -7.26520E+00 -2.31354E+00 -3.80036E+00 -1.07076E-01
 +2.11997E+00 +1.35240E+00 +5.67926E+00 +1.67802E-02 +3.61811E+00 -2.45694E+00 -2.33702E+00 -2.53205E+00
 -6.81261E+00 +1.04713E+00 -5.99923E+00 +5.46116E+00 -1.53653E+00 +6.52808E+00 +1.06816E+00 +3.02891E+00
 -1.94929E+00 -2.09561E+00 -8.64577E+00 -4.96864E+00 -1.30764E+01 -4.81279E+00 -1.08848E+01 -4.33485E+00
 -3.17942E+00 -6.13346E+00 +4.85162E+00 -9.27556E+00 +8.67731E+00 -9.98839E+00 +7.63343E+00 -5.80101E+00
 +4.03887E+00 +1.38482E+00 +1.98327E-01 +6.66352E+00 -3.08098E+00 +6.52222E+00 -5.45510E+00 +1.75702E+00
 -5.79901E+00 -3.76606E+00 -3.01948E+00 -6.72754E+00 +1.91562E+00 -6.49889E+00 +5.67041E+00 -4.24462E+00
 +5.15832E+00 -9.86981E-01 +6.45160E-01 +2.72816E+00 -4.19290E+00 +5.64472E+00 -5.70678E+00 +5.54344E+00
