 Created: 16-Jan-2021
 $NMID
 ID='D:\BASISSIMULATI'
 FMTDAT='(8E13.5)'
 VOLUME=   1.00000E+00
 TRAMP=   1.00000E+00
 $END
 +3.83777E+01 +4.18115E-02 +2.92078E+01 +9.15981E+00 +8.59503E+00 +1.65714E+01 -1.04837E+01 +1.98234E+01
 -1.82527E+01 +1.64119E+01 -1.43110E+01 +6.86769E+00 -5.51495E+00 -4.04606E+00 +1.19513E+00 -1.03860E+01
 +3.89497E+00 -9.93064E+00 +4.85355E+00 -5.92077E+00 +6.29241E+00 -3.49117E+00 +7.93890E+00 -4.24592E+00
 +8.44390E+00 -4.67551E+00 +7.92885E+00 -2.72059E-01 +7.98106E+00 +8.88624E+00 +9.04642E+00 +1.71226E+01
 +8.78119E+00 +1.81516E+01 +4.08535E+00 +1.11743E+01 -4.89653E+00 +1.83116E+00 -1.33705E+01 -3.06849E+00
 -1.53430E+01 -1.76897E+00 -8.97092E+00 +1.44363E+00 +1.54148E+00 +1.24243E+00 +9.57074E+00 -3.06469E+00
 +1.16709E+01 -6.93991E+00 +9.61646E+00 -5.41728E+00 +7.21736E+00 +1.84939E+00 +5.75953E+00 +1.03230E+01
 +3.15531E+00 +1.49098E+01 -2.46857E+00 +1.41261E+01 -9.13489E+00 +1.01458E+01 -1.19051E+01 +5.58351E+00
 -7.82177E+00 +1.16055E+00 +3.38473E-01 -3.31132E+00 +5.90113E+00 -6.57222E+00 +4.35042E+00 -5.89750E+00
 -2.35999E+00 -1.65003E-01 -7.65720E+00 +7.47063E+00 -6.58626E+00 +1.11104E+01 -2.74843E-01 +7.28736E+00
 +5.59104E+00 -1.19694E+00 +6.37324E+00 -7.10666E+00 +2.39397E+00 -5.09638E+00 -2.38946E+00 +3.39413E+00
 -4.85652E+00 +1.14532E+01 -5.32042E+00 +1.29431E+01 -5.87517E+00 +7.61361E+00 -7.05791E+00 +3.96853E-01
 -7.04090E+00 -3.81851E+00 -4.26522E+00 -4.33279E+00 -1.46663E-01 -3.81492E+00 +1.76160E+00 -4.20450E+00
 -3.76983E-01 -4.32854E+00 -4.13502E+00 -1.84315E+00 -4.86240E+00 +3.06045E+00 -6.09430E-01 +6.83879E+00
 +5.25665E+00 +6.00760E+00 +6.86799E+00 +1.15083E+00 +1.57898E+00 -3.10309E+00 -7.17414E+00 -2.53976E+00
 -1.28880E+01 +2.24611E+00 -1.19164E+01 +6.19284E+00 -6.40931E+00 +4.66298E+00 -1.55337E+00 -2.04629E+00
 -2.75768E-01 -9.07169E+00 -9.47409E-01 -1.16321E+01 -1.24010E-01 -9.07158E+00 +3.07423E+00 -4.41817E+00
 +5.86215E+00 -5.72462E-01 +5.02041E+00 +2.33189E+00 +6.60079E-01 +5.62860E+00 -3.76682E+00 +8.90010E+00
 -5.19538E+00 +9.15548E+00 -4.16730E+00 +3.89433E+00 -3.86673E+00 -5.21421E+00 -6.03378E+00 -1.25294E+01
 -8.42985E+00 -1.30655E+01 -6.93600E+00 -7.15634E+00 -2.37596E-01 -2.92556E-01 +7.98923E+00 +1.97188E+00
 +1.20007E+01 -9.24719E-01 +9.22664E+00 -4.50522E+00 +2.51493E+00 -4.07003E+00 -2.83669E+00 +6.43160E-01
 -4.07759E+00 +5.55322E+00 -2.90519E+00 +6.57648E+00 -2.65150E+00 +3.43998E+00 -4.19021E+00 -8.19606E-01
 -5.13047E+00 -3.56367E+00 -2.98194E+00 -5.03433E+00 +1.51928E+00 -6.95874E+00 +4.85502E+00 -9.29727E+00
 +4.53682E+00 -9.35828E+00 +1.97028E+00 -4.72040E+00 +9.86577E-01 +3.20904E+00 +3.46848E+00 +9.32283E+00
 +6.88176E+00 +9.14489E+00 +6.64663E+00 +3.16814E+00 +1.06599E+00 -3.38031E+00 -6.38831E+00 -5.35634E+00
 -1.00062E+01 -2.35597E+00 -7.12636E+00 +1.39311E+00 -4.55377E-01 +1.59640E+00 +4.79197E+00 -1.89336E+00
 +5.80357E+00 -5.40220E+00 +4.11368E+00 -5.56454E+00 +2.98240E+00 -2.64106E+00 +3.50138E+00 +3.61363E-01
 +3.77868E+00 +1.37664E+00 +1.82039E+00 +1.40075E+00 -1.51308E+00 +2.69808E+00 -3.10361E+00 +5.37139E+00
 -1.17650E+00 +6.53804E+00 +2.25147E+00 +3.40318E+00 +3.14371E+00 -3.06203E+00 -1.86167E-01 -8.15281E+00
 -4.83101E+00 -7.63825E+00 -5.86677E+00 -1.98447E+00 -1.32412E+00 +3.87095E+00 +5.56854E+00 +5.15348E+00
 +9.28427E+00 +1.67169E+00 +7.14763E+00 -2.38045E+00 +1.56222E+00 -2.84839E+00 -2.73392E+00 +3.96801E-01
 -3.29328E+00 +3.86389E+00 -1.67529E+00 +4.41110E+00 -8.63153E-01 +2.31837E+00 -1.64009E+00 +3.23514E-01
 -2.03131E+00 +1.03586E-01 -2.05458E-01 +4.17871E-01 +2.77605E+00 -9.78021E-01 +3.77187E+00 -4.00729E+00
 +1.19130E+00 -5.63581E+00 -2.70668E+00 -3.01674E+00 -3.74104E+00 +2.91708E+00 -2.08168E-01 +7.58488E+00
 +4.93810E+00 +6.92841E+00 +6.69116E+00 +1.48449E+00 +2.91234E+00 -3.93268E+00 -3.45434E+00 -4.77678E+00
 -7.16985E+00 -9.94489E-01 -5.63639E+00 +3.27106E+00 -1.00296E+00 +3.99862E+00 +2.45184E+00 +1.07420E+00
 +2.63357E+00 -2.18993E+00 +1.10930E+00 -2.88036E+00 +5.66393E-01 -1.32684E+00 +1.46869E+00 -5.73775E-02
 +1.76046E+00 -4.30198E-01 -2.09829E-01 -1.01190E+00 -3.14225E+00 +4.11497E-01 -3.81297E+00 +3.62025E+00
 -7.48442E-01 +5.49815E+00 +3.59158E+00 +3.22172E+00 +4.86474E+00 -2.26216E+00 +1.27181E+00 -6.48825E+00
 -4.28565E+00 -5.60965E+00 -6.77591E+00 -2.99977E-01 -3.86825E+00 +4.69500E+00 +1.86263E+00 +5.05236E+00
 +5.54676E+00 +9.14614E-01 +4.67365E+00 -3.53630E+00 +1.05651E+00 -4.35531E+00 -1.61187E+00 -1.47775E+00
 -1.67770E+00 +1.82845E+00 -6.94878E-01 +2.70336E+00 -9.14399E-01 +1.41257E+00 -2.27658E+00 +3.01642E-01
 -2.47200E+00 +5.84398E-01 +2.72987E-02 +8.81024E-01 +3.58889E+00 -7.83749E-01 +4.69106E+00 -3.95764E+00
 +1.71280E+00 -5.49030E+00 -2.91585E+00 -2.73985E+00 -4.81549E+00 +3.10160E+00 -2.05620E+00 +7.41365E+00
 +2.73461E+00 +6.30484E+00 +4.88655E+00 +4.44221E-01 +2.32529E+00 -5.39674E+00 -2.41715E+00 -6.73126E+00
 -4.83455E+00 -3.31250E+00 -2.91406E+00 +1.16613E+00 +1.15735E+00 +3.00349E+00 +3.58641E+00 +1.83273E+00
 +2.87483E+00 +1.26715E-01 +8.80410E-01 -8.33112E-02 +2.00104E-01 +6.29897E-01 +1.06562E+00 +3.51198E-01
 +1.28627E+00 -1.27490E+00 -8.16962E-01 -2.18712E+00 -3.98206E+00 -3.46322E-01 -5.01607E+00 +3.27872E+00
 -2.26298E+00 +4.89347E+00 +2.32739E+00 +1.59713E+00 +4.96384E+00 -5.07719E+00 +3.84157E+00 -9.77440E+00
 +9.16315E-01 -7.95479E+00 -3.34269E-01 -1.92896E-01 +1.23819E+00 +8.09224E+00 +3.18702E+00 +1.12505E+01
 +2.21296E+00 +7.93461E+00 -2.02916E+00 +1.45832E+00 -6.21144E+00 -3.79288E+00 -6.56098E+00 -5.95632E+00
 -2.64902E+00 -5.97688E+00 +2.25121E+00 -5.17397E+00 +4.54796E+00 -3.43408E+00 +3.79112E+00 -9.38884E-02
 +2.56625E+00 +3.97073E+00 +3.12772E+00 +6.12135E+00 +4.62234E+00 +4.42672E+00 +4.04093E+00 +1.90215E-01
 -1.30984E-01 -2.65884E+00 -5.63889E+00 -1.25262E+00 -8.22243E+00 +3.09100E+00 -5.72145E+00 +5.77842E+00
 -2.51815E-01 +3.32078E+00 +3.83547E+00 -3.09579E+00 +4.08968E+00 -8.49863E+00 +1.95631E+00 -8.66120E+00
 +7.71267E-01 -3.79535E+00 +2.10448E+00 +2.12680E+00 +4.33755E+00 +5.41935E+00 +4.72014E+00 +5.78276E+00
 +2.37889E+00 +5.46389E+00 -1.02530E+00 +5.86316E+00 -3.40988E+00 +5.63387E+00 -4.42604E+00 +2.45281E+00
 -5.09803E+00 -3.59451E+00 -5.58546E+00 -8.98888E+00 -4.14371E+00 -9.58595E+00 +9.30577E-01 -4.54296E+00
 +8.27416E+00 +2.67555E+00 +1.31023E+01 +7.28810E+00 +1.08476E+01 +7.19685E+00 +1.72335E+00 +4.15150E+00
 -8.45417E+00 +1.34014E+00 -1.25995E+01 +2.84147E-01 -8.20334E+00 +2.05004E-01 +6.54757E-01 -4.62230E-02
 +6.96221E+00 -2.35523E-01 +6.64201E+00 +6.52275E-01 +1.33358E+00 +2.39781E+00 -3.95979E+00 +2.97477E+00
 -5.52486E+00 +6.38800E-01 -3.41821E+00 -3.48101E+00 -1.24793E-01 -5.56537E+00 +2.32000E+00 -2.59106E+00
 +3.53736E+00 +4.16914E+00 +3.71850E+00 +9.51257E+00 +2.40119E+00 +8.75793E+00 -9.41896E-01 +2.20438E+00
 -5.25049E+00 -4.84144E+00 -7.66511E+00 -6.71819E+00 -5.80092E+00 -2.39169E+00 -4.50894E-01 +3.91305E+00
 +4.39662E+00 +6.83034E+00 +4.82125E+00 +4.59024E+00 +5.52948E-01 -4.23888E-02 -4.73953E+00 -3.02299E+00
 -6.86359E+00 -2.83470E+00 -4.84154E+00 -1.16248E+00 -1.27404E+00 -3.57409E-01 +8.05306E-01 -8.30984E-01
 +1.04439E+00 -1.08121E+00 +1.48743E+00 +1.56098E-01 +3.36570E+00 +2.36937E+00 +4.78311E+00 +4.00560E+00
 +2.25678E+00 +4.28574E+00 -5.17249E+00 +3.73099E+00 -1.36411E+01 +2.83541E+00 -1.68640E+01 +8.30955E-01
 -1.14280E+01 -3.44812E+00 -7.65945E-02 -9.24018E+00 +1.01777E+01 -1.29790E+01 +1.34449E+01 -1.07251E+01
 +9.06275E+00 -2.14444E+00 +1.16320E+00 +8.01722E+00 -5.20797E+00 +1.31108E+01 -7.58141E+00 +1.00059E+01
 -6.56494E+00 +1.77960E+00 -4.07902E+00 -5.01421E+00 -1.77694E+00 -6.06702E+00 -8.21530E-01 -2.73202E+00
 -2.02228E+00 -1.06597E-01 -5.11261E+00 -1.89022E+00 -7.80302E+00 -7.02090E+00 -6.53260E+00 -1.10233E+01
 +5.61560E-01 -1.03002E+01 +1.08240E+01 -5.06082E+00 +1.77056E+01 +1.52272E+00 +1.53794E+01 +6.38377E+00
 +3.80207E+00 +8.50169E+00 -1.04629E+01 +8.24887E+00 -1.88890E+01 +5.75916E+00 -1.73185E+01 +7.00732E-01
 -8.55219E+00 -6.31554E+00 +7.97356E-01 -1.27731E+01 +5.95744E+00 -1.54730E+01 +6.97635E+00 -1.30719E+01
 +6.89019E+00 -7.27835E+00 +7.68219E+00 -1.29538E+00 +8.34376E+00 +2.91797E+00 +6.62099E+00 +5.66090E+00
 +2.05387E+00 +7.81927E+00 -3.13821E+00 +8.67197E+00 -6.11159E+00 +6.06587E+00 -5.96247E+00 -8.32254E-01
 -4.06587E+00 -9.22794E+00 -2.13281E+00 -1.39123E+01 -4.14834E-01 -1.15428E+01 +1.95651E+00 -4.01336E+00
 +5.17404E+00 +2.69484E+00 +7.89039E+00 +3.56121E+00 +8.46367E+00 -1.07743E+00 +6.84707E+00 -5.92199E+00
 +4.74535E+00 -5.56215E+00 +3.64936E+00 +7.07535E-01 +2.99211E+00 +8.40000E+00 +7.96570E-01 +1.17843E+01
 -3.58026E+00 +8.43728E+00 -7.65593E+00 +5.52495E-01 -7.43016E+00 -7.38607E+00 -1.29974E+00 -1.18094E+01
 +7.59864E+00 -1.14708E+01 +1.33616E+01 -6.91782E+00 +1.21708E+01 +2.80300E-01 +5.56293E+00 +7.57675E+00
 -1.00172E+00 +1.16563E+01 -2.92788E+00 +1.00136E+01 -1.37521E-01 +3.24143E+00 +3.61746E+00 -4.37507E+00
 +4.68766E+00 -7.46638E+00 +2.68178E+00 -3.78056E+00 +5.24439E-02 +3.73665E+00 -8.70286E-01 +9.20658E+00
 -4.67945E-02 +8.66203E+00 +9.08361E-01 +3.15045E+00 +9.49685E-01 -2.64066E+00 +6.91977E-01 -4.71956E+00
 +1.29833E+00 -2.88635E+00 +2.76589E+00 +8.53874E-02 +3.80172E+00 +1.81319E+00 +3.42936E+00 +2.49710E+00
 +2.28515E+00 +3.85493E+00 +1.87350E+00 +6.39134E+00 +2.53558E+00 +8.30203E+00 +2.62269E+00 +7.32426E+00
 +1.87886E-01 +3.45599E+00 -4.42269E+00 -5.73655E-01 -8.06499E+00 -1.77560E+00 -7.40222E+00 +2.05963E-01
 -2.26300E+00 +2.80287E+00 +3.73555E+00 +3.13161E+00 +6.23234E+00 +7.97222E-01 +4.02888E+00 -1.90232E+00
 +3.74985E-02 -2.36162E+00 -1.67569E+00 -2.78831E-02 +1.73896E-01 +3.55491E+00 +3.01726E+00 +6.61556E+00
 +3.12603E+00 +8.57454E+00 -7.45637E-01 +9.53475E+00 -6.31511E+00 +8.90935E+00 -1.00374E+01 +5.38541E+00
 -1.01221E+01 -1.25332E+00 -7.37300E+00 -8.48666E+00 -3.55813E+00 -1.19987E+01 +4.03963E-01 -9.02604E+00
 +4.39594E+00 -1.09731E+00 +7.67406E+00 +6.74553E+00 +8.31494E+00 +9.89489E+00 +4.73085E+00 +7.76691E+00
 -2.20000E+00 +3.73638E+00 -8.95809E+00 +1.63502E+00 -1.18724E+01 +2.29184E+00 -1.00809E+01 +3.33507E+00
