 Created: 16-Jan-2021
 $NMID
 ID='D:\BASISSIMULATI'
 FMTDAT='(8E13.5)'
 VOLUME=   1.00000E+00
 TRAMP=   1.00000E+00
 $END
 +1.51725E+01 +1.69756E-02 +8.87358E+00 +1.07028E+01 -3.07269E+00 +1.06325E+01 -8.36959E+00 +5.51667E-01
 -1.81263E+00 -8.43629E+00 +9.35771E+00 -6.49514E+00 +1.30767E+01 +4.71592E+00 +5.03986E+00 +1.38334E+01
 -6.86265E+00 +1.16558E+01 -1.08142E+01 +6.81524E-01 -3.35855E+00 -7.57596E+00 +7.09130E+00 -4.61681E+00
 +9.10202E+00 +6.24280E+00 +1.36089E-01 +1.34149E+01 -1.08690E+01 +9.15083E+00 -1.28629E+01 -2.43147E+00
 -4.16450E+00 -9.70868E+00 +5.88081E+00 -5.66991E+00 +6.70547E+00 +4.86077E+00 -2.49597E+00 +1.03551E+01
 -1.20202E+01 +4.62604E+00 -1.18282E+01 -6.78288E+00 -1.97528E+00 -1.24461E+01 +7.53359E+00 -6.95698E+00
 +7.21229E+00 +3.53147E+00 -2.08074E+00 +7.81566E+00 -1.01523E+01 +1.32455E+00 -8.16171E+00 -9.20194E+00
 +2.20606E+00 -1.28224E+01 +1.05847E+01 -5.79065E+00 +8.75895E+00 +4.63197E+00 -8.51595E-01 +7.82231E+00
 -7.83253E+00 +8.42062E-01 -4.67617E+00 -8.61328E+00 +5.45922E+00 -1.03297E+01 +1.21442E+01 -2.20810E+00
 +8.57510E+00 +7.64251E+00 -1.41662E+00 +9.42161E+00 -7.46530E+00 +1.80420E+00 -3.49313E+00 -6.80469E+00
 +6.05163E+00 -7.11705E+00 +1.09493E+01 +1.39095E+00 +5.88481E+00 +1.00431E+01 -4.09935E+00 +1.00696E+01
 -8.95603E+00 +1.69098E+00 -4.09927E+00 -6.23626E+00 +4.93327E+00 -5.51440E+00 +8.37181E+00 +2.91561E+00
 +2.40507E+00 +1.00849E+01 -6.95015E+00 +8.40893E+00 -1.02173E+01 -4.71551E-01 -4.31804E+00 -7.51921E+00
 +4.34287E+00 -5.76070E+00 +6.65874E+00 +2.53625E+00 +2.91577E-01 +8.36652E+00 -8.01722E+00 +5.42665E+00
 -9.57411E+00 -3.39548E+00 -2.76650E+00 -9.15183E+00 +5.38121E+00 -6.18693E+00 +6.61545E+00 +2.07278E+00
 +6.06939E-03 +6.82552E+00 -7.22800E+00 +3.09710E+00 -7.33922E+00 -5.17998E+00 -8.26716E-02 -9.39403E+00
 +7.15943E+00 -5.24672E+00 +7.14492E+00 +2.87940E+00 +2.50168E-01 +6.61175E+00 -6.07076E+00 +2.31505E+00
 -5.13414E+00 -5.24862E+00 +2.07640E+00 -8.01414E+00 +8.07733E+00 -3.02175E+00 +6.74948E+00 +4.62073E+00
 -3.66925E-01 +7.17476E+00 -5.82210E+00 +2.31474E+00 -4.07581E+00 -4.59045E+00 +2.82454E+00 -6.19466E+00
 +7.52904E+00 -8.09663E-01 +5.09833E+00 +5.97348E+00 -1.94493E+00 +7.21917E+00 -6.38569E+00 +1.83735E+00
 -3.86841E+00 -4.42737E+00 +2.67997E+00 -5.08636E+00 +6.25092E+00 +3.79725E-01 +3.09110E+00 +6.13295E+00
 -3.50140E+00 +6.16234E+00 -6.75356E+00 +4.93557E-01 -3.49069E+00 -4.98757E+00 +2.68400E+00 -4.75365E+00
 +5.28500E+00 +6.77493E-01 +1.70961E+00 +5.44333E+00 -4.18519E+00 +4.53105E+00 -6.23942E+00 -1.07445E+00
 -2.40655E+00 -5.57117E+00 +3.25234E+00 -4.45476E+00 +4.92818E+00 +8.79668E-01 +1.09793E+00 +4.75130E+00
 -4.03891E+00 +3.17610E+00 -5.06485E+00 -2.08112E+00 -9.65180E-01 -5.50399E+00 +3.96385E+00 -3.62504E+00
 +4.70728E+00 +1.46888E+00 +7.15534E-01 +4.46571E+00 -3.68121E+00 +2.40194E+00 -3.89746E+00 -2.36990E+00
 +1.79291E-01 -4.78933E+00 +4.23090E+00 -2.39282E+00 +4.11053E+00 +2.24326E+00 +1.02147E-01 +4.33559E+00
 -3.53671E+00 +1.89377E+00 -3.10359E+00 -2.34155E+00 +7.65482E-01 -3.90258E+00 +3.92433E+00 -1.25696E+00
 +3.12252E+00 +2.73591E+00 -6.89698E-01 +3.94518E+00 -3.51402E+00 +1.26689E+00 -2.54218E+00 -2.37255E+00
 +1.01343E+00 -3.20034E+00 +3.34829E+00 -5.09969E-01 +2.09414E+00 +2.75622E+00 -1.31634E+00 +3.20237E+00
 -3.30414E+00 +4.89076E-01 -1.92459E+00 -2.46847E+00 +1.21931E+00 -2.65740E+00 +2.80702E+00 -6.39810E-02
 +1.30043E+00 +2.47351E+00 -1.57549E+00 +2.33542E+00 -2.78744E+00 -2.01802E-01 -1.18376E+00 -2.41583E+00
 +1.43390E+00 -2.07768E+00 +2.33927E+00 +2.89991E-01 +7.38110E-01 +2.12191E+00 -1.54129E+00 +1.57643E+00
 -2.10106E+00 -6.20586E-01 -4.77661E-01 -2.09744E+00 +1.51699E+00 -1.39142E+00 +1.82412E+00 +6.11720E-01
 +2.75889E-01 +1.76454E+00 -1.37758E+00 +9.67383E-01 -1.42603E+00 -7.81253E-01 +3.79478E-02 -1.58883E+00
 +1.36778E+00 -7.02567E-01 +1.20539E+00 +8.09829E-01 -1.34045E-01 +1.33308E+00 -1.14571E+00 +4.37189E-01
 -8.21019E-01 -7.87126E-01 +3.43894E-01 -1.02248E+00 +1.02366E+00 -1.35905E-01 +5.54325E-01 +8.02917E-01
 -4.27665E-01 +7.89694E-01 -8.08071E-01 -4.10897E-02 -2.55486E-01 -6.83190E-01 +4.97137E-01 -4.55032E-01
 +5.76561E-01 +2.75333E-01 -3.10789E-02 +6.07257E-01 -5.39754E-01 +1.88529E-01 -3.42653E-01 -4.14090E-01
 +2.75993E-01 -4.43750E-01 +5.20236E-01 +1.22291E-01 +7.01968E-02 +5.57198E-01 -5.16212E-01 +2.84738E-01
 -4.77127E-01 -3.92033E-01 +2.02798E-01 -6.26173E-01 +7.18605E-01 -5.57638E-02 +3.84169E-01 +6.98472E-01
 -4.99649E-01 +7.10257E-01 -9.12029E-01 -1.38569E-01 -2.83827E-01 -9.23474E-01 +7.60176E-01 -6.82002E-01
 +1.01719E+00 +4.32832E-01 +7.45842E-02 +1.20919E+00 -1.11537E+00 +6.90347E-01 -1.20347E+00 -6.77581E-01
 +3.03309E-02 -1.41748E+00 +1.30907E+00 -6.21439E-01 +1.17683E+00 +9.52712E-01 -3.58307E-01 +1.58807E+00
 -1.69973E+00 +4.68059E-01 -1.32376E+00 -1.32296E+00 +5.03142E-01 -1.85624E+00 +1.87654E+00 -4.46650E-01
 +1.24736E+00 +1.48660E+00 -8.31006E-01 +1.83671E+00 -2.16136E+00 +9.15267E-02 -1.21158E+00 -1.98790E+00
 +1.15321E+00 -2.14972E+00 +2.46167E+00 -9.07597E-02 +1.24011E+00 +2.08726E+00 -1.31571E+00 +2.02659E+00
 -2.48578E+00 -3.29836E-01 -8.99645E-01 -2.54270E+00 +1.89738E+00 -2.18710E+00 +2.96105E+00 +5.15244E-01
 +1.06318E+00 +2.79568E+00 -1.89223E+00 +2.20246E+00 -2.77033E+00 -7.35253E-01 -5.28851E-01 -2.93456E+00
 +2.55947E+00 -1.96173E+00 +3.20090E+00 +1.31707E+00 +5.76816E-01 +3.51854E+00 -2.66912E+00 +2.26594E+00
 -3.12108E+00 -1.21874E+00 -2.21191E-01 -3.27776E+00 +3.01877E+00 -1.63916E+00 +3.10207E+00 +2.09597E+00
 -2.30419E-01 +4.01691E+00 -3.60098E+00 +1.99583E+00 -3.46818E+00 -1.97517E+00 +1.01137E-01 -3.76369E+00
 +3.37964E+00 -1.42983E+00 +2.82990E+00 +2.63238E+00 -1.11954E+00 +4.10234E+00 -4.40042E+00 +1.27125E+00
 -3.51654E+00 -3.05558E+00 +7.21700E-01 -4.40038E+00 +3.92924E+00 -1.31958E+00 +2.69954E+00 +2.97509E+00
 -1.74982E+00 +3.89464E+00 -4.73883E+00 +3.06641E-01 -2.99464E+00 -4.16511E+00 +1.83844E+00 -4.85191E+00
 +4.80954E+00 -9.58947E-01 +2.81889E+00 +3.49372E+00 -2.05445E+00 +3.80800E+00 -4.62761E+00 -4.33952E-01
 -2.02650E+00 -4.82247E+00 +3.21505E+00 -4.67020E+00 +5.70511E+00 +3.64186E-02 +2.82559E+00 +4.51442E+00
 -2.44129E+00 +4.13001E+00 -4.54354E+00 -7.04312E-01 -1.17086E+00 -4.85953E+00 +4.23534E+00 -3.80981E+00
 +5.99438E+00 +1.57355E+00 +2.13529E+00 +5.82795E+00 -3.44957E+00 +4.56736E+00 -4.99505E+00 -8.74356E-01
 -9.05433E-01 -4.74485E+00 +4.48755E+00 -2.85896E+00 +5.38463E+00 +2.95789E+00 +6.07298E-01 +6.68201E+00
 -5.07464E+00 +4.36106E+00 -5.85924E+00 -1.68869E+00 -9.99595E-01 -5.21578E+00 +4.33106E+00 -2.54964E+00
 +4.39352E+00 +3.49501E+00 -1.08162E+00 +6.47898E+00 -6.52022E+00 +3.05993E+00 -6.27440E+00 -3.44013E+00
 -5.58104E-01 -6.42372E+00 +4.69407E+00 -2.90182E+00 +3.98540E+00 +3.31744E+00 -1.95826E+00 +5.54198E+00
 -6.86576E+00 +1.19534E+00 -5.43662E+00 -5.41392E+00 +1.07452E+00 -7.52109E+00 +6.08642E+00 -2.97361E+00
 +4.53032E+00 +3.45417E+00 -1.81442E+00 +4.99199E+00 -6.11146E+00 -3.96060E-02 -3.59055E+00 -6.40374E+00
 +3.41415E+00 -7.36224E+00 +7.82448E+00 -1.73049E+00 +5.18454E+00 +4.81495E+00 -1.64276E+00 +5.61279E+00
 -5.40660E+00 -1.09291E-02 -2.03255E+00 -5.97932E+00 +5.06789E+00 -5.77505E+00 +8.49614E+00 +7.22781E-01
 +4.58217E+00 +7.04080E+00 -2.73287E+00 +6.82509E+00 -5.95476E+00 +4.93235E-01 -1.85460E+00 -5.14995E+00
 +5.11438E+00 -3.99378E+00 +7.42160E+00 +2.96313E+00 +2.32890E+00 +8.59269E+00 -5.19361E+00 +7.04806E+00
 -7.60144E+00 -1.05748E-01 -2.64647E+00 -5.47397E+00 +4.23839E+00 -3.53021E+00 +5.57984E+00 +3.58577E+00
 -3.18077E-01 +8.25625E+00 -7.54947E+00 +5.32560E+00 -8.72763E+00 -2.48013E+00 -2.69873E+00 -7.34508E+00
 +4.21538E+00 -4.49944E+00 +4.78766E+00 +2.78119E+00 -1.55785E+00 +6.56434E+00 -8.10500E+00 +2.54157E+00
 -7.83083E+00 -5.43391E+00 -7.52829E-01 -9.32154E+00 +6.04530E+00 -5.26945E+00 +5.77584E+00 +2.34439E+00
 -9.64231E-01 +5.45503E+00 -6.79239E+00 +7.28746E-01 -5.23719E+00 -6.92746E+00 +2.48233E+00 -9.45676E+00
 +8.68578E+00 -4.05994E+00 +7.21907E+00 +3.85461E+00 -1.20142E-01 +6.28441E+00 -5.44050E+00 +9.76869E-01
 -2.98759E+00 -6.20575E+00 +4.83112E+00 -7.39253E+00 +9.92939E+00 -9.29666E-01 +6.96690E+00 +6.86090E+00
 -1.06642E+00 +8.24748E+00 -5.94781E+00 +2.14570E+00 -2.78982E+00 -4.74418E+00 +4.85506E+00 -4.92500E+00
 +8.69190E+00 +2.06256E+00 +4.34148E+00 +9.13721E+00 -4.07024E+00 +9.04659E+00 -8.19071E+00 +1.93119E+00
 -4.13751E+00 -4.81261E+00 +3.45703E+00 -4.24018E+00 +6.28128E+00 +2.89706E+00 +1.02415E+00 +8.93144E+00
 -7.15437E+00 +7.27789E+00 -9.98835E+00 -6.87466E-01 -4.71701E+00 -7.04676E+00 +3.03949E+00 -5.58321E+00
 +5.14260E+00 +1.74762E+00 -5.76243E-01 +6.86894E+00 -8.05467E+00 +4.01774E+00 -9.32371E+00 -4.23358E+00
 -2.82131E+00 -9.64839E+00 +4.97446E+00 -6.90284E+00 +6.29316E+00 +8.76286E-01 +1.61163E-01 +5.38495E+00
 -6.60187E+00 +1.80723E+00 -6.51113E+00 -6.16560E+00 +7.69417E-01 -1.01900E+01 +8.07257E+00 -5.97073E+00
 +8.19286E+00 +2.26633E+00 +1.38087E+00 +6.18494E+00 -4.94234E+00 +2.02211E+00 -3.93907E+00 -5.51073E+00
 +3.51646E+00 -8.16402E+00 +9.76012E+00 -2.76223E+00 +8.33197E+00 +5.48788E+00 +6.99262E-01 +8.42653E+00
 -5.29101E+00 +3.43170E+00 -3.59647E+00 -3.87962E+00 +3.74139E+00 -5.53616E+00 +8.75610E+00 +4.71074E-01
 +5.87821E+00 +8.10799E+00 -2.26448E+00 +9.59822E+00 -7.59854E+00 +3.51779E+00 -5.01420E+00 -3.74931E+00
 +2.34213E+00 -4.68534E+00 +6.38859E+00 +1.53587E+00 +2.55026E+00 +8.22177E+00 -5.48476E+00 +8.16309E+00
 -9.62887E+00 +1.14452E+00 -5.81993E+00 -5.85362E+00 +1.77923E+00 -5.93918E+00 +5.15571E+00 +5.35935E-01
 +8.02067E-01 +6.39166E+00 -6.66005E+00 +5.13555E+00 -9.33225E+00 -2.27704E+00 -4.27482E+00 -8.46575E+00
 +3.45839E+00 -7.32441E+00 +6.11256E+00 -3.52357E-01 +1.29995E+00 +4.95776E+00 -5.56238E+00 +2.95156E+00
 -6.94465E+00 -4.31788E+00 -1.05618E+00 -9.27244E+00 +6.31954E+00 -6.72187E+00 +7.87453E+00 +7.56018E-01
 +2.36964E+00 +5.54315E+00 -4.13116E+00 +2.92590E+00 -4.62288E+00 -4.03722E+00 +1.54937E+00 -7.76067E+00
 +8.05354E+00 -4.05673E+00 +8.19909E+00 +3.52991E+00 +1.88791E+00 +7.45357E+00 -4.33600E+00 +4.02525E+00
