 Created: 16-Jan-2021
 $NMID
 ID='D:\BASISSIMULATI'
 FMTDAT='(8E13.5)'
 VOLUME=   1.00000E+00
 TRAMP=   1.00000E+00
 $END
 +2.11971E+01 +2.14364E-02 +1.97920E+01 +6.89280E+00 +1.61533E+01 +1.27739E+01 +1.08105E+01 +1.69570E+01
 +4.50403E+00 +1.89865E+01 -1.92641E+00 +1.87147E+01 -7.66507E+00 +1.63099E+01 -1.20341E+01 +1.22176E+01
 -1.45817E+01 +7.08258E+00 -1.51327E+01 +1.64618E+00 -1.37947E+01 -3.36495E+00 -1.09231E+01 -7.34035E+00
 -7.05113E+00 -9.86299E+00 -2.80041E+00 -1.07522E+01 +1.21500E+00 -1.00684E+01 +4.47434E+00 -8.08198E+00
 +6.61431E+00 -5.21462E+00 +7.46370E+00 -1.96454E+00 +7.04639E+00 +1.17135E+00 +5.55595E+00 +3.76602E+00
 +3.30892E+00 +5.51257E+00 +6.86831E-01 +6.25069E+00 -1.92282E+00 +5.96897E+00 -4.17761E+00 +4.78617E+00
 -5.81682E+00 +2.91779E+00 -6.68098E+00 +6.35684E-01 -6.71460E+00 -1.77213E+00 -5.95550E+00 -4.03541E+00
 -4.51563E+00 -5.92599E+00 -2.55835E+00 -7.27171E+00 -2.76802E-01 -7.96108E+00 +2.12408E+00 -7.94178E+00
 +4.44096E+00 -7.21592E+00 +6.48174E+00 -5.83496E+00 +8.07334E+00 -3.89548E+00 +9.06966E+00 -1.53584E+00
 +9.36112E+00 +1.06767E+00 +8.88596E+00 +3.70736E+00 +7.64198E+00 +6.15541E+00 +5.69612E+00 +8.18088E+00
 +3.18871E+00 +9.57227E+00 +3.29244E-01 +1.01632E+01 -2.61813E+00 +9.85807E+00 -5.35956E+00 +8.65193E+00
 -7.60479E+00 +6.64164E+00 -9.10469E+00 +4.02319E+00 -9.68730E+00 +1.07438E+00 -9.28629E+00 -1.87623E+00
 -7.95631E+00 -4.49089E+00 -5.87146E+00 -6.46851E+00 -3.30577E+00 -7.58816E+00 -5.97610E-01 -7.74264E+00
 +1.89716E+00 -6.95649E+00 +3.85642E+00 -5.38448E+00 +5.03919E+00 -3.29032E+00 +5.32179E+00 -1.00817E+00
 +4.71635E+00 +1.10727E+00 +3.36870E+00 +2.73435E+00 +1.53550E+00 +3.63330E+00 -4.55808E-01 +3.68245E+00
 -2.25806E+00 +2.89609E+00 -3.55821E+00 +1.42115E+00 -4.12554E+00 -4.86705E-01 -3.84661E+00 -2.50358E+00
 -2.74174E+00 -4.28791E+00 -9.60588E-01 -5.53297E+00 +1.24186E+00 -6.01320E+00 +3.54494E+00 -5.61724E+00
 +5.61087E+00 -4.36306E+00 +7.13468E+00 -2.39325E+00 +7.88775E+00 +4.78587E-02 +7.74880E+00 +2.65133E+00
 +6.71806E+00 +5.08867E+00 +4.91357E+00 +7.05783E+00 +2.55084E+00 +8.32335E+00 -8.99382E-02 +8.74503E+00
 -2.70383E+00 +8.29195E+00 -5.00195E+00 +7.04066E+00 -6.74736E+00 +5.15900E+00 -7.78136E+00 +2.87914E+00
 -8.03748E+00 +4.64218E-01 -7.54243E+00 -1.82609E+00 -6.40510E+00 -3.76637E+00 -4.79634E+00 -5.18908E+00
 -2.92330E+00 -5.99853E+00 -1.00211E+00 -6.17482E+00 +7.67376E-01 -5.76828E+00 +2.22204E+00 -4.88656E+00
 +3.24936E+00 -3.67683E+00 +3.79415E+00 -2.30576E+00 +3.85833E+00 -9.40003E-01 +3.49498E+00 +2.71122E-01
 +2.79808E+00 +1.20917E+00 +1.88945E+00 +1.79578E+00 +9.04499E-01 +1.99736E+00 -2.20988E-02 +1.82548E+00
 -7.69662E-01 +1.33335E+00 -1.24300E+00 +6.08956E-01 -1.38142E+00 -2.34549E-01 -1.16476E+00 -1.07064E+00
 -6.15770E-01 -1.77258E+00 +2.01349E-01 -2.22696E+00 +1.18661E+00 -2.34668E+00 +2.21389E+00 -2.08183E+00
 +3.14398E+00 -1.42741E+00 +3.84007E+00 -4.26541E-01 +4.18400E+00 +8.31553E-01 +4.09159E+00 +2.21916E+00
 +3.52498E+00 +3.58279E+00 +2.50025E+00 +4.75991E+00 +1.08896E+00 +5.59791E+00 -5.87035E-01 +5.97300E+00
 -2.36722E+00 +5.80669E+00 -4.06949E+00 +5.07755E+00 -5.51062E+00 +3.82652E+00 -6.52782E+00 +2.15477E+00
 -6.99849E+00 +2.14243E-01 -6.85579E+00 -1.80843E+00 -6.09792E+00 -3.71247E+00 -4.78972E+00 -5.30574E+00
 -3.05640E+00 -6.42684E+00 -1.07005E+00 -6.96384E+00 +9.69578E-01 -6.86743E+00 +2.85756E+00 -6.15670E+00
 +4.40703E+00 -4.91698E+00 +5.47029E+00 -3.29001E+00 +5.95536E+00 -1.45747E+00 +5.83607E+00 +3.79987E-01
 +5.15440E+00 +2.02597E+00 +4.01498E+00 +3.31095E+00 +2.57220E+00 +4.11172E+00 +1.01159E+00 +4.36544E+00
 -4.72647E-01 +4.07653E+00 -1.70108E+00 +3.31562E+00 -2.53092E+00 +2.21048E+00 -2.87363E+00 +9.29975E-01
 -2.70604E+00 -3.37244E-01 -2.07353E+00 -1.40680E+00 -1.08456E+00 -2.12254E+00 +1.02899E-01 -2.37741E+00
 +1.30167E+00 -2.12840E+00 +2.32003E+00 -1.40354E+00 +2.98767E+00 -2.99720E-01 +3.17953E+00 +1.02879E+00
 +2.83433E+00 +2.38991E+00 +1.96505E+00 +3.57904E+00 +6.59546E-01 +4.40694E+00 -9.29002E-01 +4.72638E+00
 -2.60099E+00 +4.45391E+00 -4.13629E+00 +3.58342E+00 -5.32373E+00 +2.18952E+00 -5.99016E+00 +4.19720E-01
 -6.02494E+00 -1.52356E+00 -5.39637E+00 -3.40902E+00 -4.15749E+00 -5.00689E+00 -2.44029E+00 -6.11966E+00
 -4.39101E-01 -6.60861E+00 +1.61476E+00 -6.41245E+00 +3.48333E+00 -5.55552E+00 +4.95318E+00 -4.14416E+00
 +5.86304E+00 -2.35210E+00 +6.12401E+00 -3.96930E-01 +5.72970E+00 +1.48899E+00 +4.75506E+00 +3.08890E+00
 +3.34449E+00 +4.22919E+00 +1.69098E+00 +4.80035E+00 +9.66536E-03 +4.76881E+00 -1.49061E+00 +4.17838E+00
 -2.63373E+00 +3.14159E+00 -3.29744E+00 +1.82251E+00 -3.42666E+00 +4.13863E-01 -3.03772E+00 -8.88566E-01
 -2.21361E+00 -1.91063E+00 -1.09116E+00 -2.52083E+00 +1.57603E-01 -2.64530E+00 +1.34761E+00 -2.27534E+00
 +2.30361E+00 -1.46712E+00 +2.88129E+00 -3.34051E-01 +2.98439E+00 +9.67217E-01 +2.57638E+00 +2.25532E+00
 +1.68552E+00 +3.34538E+00 +4.02908E-01 +4.07082E+00 -1.12627E+00 +4.30354E+00 -2.71771E+00 +3.97065E+00
 -4.16798E+00 +3.06581E+00 -5.27760E+00 +1.65379E+00 -5.87537E+00 -1.32822E-01 -5.84105E+00 -2.10500E+00
 -5.12383E+00 -4.03631E+00 -3.75394E+00 -5.68815E+00 -1.84515E+00 -6.83862E+00 +4.13117E-01 -7.31195E+00
 +2.77410E+00 -7.00456E+00 +4.96126E+00 -5.90385E+00 +6.70212E+00 -4.09660E+00 +7.76443E+00 -1.76443E+00
 +7.98956E+00 +8.33917E-01 +7.31837E+00 +3.39242E+00 +5.80488E+00 +5.59624E+00 +3.61491E+00 +7.16399E+00
 +1.00887E+00 +7.88775E+00 -1.69001E+00 +7.66490E+00 -4.13797E+00 +6.51627E+00 -6.01791E+00 +4.58746E+00
 -7.08452E+00 +2.13195E+00 -7.20058E+00 -5.21920E-01 -6.35845E+00 -3.01597E+00 -4.68311E+00 -5.01264E+00
 -2.41577E+00 -6.24331E+00 +1.19828E-01 -6.54729E+00 +2.56369E+00 -5.89511E+00 +4.57134E+00 -4.39264E+00
 +5.86329E+00 -2.26517E+00 +6.26468E+00 +1.76009E-01 +5.72910E+00 +2.57949E+00 +4.34310E+00 +4.60472E+00
 +2.31107E+00 +5.97049E+00 -7.67039E-02 +6.49335E+00 -2.48763E+00 +6.11074E+00 -4.59483E+00 +4.88558E+00
 -6.12236E+00 +2.99261E+00 -6.88086E+00 +6.89418E-01 -6.78888E+00 -1.72279E+00 -5.87766E+00 -3.94195E+00
 -4.27982E+00 -5.70504E+00 -2.20503E+00 -6.81929E+00 +9.26596E-02 -7.18111E+00 +2.35003E+00 -6.78115E+00
 +4.32727E+00 -5.69640E+00 +5.83345E+00 -4.07228E+00 +6.74236E+00 -2.09859E+00 +6.99812E+00 +1.62000E-02
 +6.61173E+00 +2.06837E+00 +5.65098E+00 +3.87753E+00 +4.22668E+00 +5.29898E+00 +2.47820E+00 +6.23004E+00
 +5.60282E-01 +6.61170E+00 -1.36777E+00 +6.42745E+00 -3.15065E+00 +5.70080E+00 -4.64431E+00 +4.49296E+00
 -5.72303E+00 +2.90051E+00 -6.28755E+00 +1.05263E+00 -6.27428E+00 -8.93686E-01 -5.66507E+00 -2.76184E+00
 -4.49565E+00 -4.36825E+00 -2.86050E+00 -5.53960E+00 -9.11513E-01 -6.13321E+00 +1.15128E+00 -6.05820E+00
 +3.09773E+00 -5.29371E+00 +4.69320E+00 -3.90051E+00 +5.72907E+00 -2.02243E+00 +6.05376E+00 +1.24312E-01
 +5.59919E+00 +2.27400E+00 +4.39770E+00 +4.14452E+00 +2.58528E+00 +5.47624E+00 +3.89303E-01 +6.07107E+00
 -1.89878E+00 +5.82509E+00 -3.96258E+00 +4.74907E+00 -5.50618E+00 +2.97251E+00 -6.29880E+00 +7.29484E-01
 -6.21146E+00 -1.67225E+00 -5.23936E+00 -3.89490E+00 -3.50559E+00 -5.62031E+00 -1.24523E+00 -6.59786E+00
 +1.22833E+00 -6.68282E+00 +3.56964E+00 -5.85882E+00 +5.45277E+00 -4.24051E+00 +6.61986E+00 -2.05592E+00
 +6.91896E+00 +3.88669E-01 +6.32500E+00 +2.75567E+00 +4.94063E+00 +4.72714E+00 +2.97737E+00 +6.05157E+00
 +7.20198E-01 +6.57893E+00 -1.51788E+00 +6.27871E+00 -3.44384E+00 +5.23858E+00 -4.82715E+00 +3.64458E+00
 -5.53019E+00 +1.74704E+00 -5.52203E+00 -1.81601E-01 -4.87454E+00 -1.88950E+00 -3.74220E+00 -3.18159E+00
 -2.33048E+00 -3.94363E+00 -8.58768E-01 -4.15092E+00 +4.75317E-01 -3.86141E+00 +1.52409E+00 -3.19581E+00
 +2.20627E+00 -2.30940E+00 +2.50992E+00 -1.36135E+00 +2.48273E+00 -4.87415E-01 +2.21273E+00 +2.19161E-01
 +1.80442E+00 +7.15931E-01 +1.35531E+00 +1.00821E+00 +9.37773E-01 +1.13669E+00 +5.89394E-01 +1.15944E+00
 +3.12942E-01 +1.13280E+00 +8.50525E-02 +1.09566E+00 -1.29308E-01 +1.06065E+00 -3.60584E-01 +1.01369E+00
 -6.20804E-01 +9.21741E-01 -8.95729E-01 +7.46372E-01 -1.14496E+00 +4.59485E-01 -1.31014E+00 +5.71993E-02
 -1.32940E+00 -4.31905E-01 -1.15471E+00 -9.46565E-01 -7.67924E-01 -1.40126E+00 -1.91663E-01 -1.70195E+00
 +5.08186E-01 -1.76588E+00 +1.22943E+00 -1.54150E+00 +1.84935E+00 -1.02380E+00 +2.24658E+00 -2.61549E-01
 +2.32494E+00 +6.45751E-01 +2.03441E+00 +1.56139E+00 +1.38488E+00 +2.33334E+00 +4.49478E-01 +2.82084E+00
 -6.43863E-01 +2.92055E+00 -1.73143E+00 +2.58745E+00 -2.64039E+00 +1.84619E+00 -3.21834E+00 +7.90294E-01
 -3.36040E+00 -4.30920E-01 -3.02877E+00 -1.63581E+00 -2.26108E+00 -2.64018E+00 -1.16574E+00 -3.28823E+00
 +9.51034E-02 -3.47896E+00 +1.33204E+00 -3.18352E+00 +2.35969E+00 -2.45018E+00 +3.02729E+00 -1.39611E+00
 +3.24326E+00 -1.87475E-01 +2.98938E+00 +9.88649E-01 +2.32236E+00 +1.95543E+00 +1.36257E+00 +2.57510E+00
 +2.72350E-01 +2.77046E+00 -7.72226E-01 +2.53543E+00 -1.61092E+00 +1.93323E+00 -2.12513E+00 +1.08289E+00
 -2.25546E+00 +1.36765E-01 -2.00849E+00 -7.46438E-01 -1.45190E+00 -1.42846E+00 -6.99480E-01 -1.81327E+00
 +1.10869E-01 -1.86036E+00 +8.41856E-01 -1.58768E+00 +1.37975E+00 -1.06440E+00 +1.65164E+00 -3.95279E-01
 +1.63430E+00 +2.99763E-01 +1.35376E+00 +9.07144E-01 +8.76385E-01 +1.33808E+00 +2.93724E-01 +1.54105E+00
 -2.95522E-01 +1.50651E+00 -8.02907E-01 +1.26369E+00 -1.16387E+00 +8.70954E-01 -1.34547E+00 +4.02022E-01
 -1.34735E+00 -6.87434E-02 -1.19664E+00 -4.79174E-01 -9.38456E-01 -7.87933E-01 -6.24390E-01 -9.77775E-01
 -3.01747E-01 -1.05346E+00 -5.58312E-03 -1.03549E+00 +2.45039E-01 -9.51575E-01 +4.46296E-01 -8.28159E-01
 +6.05107E-01 -6.83900E-01 +7.32472E-01 -5.26640E-01 +8.36601E-01 -3.54236E-01 +9.17749E-01 -1.58765E-01
 +9.66143E-01 +6.72464E-02 +9.63569E-01 +3.24361E-01 +8.88272E-01 +6.01420E-01 +7.21961E-01 +8.73812E-01
 +4.57162E-01 +1.10557E+00 +1.03029E-01 +1.25507E+00 -3.12025E-01 +1.28332E+00 -7.41844E-01 +1.16309E+00
 -1.12825E+00 +8.86818E-01 -1.41017E+00 +4.71530E-01 -1.53445E+00 -4.05901E-02 -1.46644E+00 -5.86502E-01
 -1.19805E+00 -1.09094E+00 -7.51686E-01 -1.47801E+00 -1.79073E-01 -1.68382E+00 +4.45177E-01 -1.66776E+00
