 Created: 16-Jan-2021
 $NMID
 ID='D:\BASISSIMULATI'
 FMTDAT='(8E13.5)'
 VOLUME=   1.00000E+00
 TRAMP=   1.00000E+00
 $END
 +2.58366E+01 +2.90080E-02 +1.84161E+01 +9.60169E+00 +1.65345E+00 +1.46301E+01 -1.28422E+01 +1.25182E+01
 -1.56647E+01 +3.97673E+00 -6.13976E+00 -6.58878E+00 +7.94387E+00 -1.28760E+01 +1.66863E+01 -1.04435E+01
 +1.52270E+01 -1.64093E-01 +6.33885E+00 +1.15714E+01 -2.80723E+00 +1.68778E+01 -6.41808E+00 +1.21432E+01
 -3.73439E+00 +1.07253E+00 +1.64941E+00 -7.81601E+00 +5.32038E+00 -7.69991E+00 +5.18067E+00 +1.09725E+00
 +2.09321E+00 +1.12654E+01 -1.57122E+00 +1.43791E+01 -3.70394E+00 +7.79976E+00 -3.31817E+00 -3.08501E+00
 -6.24001E-01 -9.21220E+00 +3.03370E+00 -5.25523E+00 +5.36030E+00 +5.98378E+00 +4.03594E+00 +1.57707E+01
 -1.52336E+00 +1.63643E+01 -8.79647E+00 +7.02872E+00 -1.29252E+01 -5.57139E+00 -9.96143E+00 -1.26191E+01
 -4.89211E-01 -9.65892E+00 +9.61640E+00 +6.08499E-01 +1.27764E+01 +1.09041E+01 +5.49445E+00 +1.47675E+01
 -8.21054E+00 +1.05542E+01 -1.89941E+01 +1.59021E+00 -1.89039E+01 -6.74725E+00 -7.59075E+00 -1.03766E+01
 +7.04321E+00 -8.21121E+00 +1.45775E+01 -1.96165E+00 +9.86751E+00 +5.02561E+00 -3.18529E+00 +9.13248E+00
 -1.48012E+01 +7.92921E+00 -1.68251E+01 +1.58922E+00 -8.62796E+00 -6.58291E+00 +3.01763E+00 -1.15484E+01
 +9.56808E+00 -9.71185E+00 +7.11474E+00 -1.89213E+00 -1.33064E+00 +6.52546E+00 -8.89907E+00 +9.11094E+00
 -1.02992E+01 +3.35962E+00 -5.28619E+00 -6.85168E+00 +2.00979E+00 -1.37592E+01 +6.62712E+00 -1.16612E+01
 +6.11582E+00 -1.69568E+00 +1.50139E+00 +8.62700E+00 -4.05321E+00 +1.11151E+01 -7.33011E+00 +3.42290E+00
 -6.53108E+00 -8.87400E+00 -1.85064E+00 -1.64643E+01 +4.57600E+00 -1.34943E+01 +9.34075E+00 -2.06559E+00
 +9.29983E+00 +9.46641E+00 +3.66216E+00 +1.29148E+01 -4.72827E+00 +6.28014E+00 -1.04515E+01 -5.17882E+00
 -8.96509E+00 -1.32615E+01 -2.76422E-01 -1.28503E+01 +1.02328E+01 -5.06995E+00 +1.51497E+01 +4.30308E+00
 +1.05093E+01 +9.33698E+00 -7.94842E-01 +7.74056E+00 -1.07030E+01 +1.56835E+00 -1.18909E+01 -4.88812E+00
 -3.43041E+00 -7.96469E+00 +8.33916E+00 -6.37564E+00 +1.45939E+01 -1.35321E+00 +1.07866E+01 +4.26796E+00
 +6.46631E-02 +7.38556E+00 -9.31157E+00 +6.08511E+00 -1.04158E+01 +8.59192E-01 -2.84065E+00 -5.18484E+00
 +7.32062E+00 -7.83142E+00 +1.23941E+01 -4.57586E+00 +8.88932E+00 +3.08372E+00 -2.77946E-01 +9.98777E+00
 -8.41413E+00 +1.07111E+01 -1.00902E+01 +3.84059E+00 -4.70218E+00 -6.28896E+00 +3.71193E+00 -1.22684E+01
 +9.65689E+00 -9.10800E+00 +9.73361E+00 +1.61479E+00 +4.28825E+00 +1.24471E+01 -3.33708E+00 +1.54139E+01
 -8.92600E+00 +8.05804E+00 -9.53025E+00 -4.55121E+00 -4.80290E+00 -1.35018E+01 +2.79368E+00 -1.26197E+01
 +9.02971E+00 -2.90202E+00 +1.00523E+01 +8.48602E+00 +4.79203E+00 +1.36704E+01 -3.88341E+00 +9.68065E+00
 -1.05020E+01 +9.12256E-02 -1.04713E+01 -8.13316E+00 -3.49933E+00 -9.80737E+00 +5.74552E+00 -4.79522E+00
 +1.06895E+01 +2.63682E+00 +7.67655E+00 +7.31524E+00 -1.09101E+00 +6.64755E+00 -8.99459E+00 +1.81550E+00
 -9.96978E+00 -3.59779E+00 -3.23297E+00 -6.13250E+00 +6.00630E+00 -4.41939E+00 +1.05291E+01 +3.02107E-01
 +6.72275E+00 +5.04233E+00 -2.58107E+00 +6.72273E+00 -1.02741E+01 +3.93064E+00 -1.04224E+01 -2.02511E+00
 -2.74978E+00 -7.50438E+00 +7.23435E+00 -8.55703E+00 +1.24001E+01 -3.65149E+00 +9.16894E+00 +4.72693E+00
 -1.24798E-01 +1.11444E+01 -9.15762E+00 +1.07450E+01 -1.21085E+01 +2.96272E+00 -7.40589E+00 -7.46853E+00
 +1.65173E+00 -1.34090E+01 +9.38084E+00 -1.03508E+01 +1.13231E+01 +7.17952E-02 +6.68641E+00 +1.09191E+01
 -1.55576E+00 +1.47604E+01 -8.59228E+00 +9.00482E+00 -1.04887E+01 -2.23079E+00 -6.29892E+00 -1.11281E+01
 +1.42283E+00 -1.17880E+01 +8.00897E+00 -4.28840E+00 +9.37203E+00 +5.70452E+00 +4.57908E+00 +1.12542E+01
 -3.34158E+00 +9.04850E+00 -9.16216E+00 +1.35444E+00 -8.91216E+00 -6.07412E+00 -2.75333E+00 -8.26730E+00
 +4.91267E+00 -4.30829E+00 +8.45890E+00 +2.49645E+00 +5.15373E+00 +7.26450E+00 -2.67668E+00 +6.89670E+00
 -9.22283E+00 +1.90450E+00 -9.48352E+00 -4.22673E+00 -3.08611E+00 -7.43862E+00 +5.31368E+00 -5.65325E+00
 +9.44090E+00 -2.23319E-03 +6.08368E+00 +5.88256E+00 -2.48253E+00 +8.07688E+00 -1.01437E+01 +4.83318E+00
 -1.14046E+01 -2.14524E+00 -5.33091E+00 -8.53420E+00 +3.86770E+00 -1.00357E+01 +9.90607E+00 -5.29918E+00
 +8.81404E+00 +2.86729E+00 +1.53381E+00 +9.07228E+00 -6.93382E+00 +8.90406E+00 -1.10214E+01 +2.11460E+00
 -8.23220E+00 -6.93322E+00 -5.67013E-01 -1.21061E+01 +6.98243E+00 -9.77310E+00 +9.70851E+00 -1.46443E+00
 +6.10176E+00 +7.09301E+00 -1.33066E+00 +9.96895E+00 -7.72844E+00 +5.21341E+00 -8.94746E+00 -3.78534E+00
 -4.16572E+00 -1.07339E+01 +3.56961E+00 -1.08769E+01 +9.24328E+00 -4.26312E+00 +9.10479E+00 +4.42387E+00
 +3.19458E+00 +9.22942E+00 -4.55309E+00 +7.03044E+00 -8.84200E+00 -4.59014E-01 -6.59530E+00 -8.02705E+00
 +8.43685E-01 -1.05727E+01 +8.50377E+00 -6.47393E+00 +1.11457E+01 +1.47352E+00 +6.90725E+00 +8.02888E+00
 -1.34194E+00 +8.98284E+00 -7.94659E+00 +3.85732E+00 -8.38033E+00 -3.86157E+00 -2.37769E+00 -9.04193E+00
 +5.91567E+00 -8.25659E+00 +1.08505E+01 -2.01047E+00 +9.16641E+00 +5.59724E+00 +2.15594E+00 +9.57841E+00
 -5.33587E+00 +7.37591E+00 -8.29179E+00 +5.90781E-01 -4.90693E+00 -6.08349E+00 +2.30097E+00 -8.04992E+00
 +8.31380E+00 -3.96538E+00 +9.04908E+00 +3.32557E+00 +4.07775E+00 +8.76494E+00 -3.15632E+00 +8.61095E+00
 -7.70825E+00 +3.05207E+00 -6.48943E+00 -3.93786E+00 -3.72321E-01 -7.39886E+00 +6.37038E+00 -4.86051E+00
 +8.94953E+00 +1.94335E+00 +5.35926E+00 +8.29417E+00 -2.15168E+00 +9.75796E+00 -8.51041E+00 +5.22909E+00
 -9.26539E+00 -2.31644E+00 -3.72009E+00 -7.82455E+00 +4.45195E+00 -7.54196E+00 +9.63151E+00 -1.52126E+00
 +8.10883E+00 +6.37551E+00 +6.97255E-01 +1.09610E+01 -7.75272E+00 +9.09174E+00 -1.16379E+01 +1.76110E+00
 -8.41059E+00 -6.44948E+00 -2.74457E-01 -1.02669E+01 +7.36706E+00 -7.15907E+00 +9.57256E+00 +9.24146E-01
 +5.09240E+00 +8.71996E+00 -2.97218E+00 +1.10714E+01 -9.38017E+00 +6.38078E+00 -1.02150E+01 -2.25689E+00
 -5.28528E+00 -9.10533E+00 +1.98656E+00 -9.69374E+00 +6.93013E+00 -3.88559E+00 +6.61243E+00 +4.07268E+00
 +1.56785E+00 +8.58731E+00 -4.70355E+00 +6.67360E+00 -8.05537E+00 -1.43882E-02 -6.35739E+00 -6.51954E+00
 -8.53539E-01 -8.24915E+00 +4.64892E+00 -4.25397E+00 +6.30235E+00 +2.24512E+00 +2.87199E+00 +6.35728E+00
 -3.27148E+00 +5.10993E+00 -7.64040E+00 -5.03250E-01 -6.75601E+00 -6.38723E+00 -7.94068E-01 -8.34003E+00
 +6.24540E+00 -4.96316E+00 +9.20506E+00 +1.48608E+00 +5.53184E+00 +6.71457E+00 -2.60783E+00 +7.24508E+00
 -9.58678E+00 +2.60862E+00 -1.02418E+01 -4.41081E+00 -3.68042E+00 -9.49520E+00 +5.87909E+00 -9.38730E+00
 +1.19696E+01 -3.87223E+00 +1.04221E+01 +3.96931E+00 +2.29741E+00 +9.44663E+00 -6.90827E+00 +9.03873E+00
 -1.11415E+01 +2.69489E+00 -7.90151E+00 -5.84817E+00 +3.02773E-01 -1.11930E+01 +7.97004E+00 -9.73308E+00
 +1.04304E+01 -2.20777E+00 +6.73112E+00 +6.54251E+00 -2.00334E-01 +1.07231E+01 -5.84954E+00 +7.59973E+00
 -7.05146E+00 -4.99650E-01 -3.67169E+00 -7.78621E+00 +1.73620E+00 -9.17563E+00 +5.73771E+00 -3.97290E+00
 +6.05792E+00 +3.70374E+00 +2.76853E+00 +8.09771E+00 -1.87459E+00 +6.16021E+00 -4.79607E+00 -2.58889E-01
 -3.98488E+00 -6.00058E+00 +1.23731E-01 -6.64169E+00 +4.70883E+00 -1.81905E+00 +6.29452E+00 +4.66466E+00
 +3.23705E+00 +7.87131E+00 -2.75400E+00 +5.43805E+00 -7.43002E+00 -8.27020E-01 -6.94129E+00 -6.46334E+00
 -9.16718E-01 -7.62340E+00 +6.76438E+00 -3.62445E+00 +1.04595E+01 +2.85579E+00 +6.93609E+00 +7.74459E+00
 -1.90241E+00 +8.14428E+00 -1.00329E+01 +3.89392E+00 -1.15717E+01 -2.55093E+00 -5.16862E+00 -7.56543E+00
 +4.84493E+00 -8.27373E+00 +1.15245E+01 -4.08148E+00 +1.03293E+01 +2.84587E+00 +2.31959E+00 +8.52989E+00
 -6.79564E+00 +9.34404E+00 -1.08958E+01 +4.36706E+00 -7.70204E+00 -3.61751E+00 +1.00623E-02 -9.51887E+00
 +6.80970E+00 -9.22100E+00 +8.52852E+00 -2.62810E+00 +4.79029E+00 +5.89367E+00 -1.34122E+00 +1.03737E+01
 -5.84411E+00 +7.55209E+00 -6.32068E+00 -5.69345E-01 -3.06491E+00 -8.05639E+00 +1.61433E+00 -9.43121E+00
 +4.95335E+00 -3.81447E+00 +5.16901E+00 +4.42115E+00 +2.23296E+00 +9.03927E+00 -2.13868E+00 +6.72455E+00
 -5.28322E+00 -4.82571E-01 -5.03112E+00 -6.94140E+00 -1.19480E+00 -7.85298E+00 +3.91329E+00 -2.83643E+00
 +6.68267E+00 +4.06093E+00 +4.70631E+00 +7.68641E+00 -1.12271E+00 +5.65606E+00 -6.76556E+00 -1.72940E-01
 -7.78437E+00 -5.45859E+00 -2.85116E+00 -6.67619E+00 +4.79311E+00 -3.39092E+00 +9.42712E+00 +1.90184E+00
 +7.17827E+00 +5.78937E+00 -7.41510E-01 +6.10521E+00 -8.62991E+00 +2.90941E+00 -1.05028E+01 -1.89505E+00
 -4.72897E+00 -5.68340E+00 +4.58680E+00 -6.32757E+00 +1.06423E+01 -3.19883E+00 +9.05876E+00 +2.29627E+00
 +1.10196E+00 +7.07844E+00 -7.42354E+00 +7.92967E+00 -1.05974E+01 +3.65499E+00 -6.61906E+00 -3.57850E+00
 +1.26801E+00 -9.11231E+00 +7.52736E+00 -8.81604E+00 +8.35164E+00 -2.30080E+00 +3.93152E+00 +6.26696E+00
 -2.31923E+00 +1.08214E+01 -6.47605E+00 +7.85136E+00 -6.53644E+00 -7.37870E-01 -3.10900E+00 -8.79262E+00
 +1.52085E+00 -1.04502E+01 +4.86170E+00 -4.60378E+00 +5.31990E+00 +4.24494E+00 +2.73220E+00 +9.47232E+00
 -1.55049E+00 +7.41367E+00 -5.10611E+00 +3.14360E-02 -5.59705E+00 -6.84717E+00 -2.32806E+00 -8.16781E+00
 +2.84427E+00 -3.40728E+00 +6.32637E+00 +3.39402E+00 +5.24317E+00 +7.05556E+00 -1.18703E-01 +5.20218E+00
 -6.00641E+00 -3.10933E-01 -7.74576E+00 -5.25113E+00 -3.45530E+00 -6.30795E+00 +4.06601E+00 -3.21117E+00
 +9.12065E+00 +1.61199E+00 +7.47585E+00 +5.06691E+00 -9.32149E-02 +5.33848E+00 -8.08266E+00 +2.57409E+00
 -1.03745E+01 -1.61786E+00 -5.02126E+00 -5.09383E+00 +4.13664E+00 -6.01555E+00 +1.03686E+01 -3.59556E+00
 +9.18595E+00 +1.27854E+00 +1.65841E+00 +6.02412E+00 -6.60103E+00 +7.51503E+00 -9.80482E+00 +4.16071E+00
 -6.18199E+00 -2.47376E+00 +1.14011E+00 -8.11229E+00 +6.88250E+00 -8.53460E+00 +7.53354E+00 -2.88060E+00
 +3.43891E+00 +5.19710E+00 -2.11166E+00 +9.86471E+00 -5.56762E+00 +7.46726E+00 -5.33655E+00 -4.52525E-01
 -2.20722E+00 -8.06937E+00 +1.70964E+00 -9.64983E+00 +4.33667E+00 -4.01801E+00 +4.45807E+00 +4.48244E+00
 +2.01831E+00 +9.36630E+00 -1.82201E+00 +7.04809E+00 -4.95111E+00 -4.71640E-01 -5.23249E+00 -7.34341E+00
