 Created: 16-Jan-2021
 $NMID
 ID='D:\BASISSIMULATI'
 FMTDAT='(8E13.5)'
 VOLUME=   1.00000E+00
 TRAMP=   1.00000E+00
 $END
 +3.74289E+01 +4.05524E-02 +2.82683E+01 +2.15650E+01 +7.10796E+00 +3.01558E+01 -1.31108E+01 +2.14496E+01
 -2.05125E+01 +1.70130E+00 -1.15330E+01 -1.64417E+01 +7.25575E+00 -2.19717E+01 +2.36762E+01 -1.21943E+01
 +2.77348E+01 +6.06795E+00 +1.76477E+01 +2.12413E+01 +4.20473E-01 +2.44528E+01 -1.30910E+01 +1.48502E+01
 -1.52228E+01 -4.35197E-01 -6.08138E+00 -1.13518E+01 +7.09834E+00 -1.15106E+01 +1.51010E+01 -2.00651E+00
 +1.28266E+01 +9.80824E+00 +2.35955E+00 +1.55266E+01 -8.81367E+00 +1.12870E+01 -1.30370E+01 +1.13567E-01
 -7.59645E+00 -1.03832E+01 +3.63058E+00 -1.32474E+01 +1.29433E+01 -6.81633E+00 +1.40461E+01 +4.27002E+00
 +6.23599E+00 +1.22538E+01 -5.17194E+00 +1.14507E+01 -1.23870E+01 +2.01181E+00 -1.02719E+01 -1.01767E+01
 +2.99547E-01 -1.73296E+01 +1.30051E+01 -1.47990E+01 +2.01398E+01 -4.04823E+00 +1.75239E+01 +8.31569E+00
 +7.10644E+00 +1.47701E+01 -4.35429E+00 +1.16176E+01 -9.61607E+00 +1.22456E+00 -5.48461E+00 -9.60190E+00
 +5.31134E+00 -1.39768E+01 +1.60062E+01 -9.21750E+00 +2.01411E+01 +1.64711E+00 +1.55515E+01 +1.19903E+01
 +5.50599E+00 +1.58599E+01 -3.60424E+00 +1.16344E+01 -6.41938E+00 +2.78535E+00 -1.90079E+00 -4.60169E+00
 +6.28668E+00 -5.82257E+00 +1.23986E+01 -4.49221E-01 +1.24120E+01 +7.66906E+00 +6.50461E+00 +1.31496E+01
 -1.32055E+00 +1.26542E+01 -6.07316E+00 +6.93783E+00 -5.10432E+00 +1.10430E-01 +2.80565E-01 -3.26928E+00
 +5.90664E+00 -1.25050E+00 +7.67331E+00 +4.33276E+00 +4.32059E+00 +9.26905E+00 -1.82352E+00 +9.92022E+00
 -6.54364E+00 +5.68172E+00 -6.66228E+00 -6.86844E-01 -2.18116E+00 -5.02119E+00 +3.78744E+00 -4.61800E+00
 +7.20118E+00 -4.65470E-02 +5.85892E+00 +5.29885E+00 +8.73609E-01 +7.56054E+00 -4.13158E+00 +5.06087E+00
 -5.52658E+00 -5.70416E-01 -2.15826E+00 -5.53196E+00 +3.87110E+00 -6.45669E+00 +8.64571E+00 -2.70740E+00
 +9.10650E+00 +3.19434E+00 +5.13239E+00 +7.28907E+00 -3.78298E-01 +6.87747E+00 -3.48047E+00 +2.36440E+00
 -1.87363E+00 -3.00280E+00 +3.51037E+00 -5.33104E+00 +9.10468E+00 -2.73454E+00 +1.11000E+01 +3.34902E+00
 +8.02947E+00 +9.08028E+00 +1.80163E+00 +1.07770E+01 -3.53155E+00 +7.40215E+00 -4.46864E+00 +1.30423E+00
 -4.21236E-01 -3.30779E+00 +5.84458E+00 -3.16104E+00 +1.00081E+01 +1.87180E+00 +9.05894E+00 +8.63552E+00
 +3.32636E+00 +1.27450E+01 -3.69138E+00 +1.14835E+01 -7.60823E+00 +5.62433E+00 -6.04471E+00 -1.04859E+00
 -2.14274E-01 -4.22446E+00 +5.86587E+00 -1.91678E+00 +8.03254E+00 +4.21369E+00 +4.74491E+00 +9.95725E+00
 -1.88352E+00 +1.13584E+01 -7.49069E+00 +7.36147E+00 -8.38465E+00 +5.25134E-01 -4.02683E+00 -4.68677E+00
 +2.59429E+00 -4.90861E+00 +6.97044E+00 -1.55667E-01 +6.12950E+00 +6.16478E+00 +6.81340E-01 +9.54977E+00
 -5.55123E+00 +7.47768E+00 -8.10645E+00 +1.18419E+00 -4.95058E+00 -5.09950E+00 +2.04444E+00 -6.98317E+00
 +8.26163E+00 -2.94407E+00 +9.41833E+00 +4.51713E+00 +4.52180E+00 +1.04345E+01 -3.31408E+00 +1.06741E+01
 -8.81548E+00 +4.78885E+00 -8.03369E+00 -3.51566E+00 -1.07001E+00 -8.69958E+00 +7.81513E+00 -7.02613E+00
 +1.28667E+01 +8.72001E-01 +1.05842E+01 +1.02396E+01 +2.10067E+00 +1.51761E+01 -7.41334E+00 +1.24500E+01
 -1.19995E+01 +3.66235E+00 -8.73879E+00 -5.68889E+00 +3.29183E-01 -9.68265E+00 +9.46691E+00 -5.76027E+00
 +1.28869E+01 +3.63012E+00 +8.43649E+00 +1.26027E+01 -1.06197E+00 +1.56026E+01 -9.67201E+00 +1.09302E+01
 -1.21773E+01 +1.74773E+00 -7.38691E+00 -6.05658E+00 +1.22203E+00 -7.71472E+00 +7.89782E+00 -2.60825E+00
 +8.42333E+00 +5.48133E+00 +2.81595E+00 +1.10092E+01 -4.83940E+00 +1.03943E+01 -9.25787E+00 +4.34378E+00
 -7.56101E+00 -2.75311E+00 -1.18721E+00 -5.91205E+00 +5.16924E+00 -3.00725E+00 +6.85306E+00 +3.76072E+00
 +2.52424E+00 +9.38938E+00 -4.83538E+00 +9.56540E+00 -9.91041E+00 +3.74500E+00 -8.72508E+00 -4.30847E+00
 -1.51523E+00 -8.96725E+00 +7.20008E+00 -6.57697E+00 +1.14956E+01 +1.88820E+00 +8.01966E+00 +1.12065E+01
 -1.57356E+00 +1.51889E+01 -1.14351E+01 +1.07716E+01 -1.51637E+01 +2.20390E-01 -9.97409E+00 -1.00816E+01
 +1.33189E+00 -1.35878E+01 +1.19457E+01 -7.78833E+00 +1.52580E+01 +4.06061E+00 +9.03990E+00 +1.48478E+01
 -3.08037E+00 +1.80007E+01 -1.38218E+01 +1.15911E+01 -1.67631E+01 -4.56500E-01 -1.03128E+01 -1.08251E+01
 +1.37045E+00 -1.33683E+01 +1.10599E+01 -6.88003E+00 +1.30060E+01 +4.29329E+00 +6.44530E+00 +1.31271E+01
 -4.12101E+00 +1.43840E+01 -1.19669E+01 +7.80113E+00 -1.24706E+01 -1.98631E+00 -5.92727E+00 -8.63045E+00
 +2.90406E+00 -8.21385E+00 +8.11339E+00 -1.64374E+00 +6.55784E+00 +6.19623E+00 -1.98238E-01 +9.87130E+00
 -7.13742E+00 +7.05879E+00 -9.31528E+00 +1.04716E-02 -5.24761E+00 -6.11182E+00 +2.11675E+00 -6.85115E+00
 +7.46592E+00 -1.55419E+00 +6.81620E+00 +6.14539E+00 +3.16545E-01 +1.07889E+01 -7.74648E+00 +8.84508E+00
 -1.17799E+01 +1.22022E+00 -8.68029E+00 -7.19533E+00 -5.21485E-02 -1.06964E+01 +8.67592E+00 -6.58055E+00
 +1.17200E+01 +2.92028E+00 +6.75396E+00 +1.19208E+01 -3.44083E+00 +1.46059E+01 -1.26167E+01 +9.00836E+00
 -1.49883E+01 -1.61858E+00 -8.94157E+00 -1.07653E+01 +1.87022E+00 -1.27471E+01 +1.07754E+01 -6.30700E+00
 +1.22645E+01 +4.56586E+00 +5.44782E+00 +1.31338E+01 -5.40750E+00 +1.41382E+01 -1.35904E+01 +7.07084E+00
 -1.41690E+01 -3.57581E+00 -7.03527E+00 -1.12058E+01 +3.13778E+00 -1.12891E+01 +9.95030E+00 -4.14215E+00
 +9.34557E+00 +5.41771E+00 +2.08874E+00 +1.12563E+01 -6.88716E+00 +9.85116E+00 -1.17716E+01 +2.43561E+00
 -9.62470E+00 -5.96872E+00 -2.15853E+00 -9.92490E+00 +5.54598E+00 -7.11358E+00 +8.47097E+00 +2.72186E-01
 +4.94738E+00 +7.12329E+00 -2.35460E+00 +8.88093E+00 -8.32820E+00 +4.54692E+00 -8.90523E+00 -2.74239E+00
 -3.76615E+00 -7.91275E+00 +3.50822E+00 -7.40916E+00 +7.90954E+00 -1.58456E+00 +6.41298E+00 +5.56986E+00
 +2.70317E-02 +9.15055E+00 -6.89030E+00 +6.67720E+00 -9.58218E+00 -2.09887E-01 -6.12323E+00 -6.83426E+00
 +1.24489E+00 -8.62592E+00 +7.57897E+00 -4.21681E+00 +8.53232E+00 +3.59016E+00 +3.28692E+00 +9.64236E+00
 -4.84412E+00 +9.85159E+00 -1.05632E+01 +3.93566E+00 -1.00768E+01 -4.34102E+00 -3.62095E+00 -9.60464E+00
 +4.65065E+00 -8.39152E+00 +9.35607E+00 -1.43542E+00 +7.39234E+00 +6.78466E+00 -3.58722E-02 +1.09445E+01
 -8.19184E+00 +8.32668E+00 -1.18749E+01 +5.73567E-01 -8.77565E+00 -7.39274E+00 -9.37718E-01 -1.05630E+01
 +6.60480E+00 -7.05876E+00 +9.10162E+00 +7.09284E-01 +5.12838E+00 +7.66435E+00 -2.56799E+00 +9.37758E+00
 -8.93126E+00 +4.89915E+00 -9.90955E+00 -2.71820E+00 -5.04309E+00 -8.49760E+00 +2.34042E+00 -8.81449E+00
 +7.39942E+00 -3.71199E+00 +6.98367E+00 +3.23649E+00 +1.65156E+00 +7.37557E+00 -4.80252E+00 +6.07084E+00
 -7.95149E+00 +4.06434E-01 -5.70869E+00 -5.62308E+00 +3.11916E-01 -7.85189E+00 +5.93675E+00 -4.76160E+00
 +7.28824E+00 +1.50925E+00 +3.42720E+00 +6.63291E+00 -2.99725E+00 +7.04399E+00 -7.53154E+00 +2.38580E+00
 -6.94288E+00 -4.20322E+00 -1.45190E+00 -8.17432E+00 +5.34378E+00 -6.64252E+00 +8.83438E+00 -3.89314E-01
 +6.49312E+00 +6.57068E+00 -3.65710E-01 +9.60774E+00 -7.36604E+00 +6.56213E+00 -9.90811E+00 -7.56187E-01
 -6.20877E+00 -7.67635E+00 +1.46967E+00 -9.68566E+00 +8.23627E+00 -5.38689E+00 +9.72659E+00 +2.55450E+00
 +4.93657E+00 +9.10894E+00 -3.12107E+00 +1.01244E+01 -9.36622E+00 +4.99485E+00 -9.92650E+00 -2.98107E+00
 -4.59770E+00 -8.76540E+00 +3.09876E+00 -8.83407E+00 +8.25974E+00 -3.38825E+00 +7.77543E+00 +3.89022E+00
 +2.25340E+00 +8.32076E+00 -4.52445E+00 +7.26668E+00 -8.18066E+00 +1.73839E+00 -6.60143E+00 -4.44069E+00
 -1.19143E+00 -7.26839E+00 +4.23940E+00 -5.19366E+00 +6.12525E+00 -2.83244E-03 +3.50586E+00 +4.55611E+00
 -1.46749E+00 +5.39994E+00 -5.14918E+00 +2.17214E+00 -4.96778E+00 -2.63366E+00 -1.16683E+00 -5.50753E+00
 +3.44746E+00 -4.40310E+00 +5.52853E+00 -1.44839E-01 +3.55418E+00 +4.18428E+00 -1.10248E+00 +5.42250E+00
 -5.12142E+00 +2.55718E+00 -5.53969E+00 -2.53438E+00 -1.82596E+00 -6.33840E+00 +3.69481E+00 -6.09864E+00
 +7.36321E+00 -1.72563E+00 +6.63508E+00 +4.07427E+00 +1.81764E+00 +7.54885E+00 -4.07243E+00 +6.37168E+00
 -7.24466E+00 +1.20022E+00 -5.59595E+00 -4.70944E+00 -8.81041E-02 -7.58171E+00 +5.85232E+00 -5.54157E+00
 +8.51615E+00 +1.89407E-01 +6.26241E+00 +6.08093E+00 +5.32217E-01 +8.54192E+00 -5.10275E+00 +6.17645E+00
 -7.22094E+00 +6.14000E-01 -4.68885E+00 -4.58581E+00 +6.95494E-01 -6.21854E+00 +5.42622E+00 -3.43417E+00
 +6.55704E+00 +1.81111E+00 +3.54326E+00 +6.09715E+00 -1.50537E+00 +6.77176E+00 -5.28059E+00 +3.61864E+00
 -5.45870E+00 -1.09833E+00 -2.17862E+00 -4.20435E+00 +2.13453E+00 -3.73767E+00 +4.45448E+00 -2.22263E-01
 +3.21063E+00 +3.74266E+00 -6.59946E-01 +5.28804E+00 -4.37119E+00 +3.25726E+00 -5.21855E+00 -9.77977E-01
 -2.47847E+00 -4.43854E+00 +2.02779E+00 -4.59642E+00 +5.12981E+00 -1.18095E+00 +4.49425E+00 +3.52578E+00
 +3.24400E-01 +6.16936E+00 -4.62947E+00 +4.63209E+00 -6.84142E+00 -3.91266E-01 -4.43092E+00 -5.68401E+00
 +1.40557E+00 -7.57072E+00 +7.00061E+00 -4.43331E+00 +8.56565E+00 +2.02573E+00 +4.77788E+00 +7.71661E+00
 -2.15158E+00 +8.78673E+00 -7.74689E+00 +4.24738E+00 -8.14667E+00 -3.18184E+00 -2.73356E+00 -8.68154E+00
 +5.27355E+00 -8.43902E+00 +1.07650E+01 -2.23865E+00 +1.00388E+01 +6.22506E+00 +3.30584E+00 +1.16204E+01
 -5.29998E+00 +1.04260E+01 -1.03052E+01 +3.30247E+00 -8.44382E+00 -5.22020E+00 -8.46256E-01 -9.61158E+00
 +7.61052E+00 -6.93207E+00 +1.14242E+01 +1.20849E+00 +8.04414E+00 +9.64551E+00 -4.45713E-01 +1.29934E+01
 -8.66637E+00 +9.14723E+00 -1.14441E+01 +6.48701E-01 -7.17515E+00 -6.99079E+00 +1.16085E+00 -8.90643E+00
 +8.00122E+00 -4.04788E+00 +8.87907E+00 +4.18915E+00 +3.33800E+00 +1.02661E+01 -4.83906E+00 +1.01889E+01
 -1.02103E+01 +4.11920E+00 -9.31779E+00 -3.81219E+00 -2.95284E+00 -8.33286E+00 +4.45081E+00 -6.57675E+00
 +7.85759E+00 +3.00073E-02 +5.03818E+00 +6.79247E+00 -1.94860E+00 +8.96462E+00 -8.18314E+00 +4.97862E+00
 -9.24335E+00 -2.49086E+00 -4.22324E+00 -8.33734E+00 +3.62277E+00 -8.48466E+00 +9.04620E+00 -2.67059E+00
 +8.33367E+00 +5.32139E+00 +1.83850E+00 +1.01496E+01 -6.18341E+00 +8.47459E+00 -1.03426E+01 +1.22791E+00
 -7.67226E+00 -6.92290E+00 +3.68989E-01 -1.05809E+01 +8.77291E+00 -7.13852E+00 +1.21781E+01 +1.48562E+00
