 Created: 16-Jan-2021
 $NMID
 ID='D:\BASISSIMULATI'
 FMTDAT='(8E13.5)'
 VOLUME=   1.00000E+00
 TRAMP=   1.00000E+00
 $END
 +2.83735E+01 +3.48196E-02 +2.08150E+01 -1.09751E+01 +3.48180E+00 -1.22653E+01 -1.22156E+01 -1.51363E+00
 -1.65932E+01 +1.44456E+01 -8.30388E+00 +2.44760E+01 +5.08279E+00 +2.11434E+01 +1.28191E+01 +6.11181E+00
 +8.82471E+00 -1.09230E+01 -4.00663E+00 -1.89796E+01 -1.60654E+01 -1.33929E+01 -1.81301E+01 +1.10843E+00
 -8.14602E+00 +1.39538E+01 +7.19807E+00 +1.62849E+01 +1.71949E+01 +7.09388E+00 +1.47224E+01 -6.36857E+00
 +1.28327E+00 -1.40732E+01 -1.40786E+01 -1.05441E+01 -2.11480E+01 +1.23966E+00 -1.56207E+01 +1.21110E+01
 -1.89300E+00 +1.34323E+01 +1.03149E+01 +3.38894E+00 +1.29726E+01 -1.16457E+01 +5.33873E+00 -2.15977E+01
 -5.79234E+00 -1.97775E+01 -1.12409E+01 -7.50578E+00 -6.19222E+00 +6.94910E+00 +6.31535E+00 +1.42666E+01
 +1.76057E+01 +1.05464E+01 +1.96119E+01 -2.15214E-01 +1.06384E+01 -9.28561E+00 -3.45650E+00 -9.60402E+00
 -1.34265E+01 -8.04678E-01 -1.31137E+01 +1.06824E+01 -3.62207E+00 +1.64078E+01 +7.69897E+00 +1.20415E+01
 +1.26149E+01 +4.65734E-01 +7.81576E+00 -1.03262E+01 -2.93660E+00 -1.29386E+01 -1.17370E+01 -5.77080E+00
 -1.23220E+01 +5.96294E+00 -4.52553E+00 +1.40244E+01 +5.73137E+00 +1.29675E+01 +1.08026E+01 +3.83387E+00
 +6.82811E+00 -6.81457E+00 -3.54844E+00 -1.17081E+01 -1.31268E+01 -8.01588E+00 -1.52818E+01 +8.21580E-01
 -8.58301E+00 +7.77310E+00 +2.34208E+00 +7.37920E+00 +1.02098E+01 -3.40134E-01 +1.02317E+01 -9.97891E+00
 +3.33864E+00 -1.46776E+01 -4.73300E+00 -1.10141E+01 -7.71420E+00 -1.36720E+00 -3.30724E+00 +7.85697E+00
 +5.27946E+00 +1.07788E+01 +1.17681E+01 +6.09792E+00 +1.13793E+01 -2.19106E+00 +4.23038E+00 -7.81739E+00
 -4.81739E+00 -6.74127E+00 -9.66653E+00 +7.90733E-02 -7.27998E+00 +7.55764E+00 +2.85029E-01 +1.02544E+01
 +7.47490E+00 +6.28587E+00 +9.23608E+00 -1.40823E+00 +4.52285E+00 -7.26710E+00 -3.13609E+00 -7.12334E+00
 -8.31171E+00 -1.13486E+00 -7.59082E+00 +6.41290E+00 -1.92236E+00 +1.02107E+01 +4.21731E+00 +7.66476E+00
 +6.14713E+00 +6.18169E-01 +2.35617E+00 -6.09273E+00 -4.47031E+00 -8.12816E+00 -9.43908E+00 -4.65215E+00
 -8.96108E+00 +1.24694E+00 -3.25961E+00 +4.92895E+00 +3.87113E+00 +3.59028E+00 +7.80791E+00 -1.77237E+00
 +6.33276E+00 -7.17604E+00 +1.06600E+00 -8.58259E+00 -3.85063E+00 -4.80163E+00 -4.79505E+00 +1.69912E+00
 -1.21826E+00 +6.59712E+00 +4.08364E+00 +6.78479E+00 +7.09641E+00 +2.49941E+00 +5.52258E+00 -2.96358E+00
 +4.07267E-01 -5.67643E+00 -4.66886E+00 -3.86134E+00 -6.18979E+00 +9.50010E-01 -3.19946E+00 +5.14553E+00
 +2.07917E+00 +5.69737E+00 +5.89093E+00 +2.31866E+00 +5.63090E+00 -2.40975E+00 +1.63210E+00 -4.97329E+00
 -3.18061E+00 -3.47884E+00 -5.45789E+00 +1.01173E+00 -3.81744E+00 +5.29126E+00 +2.48739E-01 +6.32916E+00
 +3.55167E+00 +3.41314E+00 +3.56374E+00 -1.40847E+00 +2.36605E-01 -4.85223E+00 -4.00917E+00 -4.75272E+00
 -6.06978E+00 -1.54539E+00 -4.39771E+00 +2.15110E+00 -8.25715E-02 +3.49852E+00 +3.97156E+00 +1.49937E+00
 +5.13850E+00 -2.32532E+00 +2.90758E+00 -5.09199E+00 -8.37135E-01 -4.67002E+00 -3.25212E+00 -1.21591E+00
 -2.61021E+00 +2.96219E+00 +4.88160E-01 +5.07690E+00 +3.61594E+00 +3.84043E+00 +4.33095E+00 +3.28701E-01
 +1.96382E+00 -2.85926E+00 -1.90553E+00 -3.50184E+00 -4.60144E+00 -1.32700E+00 -4.27713E+00 +1.86331E+00
 -1.21540E+00 +3.56949E+00 +2.41387E+00 +2.44372E+00 +4.13321E+00 -7.33787E-01 +2.91437E+00 -3.64173E+00
 -1.48571E-01 -4.11780E+00 -2.70458E+00 -1.72762E+00 -2.88915E+00 +1.92628E+00 -6.68145E-01 +4.35920E+00
 +2.18040E+00 +3.97135E+00 +3.40684E+00 +1.15242E+00 +1.95836E+00 -2.05251E+00 -1.24014E+00 -3.44425E+00
 -3.94858E+00 -2.23587E+00 -4.22392E+00 +4.41552E-01 -1.81030E+00 +2.43208E+00 +1.68833E+00 +2.17023E+00
 +3.95994E+00 -1.67094E-01 +3.61593E+00 -2.80179E+00 +1.12902E+00 -3.66972E+00 -1.57634E+00 -1.94256E+00
 -2.55593E+00 +1.34930E+00 -1.24759E+00 +4.03658E+00 +1.16651E+00 +4.34556E+00 +2.67735E+00 +2.13922E+00
 +1.95754E+00 -1.01739E+00 -6.44555E-01 -2.99531E+00 -3.34327E+00 -2.60950E+00 -4.20412E+00 -4.13407E-01
 -2.54279E+00 +1.77065E+00 +5.75332E-01 +2.21887E+00 +3.08774E+00 +5.66461E-01 +3.38933E+00 -1.94713E+00
 +1.44299E+00 -3.40891E+00 -1.23889E+00 -2.64742E+00 -2.70776E+00 -1.00350E-01 -1.97199E+00 +2.48976E+00
 +3.30206E-01 +3.32363E+00 +2.44272E+00 +1.83188E+00 +2.79509E+00 -9.23479E-01 +1.14361E+00 -3.01154E+00
 -1.26982E+00 -3.00175E+00 -2.64028E+00 -9.57338E-01 -1.92260E+00 +1.64660E+00 +4.05885E-01 +3.00119E+00
 +2.68739E+00 +2.25094E+00 +3.27476E+00 +6.92179E-02 +1.70950E+00 -1.87198E+00 -9.55972E-01 -2.13400E+00
 -2.91215E+00 -5.47179E-01 -2.87255E+00 +1.68966E+00 -9.63837E-01 +2.90070E+00 +1.39738E+00 +2.15822E+00
 +2.53333E+00 -4.54997E-02 +1.69086E+00 -2.15609E+00 -4.59475E-01 -2.67708E+00 -2.34777E+00 -1.24196E+00
 -2.65327E+00 +1.12638E+00 -1.24200E+00 +2.74437E+00 +7.72237E-01 +2.45468E+00 +1.86793E+00 +4.25663E-01
 +1.23598E+00 -1.99264E+00 -6.30962E-01 -3.23321E+00 -2.29705E+00 -2.59806E+00 -2.42232E+00 -6.98061E-01
 -7.32174E-01 +1.04344E+00 +1.77276E+00 +1.44134E+00 +3.50699E+00 +3.88754E-01 +3.39201E+00 -1.10880E+00
 +1.57715E+00 -1.70932E+00 -7.05191E-01 -7.44515E-01 -2.02367E+00 +1.26888E+00 -1.72947E+00 +2.98018E+00
 -3.44473E-01 +3.16001E+00 +8.93667E-01 +1.57415E+00 +9.74008E-01 -8.41665E-01 -1.48783E-01 -2.61997E+00
 -1.54491E+00 -2.75271E+00 -2.01914E+00 -1.33837E+00 -1.01343E+00 +5.51506E-01 +9.52927E-01 +1.66342E+00
 +2.61977E+00 +1.43102E+00 +2.85485E+00 +3.09395E-01 +1.43636E+00 -6.37399E-01 -7.98324E-01 -5.69084E-01
 -2.52882E+00 +4.93730E-01 -2.83490E+00 +1.68581E+00 -1.76730E+00 +1.94347E+00 -2.26410E-01 +8.04117E-01
 +7.31874E-01 -1.21988E+00 +6.46974E-01 -2.95966E+00 -7.33051E-02 -3.37110E+00 -5.29982E-01 -2.22655E+00
 -6.05438E-02 -2.39764E-01 +1.22588E+00 +1.44447E+00 +2.49566E+00 +2.01930E+00 +2.78085E+00 +1.50144E+00
 +1.68221E+00 +6.13684E-01 -3.20212E-01 +1.83591E-01 -2.16688E+00 +5.15118E-01 -2.91106E+00 +1.18890E+00
 -2.31552E+00 +1.41960E+00 -9.47314E-01 +6.90154E-01 +2.69924E-01 -8.11818E-01 +7.05604E-01 -2.27687E+00
 +4.08206E-01 -2.81542E+00 -2.73855E-02 -2.06802E+00 +1.75175E-02 -4.51121E-01 +6.77319E-01 +1.12736E+00
 +1.48628E+00 +1.86980E+00 +1.73249E+00 +1.57999E+00 +1.01125E+00 +7.11424E-01 -4.34536E-01 -3.10189E-02
 -1.83839E+00 -2.22599E-01 -2.40946E+00 +8.27350E-03 -1.84915E+00 +1.49308E-01 -5.23041E-01 -2.33952E-01
 +8.18584E-01 -1.10562E+00 +1.55433E+00 -1.93673E+00 +1.56640E+00 -2.07108E+00 +1.22263E+00 -1.20829E+00
 +1.00999E+00 +3.52114E-01 +1.11697E+00 +1.88384E+00 +1.28602E+00 +2.69711E+00 +1.04159E+00 +2.55910E+00
 +1.10121E-01 +1.78014E+00 -1.29679E+00 +9.26361E-01 -2.56010E+00 +3.91584E-01 -3.04409E+00 +1.51464E-01
 -2.51767E+00 -1.29015E-01 -1.30126E+00 -7.39132E-01 -3.81798E-02 -1.61017E+00 +7.35380E-01 -2.30177E+00
 +9.06628E-01 -2.30777E+00 +7.69267E-01 -1.45255E+00 +7.10672E-01 -7.35341E-02 +8.62242E-01 +1.15874E+00
 +9.91684E-01 +1.66153E+00 +7.21020E-01 +1.30005E+00 -1.05075E-01 +4.30502E-01 -1.19994E+00 -3.93531E-01
 -1.95605E+00 -8.21820E-01 -1.83826E+00 -9.12324E-01 -7.66660E-01 -9.94379E-01 +7.97443E-01 -1.31229E+00
 +2.13532E+00 -1.74436E+00 +2.72440E+00 -1.83643E+00 +2.53548E+00 -1.14381E+00 +1.96480E+00 +3.72535E-01
 +1.46723E+00 +2.20889E+00 +1.18190E+00 +3.57221E+00 +8.44924E-01 +3.86465E+00 +5.98932E-02 +3.05856E+00
 -1.28669E+00 +1.69026E+00 -2.80273E+00 +4.75688E-01 -3.76374E+00 -1.71427E-01 -3.58556E+00 -3.66405E-01
 -2.26011E+00 -5.65108E-01 -4.23135E-01 -1.11522E+00 +1.02018E+00 -1.90421E+00 +1.46226E+00 -2.39238E+00
 +9.54343E-01 -2.02611E+00 +1.05667E-01 -7.25500E-01 -4.00126E-01 +9.36761E-01 -3.10224E-01 +2.03551E+00
 +4.81518E-02 +1.88793E+00 +8.51772E-02 +5.26279E-01 -5.12519E-01 -1.29946E+00 -1.44385E+00 -2.60718E+00
 -1.93904E+00 -2.82039E+00 -1.31031E+00 -2.10617E+00 +4.88361E-01 -1.17561E+00 +2.71949E+00 -7.01752E-01
 +4.27627E+00 -7.93789E-01 +4.38541E+00 -9.26864E-01 +3.10813E+00 -3.87516E-01 +1.27896E+00 +1.09752E+00
 -8.03881E-02 +3.03374E+00 -4.55034E-01 +4.40805E+00 -1.41103E-01 +4.36553E+00 +5.51520E-02 +2.83483E+00
 -5.06083E-01 +6.37887E-01 -1.75595E+00 -1.02135E+00 -2.92493E+00 -1.34552E+00 -3.11054E+00 -4.56009E-01
 -1.99153E+00 +7.36623E-01 -1.49651E-01 +1.21091E+00 +1.26589E+00 +5.71502E-01 +1.31718E+00 -6.89587E-01
 -5.13687E-02 -1.59559E+00 -1.94110E+00 -1.45180E+00 -3.09653E+00 -4.04112E-01 -2.75971E+00 +6.36417E-01
 -1.17639E+00 +6.63380E-01 +6.07107E-01 -6.45433E-01 +1.50870E+00 -2.61963E+00 +1.18289E+00 -4.00849E+00
 +2.39993E-01 -3.83953E+00 -2.45768E-01 -2.11402E+00 +4.24378E-01 +1.67472E-01 +2.00967E+00 +1.68160E+00
 +3.46768E+00 +1.68736E+00 +3.70715E+00 +5.16473E-01 +2.41138E+00 -7.00249E-01 +3.22570E-01 -8.70367E-01
 -1.23988E+00 +2.66183E-01 -1.29828E+00 +1.96211E+00 +8.25627E-02 +3.03143E+00 +1.82233E+00 +2.74253E+00
 +2.57215E+00 +1.37618E+00 +1.65515E+00 +3.05804E-02 -4.68352E-01 -1.93638E-01 -2.54089E+00 +9.64291E-01
 -3.40408E+00 +2.67946E+00 -2.80253E+00 +3.59004E+00 -1.51684E+00 +2.76159E+00 -7.36925E-01 +3.78362E-01
 -1.14218E+00 -2.34086E+00 -2.37010E+00 -3.95268E+00 -3.27232E+00 -3.75476E+00 -2.77943E+00 -2.22451E+00
 -7.43837E-01 -6.26825E-01 +1.86509E+00 -8.39826E-02 +3.57683E+00 -7.84815E-01 +3.42181E+00 -1.90262E+00
 +1.60860E+00 -2.27074E+00 -6.10067E-01 -1.30957E+00 -1.79148E+00 +4.86648E-01 -1.27288E+00 +1.87362E+00
 +4.27034E-01 +1.76694E+00 +2.04688E+00 +7.75891E-02 +2.52778E+00 -2.14501E+00 +1.77083E+00 -3.38688E+00
 +6.57597E-01 -2.69499E+00 +3.28573E-01 -3.30655E-01 +1.26084E+00 +2.41150E+00 +2.83651E+00 +4.08722E+00
 +3.73671E+00 +4.05845E+00 +2.89103E+00 +2.84695E+00 +2.98584E-01 +1.65254E+00 -2.88191E+00 +1.40821E+00
 -5.05611E+00 +2.07478E+00 -5.23115E+00 +2.69451E+00 -3.63860E+00 +2.16085E+00 -1.51182E+00 +1.31160E-01
 -1.90581E-01 -2.60254E+00 -2.02118E-01 -4.57903E+00 -9.73419E-01 -4.65428E+00 -1.36250E+00 -2.80748E+00
 -5.97963E-01 -1.85338E-01 +1.07875E+00 +1.65562E+00 +2.55128E+00 +1.77670E+00 +2.65278E+00 +4.32413E-01
 +1.07301E+00 -1.19973E+00 -1.32569E+00 -1.91969E+00 -3.03476E+00 -1.37196E+00 -2.90933E+00 -2.51349E-01
