 Created: 16-Jan-2021
 $NMID
 ID='D:\BASISSIMULATI'
 FMTDAT='(8E13.5)'
 VOLUME=   1.00000E+00
 TRAMP=   1.00000E+00
 $END
 +5.14708E+01 +5.06360E-02 +4.71000E+01 +1.95814E+01 +3.50501E+01 +3.53706E+01 +1.77200E+01 +4.45050E+01
 -1.47257E+00 +4.54220E+01 -1.87924E+01 +3.82147E+01 -3.09473E+01 +2.45948E+01 -3.57522E+01 +7.52401E+00
 -3.25576E+01 -9.40820E+00 -2.23588E+01 -2.27287E+01 -7.56318E+00 -2.97925E+01 +8.53103E+00 -2.93133E+01
 +2.24345E+01 -2.16063E+01 +3.11965E+01 -8.49335E+00 +3.30120E+01 +7.10498E+00 +2.75807E+01 +2.18015E+01
 +1.61452E+01 +3.24644E+01 +1.20295E+00 +3.68763E+01 -1.40437E+01 +3.41909E+01 -2.63801E+01 +2.50945E+01
 -3.32675E+01 +1.16386E+01 -3.33806E+01 -3.21626E+00 -2.68803E+01 -1.62479E+01 -1.53670E+01 -2.46711E+01
 -1.52388E+00 -2.67388E+01 +1.14707E+01 -2.21171E+01 +2.06360E+01 -1.19551E+01 +2.38387E+01 +1.36432E+00
 +2.02606E+01 +1.47405E+01 +1.05843E+01 +2.50266E+01 -3.14385E+00 +2.97131E+01 -1.79439E+01 +2.74790E+01
 -3.05355E+01 +1.84903E+01 -3.80399E+01 +4.38409E+00 -3.86016E+01 -1.20628E+01 -3.17979E+01 -2.75087E+01
 -1.87478E+01 -3.87475E+01 -1.89664E+00 -4.33854E+01 +1.54803E+01 -4.03529E+01 +2.99520E+01 -3.01418E+01
 +3.86425E+01 -1.47182E+01 +3.98309E+01 +2.87349E+00 +3.33130E+01 +1.91315E+01 +2.04498E+01 +3.08160E+01
 +3.89276E+00 +3.56151E+01 -1.29599E+01 +3.26203E+01 -2.66596E+01 +2.25118E+01 -3.44143E+01 +7.41624E+00
 -3.46585E+01 -9.53418E+00 -2.73678E+01 -2.48481E+01 -1.40548E+01 -3.53926E+01 +2.55198E+00 -3.90331E+01
 +1.90785E+01 -3.50625E+01 +3.22040E+01 -2.43333E+01 +3.93436E+01 -9.06514E+00 +3.91718E+01 +7.62859E+00
 +3.18803E+01 +2.23947E+01 +1.91170E+01 +3.23373E+01 +3.62336E+00 +3.56125E+01 -1.13532E+01 +3.17964E+01
 -2.27455E+01 +2.19521E+01 -2.83080E+01 +8.38413E+00 -2.70776E+01 -5.86581E+00 -1.95599E+01 -1.76733E+01
 -7.60217E+00 -2.44963E+01 +6.01637E+00 -2.49114E+01 +1.81894E+01 -1.89067E+01 +2.61536E+01 -7.87346E+00
 +2.80808E+01 +5.70283E+00 +2.34688E+01 +1.87829E+01 +1.32461E+01 +2.84306E+01 -4.29173E-01 +3.24466E+01
 -1.46330E+01 +2.98430E+01 -2.63032E+01 +2.10596E+01 -3.28974E+01 +7.87427E+00 -3.29402E+01 -6.97183E+00
 -2.63454E+01 -2.03555E+01 -1.44423E+01 -2.94361E+01 +2.97977E-01 -3.22621E+01 +1.47803E+01 -2.81916E+01
 +2.59369E+01 -1.80368E+01 +3.13762E+01 -3.90196E+00 +2.98915E+01 +1.12523E+01 +2.17215E+01 +2.42267E+01
 +8.50897E+00 +3.22530E+01 -7.03627E+00 +3.35765E+01 -2.16985E+01 +2.78267E+01 -3.24245E+01 +1.61006E+01
 -3.69593E+01 +7.38568E-01 -3.43162E+01 -1.51587E+01 -2.49830E+01 -2.83718E+01 -1.08207E+01 -3.62294E+01
 +5.32171E+00 -3.71600E+01 +2.01991E+01 -3.10138E+01 +3.08413E+01 -1.90894E+01 +3.51651E+01 -3.85872E+00
 +3.24005E+01 +1.15504E+01 +2.32406E+01 +2.40056E+01 +9.68763E+00 +3.10183E+01 -5.37344E+00 +3.12554E+01
 -1.87819E+01 +2.48055E+01 -2.77621E+01 +1.31480E+01 -3.04991E+01 -1.16892E+00 -2.65094E+01 -1.50707E+01
 -1.67300E+01 -2.56061E+01 -3.30917E+00 -3.05658E+01 +1.08561E+01 -2.89412E+01 +2.27365E+01 -2.11274E+01
 +2.98115E+01 -8.82982E+00 +3.05986E+01 +5.30583E+00 +2.49609E+01 +1.82589E+01 +1.41289E+01 +2.72759E+01
 +4.32915E-01 +3.04535E+01 -1.31954E+01 +2.71384E+01 -2.38480E+01 +1.80618E+01 -2.92570E+01 +5.18055E+00
 -2.82752E+01 -8.74140E+00 -2.11176E+01 -2.07208E+01 -9.31405E+00 -2.81884E+01 +4.61579E+00 -2.95339E+01
 +1.76971E+01 -2.44468E+01 +2.71301E+01 -1.39829E+01 +3.08823E+01 -3.40800E-01 +2.81195E+01 +1.36016E+01
 +1.93826E+01 +2.48947E+01 +6.47502E+00 +3.11397E+01 -7.91635E+00 +3.09944E+01 -2.07860E+01 +2.44570E+01
 -2.94418E+01 +1.28671E+01 -3.20705E+01 -1.37512E+00 -2.81184E+01 -1.53126E+01 -1.84075E+01 -2.60515E+01
 -4.96150E+00 -3.13679E+01 +9.41858E+00 -3.01728E+01 +2.17426E+01 -2.27385E+01 +2.94577E+01 -1.06388E+01
 +3.09813E+01 +3.58324E+00 +2.60307E+01 +1.69503E+01 +1.56782E+01 +2.66758E+01 +2.12189E+00 +3.07473E+01
 -1.17780E+01 +2.83455E+01 -2.31020E+01 +2.00125E+01 -2.94838E+01 +7.53347E+00 -2.96054E+01 -6.44272E+00
 -2.34708E+01 -1.89624E+01 -1.24008E+01 -2.73892E+01 +1.24867E+00 -2.99572E+01 +1.45848E+01 -2.61400E+01
 +2.47881E+01 -1.67583E+01 +2.97054E+01 -3.80390E+00 +2.83011E+01 +9.98193E+00 +2.08734E+01 +2.16868E+01
 +8.98827E+00 +2.88400E+01 -4.85141E+00 +2.99316E+01 -1.77341E+01 +2.47275E+01 -2.69517E+01 +1.43175E+01
 -3.05683E+01 +8.83335E-01 -2.78250E+01 -1.27606E+01 -1.92972E+01 -2.37593E+01 -6.77126E+00 -2.98156E+01
 +7.13231E+00 -2.96709E+01 +1.95100E+01 -2.33661E+01 +2.77839E+01 -1.22303E+01 +3.02410E+01 +1.40175E+00
 +2.63884E+01 +1.46808E+01 +1.70531E+01 +2.48416E+01 +4.20343E+00 +2.97811E+01 -9.46704E+00 +2.84958E+01
 -2.11067E+01 +2.12873E+01 -2.83034E+01 +9.69274E+00 -2.95876E+01 -3.84295E+00 -2.47355E+01 -1.64843E+01
 -1.48089E+01 -2.56019E+01 -1.92521E+00 -2.93229E+01 +1.11931E+01 -2.69201E+01 +2.17948E+01 -1.89581E+01
 +2.76786E+01 -7.16676E+00 +2.76542E+01 +5.92974E+00 +2.17877E+01 +1.75500E+01 +1.13806E+01 +2.52444E+01
 -1.31108E+00 +2.74110E+01 -1.35593E+01 +2.36314E+01 -2.27438E+01 +1.47546E+01 -2.69075E+01 +2.71209E+00
 -2.51708E+01 -9.89473E+00 -1.79156E+01 -2.03488E+01 -6.70267E+00 -2.63951E+01 +6.06061E+00 -2.67194E+01
 +1.76320E+01 -2.12281E+01 +2.55165E+01 -1.10686E+01 +2.79967E+01 +1.61180E+00 +2.44983E+01 +1.41200E+01
 +1.57148E+01 +2.37858E+01 +3.46469E+00 +2.85275E+01 -9.68956E+00 +2.72929E+01 -2.09793E+01 +2.02854E+01
 -2.80120E+01 +8.92498E+00 -2.92754E+01 -4.44624E+00 -2.44577E+01 -1.70523E+01 -1.45158E+01 -2.62637E+01
 -1.47860E+00 -3.01473E+01 +1.19745E+01 -2.78713E+01 +2.30711E+01 -1.98796E+01 +2.95227E+01 -7.80048E+00
 +2.99996E+01 +5.89230E+00 +2.44068E+01 +1.83935E+01 +1.39005E+01 +2.71488E+01 +6.45781E-01 +3.03835E+01
 -1.26359E+01 +2.74674E+01 -2.32327E+01 +1.90397E+01 -2.90041E+01 +6.87017E+00 -2.88206E+01 -6.51481E+00
 -2.27908E+01 -1.83615E+01 -1.22289E+01 -2.62619E+01 +6.28408E-01 -2.86508E+01 +1.30963E+01 -2.51240E+01
 +2.26050E+01 -1.65109E+01 +2.72359E+01 -4.68865E+00 +2.61155E+01 +7.82111E+00 +1.95881E+01 +1.83884E+01
 +9.13034E+00 +2.48285E+01 -2.97176E+00 +2.58585E+01 -1.41137E+01 +2.13588E+01 -2.19277E+01 +1.23882E+01
 -2.47832E+01 +9.48415E-01 -2.21288E+01 -1.04492E+01 -1.46026E+01 -1.93228E+01 -3.88927E+00 -2.37508E+01
 +7.64507E+00 -2.27805E+01 +1.74618E+01 -1.66301E+01 +2.33948E+01 -6.63939E+00 +2.41148E+01 +5.01712E+00
 +1.94157E+01 +1.57961E+01 +1.02613E+01 +2.33296E+01 -1.41687E+00 +2.59325E+01 -1.31284E+01 +2.29660E+01
 -2.23524E+01 +1.49796E+01 -2.70742E+01 +3.60067E+00 -2.62168E+01 -8.80408E+00 -1.98751E+01 -1.96254E+01
 -9.30416E+00 -2.65614E+01 +3.33783E+00 -2.81049E+01 +1.54374E+01 -2.38656E+01 +2.44707E+01 -1.46588E+01
 +2.85325E+01 -2.34156E+00 +2.67360E+01 +1.05694E+01 +1.94020E+01 +2.14184E+01 +7.99667E+00 +2.79620E+01
 -5.17001E+00 +2.88347E+01 -1.74204E+01 +2.38325E+01 -2.62622E+01 +1.39552E+01 -2.99020E+01 +1.19892E+00
 -2.76131E+01 -1.18571E+01 -1.98812E+01 -2.25836E+01 -8.29840E+00 -2.88426E+01 +4.77111E+00 -2.94241E+01
 +1.66838E+01 -2.42883E+01 +2.50638E+01 -1.45636E+01 +2.82905E+01 -2.30234E+00 +2.58256E+01 +9.95368E+00
 +1.83116E+01 +1.97051E+01 +7.42427E+00 +2.50138E+01 -4.48980E+00 +2.48992E+01 -1.49121E+01 +1.95307E+01
 -2.16821E+01 +1.01771E+01 -2.34473E+01 -1.07395E+00 -1.99379E+01 -1.17670E+01 -1.20120E+01 -1.96025E+01
 -1.46035E+00 -2.29235E+01 +9.38378E+00 -2.10618E+01 +1.81475E+01 -1.44722E+01 +2.29263E+01 -4.62654E+00
 +2.26893E+01 +6.30777E+00 +1.74968E+01 +1.59366E+01 +8.48336E+00 +2.21541E+01 -2.38801E+00 +2.35953E+01
 -1.27483E+01 +1.99296E+01 -2.03316E+01 +1.19325E+01 -2.34629E+01 +1.32208E+00 -2.14196E+01 -9.60691E+00
 -1.45910E+01 -1.84723E+01 -4.40181E+00 -2.33143E+01 +6.98555E+00 -2.30166E+01 +1.71266E+01 -1.75512E+01
 +2.38119E+01 -7.99235E+00 +2.55376E+01 +3.70182E+00 +2.18287E+01 +1.50958E+01 +1.33474E+01 +2.37858E+01
 +1.76330E+00 +2.79042E+01 -1.05892E+01 +2.65144E+01 -2.11929E+01 +1.98119E+01 -2.78707E+01 +9.08990E+00
 -2.92379E+01 -3.52424E+00 -2.49914E+01 -1.55064E+01 -1.59739E+01 -2.44560E+01 -4.00068E+00 -2.85907E+01
 +8.51493E+00 -2.71126E+01 +1.90597E+01 -2.03701E+01 +2.55375E+01 -9.78130E+00 +2.66982E+01 +2.46291E+00
 +2.23891E+01 +1.38546E+01 +1.35784E+01 +2.20879E+01 +2.14566E+00 +2.55322E+01 -9.51531E+00 +2.35629E+01
 -1.89965E+01 +1.66796E+01 -2.43754E+01 +6.39071E+00 -2.46084E+01 -5.11220E+00 -1.97378E+01 -1.54185E+01
 -1.08696E+01 -2.24046E+01 +7.10041E-02 -2.46749E+01 +1.07537E+01 -2.18458E+01 +1.89387E+01 -1.46146E+01
 +2.29486E+01 -4.59929E+00 +2.20170E+01 +6.01391E+00 +1.64424E+01 +1.49407E+01 +7.51433E+00 +2.02862E+01
 -2.76977E+00 +2.09458E+01 -1.21372E+01 +1.68368E+01 -1.85284E+01 +8.90983E+00 -2.05388E+01 -1.05934E+00
 -1.77184E+01 -1.08533E+01 -1.06683E+01 -1.82906E+01 -9.11513E-01 -2.16946E+01 +9.43212E+00 -2.02548E+01
 +1.80993E+01 -1.42041E+01 +2.31675E+01 -4.77319E+00 +2.34684E+01 +6.06739E+00 +1.88414E+01 +1.60229E+01
 +1.01747E+01 +2.29608E+01 -7.75726E-01 +2.53646E+01 -1.17521E+01 +2.26591E+01 -2.04675E+01 +1.53382E+01
 -2.50872E+01 +4.86781E+00 -2.46163E+01 -6.61535E+00 -1.91126E+01 -1.67478E+01 -9.67996E+00 -2.34317E+01
 +1.75815E+00 -2.52729E+01 +1.28556E+01 -2.18731E+01 +2.13299E+01 -1.39149E+01 +2.54354E+01 -3.02172E+00
 +2.43248E+01 +8.57849E+00 +1.82238E+01 +1.85140E+01 +8.38238E+00 +2.47601E+01 -3.18652E+00 +2.60559E+01
 -1.41254E+01 +2.21620E+01 -2.22209E+01 +1.39045E+01 -2.58601E+01 +2.99821E+00 -2.43599E+01 -8.31428E+00
 -1.81006E+01 -1.77307E+01 -8.43835E+00 -2.33666E+01 +2.58594E+00 -2.41424E+01 +1.26774E+01 -2.00002E+01
 +1.97684E+01 -1.19045E+01 +2.24473E+01 -1.63052E+00 +2.02478E+01 +8.61648E+00 +1.37362E+01 +1.66687E+01
 +4.38162E+00 +2.08516E+01 -5.76276E+00 +2.03323E+01 -1.44995E+01 +1.52881E+01 -1.99538E+01 +6.86022E+00
 -2.09696E+01 -3.09597E+00 -1.73504E+01 -1.24104E+01 -9.89613E+00 -1.90626E+01 -2.27688E-01 -2.16120E+01
 +9.56178E+00 -1.95031E+01 +1.73551E+01 -1.31827E+01 +2.14632E+01 -4.00229E+00 +2.09859E+01 +6.07044E+00
 +1.60040E+01 +1.48716E+01 +7.56356E+00 +2.05021E+01 -2.54531E+00 +2.17333E+01 -1.21674E+01 +1.82696E+01
 -1.92393E+01 +1.08145E+01 -2.22278E+01 +9.24584E-01 -2.04564E+01 -9.31679E+00 -1.42520E+01 -1.77384E+01
