 Created: 16-Jan-2021
 $NMID
 ID='D:\BASISSIMULATI'
 FMTDAT='(8E13.5)'
 VOLUME=   1.00000E+00
 TRAMP=   1.00000E+00
 $END
 +2.83447E+01 +2.91416E-02 +2.43629E+01 +2.53805E+00 +1.41550E+01 +6.26752E+00 +1.82759E+00 +1.11580E+01
 -8.13811E+00 +1.55253E+01 -1.29514E+01 +1.69831E+01 -1.24652E+01 +1.40374E+01 -8.63479E+00 +7.28286E+00
 -4.02001E+00 -6.36351E-01 -3.70445E-01 -6.34464E+00 +1.86901E+00 -7.54403E+00 +3.02580E+00 -4.20921E+00
 +3.26119E+00 +1.53445E+00 +2.07368E+00 +6.70958E+00 -1.31675E+00 +9.09896E+00 -6.99525E+00 +8.17776E+00
 -1.35962E+01 +4.89591E+00 -1.84885E+01 +6.39274E-01 -1.89860E+01 -3.78131E+00 -1.39122E+01 -8.36907E+00
 -4.51123E+00 -1.33008E+01 +5.96313E+00 -1.80002E+01 +1.38280E+01 -2.07773E+01 +1.68163E+01 -1.94983E+01
 +1.50886E+01 -1.29869E+01 +1.08344E+01 -2.23808E+00 +6.76894E+00 +9.47600E+00 +4.51717E+00 +1.78921E+01
 +3.89726E+00 +1.98202E+01 +3.48496E+00 +1.48208E+01 +1.97467E+00 +5.49476E+00 -6.62040E-01 -3.81418E+00
 -3.04683E+00 -9.17054E+00 -3.38678E+00 -8.83750E+00 -8.90873E-01 -3.76388E+00 +3.39673E+00 +3.34969E+00
 +6.97363E+00 +9.68247E+00 +7.28204E+00 +1.35790E+01 +3.25816E+00 +1.48098E+01 -3.96206E+00 +1.38938E+01
 -1.16271E+01 +1.11953E+01 -1.68599E+01 +6.56933E+00 -1.81082E+01 -1.74236E-01 -1.56839E+01 -8.41406E+00
 -1.11616E+01 -1.62596E+01 -6.16720E+00 -2.10467E+01 -1.44753E+00 -2.06545E+01 +3.15870E+00 -1.48615E+01
 +7.93138E+00 -5.80943E+00 +1.23645E+01 +2.85459E+00 +1.49530E+01 +7.76106E+00 +1.39741E+01 +7.50769E+00
 +8.81092E+00 +3.25861E+00 +8.83355E-01 -2.08638E+00 -6.58613E+00 -5.61311E+00 -1.00273E+01 -5.93626E+00
 -7.43190E+00 -3.65652E+00 +4.12848E-01 -5.57919E-01 +1.01511E+01 +1.81218E+00 +1.74712E+01 +3.17734E+00
 +1.92045E+01 +4.49891E+00 +1.47364E+01 +6.96253E+00 +6.00819E+00 +1.07585E+01 -3.75098E+00 +1.45701E+01
 -1.16958E+01 +1.61876E+01 -1.64444E+01 +1.38790E+01 -1.80735E+01 +7.61023E+00 -1.73000E+01 -7.16782E-01
 -1.46208E+01 -8.19807E+00 -1.00919E+01 -1.24559E+01 -3.84779E+00 -1.28035E+01 +3.16411E+00 -1.03487E+01
 +8.97880E+00 -7.05256E+00 +1.13179E+01 -4.43891E+00 +8.88965E+00 -2.83665E+00 +2.44722E+00 -1.61123E+00
 -5.19467E+00 -1.16534E-01 -1.03746E+01 +1.42170E+00 -1.04228E+01 +1.82419E+00 -5.06608E+00 -1.82417E-01
 +3.44417E+00 -4.74485E+00 +1.15640E+01 -1.02160E+01 +1.63101E+01 -1.36522E+01 +1.66405E+01 -1.23261E+01
 +1.36036E+01 -5.39151E+00 +9.29687E+00 +5.34253E+00 +5.41185E+00 +1.60785E+01 +2.33811E+00 +2.28197E+01
 -6.49174E-01 +2.32811E+01 -4.36861E+00 +1.78543E+01 -8.69583E+00 +9.15044E+00 -1.23094E+01 +4.96543E-01
 -1.34408E+01 -5.65988E+00 -1.11219E+01 -8.54297E+00 -6.04704E+00 -8.74966E+00 -4.07703E-01 -7.30075E+00
 +3.25539E+00 -4.83877E+00 +3.47004E+00 -1.53699E+00 +6.15991E-01 +2.33599E+00 -3.41330E+00 +5.79702E+00
 -6.41874E+00 +7.14432E+00 -7.16139E+00 +4.77681E+00 -5.86947E+00 -1.61966E+00 -3.71816E+00 -1.03572E+01
 -1.73078E+00 -1.81397E+01 +5.86809E-02 -2.15223E+01 +2.54802E+00 -1.86711E+01 +6.64021E+00 -1.03919E+01
 +1.21284E+01 +2.15905E-01 +1.72608E+01 +9.31302E+00 +1.94277E+01 +1.41866E+01 +1.66490E+01 +1.43697E+01
 +8.94975E+00 +1.14404E+01 -1.29021E+00 +7.75697E+00 -1.03282E+01 +5.00490E+00 -1.48745E+01 +3.46806E+00
 -1.36984E+01 +2.37759E+00 -8.11407E+00 +9.43531E-01 -1.12380E+00 -7.61227E-01 +4.20362E+00 -1.73472E+00
 +6.14021E+00 -8.42042E-01 +4.74065E+00 +2.12592E+00 +1.24686E+00 +5.94338E+00 -2.96039E+00 +8.43446E+00
 -7.07671E+00 +7.70374E+00 -1.08276E+01 +3.32633E+00 -1.38647E+01 -3.29582E+00 -1.52522E+01 -9.66978E+00
 -1.36200E+01 -1.35810E+01 -8.03026E+00 -1.42248E+01 +1.00366E+00 -1.23982E+01 +1.11425E+01 -9.69221E+00
 +1.89481E+01 -7.28990E+00 +2.14589E+01 -5.22495E+00 +1.77518E+01 -2.60755E+00 +9.54203E+00 +1.37220E+00
 +4.02518E-01 +6.42059E+00 -5.99694E+00 +1.08949E+01 -7.63936E+00 +1.26117E+01 -4.92774E+00 +1.02460E+01
 -1.12650E-01 +4.40530E+00 +4.16582E+00 -2.38243E+00 +6.27911E+00 -6.86136E+00 +6.14140E+00 -6.75695E+00
 +4.69338E+00 -1.99569E+00 +2.85875E+00 +5.27905E+00 +7.90585E-01 +1.18723E+01 -2.05957E+00 +1.51576E+01
 -6.15994E+00 +1.42031E+01 -1.10557E+01 +9.83724E+00 -1.51766E+01 +3.79235E+00 -1.65438E+01 -2.38058E+00
 -1.39665E+01 -7.88960E+00 -7.92892E+00 -1.24968E+01 -5.27255E-01 -1.58722E+01 +5.57364E+00 -1.71729E+01
 +8.54025E+00 -1.53188E+01 +8.25673E+00 -9.86176E+00 +6.15646E+00 -1.81777E+00 +4.14833E+00 +6.25926E+00
 +3.37402E+00 +1.12360E+01 +3.62097E+00 +1.09640E+01 +3.74794E+00 +5.54633E+00 +2.77484E+00 -2.50885E+00
 +8.28421E-01 -9.43214E+00 -7.65659E-01 -1.20376E+01 -3.58475E-01 -9.23938E+00 +2.75155E+00 -2.40952E+00
 +7.53562E+00 +5.55175E+00 +1.15355E+01 +1.18050E+01 +1.21449E+01 +1.48568E+01 +8.11560E+00 +1.48591E+01
 +3.62789E-01 +1.29236E+01 -8.43091E+00 +1.00758E+01 -1.51704E+01 +6.62409E+00 -1.78437E+01 +2.33709E+00
 -1.62980E+01 -2.81449E+00 -1.19359E+01 -8.02063E+00 -6.66571E+00 -1.16906E+01 -1.86266E+00 -1.22757E+01
 +2.01006E+00 -9.33330E+00 +5.01268E+00 -4.07006E+00 +7.03432E+00 +1.09517E+00 +7.45396E+00 +3.76723E+00
 +5.50923E+00 +2.87411E+00 +1.13806E+00 -7.81163E-01 -4.37660E+00 -5.06559E+00 -8.58163E+00 -7.80632E+00
 -8.94535E+00 -8.00115E+00 -4.30691E+00 -6.19542E+00 +4.20879E+00 -3.83853E+00 +1.34594E+01 -2.11507E+00
 +1.96946E+01 -1.08293E+00 +2.03617E+01 +2.79715E-01 +1.53007E+01 +3.15836E+00 +6.67703E+00 +7.77046E+00
 -2.24711E+00 +1.28406E+01 -8.74054E+00 +1.61100E+01 -1.16929E+01 +1.56135E+01 -1.16444E+01 +1.09247E+01
 -9.93275E+00 +3.56576E+00 -7.65779E+00 -3.70447E+00 -5.17617E+00 -8.29997E+00 -2.37437E+00 -9.06569E+00
 +6.34346E-01 -6.65944E+00 +3.04754E+00 -2.91418E+00 +3.60743E+00 +3.21792E-01 +1.44223E+00 +2.09182E+00
 -3.07700E+00 +2.46239E+00 -8.14350E+00 +1.94171E+00 -1.12562E+01 +7.47289E-01 -1.05309E+01 -1.44887E+00
 -5.79134E+00 -5.07230E+00 +1.26162E+00 -9.84736E+00 +7.94256E+00 -1.43286E+01 +1.20063E+01 -1.62707E+01
 +1.27382E+01 -1.37738E+01 +1.10691E+01 -6.55138E+00 +8.70949E+00 +3.51450E+00 +6.92605E+00 +1.29958E+01
 +5.78799E+00 +1.84742E+01 +4.35898E+00 +1.81887E+01 +1.65057E+00 +1.28467E+01 -2.37172E+00 +5.15358E+00
 -6.47145E+00 -1.62998E+00 -8.77868E+00 -5.24796E+00 -7.98502E+00 -5.26652E+00 -4.30119E+00 -2.80762E+00
 +4.82660E-01 +4.58552E-01 +3.91416E+00 +3.31637E+00 +4.21875E+00 +5.37642E+00 +1.23798E+00 +6.71393E+00
 -3.58811E+00 +7.21647E+00 -8.12755E+00 +6.26607E+00 -1.07311E+01 +3.08523E+00 -1.09327E+01 -2.47300E+00
 -9.30682E+00 -9.31000E+00 -6.71391E+00 -1.52092E+01 -3.56570E+00 -1.77904E+01 +3.20198E-01 -1.57842E+01
 +5.18691E+00 -9.83686E+00 +1.05793E+01 -2.29259E+00 +1.50270E+01 +3.97621E+00 +1.65565E+01 +7.02019E+00
 +1.38262E+01 +6.68924E+00 +7.17937E+00 +4.44052E+00 -1.13243E+00 +2.25866E+00 -7.83346E+00 +1.41429E+00
 -1.02001E+01 +1.84917E+00 -7.45000E+00 +2.52503E+00 -1.13808E+00 +2.41684E+00 +5.66822E+00 +1.41113E+00
 +9.94546E+00 +4.62924E-01 +1.01085E+01 +8.97480E-01 +6.50217E+00 +3.34859E+00 +8.41609E-01 +7.08918E+00
 -4.91084E+00 +1.02550E+01 -9.47525E+00 +1.08625E+01 -1.24737E+01 +7.98324E+00 -1.39802E+01 +2.32574E+00
 -1.39109E+01 -4.14076E+00 -1.18274E+01 -9.26448E+00 -7.35057E+00 -1.17960E+01 -8.62627E-01 -1.18171E+01
 +6.11524E+00 -1.03202E+01 +1.13079E+01 -8.32046E+00 +1.27479E+01 -6.17354E+00 +9.90997E+00 -3.57618E+00
 +4.18042E+00 -2.01188E-01 -1.71853E+00 +3.57107E+00 -5.08270E+00 +6.45845E+00 -4.59147E+00 +6.88208E+00
 -8.89725E-01 +4.04308E+00 +3.93169E+00 -1.25265E+00 +7.59910E+00 -6.65715E+00 +8.86711E+00 -9.32977E+00
 +7.95988E+00 -7.42902E+00 +6.05725E+00 -1.17877E+00 +4.26608E+00 +7.14030E+00 +2.82283E+00 +1.42906E+01
 +1.06710E+00 +1.76403E+01 -1.83896E+00 +1.63093E+01 -6.00037E+00 +1.13120E+01 -1.03779E+01 +4.74151E+00
 -1.32164E+01 -1.40342E+00 -1.30659E+01 -6.01615E+00 -9.72564E+00 -8.92054E+00 -4.47289E+00 -1.03260E+01
 +5.95236E-01 -1.02557E+01 +3.69586E+00 -8.44947E+00 +4.25365E+00 -4.81627E+00 +3.01127E+00 -3.16399E-02
 +1.34637E+00 +4.29478E+00 +3.07327E-01 +6.18521E+00 +3.89099E-02 +4.36128E+00 -3.79210E-02 -8.40250E-01
 -4.82162E-01 -7.35237E+00 -1.12647E+00 -1.22550E+01 -9.88897E-01 -1.32118E+01 +1.06181E+00 -9.65258E+00
 +5.31467E+00 -3.01317E+00 +1.06122E+01 +4.09455E+00 +1.46442E+01 +9.26809E+00 +1.50764E+01 +1.14279E+01
 +1.08833E+01 +1.10453E+01 +3.07059E+00 +9.45742E+00 -5.68429E+00 +7.81397E+00 -1.23017E+01 +6.38469E+00
 -1.47574E+01 +4.65048E+00 -1.29145E+01 +2.02866E+00 -8.32020E+00 -1.35931E+00 -3.19399E+00 -4.48256E+00
 +7.16189E-01 -5.94794E+00 +2.74025E+00 -4.94030E+00 +3.11798E+00 -1.89666E+00 +2.35892E+00 +1.58565E+00
 +7.08520E-01 +3.59681E+00 -1.86192E+00 +2.99445E+00 -5.18588E+00 +2.78115E-02 -8.41204E+00 -3.88428E+00
 -1.00135E+01 -7.05355E+00 -8.46530E+00 -8.49295E+00 -3.24078E+00 -8.32613E+00 +4.53367E+00 -7.40833E+00
 +1.22954E+01 -6.48284E+00 +1.71425E+01 -5.51607E+00 +1.72475E+01 -3.71839E+00 +1.27798E+01 -2.60098E-01
 +5.78879E+00 +4.82433E+00 -8.84907E-01 +1.02247E+01 -5.03141E+00 +1.38164E+01 -6.01028E+00 +1.37933E+01
 -4.72507E+00 +9.79273E+00 -2.76623E+00 +3.28882E+00 -1.34903E+00 -3.03939E+00 -7.34489E-01 -6.63176E+00
 -4.32560E-01 -6.30130E+00 +7.24146E-02 -2.71135E+00 +6.78453E-01 +2.14410E+00 +6.13779E-01 +6.07414E+00
 -9.71299E-01 +7.72792E+00 -4.20429E+00 +6.96457E+00 -8.09443E+00 +4.47497E+00 -1.08909E+01 +1.06639E+00
 -1.10247E+01 -2.81513E+00 -8.04418E+00 -7.00589E+00 -2.92918E+00 -1.11438E+01 +2.43629E+00 -1.42792E+01
 +6.30486E+00 -1.50254E+01 +7.95747E+00 -1.22896E+01 +7.89274E+00 -6.15086E+00 +7.23823E+00 +1.75169E+00
 +6.82967E+00 +8.71064E+00 +6.61547E+00 +1.21664E+01 +5.80154E+00 +1.09954E+01 +3.62155E+00 +6.11518E+00
 +1.65090E-01 +2.54140E-02 -3.36610E+00 -4.46849E+00 -5.22542E+00 -5.62129E+00 -4.19609E+00 -3.44352E+00
 -4.83592E-01 +5.99887E-01 +4.18552E+00 +4.60278E+00 +7.38150E+00 +7.26048E+00 +7.24834E+00 +8.31932E+00
 +3.48722E+00 +8.26310E+00 -2.52315E+00 +7.59115E+00 -8.50228E+00 +6.28455E+00 -1.24350E+01 +3.86666E+00
 -1.34298E+01 -9.01749E-03 -1.18263E+01 -4.92383E+00 -8.62668E+00 -9.55068E+00 -4.74673E+00 -1.22029E+01
 -6.30276E-01 -1.17750E+01 +3.56580E+00 -8.46449E+00 +7.47189E+00 -3.76935E+00 +1.01998E+01 +2.86664E-01
