 Created: 16-Jan-2021
 $NMID
 ID='D:\BASISSIMULATI'
 FMTDAT='(8E13.5)'
 VOLUME=   1.00000E+00
 TRAMP=   1.00000E+00
 $END
 +1.53002E+01 +1.48653E-02 +1.43046E+01 +5.04818E+00 +1.15417E+01 +9.28675E+00 +7.50349E+00 +1.21044E+01
 +2.89269E+00 +1.31474E+01 -1.51794E+00 +1.23961E+01 -5.03718E+00 +1.01577E+01 -7.18756E+00 +6.99434E+00
 -7.79101E+00 +3.60026E+00 -6.99123E+00 +6.56035E-01 -5.20914E+00 -1.31100E+00 -3.04186E+00 -2.03059E+00
 -1.12722E+00 -1.53680E+00 -2.70496E-03 -1.49739E-01 +1.13481E-02 +1.60360E+00 -1.11989E+00 +3.11169E+00
 -3.13987E+00 +3.81774E+00 -5.55786E+00 +3.34629E+00 -7.75667E+00 +1.59021E+00 -9.12774E+00 -1.25986E+00
 -9.20515E+00 -4.74977E+00 -7.77004E+00 -8.25242E+00 -4.90385E+00 -1.10954E+01 -9.79275E-01 -1.26990E+01
 +3.40911E+00 -1.26961E+01 +7.55991E+00 -1.10087E+01 +1.08017E+01 -7.86633E+00 +1.26238E+01 -3.76152E+00
 +1.27732E+01 +6.46180E-01 +1.13001E+01 +4.65916E+00 +8.54113E+00 +7.67622E+00 +5.04653E+00 +9.30523E+00
 +1.46603E+00 +9.43145E+00 -1.58238E+00 +8.22833E+00 -3.63343E+00 +6.10975E+00 -4.46077E+00 +3.63482E+00
 -4.11139E+00 +1.38576E+00 -2.88235E+00 -1.55198E-01 -1.24583E+00 -7.04215E-01 +2.60666E-01 -2.29705E-01
 +1.15531E+00 +1.04888E+00 +1.11842E+00 +2.71596E+00 +6.23101E-02 +4.25600E+00 -1.84978E+00 +5.16993E+00
 -4.23887E+00 +5.08709E+00 -6.59158E+00 +3.84897E+00 -8.36994E+00 +1.54757E+00 -9.12638E+00 -1.48940E+00
 -8.59987E+00 -4.76284E+00 -6.77312E+00 -7.70234E+00 -3.87960E+00 -9.78084E+00 -3.59095E-01 -1.06203E+01
 +3.22825E+00 -1.00662E+01 +6.31145E+00 -8.21688E+00 +8.41900E+00 -5.40138E+00 +9.26754E+00 -2.11169E+00
 +8.81112E+00 +1.09602E+00 +7.24205E+00 +3.71063E+00 +4.94398E+00 +5.36323E+00 +2.40819E+00 +5.89281E+00
 +1.30900E-01 +5.36767E+00 -1.48678E+00 +4.05965E+00 -2.21571E+00 +2.37756E+00 -2.03738E+00 +7.74783E-01
 -1.13725E+00 -3.49061E-01 +1.44418E-01 -7.31857E-01 +1.39292E+00 -3.01026E-01 +2.21306E+00 +8.16213E-01
 +2.31652E+00 +2.32548E+00 +1.58464E+00 +3.83292E+00 +9.37547E-02 +4.93300E+00 -1.90135E+00 +5.29746E+00
 -4.02172E+00 +4.74694E+00 -5.84410E+00 +3.29042E+00 -6.98941E+00 +1.12480E+00 -7.20123E+00 -1.40438E+00
 -6.39821E+00 -3.87266E+00 -4.69009E+00 -5.86149E+00 -2.35476E+00 -7.04080E+00 +2.18236E-01 -7.23226E+00
 +2.60534E+00 -6.44075E+00 +4.43164E+00 -4.84860E+00 +5.44138E+00 -2.77446E+00 +5.54266E+00 -6.06419E-01
 +4.81769E+00 +1.27650E+00 +3.49793E+00 +2.57798E+00 +1.91014E+00 +3.13842E+00 +4.05502E-01 +2.95904E+00
 -7.13145E-01 +2.19214E+00 -1.25091E+00 +1.10086E+00 -1.15555E+00 -2.19426E-03 -5.20996E-01 -8.23992E-01
 +4.39885E-01 -1.15312E+00 +1.44643E+00 -9.02253E-01 +2.21382E+00 -1.22862E-01 +2.51547E+00 +1.00994E+00
 +2.23109E+00 +2.23828E+00 +1.37104E+00 +3.27867E+00 +7.24321E-02 +3.88315E+00 -1.43117E+00 +3.89139E+00
 -2.85947E+00 +3.26331E+00 -3.94355E+00 +2.08606E+00 -4.48035E+00 +5.54643E-01 -4.37208E+00 -1.06891E+00
 -3.64336E+00 -2.50882E+00 -2.43308E+00 -3.52994E+00 -9.63630E-01 -3.98209E+00 +5.05351E-01 -3.82586E+00
 +1.72874E+00 -3.13515E+00 +2.52253E+00 -2.07721E+00 +2.79598E+00 -8.74958E-01 +2.56357E+00 +2.39846E-01
 +1.93527E+00 +1.07259E+00 +1.08816E+00 +1.50182E+00 +2.26226E-01 +1.49828E+00 -4.62857E-01 +1.12427E+00
 -8.45023E-01 +5.14175E-01 -8.63799E-01 -1.58378E-01 -5.46832E-01 -7.19598E-01 +5.38489E-03 -1.03219E+00
 +6.45261E-01 -1.02226E+00 +1.21216E+00 -6.91509E-01 +1.56721E+00 -1.12860E-01 +1.62169E+00 +5.88387E-01
 +1.35336E+00 +1.26334E+00 +8.08191E-01 +1.77156E+00 +8.78665E-02 +2.00968E+00 -6.73387E-01 +1.93076E+00
 -1.33734E+00 +1.55111E+00 -1.78944E+00 +9.43829E-01 -1.95995E+00 +2.21380E-01 -1.83488E+00 -4.88646E-01
 -1.45493E+00 -1.06908E+00 -9.03816E-01 -1.43479E+00 -2.88908E-01 -1.54632E+00 +2.81093E-01 -1.41343E+00
 +7.16802E-01 -1.08857E+00 +9.63058E-01 -6.52783E-01 +1.00564E+00 -1.97230E-01 +8.69269E-01 +1.95174E-01
 +6.08125E-01 +4.64518E-01 +2.91775E-01 +5.82354E-01 -1.02418E-02 +5.52901E-01 -2.41771E-01 +4.07622E-01
 -3.68896E-01 +1.95143E-01 -3.83074E-01 -3.07688E-02 -2.98717E-01 -2.22403E-01 -1.46582E-01 -3.46263E-01
 +3.49698E-02 -3.86948E-01 +2.08603E-01 -3.46695E-01 +3.44691E-01 -2.41463E-01 +4.24980E-01 -9.51460E-02
 +4.43084E-01 +6.63969E-02 +4.02463E-01 +2.20052E-01 +3.13061E-01 +3.48113E-01 +1.87900E-01 +4.38830E-01
 +4.06150E-02 +4.85429E-01 -1.15580E-01 +4.84562E-01 -2.67679E-01 +4.35150E-01 -4.02082E-01 +3.38261E-01
 -5.04095E-01 +1.98143E-01 -5.58538E-01 +2.39258E-02 -5.51831E-01 -1.68878E-01 -4.75313E-01 -3.58080E-01
 -3.29017E-01 -5.16505E-01 -1.24665E-01 -6.15876E-01 +1.13346E-01 -6.32416E-01 +3.49871E-01 -5.53015E-01
 +5.44087E-01 -3.80391E-01 +6.57073E-01 -1.35621E-01 +6.60454E-01 +1.43135E-01 +5.44151E-01 +4.06095E-01
 +3.21187E-01 +6.00876E-01 +2.79443E-02 +6.83432E-01 -2.80831E-01 +6.28593E-01 -5.41772E-01 +4.37684E-01
 -6.95712E-01 +1.41100E-01 -7.00978E-01 -2.05310E-01 -5.44172E-01 -5.29894E-01 -2.45744E-01 -7.59298E-01
 +1.41372E-01 -8.34246E-01 +5.40396E-01 -7.23627E-01 +8.65287E-01 -4.33611E-01 +1.03853E+00 -9.35589E-03
 +1.00842E+00 +4.71619E-01 +7.62063E-01 +9.13550E-01 +3.30899E-01 +1.22147E+00 -2.12951E-01 +1.32134E+00
 -7.69234E-01 +1.17695E+00 -1.22888E+00 +7.99783E-01 -1.49624E+00 +2.49264E-01 -1.50971E+00 -3.77131E-01
 -1.25605E+00 -9.62313E-01 -7.75237E-01 -1.39300E+00 -1.54225E-01 -1.58333E+00 +4.89436E-01 -1.49365E+00
 +1.03108E+00 -1.14020E+00 +1.36474E+00 -5.93352E-01 +1.42580E+00 +3.57188E-02 +1.20568E+00 +6.17414E-01
 +7.54984E-01 +1.03073E+00 +1.74082E-01 +1.18921E+00 -4.07137E-01 +1.06032E+00 -8.56497E-01 +6.73825E-01
 -1.06804E+00 +1.16987E-01 -9.85758E-01 -4.82629E-01 -6.17312E-01 -9.83611E-01 -3.45110E-02 -1.26092E+00
 +6.39960E-01 -1.23354E+00 +1.25712E+00 -8.83624E-01 +1.67266E+00 -2.62719E-01 +1.77790E+00 +5.16546E-01
 +1.52417E+00 +1.30197E+00 +9.35220E-01 +1.93231E+00 +1.04800E-01 +2.27052E+00 -8.20469E-01 +2.23292E+00
 -1.66968E+00 +1.80784E+00 -2.28191E+00 +1.05985E+00 -2.53911E+00 +1.18216E-01 -2.39068E+00 -8.48227E-01
 -1.86453E+00 -1.66470E+00 -1.06202E+00 -2.18579E+00 -1.37714E-01 -2.32500E+00 +7.32084E-01 -2.07239E+00
 +1.38546E+00 -1.49637E+00 +1.70820E+00 -7.29256E-01 +1.65728E+00 +6.06698E-02 +1.26948E+00 +7.04687E-01
 +6.53139E-01 +1.06943E+00 -3.52129E-02 +1.08532E+00 -6.24645E-01 +7.61612E-01 -9.66928E-01 +1.84686E-01
 -9.69095E-01 -5.00143E-01 -6.14523E-01 -1.11965E+00 +3.20653E-02 -1.51007E+00 +8.36922E-01 -1.55302E+00
 +1.62451E+00 -1.20227E+00 +2.21406E+00 -4.95633E-01 +2.45789E+00 +4.50674E-01 +2.27334E+00 +1.46430E+00
 +1.66174E+00 +2.35110E+00 +7.10105E-01 +2.93453E+00 -4.24845E-01 +3.09193E+00 -1.54715E+00 +2.78008E+00
 -2.46038E+00 +2.04472E+00 -3.00675E+00 +1.01195E+00 -3.09834E+00 -1.36800E-01 -2.73420E+00 -1.20099E+00
 -1.99960E+00 -2.00102E+00 -1.04766E+00 -2.41368E+00 -6.73324E-02 -2.39583E+00 +7.55719E-01 -1.99132E+00
 +1.27708E+00 -1.31987E+00 +1.42252E+00 -5.50327E-01 +1.20190E+00 +1.36063E-01 +7.05182E-01 +5.84549E-01
 +8.16025E-02 +6.99796E-01 -4.93691E-01 +4.65895E-01 -8.58317E-01 -5.06872E-02 -8.98517E-01 -7.15822E-01
 -5.74603E-01 -1.35693E+00 +6.93820E-02 -1.80053E+00 +9.13842E-01 -1.91017E+00 +1.78794E+00 -1.61675E+00
 +2.50493E+00 -9.34865E-01 +2.90122E+00 +3.83007E-02 +2.87081E+00 +1.14137E+00 +2.38817E+00 +2.18057E+00
 +1.51460E+00 +2.96837E+00 +3.86913E-01 +3.36101E+00 -8.09295E-01 +3.28705E+00 -1.87610E+00 +2.76133E+00
 -2.64201E+00 +1.88129E+00 -2.99496E+00 +8.06779E-01 -2.90295E+00 -2.72445E-01 -2.41812E+00 -1.17473E+00
 -1.66377E+00 -1.76213E+00 -8.07148E-01 -1.96635E+00 -2.39265E-02 -1.79979E+00 +5.38178E-01 -1.34976E+00
 +7.89085E-01 -7.57204E-01 +7.13245E-01 -1.84797E-01 +3.70443E-01 +2.18843E-01 -1.19388E-01 +3.51224E-01
 -6.03931E-01 +1.77637E-01 -9.32770E-01 -2.62007E-01 -9.90902E-01 -8.62429E-01 -7.24410E-01 -1.47618E+00
 -1.52943E-01 -1.94577E+00 +6.33495E-01 -2.13786E+00 +1.49266E+00 -1.97237E+00 +2.25919E+00 -1.44039E+00
 +2.77855E+00 -6.07281E-01 +2.93877E+00 +3.99633E-01 +2.69339E+00 +1.41598E+00 +2.07094E+00 +2.27272E+00
 +1.16924E+00 +2.82928E+00 +1.35843E-01 +3.00049E+00 -8.61220E-01 +2.77211E+00 -1.66616E+00 +2.20193E+00
 -2.16499E+00 +1.40640E+00 -2.30596E+00 +5.35984E-01 -2.10687E+00 -2.55596E-01 -1.64819E+00 -8.41688E-01
 -1.05367E+00 -1.14653E+00 -4.62950E-01 -1.15776E+00 -1.86141E-03 -9.25431E-01 +2.43249E-01 -5.48109E-01
 +2.41996E-01 -1.49318E-01 +2.40498E-02 +1.50461E-01 -3.29649E-01 +2.60257E-01 -7.06385E-01 +1.38039E-01
 -9.87502E-01 -2.00822E-01 -1.07497E+00 -6.87563E-01 -9.13119E-01 -1.21541E+00 -5.01001E-01 -1.66283E+00
 +1.06936E-01 -1.91971E+00 +8.11868E-01 -1.91078E+00 +1.49074E+00 -1.61163E+00 +2.02124E+00 -1.05404E+00
 +2.30627E+00 -3.19710E-01 +2.29299E+00 +4.75975E-01 +1.98268E+00 +1.20669E+00 +1.42945E+00 +1.75962E+00
 +7.28692E-01 +2.05657E+00 -2.46357E-03 +2.06762E+00 -6.48158E-01 +1.81478E+00 -1.11573E+00 +1.36523E+00
 -1.35208E+00 +8.15938E-01 -1.35139E+00 +2.73137E-01 -1.15304E+00 -1.69071E-01 -8.30502E-01 -4.46476E-01
 -4.74014E-01 -5.35501E-01 -1.70693E-01 -4.55010E-01 +1.35162E-02 -2.59262E-01 +4.65309E-02 -2.38436E-02
 -6.49865E-02 +1.72125E-01 -2.79191E-01 +2.63670E-01 -5.29951E-01 +2.13804E-01 -7.42464E-01 +2.08160E-02
 -8.50138E-01 -2.82258E-01 -8.09120E-01 -6.35551E-01 -6.07554E-01 -9.65705E-01 -2.67815E-01 -1.20166E+00
 +1.58454E-01 -1.28950E+00 +6.01207E-01 -1.20332E+00 +9.86280E-01 -9.50028E-01 +1.25004E+00 -5.67403E-01
 +1.35139E+00 -1.15987E-01 +1.27884E+00 +3.33148E-01 +1.05142E+00 +7.12175E-01 +7.13601E-01 +9.68948E-01
 +3.25585E-01 +1.07569E+00 -4.88728E-02 +1.03242E+00 -3.54478E-01 +8.64810E-01 -5.53892E-01 +6.17173E-01
 -6.32974E-01 +3.42460E-01 -6.01066E-01 +9.13926E-02 -4.86634E-01 -9.69823E-02 -3.29538E-01 -2.01526E-01
 -1.71790E-01 -2.21056E-01 -4.88064E-02 -1.72161E-01 +1.70917E-02 -8.36094E-02 +1.98025E-02 +1.11682E-02
 -3.11353E-02 +8.17900E-02 -1.14346E-01 +1.07193E-01 -2.02537E-01 +7.92982E-02 -2.69072E-01 +3.54688E-03
 -2.93764E-01 -1.03479E-01 -2.66730E-01 -2.18569E-01 -1.89704E-01 -3.17342E-01 -7.47963E-02 -3.79423E-01
 +5.87507E-02 -3.92259E-01 +1.88920E-01 -3.52960E-01 +2.95340E-01 -2.67999E-01 +3.62850E-01 -1.51123E-01
