 Created: 16-Jan-2021
 $NMID
 ID='D:\BASISSIMULATI'
 FMTDAT='(8E13.5)'
 VOLUME=   1.00000E+00
 TRAMP=   1.00000E+00
 $END
 +2.43173E+01 +2.48625E-02 +2.21604E+01 +9.93791E+00 +1.61519E+01 +1.80964E+01 +7.34734E+00 +2.30847E+01
 -2.71397E+00 +2.40426E+01 -1.22777E+01 +2.08136E+01 -1.96804E+01 +1.39700E+01 -2.36392E+01 +4.71213E+00
 -2.34737E+01 -5.34264E+00 -1.92230E+01 -1.44423E+01 -1.16372E+01 -2.10054E+01 -2.04505E+00 -2.38961E+01
 +7.87900E+00 -2.26204E+01 +1.64068E+01 -1.74109E+01 +2.20576E+01 -9.18403E+00 +2.38551E+01 +6.20620E-01
 +2.14961E+01 +1.02926E+01 +1.54017E+01 +1.81490E+01 +6.64188E+00 +2.28267E+01 -3.25196E+00 +2.35198E+01
 -1.25550E+01 +2.01175E+01 -1.96494E+01 +1.32223E+01 -2.33061E+01 +4.04309E+00 -2.28972E+01 -5.81679E+00
 -1.85041E+01 -1.46395E+01 -1.09013E+01 -2.08921E+01 -1.42033E+00 -2.34927E+01 +8.28409E+00 -2.19979E+01
 +1.65223E+01 -1.66781E+01 +2.18642E+01 -8.46890E+00 +2.33871E+01 +1.19374E+00 +2.08358E+01 +1.06244E+01
 +1.46644E+01 +1.81821E+01 +5.95614E+00 +2.25563E+01 -3.76691E+00 +2.29937E+01 -1.28099E+01 +1.94278E+01
 -1.96007E+01 +1.24896E+01 -2.29629E+01 +3.39491E+00 -2.23200E+01 -6.26780E+00 -1.77939E+01 -1.48154E+01
 -1.01822E+01 -2.07628E+01 -8.17362E-01 -2.30816E+01 +8.66623E+00 -2.13773E+01 +1.66177E+01 -1.59565E+01
 +2.16568E+01 -7.77208E+00 +2.29140E+01 +1.74451E+00 +2.01798E+01 +1.09336E+01 +1.39403E+01 +1.81966E+01
 +5.29004E+00 +2.22743E+01 -4.25920E+00 +2.24649E+01 -1.30431E+01 +1.87450E+01 -1.95349E+01 +1.17719E+01
 -2.26103E+01 +2.76746E+00 -2.17427E+01 -6.69610E+00 -1.70930E+01 -1.49705E+01 -9.47986E+00 -2.06184E+01
 -2.35915E-01 -2.26636E+01 +9.02589E+00 -2.07591E+01 +1.66935E+01 -1.52462E+01 +2.14364E+01 -7.09357E+00
 +2.24363E+01 +2.27322E+00 +1.95288E+01 +1.12209E+01 +1.32295E+01 +1.81930E+01 +4.64350E+00 +2.19812E+01
 -4.72917E+00 +2.19341E+01 -1.32552E+01 +1.80695E+01 -1.94528E+01 +1.10696E+01 -2.22490E+01 +2.16056E+00
 -2.11659E+01 -7.10212E+00 -1.64015E+01 -1.51054E+01 -8.79440E+00 -2.04595E+01 +3.24247E-01 -2.22393E+01
 +9.36357E+00 -2.01438E+01 +1.67505E+01 -1.45475E+01 +2.12034E+01 -6.43335E+00 +2.19548E+01 +2.78019E+00
 +1.88830E+01 +1.14867E+01 +1.25324E+01 +1.81721E+01 +4.01642E+00 +2.16779E+01 -5.17721E+00 +2.14019E+01
 -1.34467E+01 +1.74015E+01 -1.93550E+01 +1.03825E+01 -2.18797E+01 +1.57403E+00 -2.05900E+01 -7.48629E+00
 -1.57198E+01 -1.52209E+01 -8.12585E+00 -2.02869E+01 +8.63372E-01 -2.18092E+01 +9.67976E+00 -1.95319E+01
 +1.67893E+01 -1.38607E+01 +2.09588E+01 -5.79136E+00 +2.14699E+01 +3.26573E+00 +1.82430E+01 +1.17317E+01
 +1.18489E+01 +1.81345E+01 +3.40867E+00 +2.13649E+01 -5.60370E+00 +2.08687E+01 -1.36181E+01 +1.67416E+01
 -1.92422E+01 +9.71088E+00 -2.15031E+01 +1.00769E+00 -2.00157E+01 -7.84904E+00 -1.50483E+01 -1.53174E+01
 -7.47422E+00 -2.01011E+01 +1.38172E+00 -2.13741E+01 +9.97494E+00 -1.89238E+01 +1.68105E+01 -1.31860E+01
 +2.07030E+01 -5.16756E+00 +2.09824E+01 +3.73016E+00 +1.76091E+01 +1.19563E+01 +1.11794E+01 +1.80808E+01
 +2.82013E+00 +2.10430E+01 -6.00902E+00 +2.03352E+01 -1.37701E+01 +1.60899E+01 -1.91151E+01 +9.05478E+00
 -2.11197E+01 +4.61338E-01 -1.94433E+01 -8.19083E+00 -1.43871E+01 -1.53957E+01 -6.83951E+00 -1.99028E+01
 +1.87956E+00 -2.09346E+01 +1.02496E+01 -1.83201E+01 +1.68147E+01 -1.25236E+01 +2.04367E+01 -4.56188E+00
 +2.04927E+01 +4.17383E+00 +1.69817E+01 +1.21612E+01 +1.05239E+01 +1.80118E+01 +2.25066E+00 +2.07128E+01
 -6.39357E+00 +1.98020E+01 -1.39033E+01 +1.54469E+01 -1.89743E+01 +8.41425E+00 -2.07301E+01 -6.52465E-02
 -1.88735E+01 -8.51210E+00 -1.37366E+01 -1.54562E+01 -6.22170E+00 -1.96928E+01 +2.35718E+00 -2.04912E+01
 +1.05043E+01 -1.77211E+01 +1.68026E+01 -1.18736E+01 +2.01607E+01 -3.97421E+00 +2.00014E+01 +4.59707E+00
 +1.63612E+01 +1.23467E+01 +9.88256E+00 +1.79280E+01 +1.70009E+00 +2.03749E+01 -6.75774E+00 +1.92694E+01
 -1.40182E+01 +1.48128E+01 -1.88205E+01 +7.78933E+00 -2.03351E+01 -5.72286E-01 -1.83066E+01 -8.81330E+00
 -1.30969E+01 -1.54997E+01 -5.62078E+00 -1.94716E+01 +2.81486E+00 -2.00445E+01 +1.07394E+01 -1.71272E+01
 +1.67749E+01 -1.12363E+01 +1.98755E+01 -3.40447E+00 +1.95091E+01 +5.00023E+00 +1.57480E+01 +1.25135E+01
 +9.25543E+00 +1.78300E+01 +1.16826E+00 +2.00298E+01 -7.10195E+00 +1.87380E+01 -1.41153E+01 +1.41880E+01
 -1.86543E+01 +7.18003E+00 -1.99351E+01 -1.06002E+00 -1.77430E+01 -9.09489E+00 -1.24683E+01 -1.55266E+01
 -5.03668E+00 -1.92398E+01 +3.25290E+00 -1.95950E+01 +1.09555E+01 -1.65388E+01 +1.67320E+01 -1.06117E+01
 +1.95818E+01 -2.85253E+00 +1.90162E+01 +5.38366E+00 +1.51423E+01 +1.26622E+01 +8.64260E+00 +1.77185E+01
 +6.54979E-01 +1.96783E+01 -7.42659E+00 +1.82082E+01 -1.41953E+01 +1.35726E+01 -1.84763E+01 +6.58638E+00
 -1.95308E+01 -1.52868E+00 -1.71833E+01 -9.35731E+00 -1.18510E+01 -1.55377E+01 -4.46935E+00 -1.89982E+01
 +3.67161E+00 -1.91434E+01 +1.11531E+01 -1.59563E+01 +1.66746E+01 -1.00001E+01 +1.92801E+01 -2.31827E+00
 +1.85233E+01 +5.74774E+00 +1.45444E+01 +1.27931E+01 +8.04413E+00 +1.75942E+01 +1.60059E-01 +1.93209E+01
 -7.73208E+00 +1.76805E+01 -1.42586E+01 +1.29670E+01 -1.82871E+01 +6.00836E+00 -1.91226E+01 -1.97854E+00
 -1.66277E+01 -9.60103E+00 -1.12451E+01 -1.55333E+01 -3.91871E+00 -1.87472E+01 +4.07130E+00 -1.86900E+01
 +1.13326E+01 -1.53800E+01 +1.66033E+01 -9.40143E+00 +1.89710E+01 -1.80155E+00 +1.80308E+01 +6.09282E+00
 +1.39547E+01 +1.29069E+01 +7.46007E+00 +1.74575E+01 -3.16704E-01 +1.89581E+01 -8.01883E+00 +1.71554E+01
 -1.43060E+01 +1.23713E+01 -1.80874E+01 +5.44595E+00 -1.87112E+01 -2.40985E+00 -1.60767E+01 -9.82650E+00
 -1.06508E+01 -1.55142E+01 -3.38468E+00 -1.84874E+01 +4.45228E+00 -1.82355E+01 +1.14947E+01 -1.48102E+01
 +1.65187E+01 -8.81590E+00 +1.86551E+01 -1.30221E+00 +1.75392E+01 +6.41927E+00 +1.33734E+01 +1.30041E+01
 +6.89044E+00 +1.73090E+01 -7.75523E-01 +1.85906E+01 -8.28727E+00 +1.66332E+01 -1.43378E+01 +1.17857E+01
 -1.78776E+01 +4.89911E+00 -1.82969E+01 -2.82289E+00 -1.55307E+01 -1.00342E+01 -1.00682E+01 -1.54809E+01
 -2.86715E+00 -1.82195E+01 +4.81489E+00 -1.77802E+01 +1.16396E+01 -1.42473E+01 +1.64214E+01 -8.24356E+00
 +1.83330E+01 -8.20093E-01 +1.70489E+01 +6.72748E+00 +1.28007E+01 +1.30852E+01 +6.33527E+00 +1.71495E+01
 -1.21662E+00 +1.82187E+01 -8.53781E+00 +1.61143E+01 -1.43546E+01 +1.12105E+01 -1.76584E+01 +4.36779E+00
 -1.78805E+01 -3.21793E+00 -1.49899E+01 -1.02245E+01 -9.49758E+00 -1.54340E+01 -2.36601E+00 -1.79441E+01
 +5.15946E+00 -1.73247E+01 +1.17680E+01 -1.36915E+01 +1.63118E+01 -7.68447E+00 +1.80051E+01 -3.55026E-01
 +1.65604E+01 +7.01782E+00 +1.22370E+01 +1.31507E+01 +5.79455E+00 +1.69793E+01 -1.64023E+00 +1.78431E+01
 -8.77087E+00 +1.55991E+01 -1.43570E+01 +1.06457E+01 -1.74304E+01 +3.85193E+00 -1.74622E+01 -3.59526E+00
 -1.44547E+01 -1.03980E+01 -8.93890E+00 -1.53739E+01 -1.88114E+00 -1.76615E+01 +5.48632E+00 -1.68694E+01
 +1.18804E+01 -1.31431E+01 +1.61906E+01 -7.13868E+00 +1.76721E+01 +9.31752E-02 +1.60740E+01 +7.29066E+00
 +1.16823E+01 +1.32011E+01 +5.26826E+00 +1.67991E+01 -2.04659E+00 +1.74642E+01 -8.98687E+00 +1.50880E+01
 -1.43456E+01 +1.00917E+01 -1.71940E+01 +3.35145E+00 -1.70426E+01 -3.95518E+00 -1.39254E+01 -1.05551E+01
 -8.39230E+00 -1.53013E+01 -1.41240E+00 -1.73724E+01 +5.79581E+00 -1.64147E+01 +1.19772E+01 -1.26024E+01
 +1.60584E+01 -6.60622E+00 +1.73344E+01 +5.24705E-01 +1.55902E+01 +7.54641E+00 +1.11369E+01 +1.32370E+01
 +4.75638E+00 +1.66095E+01 -2.43595E+00 +1.70826E+01 -9.18625E+00 +1.45813E+01 -1.43207E+01 +9.54841E+00
 -1.69498E+01 +2.86626E+00 -1.66222E+01 -4.29798E+00 -1.34023E+01 -1.06962E+01 -7.85785E+00 -1.52167E+01
 -9.59643E-01 -1.70773E+01 +6.08827E+00 -1.59610E+01 +1.20588E+01 -1.20695E+01 +1.59156E+01 -6.08711E+00
 +1.69925E+01 +9.39765E-01 +1.51093E+01 +7.78543E+00 +1.06009E+01 +1.32589E+01 +4.25886E+00 +1.64109E+01
 -2.80856E+00 +1.66986E+01 -9.36941E+00 +1.40793E+01 -1.42831E+01 +9.01606E+00 -1.66984E+01 +2.39628E+00
 -1.62013E+01 -4.62396E+00 -1.28857E+01 -1.08218E+01 -7.33562E+00 -1.51205E+01 -5.22714E-01 -1.67767E+01
 +6.36407E+00 -1.55088E+01 +1.21259E+01 -1.15448E+01 +1.57628E+01 -5.58135E+00 +1.66470E+01 +1.33857E+00
 +1.46316E+01 +8.00813E+00 +1.00747E+01 +1.32671E+01 +3.77565E+00 +1.62038E+01 -3.16469E+00 +1.63128E+01
 -9.53680E+00 +1.35824E+01 -1.42330E+01 +8.49474E+00 -1.64402E+01 +1.94137E+00 -1.57805E+01 -4.93344E+00
 -1.23758E+01 -1.09323E+01 -6.82566E+00 -1.50134E+01 -1.01448E-01 -1.64711E+01 +6.62354E+00 -1.50584E+01
 +1.21788E+01 -1.10284E+01 +1.56004E+01 -5.08893E+00 +1.62982E+01 +1.72132E+00 +1.41576E+01 +8.21489E+00
 +9.55815E+00 +1.32624E+01 +3.30670E+00 +1.59889E+01 -3.50459E+00 +1.59256E+01 -9.68882E+00 +1.30908E+01
 -1.41712E+01 +7.98454E+00 -1.61758E+01 +1.50143E+00 -1.53600E+01 -5.22672E+00 -1.18729E+01 -1.10283E+01
 -6.32800E+00 -1.48958E+01 +3.04330E-01 -1.61610E+01 +6.86704E+00 -1.46102E+01 +1.22181E+01 -1.05204E+01
 +1.54291E+01 -4.60984E+00 +1.59467E+01 +2.08827E+00 +1.36874E+01 +8.40610E+00 +9.05157E+00 +1.32450E+01
 +2.85191E+00 +1.57665E+01 -3.82856E+00 +1.55375E+01 -9.82590E+00 +1.26047E+01 -1.40980E+01 +7.48553E+00
 -1.59056E+01 +1.07632E+00 -1.49403E+01 -5.50413E+00 -1.13771E+01 -1.11101E+01 -5.84267E+00 -1.47683E+01
 +6.94802E-01 -1.58468E+01 +7.09494E+00 -1.41646E+01 +1.22441E+01 -1.00212E+01 +1.52493E+01 -4.14405E+00
 +1.55928E+01 +2.43963E+00 +1.32216E+01 +8.58216E+00 +8.55502E+00 +1.32156E+01 +2.41121E+00 +1.55372E+01
 -4.13685E+00 +1.51487E+01 -9.94846E+00 +1.21246E+01 -1.40140E+01 +6.99780E+00 -1.56301E+01 +6.65909E-01
 -1.45218E+01 -5.76599E+00 -1.08888E+01 -1.11782E+01 -5.36968E+00 -1.46312E+01 +1.07016E+00 -1.55290E+01
 +7.30758E+00 -1.37218E+01 +1.22575E+01 -9.53080E+00 +1.50615E+01 -3.69150E+00 +1.52371E+01 +2.77564E+00
 +1.27602E+01 +8.74345E+00 +8.06862E+00 +1.31745E+01 +1.98449E+00 +1.53014E+01 -4.42977E+00 +1.47598E+01
 -1.00569E+01 +1.16506E+01 -1.39196E+01 +6.52138E+00 -1.53498E+01 +2.70039E-01 -1.41048E+01 -6.01261E+00
 -1.04080E+01 -1.12330E+01 -4.90903E+00 -1.44852E+01 +1.43060E+00 -1.52081E+01 +7.50532E+00 -1.32822E+01
 +1.22585E+01 -9.04937E+00 +1.48662E+01 -3.25215E+00 +1.48798E+01 +3.09656E+00 +1.23036E+01 +8.89037E+00
