 Created: 16-Jan-2021
 $NMID
 ID='D:\BASISSIMULATI'
 FMTDAT='(8E13.5)'
 VOLUME=   1.00000E+00
 TRAMP=   1.00000E+00
 $END
 +1.39472E+01 +1.42014E-02 +1.26180E+01 +5.69140E+00 +9.09600E+00 +1.02803E+01 +4.04067E+00 +1.29869E+01
 -1.62627E+00 +1.33666E+01 -6.89126E+00 +1.13983E+01 -1.08330E+01 +7.47984E+00 -1.27862E+01 +2.34767E+00
 -1.24552E+01 -3.06286E+00 -9.95873E+00 -7.79044E+00 -5.79733E+00 -1.10211E+01 -7.53537E-01 -1.22304E+01
 +4.25690E+00 -1.12691E+01 +8.35346E+00 -8.37867E+00 +1.08477E+01 -4.13510E+00 +1.13602E+01 +6.65557E-01
 +9.87794E+00 +5.15805E+00 +6.74244E+00 +8.56572E+00 +2.57490E+00 +1.03365E+01 -1.84694E+00 +1.02326E+01
 -5.73515E+00 +8.35996E+00 -8.43360E+00 +5.13360E+00 -9.52968E+00 +1.18860E+00 -8.91656E+00 -2.74481E+00
 -6.79688E+00 -5.97747E+00 -3.62982E+00 -7.98316E+00 -3.41962E-02 -8.48445E+00 +3.33232E+00 -7.48847E+00
 +5.89429E+00 -5.26855E+00 +7.25748E+00 -2.29830E+00 +7.26855E+00 +8.47137E-01 +6.02670E+00 +3.60225E+00
 +3.84801E+00 +5.51335E+00 +1.19211E+00 +6.31313E+00 -1.43270E+00 +5.95551E+00 -3.56640E+00 +4.60671E+00
 -4.87800E+00 +2.59741E+00 -5.21580E+00 +3.47753E-01 -4.61974E+00 -1.71855E+00 -3.29649E+00 -3.25362E+00
 -1.56475E+00 -4.04353E+00 +2.16054E-01 -4.03559E+00 +1.71852E+00 -3.33182E+00 +2.70692E+00 -2.15286E+00
 +3.07292E+00 -7.81908E-01 +2.84240E+00 +4.98320E-01 +2.15436E+00 +1.46211E+00 +1.21871E+00 +1.97973E+00
 +2.63812E-01 +2.03232E+00 -5.14517E-01 +1.70157E+00 -9.91445E-01 +1.13874E+00 -1.13185E+00 +5.21424E-01
 -9.86789E-01 +8.84011E-03 -6.70203E-01 -2.94328E-01 -3.22815E-01 -3.57703E-01 -7.24177E-02 -2.25179E-01
 -2.70633E-04 +3.73033E-03 -1.21373E-01 +2.05706E-01 -3.82848E-01 +2.70284E-01 -6.80283E-01 +1.32186E-01
 -8.87629E-01 -2.08622E-01 -8.93120E-01 -6.84020E-01 -6.32300E-01 -1.17276E+00 -1.09966E-01 -1.52995E+00
 +5.94626E-01 -1.62409E+00 +1.34106E+00 -1.37284E+00 +1.95708E+00 -7.68972E-01 +2.27756E+00 +1.10164E-01
 +2.18458E+00 +1.11257E+00 +1.63936E+00 +2.03960E+00 +6.98340E-01 +2.68650E+00 -4.90845E-01 +2.88717E+00
 -1.71378E+00 +2.55343E+00 -2.72967E+00 +1.69986E+00 -3.31982E+00 +4.48397E-01 -3.33441E+00 -9.89441E-01
 -2.72747E+00 -2.34991E+00 -1.57245E+00 -3.36706E+00 -5.43109E-02 -3.82572E+00 +1.56124E+00 -3.60671E+00
 +2.97591E+00 -2.71490E+00 +3.91543E+00 -1.28386E+00 +4.18355E+00 +4.44540E-01 +3.70281E+00 +2.16246E+00
 +2.53351E+00 +3.55248E+00 +8.66816E-01 +4.34766E+00 -1.00750E+00 +4.38344E+00 -2.75286E+00 +3.63152E+00
 -4.04784E+00 +2.20846E+00 -4.64648E+00 +3.57268E-01 -4.42563E+00 -1.59532E+00 -3.40995E+00 -3.29785E+00
 -1.76979E+00 -4.43875E+00 +2.08237E-01 -4.80430E+00 +2.17243E+00 -4.31912E+00 +3.76987E+00 -3.06138E+00
 +4.71089E+00 -1.24987E+00 +4.82239E+00 +7.94931E-01 +4.07997E+00 +2.70869E+00 +2.61291E+00 +4.14921E+00
 +6.81124E-01 +4.85849E+00 -1.37175E+00 +4.70955E+00 -3.18046E+00 +3.72925E+00 -4.42403E+00 +2.09325E+00
 -4.88340E+00 +9.39133E-02 -4.48039E+00 -1.91271E+00 -3.29096E+00 -3.57108E+00 -1.53066E+00 -4.58990E+00
 +4.84987E-01 -4.79376E+00 +2.39769E+00 -4.15348E+00 +3.87073E+00 -2.78998E+00 +4.64877E+00 -9.51207E-01
 +4.60234E+00 +1.03345E+00 +3.74945E+00 +2.81265E+00 +2.25042E+00 +4.07581E+00 +3.77618E-01 +4.60763E+00
 -1.53446E+00 +4.32491E+00 -3.14929E+00 +3.28931E+00 -4.18787E+00 +1.69423E+00 -4.47709E+00 -1.71490E-01
 -3.97857E+00 -1.97613E+00 -2.79307E+00 -3.40433E+00 -1.14032E+00 -4.21238E+00 +6.81808E-01 -4.26985E+00
 +2.35119E+00 -3.58042E+00 +3.57851E+00 -2.27873E+00 +4.15748E+00 -6.04178E-01 +3.99943E+00 +1.14313E+00
 +3.14652E+00 +2.65628E+00 +1.76174E+00 +3.67549E+00 +9.78315E-02 +4.03270E+00 -1.54882E+00 +3.67911E+00
 -2.89101E+00 +2.69123E+00 -3.70078E+00 +1.25485E+00 -3.84805E+00 -3.69788E-01 -3.32128E+00 -1.89510E+00
 -2.22692E+00 -3.05706E+00 -7.68237E-01 -3.66082E+00 +7.92309E-01 -3.61326E+00 +2.18026E+00 -2.93704E+00
 +3.15734E+00 -1.76405E+00 +3.56233E+00 -3.09968E-01 +3.33745E+00 +1.16528E+00 +2.53619E+00 +2.40393E+00
 +1.31143E+00 +3.19539E+00 -1.13532E-01 +3.41189E+00 -1.48556E+00 +3.02898E+00 -2.56662E+00 +2.12743E+00
 -3.17502E+00 +8.76640E-01 -3.21588E+00 -4.96957E-01 -2.69565E+00 -1.75086E+00 -1.71865E+00 -2.66927E+00
 -4.66449E-01 -3.10020E+00 +8.35726E-01 -2.98053E+00 +1.95947E+00 -2.34492E+00 +2.71327E+00 -1.31734E+00
 +2.97513E+00 -8.71452E-02 +2.71219E+00 +1.12575E+00 +1.98424E+00 +2.11016E+00 +9.30845E-01 +2.70048E+00
 -2.55266E-01 +2.80449E+00 -1.36339E+00 +2.41761E+00 -2.20235E+00 +1.62134E+00 -2.63352E+00 +5.66521E-01
 -2.59375E+00 -5.55067E-01 -2.10421E+00 -1.54563E+00 -1.26430E+00 -2.23632E+00 -2.31727E-01 -2.51607E+00
 +8.07010E-01 -2.34938E+00 +1.67037E+00 -1.78019E+00 +2.21363E+00 -9.21598E-01 +2.35315E+00 +6.63953E-02
 +2.07907E+00 +1.00666E+00 +1.45452E+00 +1.73683E+00 +6.01812E-01 +2.13740E+00 -3.21297E-01 +2.15132E+00
 -1.15085E+00 +1.79168E+00 -1.74591E+00 +1.13670E+00 -2.01259E+00 +3.13267E-01 -1.91875E+00 -5.27509E-01
 -1.49706E+00 -1.23810E+00 -8.36376E-01 -1.70057E+00 -6.34869E-02 -1.84611E+00 +6.81177E-01 -1.66504E+00
 +1.26912E+00 -1.20565E+00 +1.60601E+00 -5.62779E-01 +1.64674E+00 +1.41401E-01 +1.40087E+00 +7.80582E-01
 +9.27931E-01 +1.24702E+00 +3.24059E-01 +1.46969E+00 -2.97274E-01 +1.42486E+00 -8.26546E-01 +1.13748E+00
 -1.17751E+00 +6.73736E-01 -1.30112E+00 +1.26611E-01 -1.19190E+00 -4.02535E-01 -8.85928E-01 -8.22682E-01
 -4.51480E-01 -1.06875E+00 +2.55689E-02 -1.11142E+00 +4.58500E-01 -9.59684E-01 +7.75423E-01 -6.56319E-01
 +9.31048E-01 -2.67431E-01 +9.12650E-01 +1.31393E-01 +7.39591E-01 +4.69556E-01 +4.56963E-01 +6.93790E-01
 +1.25063E-01 +7.76223E-01 -1.93004E-01 +7.17033E-01 -4.43077E-01 +5.41660E-01 -5.88897E-01 +2.93605E-01
 -6.16845E-01 +2.45808E-02 -5.35957E-01 -2.15835E-01 -3.73706E-01 -3.89042E-01 -1.68799E-01 -4.73213E-01
 +3.73059E-02 -4.65260E-01 +2.08374E-01 -3.79032E-01 +3.19385E-01 -2.40543E-01 +3.59607E-01 -8.15065E-02
 +3.32543E-01 +6.73135E-02 +2.53171E-01 +1.81629E-01 +1.43411E-01 +2.47084E-01 +2.69889E-02 +2.60270E-01
 -7.51888E-02 +2.27481E-01 -1.48297E-01 +1.61840E-01 -1.85079E-01 +7.96764E-02 -1.85595E-01 -2.96710E-03
 -1.55656E-01 -7.29913E-02 -1.04570E-01 -1.21704E-01 -4.28702E-02 -1.45083E-01 +1.94718E-02 -1.43127E-01
 +7.40947E-02 -1.18768E-01 +1.14593E-01 -7.67939E-02 +1.36419E-01 -2.30999E-02 +1.36698E-01 +3.56318E-02
 +1.14266E-01 +9.19811E-02 +7.00670E-02 +1.37868E-01 +7.81640E-03 +1.64991E-01 -6.53886E-02 +1.65853E-01
 -1.38933E-01 +1.35355E-01 -1.99423E-01 +7.26725E-02 -2.32503E-01 -1.71046E-02 -2.25642E-01 -1.22192E-01
 -1.71422E-01 -2.24745E-01 -7.05858E-02 -3.03177E-01 +6.60564E-02 -3.36034E-01 +2.17632E-01 -3.06829E-01
 +3.55593E-01 -2.08844E-01 +4.48427E-01 -4.87220E-02 +4.68024E-01 +1.52286E-01 +3.96528E-01 +3.60157E-01
 +2.32140E-01 +5.33169E-01 -7.63994E-03 +6.29593E-01 -2.86499E-01 +6.16695E-01 -5.54021E-01 +4.79215E-01
 -7.54197E-01 +2.25362E-01 -8.36420E-01 -1.11386E-01 -7.66897E-01 -4.75633E-01 -5.38045E-01 -7.98559E-01
 -1.73604E-01 -1.01038E+00 +2.72192E-01 -1.05461E+00 +7.21907E-01 -9.01305E-01 +1.08788E+00 -5.56354E-01
 +1.28882E+00 -6.44931E-02 +1.26688E+00 +4.95366E-01 +1.00188E+00 +1.02226E+00 +5.19224E-01 +1.41103E+00
 -1.10484E-01 +1.57282E+00 -7.81042E-01 +1.45428E+00 -1.36823E+00 +1.05143E+00 -1.75256E+00 +4.14947E-01
 -1.84314E+00 -3.54932E-01 -1.59778E+00 -1.12378E+00 -1.03521E+00 -1.74630E+00 -2.36290E-01 -2.09362E+00
 +6.66878E-01 -2.07946E+00 +1.51263E+00 -1.67989E+00 +2.13870E+00 -9.42336E-01 +2.41323E+00 +1.85848E-02
 +2.26200E+00 +1.03855E+00 +1.68623E+00 +1.93168E+00 +7.66961E-01 +2.52457E+00 -3.45600E-01 +2.68990E+00
 -1.45662E+00 +2.37315E+00 -2.36099E+00 +1.60687E+00 -2.88145E+00 +5.09058E-01 -2.90333E+00 -7.34709E-01
 -2.39907E+00 -1.90291E+00 -1.43743E+00 -2.77792E+00 -1.74795E-01 -3.18691E+00 +1.17030E+00 -3.03600E+00
 +2.35548E+00 -2.33092E+00 +3.15869E+00 -1.17972E+00 +3.42028E+00 +2.23571E-01 +3.07472E+00 +1.63208E+00
 +2.16582E+00 +2.79010E+00 +8.41984E-01 +3.48015E+00 -6.68269E-01 +3.56431E+00 -2.09630E+00 +3.01183E+00
 -3.18191E+00 +1.90746E+00 -3.72147E+00 +4.38602E-01 -3.60662E+00 -1.13703E+00 -2.84605E+00 -2.53733E+00
 -1.56610E+00 -3.50721E+00 +1.06071E-02 -3.86582E+00 +1.60446E+00 -3.54081E+00 +2.92941E+00 -2.58293E+00
 +3.74520E+00 -1.15816E+00 +3.90175E+00 +4.81566E-01 +3.36726E+00 +2.04377E+00 +2.23470E+00 +3.24853E+00
 +7.05397E-01 +3.87967E+00 -9.47462E-01 +3.82428E+00 -2.42854E+00 +3.09339E+00 -3.47417E+00 +1.81979E+00
 -3.90028E+00 +2.33507E-01 -3.63551E+00 -1.38053E+00 -2.73341E+00 -2.73467E+00 -1.36170E+00 -3.59090E+00
 +2.29471E-01 -3.80357E+00 +1.75396E+00 -3.34474E+00 +2.94215E+00 -2.30761E+00 +3.58968E+00 -8.87594E-01
 +3.59343E+00 +6.55054E-01 +2.96813E+00 +2.04381E+00 +1.84114E+00 +3.03655E+00 +4.26509E-01 +3.46868E+00
 -1.01627E+00 +3.28107E+00 -2.23078E+00 +2.52771E+00 -3.01025E+00 +1.36240E+00 -3.23361E+00 +7.40880E-03
 -2.88446E+00 -1.28958E+00 -2.05008E+00 -2.30161E+00 -9.01212E-01 -2.86310E+00 +3.42809E-01 -2.89752E+00
 +1.45654E+00 -2.42725E+00 +2.25016E+00 -1.56468E+00 +2.60258E+00 -4.86761E-01 +2.48003E+00 +6.01177E-01
 +1.93724E+00 +1.50516E+00 +1.10181E+00 +2.07792E+00 +1.45660E-01 +2.24341E+00 -7.50260E-01 +2.00614E+00
 -1.43077E+00 +1.44460E+00 -1.79401E+00 +6.90657E-01 -1.80663E+00 -9.98699E-02 -1.50456E+00 -7.79351E-01
 -9.79836E-01 -1.23641E+00 -3.57321E-01 -1.41456E+00 +2.33475E-01 -1.31826E+00 +6.85193E-01 -1.00583E+00
 +9.32566E-01 -5.71847E-01 +9.61719E-01 -1.23136E-01 +8.07525E-01 +2.45715E-01 +5.40383E-01 +4.72150E-01
 +2.46023E-01 +5.36517E-01 +3.32326E-03 +4.62123E-01 -1.34614E-01 +3.05038E-01 -1.51862E-01 +1.36538E-01
 -7.11214E-02 +2.26897E-02 +5.48070E-02 +6.10822E-03 +1.59210E-01 +9.43291E-02 +1.81202E-01 +2.57607E-01
 +8.40802E-02 +4.36695E-01 -1.32334E-01 +5.58766E-01 -4.28617E-01 +5.57672E-01 -7.33010E-01 +3.93597E-01
 -9.57683E-01 +6.71958E-02 -1.02043E+00 -3.75581E-01 -8.66867E-01 -8.49691E-01 -4.87703E-01 -1.24746E+00
 +7.32123E-02 -1.46210E+00 +7.22755E-01 -1.41321E+00 +1.33422E+00 -1.06867E+00 +1.77215E+00 -4.57450E-01
 +1.92147E+00 +3.30024E-01 +1.71469E+00 +1.15507E+00 +1.15119E+00 +1.85561E+00 +3.03760E-01 +2.27807E+00
