 Created: 16-Jan-2021
 $NMID
 ID='D:\BASISSIMULATI'
 FMTDAT='(8E13.5)'
 VOLUME=   1.00000E+00
 TRAMP=   1.00000E+00
 $END
 +1.88080E+01 +2.05427E-02 +1.26748E+01 +1.19655E+01 +1.78340E-01 +1.33474E+01 -6.45979E+00 +4.30036E+00
 -1.54565E+00 -4.54130E+00 +8.35179E+00 -3.22862E+00 +1.14313E+01 +7.14939E+00 +3.06703E+00 +1.56682E+01
 -9.31396E+00 +1.29951E+01 -1.38938E+01 +1.12654E+00 -6.65061E+00 -8.64616E+00 +4.57485E+00 -7.35890E+00
 +8.27604E+00 +2.50530E+00 +1.16041E+00 +9.80469E+00 -8.60844E+00 +6.43758E+00 -1.00781E+01 -4.24319E+00
 -9.97639E-01 -1.09870E+01 +9.80099E+00 -6.39073E+00 +1.15309E+01 +5.39766E+00 +2.55419E+00 +1.29635E+01
 -8.03682E+00 +9.37057E+00 -9.90684E+00 -8.37297E-01 -2.11669E+00 -6.56122E+00 +6.09373E+00 -1.77693E+00
 +5.08237E+00 +8.23441E+00 -5.08704E+00 +1.24525E+01 -1.46787E+01 +5.60928E+00 -1.43388E+01 -6.34109E+00
 -4.68510E+00 -1.23787E+01 +4.46996E+00 -7.72679E+00 +4.34427E+00 +1.41614E+00 -3.80776E+00 +4.52577E+00
 -1.01978E+01 -2.22587E+00 -6.83597E+00 -1.20275E+01 +4.09812E+00 -1.45679E+01 +1.24888E+01 -6.75535E+00
 +1.07079E+01 +4.10206E+00 +1.37753E+00 +7.86221E+00 -5.50649E+00 +1.93081E+00 -2.98763E+00 -6.28387E+00
 +5.74807E+00 -7.26742E+00 +1.08683E+01 +6.49851E-01 +6.23722E+00 +9.60076E+00 -4.17483E+00 +1.03971E+01
 -1.03958E+01 +2.04685E+00 -6.71227E+00 -7.27193E+00 +2.57396E+00 -8.68100E+00 +7.76542E+00 -1.65878E+00
 +3.85093E+00 +5.65715E+00 -4.42846E+00 +5.09846E+00 -7.68132E+00 -3.01520E+00 -1.71933E+00 -1.02647E+01
 +8.08185E+00 -8.90681E+00 +1.23473E+01 +1.33880E-01 +7.32197E+00 +8.28947E+00 -1.42274E+00 +8.20534E+00
 -4.91753E+00 +1.18952E+00 -9.41258E-02 -4.38963E+00 +7.18285E+00 -1.95129E+00 +8.37333E+00 +6.45057E+00
 +1.20339E+00 +1.23165E+01 -7.97779E+00 +9.53277E+00 -1.07593E+01 +6.40326E-01 -5.25486E+00 -5.87525E+00
 +2.15099E+00 -4.33630E+00 +3.56896E+00 +2.43781E+00 -2.23559E+00 +6.29828E+00 -8.71651E+00 +2.36124E+00
 -8.48452E+00 -5.92775E+00 -1.01515E+00 -1.04189E+01 +6.82972E+00 -6.69157E+00 +7.88351E+00 +1.46620E+00
 +1.94551E+00 +6.06781E+00 -4.23009E+00 +3.14722E+00 -4.06582E+00 -3.33800E+00 +2.06492E+00 -5.83708E+00
 +7.37981E+00 -1.14209E+00 +5.83891E+00 +6.31246E+00 -1.58534E+00 +9.09383E+00 -7.95378E+00 +4.43123E+00
 -7.50712E+00 -3.03708E+00 -1.45541E+00 -6.14792E+00 +3.49401E+00 -2.55293E+00 +2.19104E+00 +3.06707E+00
 -3.69094E+00 +4.06181E+00 -7.54343E+00 -1.22222E+00 -4.76337E+00 -7.77249E+00 +2.49721E+00 -9.13873E+00
 +7.60196E+00 -4.04223E+00 +6.23694E+00 +2.43973E+00 +6.78090E-01 +4.19766E+00 -2.78096E+00 +3.10388E-01
 -4.26730E-01 -4.22607E+00 +5.11691E+00 -3.86004E+00 +7.74968E+00 +1.72217E+00 +4.27089E+00 +7.32512E+00
 -2.35388E+00 +7.63707E+00 -6.10334E+00 +2.62463E+00 -4.04342E+00 -2.58541E+00 +8.52141E-01 -3.06374E+00
 +2.98389E+00 +9.45255E-01 -2.58111E-02 +4.49756E+00 -4.97460E+00 +3.22213E+00 -6.51943E+00 -2.14481E+00
 -2.72726E+00 -6.58183E+00 +2.99695E+00 -5.96855E+00 +5.46800E+00 -1.21720E+00 +2.97243E+00 +2.82704E+00
 -1.18326E+00 +2.42768E+00 -2.27546E+00 -1.32261E+00 +9.31448E-01 -3.84252E+00 +5.02123E+00 -1.92008E+00
 +5.56212E+00 +2.98589E+00 +1.67621E+00 +6.31496E+00 -3.14131E+00 +5.08520E+00 -4.65634E+00 +8.22811E-01
 -2.13704E+00 -2.16518E+00 +1.11601E+00 -1.24577E+00 +1.33717E+00 +1.97883E+00 -1.82391E+00 +3.52124E+00
 -5.05872E+00 +1.21248E+00 -4.89448E+00 -3.10171E+00 -1.23539E+00 -5.52000E+00 +2.63518E+00 -4.05150E+00
 +3.44701E+00 -5.01924E-01 +1.16341E+00 +1.52819E+00 -1.20209E+00 +3.37712E-01 -8.22388E-01 -2.28769E+00
 +2.06319E+00 -3.08926E+00 +4.51058E+00 -7.43853E-01 +3.95330E+00 +2.83403E+00 +7.74383E-01 +4.50565E+00
 -2.18715E+00 +3.05456E+00 -2.54377E+00 +2.61920E-01 -6.49358E-01 -1.04811E+00 +9.72687E-01 +1.29417E-01
 +3.21111E-01 +2.11471E+00 -2.08250E+00 +2.41451E+00 -3.83540E+00 +2.99575E-01 -3.14005E+00 -2.51943E+00
 -5.55889E-01 -3.67294E+00 +1.66830E+00 -2.45665E+00 +1.86434E+00 -3.76919E-01 +4.79877E-01 +4.91087E-01
 -5.66827E-01 -4.35612E-01 +8.64351E-02 -1.81277E+00 +1.92454E+00 -1.85656E+00 +3.17157E+00 -1.52499E-01
 +2.59367E+00 +1.99718E+00 +6.51474E-01 +2.90655E+00 -1.04898E+00 +2.10126E+00 -1.33487E+00 +6.35066E-01
 -4.86441E-01 -5.18305E-02 +2.05059E-01 +4.84503E-01 -2.21937E-01 +1.38671E+00 -1.50290E+00 +1.44147E+00
 -2.48024E+00 +2.69832E-01 -2.23428E+00 -1.35683E+00 -9.03187E-01 -2.27354E+00 +5.10616E-01 -1.96331E+00
 +1.07117E+00 -9.34813E-01 +6.89237E-01 -1.77998E-01 +9.74295E-02 -2.62093E-01 +1.21329E-01 -8.79934E-01
 +9.26142E-01 -1.18546E+00 +1.87732E+00 -5.83111E-01 +2.10314E+00 +7.19842E-01 +1.26642E+00 +1.86020E+00
 -1.11615E-01 +2.04140E+00 -1.06546E+00 +1.22470E+00 -1.00983E+00 +1.83924E-01 -2.65855E-01 -1.65310E-01
 +2.13463E-01 +3.93762E-01 -2.66415E-01 +1.13830E+00 -1.42523E+00 +1.05498E+00 -2.18341E+00 -1.57484E-01
 -1.65854E+00 -1.68566E+00 -8.09960E-02 -2.27410E+00 +1.30667E+00 -1.42111E+00 +1.38175E+00 +5.76301E-02
 +2.62086E-01 +7.42961E-01 -7.36322E-01 +4.33658E-03 -3.77083E-01 -1.29956E+00 +1.19085E+00 -1.60616E+00
 +2.45996E+00 -2.41659E-01 +2.02040E+00 +1.77201E+00 +4.86071E-02 +2.61550E+00 -1.73199E+00 +1.48442E+00
 -1.70738E+00 -5.08493E-01 -3.89072E-02 -1.36189E+00 +1.40973E+00 -2.12612E-01 +9.34284E-01 +1.69723E+00
 -1.19412E+00 +2.20589E+00 -2.87757E+00 +4.68287E-01 -2.28115E+00 -2.04712E+00 +2.13766E-01 -2.93612E+00
 +2.26276E+00 -1.31097E+00 +1.88859E+00 +1.19179E+00 -4.43630E-01 +1.99547E+00 -2.20698E+00 +2.37396E-01
 -1.38165E+00 -2.24596E+00 +1.38110E+00 -2.73028E+00 +3.30470E+00 -4.45131E-01 +2.30590E+00 +2.50064E+00
 -7.74026E-01 +3.18329E+00 -2.90737E+00 +8.87898E-01 -1.95070E+00 -2.04985E+00 +1.08004E+00 -2.56994E+00
 +2.96071E+00 -7.17821E-02 +1.57197E+00 +2.86141E+00 -1.81815E+00 +3.06300E+00 -3.74982E+00 +1.03850E-01
 -2.12549E+00 -3.13695E+00 +1.52841E+00 -3.36196E+00 +3.52385E+00 -2.96713E-01 +1.79860E+00 +2.91865E+00
 -1.87129E+00 +2.91053E+00 -3.61680E+00 -3.94441E-01 -1.47894E+00 -3.58802E+00 +2.46566E+00 -3.25482E+00
 +4.15490E+00 +4.31645E-01 +1.74658E+00 +3.77051E+00 -2.37496E+00 +3.30501E+00 -3.96973E+00 -5.44897E-01
 -1.33264E+00 -3.81093E+00 +2.84928E+00 -3.03904E+00 +4.19755E+00 +1.07346E+00 +1.19300E+00 +4.29869E+00
 -3.15219E+00 +3.22286E+00 -4.33572E+00 -1.14718E+00 -1.05193E+00 -4.32324E+00 +3.35435E+00 -2.95447E+00
 +4.27714E+00 +1.62852E+00 +6.47254E-01 +4.69170E+00 -3.86133E+00 +2.97647E+00 -4.56939E+00 -1.85226E+00
 -6.70695E-01 -4.83939E+00 +3.83985E+00 -2.85899E+00 +4.25114E+00 +2.07093E+00 +6.12812E-02 +4.79504E+00
 -4.40380E+00 +2.36123E+00 -4.42087E+00 -2.83304E+00 +1.88342E-01 -5.43449E+00 +4.77287E+00 -2.67499E+00
 +4.61963E+00 +2.68233E+00 -1.21926E-01 +5.13011E+00 -4.51337E+00 +2.12861E+00 -3.91686E+00 -3.18565E+00
 +1.13741E+00 -5.18807E+00 +5.40957E+00 -1.62012E+00 +4.35180E+00 +3.97443E+00 -1.11446E+00 +5.84533E+00
 -5.45941E+00 +2.00578E+00 -4.24044E+00 -3.63117E+00 +1.24664E+00 -5.25010E+00 +5.24488E+00 -1.18148E+00
 +3.49961E+00 +4.29572E+00 -2.25943E+00 +5.35067E+00 -6.03220E+00 +6.91484E-01 -3.76132E+00 -4.99826E+00
 +2.38778E+00 -5.85280E+00 +6.18624E+00 -9.27747E-01 +3.77740E+00 +4.74912E+00 -2.27879E+00 +5.34989E+00
 -5.61314E+00 +3.19576E-01 -2.66896E+00 -4.98717E+00 +3.53318E+00 -4.84355E+00 +6.46298E+00 +8.47241E-01
 +2.86350E+00 +6.35576E+00 -3.79270E+00 +6.01836E+00 -6.82935E+00 +1.38343E-01 -3.27727E+00 -5.26828E+00
 +3.00772E+00 -4.68947E+00 +5.31923E+00 +1.12937E+00 +1.09366E+00 +5.91067E+00 -5.35151E+00 +4.36299E+00
 -7.24452E+00 -2.25443E+00 -2.40685E+00 -7.34675E+00 +4.41095E+00 -5.78524E+00 +6.39518E+00 +7.45505E-01
 +1.73185E+00 +5.45072E+00 -4.48250E+00 +3.46981E+00 -5.52425E+00 -3.04039E+00 -7.06958E-02 -7.10854E+00
 +6.35081E+00 -4.20552E+00 +7.05928E+00 +2.97611E+00 +1.18287E+00 +7.23420E+00 -5.36740E+00 +4.30101E+00
 -5.98247E+00 -2.70409E+00 -2.12292E-01 -6.48168E+00 +5.74945E+00 -3.13487E+00 +5.50643E+00 +3.74900E+00
 -8.42377E-01 +6.80248E+00 -6.73640E+00 +2.56238E+00 -5.93766E+00 -4.85411E+00 +9.58593E-01 -7.94970E+00
 +7.07895E+00 -3.60484E+00 +6.36533E+00 +3.66729E+00 -1.41797E-01 +6.39047E+00 -5.38293E+00 +1.90145E+00
 -3.63978E+00 -4.85527E+00 +3.46174E+00 -6.45840E+00 +8.57611E+00 -7.64798E-01 +6.24685E+00 +6.78300E+00
 -1.39440E+00 +8.73890E+00 -6.78881E+00 +3.35744E+00 -4.76455E+00 -3.59198E+00 +2.10459E+00 -4.81881E+00
 +6.18813E+00 +8.93994E-01 +2.76962E+00 +7.40052E+00 -4.98469E+00 +7.58162E+00 -9.25487E+00 +7.91300E-01
 -5.67206E+00 -6.39666E+00 +2.11936E+00 -6.95453E+00 +6.20888E+00 -6.70123E-01 +2.61011E+00 +5.64362E+00
 -4.61403E+00 +5.24128E+00 -7.59838E+00 -1.52110E+00 -2.89785E+00 -7.53720E+00 +4.86813E+00 -6.34679E+00
 +7.76443E+00 +1.10181E+00 +2.77047E+00 +7.36987E+00 -5.06249E+00 +6.20112E+00 -7.82870E+00 -1.01114E+00
 -2.95499E+00 -6.69223E+00 +4.15231E+00 -4.97781E+00 +5.76442E+00 +2.17107E+00 -8.18434E-02 +6.99945E+00
 -7.48212E+00 +4.04066E+00 -8.75490E+00 -4.14981E+00 -2.40888E+00 -9.58452E+00 +5.29598E+00 -7.08524E+00
 +6.82823E+00 +3.82327E-01 +1.17926E+00 +4.82775E+00 -5.12952E+00 +1.57140E+00 -4.87825E+00 -5.87061E+00
 +2.28330E+00 -9.43932E+00 +9.40841E+00 -4.93373E+00 +9.42457E+00 +3.57532E+00 +2.45722E+00 +7.91599E+00
 -4.30565E+00 +4.24607E+00 -4.07040E+00 -3.01269E+00 +2.53193E+00 -5.82216E+00 +8.14769E+00 -9.22286E-01
 +6.40102E+00 +6.75849E+00 -1.41857E+00 +9.22476E+00 -7.64012E+00 +3.74319E+00 -6.13710E+00 -4.28103E+00
 +1.33857E+00 -6.87254E+00 +6.99264E+00 -1.71481E+00 +5.08080E+00 +5.50630E+00 -2.15545E+00 +7.06830E+00
 -6.87168E+00 +1.27454E+00 -3.83234E+00 -5.77046E+00 +4.09329E+00 -6.51277E+00 +8.86461E+00 +1.80186E-01
 +5.58151E+00 +7.81060E+00 -2.46145E+00 +8.95387E+00 -7.21898E+00 +2.90569E+00 -4.24341E+00 -3.66390E+00
 +2.74044E+00 -3.70738E+00 +5.77345E+00 +2.84030E+00 +1.00022E+00 +8.98739E+00 -7.26775E+00 +7.96079E+00
 -1.09807E+01 +2.60288E-01 -6.65950E+00 -6.83407E+00 +1.04502E+00 -6.77464E+00 +4.21843E+00 -4.67732E-01
 -1.01945E-01 +4.76252E+00 -6.89943E+00 +2.86122E+00 -8.46088E+00 -4.62570E+00 -2.45445E+00 -1.01484E+01
 +5.59752E+00 -7.99764E+00 +8.00510E+00 -2.36310E-01 +2.83460E+00 +5.43231E+00 -4.15263E+00 +3.62128E+00
