 Created: 16-Jan-2021
 $NMID
 ID='D:\BASISSIMULATI'
 FMTDAT='(8E13.5)'
 VOLUME=   1.00000E+00
 TRAMP=   1.00000E+00
 $END
 +2.82014E+01 +3.44088E-02 +2.06553E+01 -1.13558E+01 +3.66478E+00 -1.24395E+01 -1.10040E+01 -1.11374E+00
 -1.40559E+01 +1.50286E+01 -5.31269E+00 +2.45457E+01 +6.74410E+00 +2.07653E+01 +1.18681E+01 +6.54893E+00
 +5.84508E+00 -8.21431E+00 -6.72838E+00 -1.41152E+01 -1.64381E+01 -8.83391E+00 -1.63359E+01 +1.95916E+00
 -6.83029E+00 +9.56099E+00 +5.21225E+00 +8.82650E+00 +1.19141E+01 +1.38630E+00 +9.90886E+00 -6.44711E+00
 +1.95581E+00 -8.85850E+00 -5.93674E+00 -4.59945E+00 -9.10817E+00 +2.80969E+00 -7.01064E+00 +8.23186E+00
 -2.57876E+00 +8.56676E+00 +5.90645E-01 +4.26438E+00 +7.46505E-01 -1.81782E+00 -1.45418E+00 -6.71004E+00
 -4.09161E+00 -8.89755E+00 -5.44527E+00 -8.43552E+00 -4.68902E+00 -6.22527E+00 -1.81823E+00 -3.40417E+00
 +2.54626E+00 -1.14066E+00 +7.14003E+00 -4.24896E-01 +1.01715E+01 -1.51922E+00 +1.00556E+01 -3.42574E+00
 +6.57435E+00 -4.14106E+00 +1.50482E+00 -1.96248E+00 -2.16411E+00 +2.96042E+00 -2.21325E+00 +8.20015E+00
 +1.03784E+00 +1.04508E+01 +4.71580E+00 +7.94655E+00 +5.41713E+00 +2.04109E+00 +1.85755E+00 -3.46945E+00
 -3.94439E+00 -4.97894E+00 -8.01335E+00 -1.72528E+00 -7.37032E+00 +3.61152E+00 -2.33866E+00 +6.89943E+00
 +3.60623E+00 +5.64081E+00 +6.35464E+00 +7.95999E-01 +4.12772E+00 -4.02215E+00 -1.33903E+00 -5.30639E+00
 -6.20336E+00 -2.22988E+00 -7.34804E+00 +2.86070E+00 -4.48850E+00 +6.27013E+00 -1.03069E-01 +5.61311E+00
 +2.55995E+00 +1.34550E+00 +1.79670E+00 -3.78930E+00 -1.55306E+00 -6.78119E+00 -4.93010E+00 -6.29668E+00
 -5.90189E+00 -3.28401E+00 -3.68901E+00 -6.73171E-02 +5.23502E-01 +1.25486E+00 +4.47007E+00 +3.38524E-02
 +6.18226E+00 -2.70769E+00 +5.04736E+00 -5.00893E+00 +2.05827E+00 -5.15148E+00 -7.92632E-01 -2.66507E+00
 -1.65757E+00 +1.33745E+00 +4.89398E-02 +4.71072E+00 +3.19264E+00 +5.51462E+00 +5.51355E+00 +3.29236E+00
 +5.07190E+00 -4.54764E-01 +1.68672E+00 -3.08914E+00 -2.69603E+00 -2.59924E+00 -5.17747E+00 +8.59422E-01
 -3.96978E+00 +4.86494E+00 +1.31000E-01 +6.35924E+00 +4.10587E+00 +3.95176E+00 +4.84521E+00 -8.51511E-01
 +1.54751E+00 -4.58905E+00 -3.50359E+00 -4.41044E+00 -6.54249E+00 -3.51445E-01 -5.19878E+00 +4.52895E+00
 -4.27066E-01 +6.40195E+00 +4.11043E+00 +3.64554E+00 +4.83809E+00 -1.80375E+00 +1.09105E+00 -5.87343E+00
 -4.28918E+00 -5.51080E+00 -7.12606E+00 -1.09982E+00 -5.17371E+00 +3.80480E+00 +1.08233E-01 +5.25529E+00
 +4.69673E+00 +2.01488E+00 +5.16862E+00 -3.47577E+00 +1.37353E+00 -7.03226E+00 -3.49596E+00 -6.00983E+00
 -5.46118E+00 -1.32762E+00 -2.88089E+00 +3.33838E+00 +2.32712E+00 +4.49311E+00 +6.27207E+00 +1.52514E+00
 +6.15151E+00 -2.93438E+00 +2.34424E+00 -5.18842E+00 -2.04914E+00 -3.38165E+00 -3.73385E+00 +1.15453E+00
 -1.74578E+00 +5.07800E+00 +1.97556E+00 +5.67823E+00 +4.27845E+00 +2.86109E+00 +3.29512E+00 -9.93745E-01
 -2.29012E-01 -3.02573E+00 -3.69060E+00 -2.06392E+00 -4.71230E+00 +6.84807E-01 -2.85873E+00 +2.80179E+00
 +2.61664E-01 +2.60247E+00 +2.40136E+00 +3.14988E-01 +2.35979E+00 -2.29724E+00 +6.71603E-01 -3.39295E+00
 -1.06336E+00 -2.37288E+00 -1.50938E+00 -1.21400E-01 -5.08476E-01 +1.83191E+00 +1.00949E+00 +2.44466E+00
 +1.86902E+00 +1.73386E+00 +1.49706E+00 +5.08437E-01 +1.85060E-01 -3.57008E-01 -1.27341E+00 -4.93584E-01
 -2.16171E+00 -1.13500E-01 -2.19827E+00 +3.04537E-01 -1.53217E+00 +3.79912E-01 -5.31473E-01 +1.74187E-04
 +4.17192E-01 -7.06665E-01 +1.01530E+00 -1.46637E+00 +1.11702E+00 -1.93929E+00 +7.94503E-01 -1.81865E+00
 +3.47165E-01 -9.87024E-01 +1.63977E-01 +3.35198E-01 +4.58179E-01 +1.60244E+00 +1.05215E+00 +2.20205E+00
 +1.42212E+00 +1.84105E+00 +1.04244E+00 +7.86259E-01 -1.84448E-01 -2.64454E-01 -1.74586E+00 -6.42893E-01
 -2.77409E+00 -1.94430E-01 -2.60859E+00 +5.81094E-01 -1.28005E+00 +8.71164E-01 +4.49954E-01 +1.59505E-01
 +1.56219E+00 -1.33234E+00 +1.46417E+00 -2.71435E+00 +4.10420E-01 -3.00160E+00 -6.57079E-01 -1.81749E+00
 -7.69964E-01 +2.70153E-01 +3.45674E-01 +2.05313E+00 +2.00463E+00 +2.46565E+00 +2.98333E+00 +1.32966E+00
 +2.38069E+00 -4.71938E-01 +3.30931E-01 -1.56744E+00 -1.97140E+00 -1.06477E+00 -3.02605E+00 +7.56419E-01
 -2.08616E+00 +2.56591E+00 +2.32933E-01 +2.90426E+00 +2.29530E+00 +1.28820E+00 +2.57379E+00 -1.32092E+00
 +7.89766E-01 -3.10618E+00 -1.79920E+00 -2.69376E+00 -3.25494E+00 -2.31165E-01 -2.39365E+00 +2.60258E+00
 +2.59377E-01 +3.75140E+00 +2.76659E+00 +2.30258E+00 +3.18115E+00 -7.69567E-01 +1.03960E+00 -3.25520E+00
 -2.20513E+00 -3.32888E+00 -4.19877E+00 -9.37919E-01 -3.42999E+00 +2.11592E+00 -3.90792E-01 +3.50439E+00
 +2.75193E+00 +2.12632E+00 +3.75160E+00 -1.04832E+00 +1.94517E+00 -3.69724E+00 -1.27444E+00 -3.88473E+00
 -3.52255E+00 -1.49724E+00 -3.19651E+00 +1.70218E+00 -6.13808E-01 +3.40962E+00 +2.30801E+00 +2.46603E+00
 +3.52243E+00 -3.67090E-01 +2.32759E+00 -3.05790E+00 -2.32325E-01 -3.80993E+00 -2.23991E+00 -2.27184E+00
 -2.30756E+00 +3.76157E-01 -4.65999E-01 +2.38860E+00 +2.00927E+00 +2.66743E+00 +3.56043E+00 +1.36480E+00
 +3.33472E+00 -4.13032E-01 +1.57001E+00 -1.43247E+00 -7.15476E-01 -1.06711E+00 -2.37561E+00 +4.53340E-01
 -2.70362E+00 +2.26974E+00 -1.69809E+00 +3.35504E+00 -2.30913E-02 +2.99105E+00 +1.28662E+00 +1.13531E+00
 +1.32878E+00 -1.44454E+00 -1.01256E-01 -3.42689E+00 -2.21020E+00 -3.61872E+00 -3.51529E+00 -1.77273E+00
 -2.76955E+00 +1.03591E+00 +2.59873E-02 +2.92567E+00 +3.32752E+00 +2.46566E+00 +4.90849E+00 -1.60632E-01
 +3.44122E+00 -3.05666E+00 -3.44422E-01 -3.86778E+00 -3.94366E+00 -1.59637E+00 -4.79474E+00 +2.42072E+00
 -2.23837E+00 +5.28565E+00 +1.82995E+00 +4.65186E+00 +4.26930E+00 +6.14716E-01 +3.08409E+00 -4.15993E+00
 -9.37763E-01 -6.31482E+00 -4.69910E+00 -4.33027E+00 -5.12073E+00 +2.63715E-01 -1.55802E+00 +4.00519E+00
 +3.60511E+00 +4.14167E+00 +6.70674E+00 +7.51210E-01 +5.57366E+00 -3.33090E+00 +1.15164E+00 -4.73479E+00
 -3.26746E+00 -2.18301E+00 -4.59324E+00 +2.53592E+00 -2.24811E+00 +5.97982E+00 +1.53686E+00 +5.69749E+00
 +3.58950E+00 +2.02239E+00 +2.28215E+00 -2.32592E+00 -1.31550E+00 -4.40753E+00 -4.41974E+00 -3.22693E+00
 -4.74561E+00 -2.50411E-01 -2.16025E+00 +1.96924E+00 +1.42707E+00 +1.82615E+00 +3.66897E+00 -2.64405E-01
 +3.49271E+00 -2.44888E+00 +1.62594E+00 -3.01177E+00 -2.71200E-01 -1.60820E+00 -9.74717E-01 +7.17975E-01
 -4.44484E-01 +2.52005E+00 +4.73881E-01 +2.99477E+00 +9.10978E-01 +2.29883E+00 +5.86254E-01 +1.10649E+00
 -2.25394E-01 -6.42420E-03 -1.11240E+00 -8.01645E-01 -1.81160E+00 -1.21074E+00 -2.14750E+00 -1.14893E+00
 -1.87838E+00 -6.08714E-01 -8.01584E-01 +1.05846E-01 +8.92410E-01 +4.05675E-01 +2.43559E+00 -1.32349E-01
 +2.84704E+00 -1.24144E+00 +1.70328E+00 -1.95052E+00 -3.39764E-01 -1.28669E+00 -1.86433E+00 +7.96702E-01
 -1.75310E+00 +3.11044E+00 -1.69896E-01 +3.96930E+00 +1.43705E+00 +2.51042E+00 +1.45013E+00 -4.84438E-01
 -5.25949E-01 -3.04067E+00 -3.17533E+00 -3.46755E+00 -4.39116E+00 -1.70263E+00 -2.93948E+00 +6.07078E-01
 +4.76695E-01 +1.41760E+00 +3.66443E+00 -3.99172E-02 +4.58966E+00 -2.59679E+00 +2.91909E+00 -4.05835E+00
 +2.18854E-01 -2.96339E+00 -1.33393E+00 +2.31323E-01 -6.66969E-01 +3.48747E+00 +1.41870E+00 +4.74418E+00
 +2.99146E+00 +3.43403E+00 +2.57341E+00 +7.82688E-01 +2.69328E-01 -1.25149E+00 -2.40210E+00 -1.46771E+00
 -3.72658E+00 -1.66898E-01 -3.02374E+00 +1.31519E+00 -9.69796E-01 +1.75535E+00 +1.07668E+00 +8.98720E-01
 +2.06562E+00 -5.53342E-01 +1.78781E+00 -1.61767E+00 +7.13076E-01 -1.70536E+00 -5.05495E-01 -8.27862E-01
 -1.37652E+00 +6.09800E-01 -1.62432E+00 +2.06388E+00 -1.17157E+00 +2.94794E+00 -2.46638E-01 +2.71179E+00
 +5.19866E-01 +1.12256E+00 +3.33876E-01 -1.35075E+00 -1.13174E+00 -3.49273E+00 -3.17773E+00 -3.97063E+00
 -4.24447E+00 -2.36507E+00 -2.96970E+00 +2.33915E-01 +5.50388E-01 +1.78033E+00 +4.41239E+00 +8.02143E-01
 +6.03699E+00 -2.22885E+00 +4.12567E+00 -4.94106E+00 -9.14742E-02 -4.75753E+00 -3.50849E+00 -1.05574E+00
 -3.42858E+00 +3.99270E+00 +2.25699E-01 +6.80500E+00 +4.63039E+00 +5.11156E+00 +6.13322E+00 -9.62683E-02
 +3.17480E+00 -5.07601E+00 -2.28325E+00 -6.08734E+00 -6.10052E+00 -2.30858E+00 -5.14754E+00 +3.42806E+00
 +1.45592E-01 +6.77051E+00 +5.96391E+00 +5.23823E+00 +7.96068E+00 +1.90254E-01 +4.58594E+00 -4.22786E+00
 -1.73289E+00 -4.35348E+00 -6.49243E+00 +9.47284E-02 -6.58213E+00 +5.78481E+00 -2.58078E+00 +8.36681E+00
 +1.88135E+00 +5.81351E+00 +3.09482E+00 -1.16739E-01 +1.59089E-01 -5.36121E+00 -4.46408E+00 -6.69486E+00
 -7.03673E+00 -4.01837E+00 -5.48623E+00 -9.58674E-02 -8.63809E-01 +1.84640E+00 +3.68662E+00 +6.13380E-01
 +5.42921E+00 -2.30988E+00 +3.93782E+00 -4.25509E+00 +1.01790E+00 -3.59531E+00 -1.01939E+00 -8.67445E-01
 -1.14685E+00 +1.93689E+00 -6.70575E-02 +3.08411E+00 +7.95986E-01 +2.30145E+00 +6.61589E-01 +6.07198E-01
 -9.85829E-02 -8.17001E-01 -5.78940E-01 -1.56153E+00 -3.12741E-01 -1.95827E+00 +3.79221E-01 -2.33037E+00
 +9.10858E-01 -2.42798E+00 +1.17371E+00 -1.66843E+00 +1.66088E+00 +9.09174E-02 +2.80590E+00 +2.11179E+00
 +4.22404E+00 +3.23525E+00 +4.72240E+00 +2.90722E+00 +3.24107E+00 +1.79839E+00 -5.38675E-02 +1.32860E+00
 -3.57671E+00 +2.39437E+00 -5.36612E+00 +4.39971E+00 -4.59889E+00 +5.53359E+00 -2.30062E+00 +4.19616E+00
 -5.75736E-01 +4.37107E-01 -9.12048E-01 -3.83758E+00 -2.93493E+00 -6.16421E+00 -4.66652E+00 -5.34601E+00
 -4.12373E+00 -2.34953E+00 -9.78062E-01 +4.58471E-01 +3.06894E+00 +1.13270E+00 +5.50833E+00 -4.13889E-01
 +4.87857E+00 -2.46993E+00 +1.80439E+00 -2.97989E+00 -1.54650E+00 -1.19907E+00 -3.09883E+00 +1.74488E+00
 -2.30090E+00 +3.75732E+00 -3.06016E-01 +3.36880E+00 +1.10622E+00 +7.68740E-01 +9.31130E-01 -2.43498E+00
 -4.11455E-01 -4.42545E+00 -1.56163E+00 -4.37370E+00 -1.33091E+00 -2.78490E+00 +4.50589E-01 -8.96371E-01
 +2.90792E+00 +2.79547E-01 +4.79120E+00 +5.42845E-01 +5.26098E+00 +4.14881E-01 +4.26565E+00 +5.99112E-01
 +2.39171E+00 +1.46005E+00 +4.30744E-01 +2.83335E+00 -1.01733E+00 +4.17176E+00 -1.73947E+00 +4.84694E+00
 -1.90633E+00 +4.44074E+00 -1.92456E+00 +2.94471E+00 -2.18622E+00 +8.15182E-01 -2.79332E+00 -1.17990E+00
 -3.41832E+00 -2.32425E+00 -3.46082E+00 -2.36522E+00 -2.47988E+00 -1.68679E+00 -6.22598E-01 -1.04953E+00
