 Created: 16-Jan-2021
 $NMID
 ID='D:\BASISSIMULATI'
 FMTDAT='(8E13.5)'
 VOLUME=   1.00000E+00
 TRAMP=   1.00000E+00
 $END
 +2.72934E+01 +2.96398E-02 +2.18167E+01 -6.26488E+00 +8.25634E+00 -7.36201E+00 -6.67700E+00 -1.39558E+00
 -1.60010E+01 +8.92297E+00 -1.61378E+01 +1.78084E+01 -8.56706E+00 +1.97888E+01 +1.38349E+00 +1.29762E+01
 +7.79411E+00 +2.95948E-01 +7.50252E+00 -1.20415E+01 +1.63343E+00 -1.79325E+01 -5.45986E+00 -1.46807E+01
 -9.06610E+00 -4.34992E+00 -7.00513E+00 +7.52302E+00 -8.25119E-01 +1.50227E+01 +5.31323E+00 +1.49469E+01
 +7.28442E+00 +8.19287E+00 +3.52615E+00 -1.18643E+00 -4.05016E+00 -8.51787E+00 -1.12303E+01 -1.10573E+01
 -1.39607E+01 -9.11637E+00 -1.06022E+01 -5.29727E+00 -2.69232E+00 -2.52422E+00 +6.10656E+00 -2.19630E+00
 +1.21124E+01 -3.56859E+00 +1.34843E+01 -4.59343E+00 +1.08169E+01 -3.51912E+00 +6.31157E+00 -1.33749E-01
 +2.23173E+00 +4.12682E+00 -3.13277E-01 +7.18309E+00 -1.56904E+00 +7.67821E+00 -2.39080E+00 +5.77452E+00
 -3.24818E+00 +2.89515E+00 -3.76710E+00 +6.67862E-01 -3.12696E+00 -1.46129E-01 -9.57592E-01 +7.33133E-03
 +2.01210E+00 +5.79243E-02 +4.13781E+00 -6.63986E-01 +3.85112E+00 -1.76010E+00 +8.10674E-01 -1.99675E+00
 -3.62518E+00 -3.17782E-01 -7.04092E+00 +3.08624E+00 -7.41179E+00 +6.48988E+00 -4.45419E+00 +7.47793E+00
 +4.43524E-02 +4.49295E+00 +3.23193E+00 -1.90082E+00 +2.98563E+00 -8.95154E+00 -6.24546E-01 -1.30647E+01
 -5.18763E+00 -1.18613E+01 -7.32251E+00 -5.71729E+00 -4.80235E+00 +2.22886E+00 +1.87118E+00 +7.73129E+00
 +9.48683E+00 +7.85961E+00 +1.38417E+01 +2.76473E+00 +1.22071E+01 -4.31264E+00 +5.07220E+00 -8.87411E+00
 -3.93799E+00 -7.80773E+00 -1.00141E+01 -1.28863E+00 -9.89639E+00 +7.22118E+00 -3.79487E+00 +1.29232E+01
 +4.66344E+00 +1.24693E+01 +1.04762E+01 +5.95076E+00 +1.01356E+01 -3.09414E+00 +3.66040E+00 -9.68152E+00
 -5.39919E+00 -1.02343E+01 -1.19946E+01 -4.62367E+00 -1.24698E+01 +3.78545E+00 -6.63524E+00 +1.00997E+01
 +2.16192E+00 +1.07138E+01 +8.98516E+00 +5.33810E+00 +1.01210E+01 -2.91704E+00 +5.13004E+00 -9.40716E+00
 -3.01161E+00 -1.06451E+01 -9.69844E+00 -6.24704E+00 -1.13230E+01 +9.61820E-01 -7.22000E+00 +6.67748E+00
 +1.40961E-01 +7.62421E+00 +6.72728E+00 +3.37347E+00 +9.28636E+00 -3.53090E+00 +7.08029E+00 -9.13006E+00
 +2.06789E+00 -1.03191E+01 -2.45764E+00 -6.50732E+00 -3.87848E+00 +2.22982E-01 -1.70337E+00 +6.43765E+00
 +2.33373E+00 +9.29627E+00 +5.47643E+00 +7.98258E+00 +5.64723E+00 +3.87502E+00 +2.61925E+00 -4.99639E-01
 -1.97610E+00 -2.99786E+00 -5.70770E+00 -2.94765E+00 -6.76161E+00 -1.23163E+00 -4.86917E+00 +5.40500E-01
 -1.27139E+00 +1.14775E+00 +2.14251E+00 +4.46476E-01 +3.92024E+00 -7.31480E-01 +3.70271E+00 -1.29822E+00
 +2.14551E+00 -7.05482E-01 +2.88750E-01 +7.11459E-01 -1.13252E+00 +2.01985E+00 -1.98898E+00 +2.35347E+00
 -2.55038E+00 +1.47691E+00 -3.02149E+00 -1.17716E-01 -3.22605E+00 -1.60326E+00 -2.69671E+00 -2.38673E+00
 -1.10152E+00 -2.44480E+00 +1.33112E+00 -2.20767E+00 +3.74457E+00 -2.10948E+00 +5.05368E+00 -2.16448E+00
 +4.58529E+00 -1.90697E+00 +2.53902E+00 -7.65148E-01 -6.18919E-02 +1.38743E+00 -1.93768E+00 +3.91499E+00
 -2.30070E+00 +5.61851E+00 -1.31355E+00 +5.39189E+00 +4.54559E-02 +2.95026E+00 +6.37995E-01 -8.45216E-01
 -6.81475E-02 -4.32312E+00 -1.61694E+00 -5.85415E+00 -2.82779E+00 -4.74271E+00 -2.55955E+00 -1.62938E+00
 -5.03062E-01 +1.85002E+00 +2.50636E+00 +3.96580E+00 +4.88192E+00 +3.83776E+00 +5.17795E+00 +1.87455E+00
 +2.96070E+00 -5.37691E-01 -8.67587E-01 -1.89897E+00 -4.50143E+00 -1.48981E+00 -6.18798E+00 +2.32899E-01
 -5.16440E+00 +1.96102E+00 -2.04622E+00 +2.36996E+00 +1.54304E+00 +9.52988E-01 +3.87488E+00 -1.64450E+00
 +4.02982E+00 -3.98418E+00 +2.31462E+00 -4.66779E+00 -2.14426E-02 -3.15108E+00 -1.56903E+00 -6.81963E-02
 -1.56667E+00 +3.10979E+00 -2.75335E-01 +4.87246E+00 +1.26376E+00 +4.46432E+00 +1.90806E+00 +2.23841E+00
 +1.11093E+00 -6.00054E-01 -7.65183E-01 -2.68187E+00 -2.67796E+00 -3.19032E+00 -3.51716E+00 -2.21672E+00
 -2.73357E+00 -5.95360E-01 -6.32871E-01 +6.43262E-01 +1.80849E+00 +8.65283E-01 +3.47570E+00 +1.42631E-01
 +3.68706E+00 -8.64693E-01 +2.49935E+00 -1.34870E+00 +6.09682E-01 -8.44124E-01 -1.05741E+00 +5.05617E-01
 -1.83280E+00 +2.03704E+00 -1.59919E+00 +2.93848E+00 -7.68642E-01 +2.68903E+00 +1.24885E-02 +1.33028E+00
 +2.48560E-01 -5.59739E-01 -1.41117E-01 -2.16005E+00 -8.08260E-01 -2.80659E+00 -1.20223E+00 -2.29633E+00
 -9.04765E-01 -9.54268E-01 +1.08574E-01 +5.55309E-01 +1.41901E+00 +1.56797E+00 +2.35678E+00 +1.73630E+00
 +2.34255E+00 +1.17002E+00 +1.20749E+00 +3.34939E-01 -6.74848E-01 -2.31474E-01 -2.52554E+00 -2.35352E-01
 -3.51468E+00 +2.00035E-01 -3.16622E+00 +6.05672E-01 -1.60770E+00 +4.56121E-01 +4.74710E-01 -4.76587E-01
 +2.16904E+00 -1.91033E+00 +2.79577E+00 -3.12741E+00 +2.24989E+00 -3.33010E+00 +1.03424E+00 -2.10404E+00
 -4.54201E-02 +2.69847E-01 -3.60687E-01 +2.85777E+00 +1.59074E-01 +4.49010E+00 +9.79191E-01 +4.35746E+00
 +1.29269E+00 +2.46629E+00 +5.52645E-01 -3.14856E-01 -1.11439E+00 -2.67412E+00 -2.88568E+00 -3.53357E+00
 -3.66429E+00 -2.61662E+00 -2.72976E+00 -5.81999E-01 -2.40796E-01 +1.36358E+00 +2.73134E+00 +2.16133E+00
 +4.70474E+00 +1.50501E+00 +4.57519E+00 -2.76667E-03 +2.25403E+00 -1.24210E+00 -1.22147E+00 -1.28757E+00
 -4.19580E+00 -1.23796E-02 -5.25840E+00 +1.79071E+00 -3.98583E+00 +2.86472E+00 -1.14518E+00 +2.26347E+00
 +1.75611E+00 -1.60296E-02 +3.31416E+00 -2.93781E+00 +2.98103E+00 -4.95294E+00 +1.29910E+00 -4.86153E+00
 -5.00248E-01 -2.51606E+00 -1.27585E+00 +1.04854E+00 -6.59069E-01 +4.14440E+00 +7.65894E-01 +5.32451E+00
 +1.87646E+00 +4.13598E+00 +1.75118E+00 +1.31448E+00 +2.71933E-01 -1.66949E+00 -1.78083E+00 -3.42942E+00
 -3.19329E+00 -3.36837E+00 -3.05360E+00 -1.88598E+00 -1.30746E+00 -1.51790E-02 +1.19791E+00 +1.24534E+00
 +3.19654E+00 +1.48042E+00 +3.71213E+00 +9.76915E-01 +2.56894E+00 +3.92132E-01 +4.22016E-01 +2.36243E-01
 -1.67253E+00 +5.27938E-01 -2.85409E+00 +8.38944E-01 -2.85505E+00 +6.66641E-01 -1.99399E+00 -1.47498E-01
 -8.35305E-01 -1.25660E+00 +2.08151E-01 -2.01941E+00 +1.05034E+00 -1.93483E+00 +1.79633E+00 -9.93167E-01
 +2.44900E+00 +3.05858E-01 +2.73164E+00 +1.28526E+00 +2.20987E+00 +1.54207E+00 +6.58755E-01 +1.19714E+00
 -1.59425E+00 +7.59570E-01 -3.64904E+00 +6.96461E-01 -4.43860E+00 +1.02125E+00 -3.36311E+00 +1.22266E+00
 -7.54387E-01 +6.30157E-01 +2.17395E+00 -1.00620E+00 +3.93645E+00 -3.13480E+00 +3.62472E+00 -4.54955E+00
 +1.48070E+00 -4.06428E+00 -1.19441E+00 -1.33994E+00 -2.79254E+00 +2.67538E+00 -2.38495E+00 +6.05624E+00
 -3.32113E-01 +6.88038E+00 +1.89778E+00 +4.35840E+00 +2.63943E+00 -5.66331E-01 +1.13618E+00 -5.57024E+00
 -1.85822E+00 -8.13368E+00 -4.41194E+00 -6.92171E+00 -4.55003E+00 -2.56384E+00 -1.54109E+00 +2.65355E+00
 +3.46198E+00 +6.04584E+00 +7.88493E+00 +6.03411E+00 +9.10961E+00 +3.01931E+00 +6.00549E+00 -8.97593E-01
 -2.87307E-01 -3.19804E+00 -6.83132E+00 -2.47676E+00 -1.04117E+01 +6.95934E-01 -9.27145E+00 +4.11189E+00
 -4.07859E+00 +5.27929E+00 +2.43602E+00 +2.99171E+00 +6.97560E+00 -1.83724E+00 +7.46161E+00 -6.60131E+00
 +4.09643E+00 -8.47280E+00 -8.80463E-01 -6.07036E+00 -4.56694E+00 -3.42917E-01 -5.07907E+00 +5.86518E+00
 -2.55841E+00 +9.33839E+00 +1.05364E+00 +8.24135E+00 +3.29416E+00 +3.10614E+00 +2.71440E+00 -3.48925E+00
 -2.51017E-01 -8.34254E+00 -3.58306E+00 -9.32381E+00 -4.93754E+00 -6.39787E+00 -3.09053E+00 -1.44747E+00
 +1.29549E+00 +2.92111E+00 +6.02501E+00 +4.84433E+00 +8.61078E+00 +4.09228E+00 +7.65936E+00 +1.93434E+00
 +3.60236E+00 +1.61757E-01 -1.60987E+00 -7.16802E-02 -5.61840E+00 +1.12016E+00 -6.89167E+00 +2.58493E+00
 -5.39101E+00 +2.99883E+00 -2.35856E+00 +1.77469E+00 +5.43729E-01 -5.65037E-01 +2.16637E+00 -2.74960E+00
 +2.33026E+00 -3.57887E+00 +1.62500E+00 -2.65402E+00 +7.96016E-01 -5.67990E-01 +1.95377E-01 +1.52158E+00
 -3.37470E-01 +2.61593E+00 -1.14375E+00 +2.41132E+00 -2.27197E+00 +1.32792E+00 -3.26321E+00 +7.60733E-02
 -3.39001E+00 -8.85742E-01 -2.19483E+00 -1.59959E+00 +6.85497E-02 -2.40070E+00 +2.44727E+00 -3.44205E+00
 +3.80728E+00 -4.35093E+00 +3.54564E+00 -4.33489E+00 +2.01743E+00 -2.72721E+00 +3.54287E-01 +3.85758E-01
 -2.54636E-01 +3.93093E+00 +6.26758E-01 +6.26827E+00 +2.32438E+00 +6.09575E+00 +3.43193E+00 +3.30892E+00
 +2.73222E+00 -7.58375E-01 +8.84797E-02 -3.94989E+00 -3.29703E+00 -4.47068E+00 -5.49358E+00 -1.96130E+00
 -5.00822E+00 +2.20500E+00 -1.80528E+00 +5.63848E+00 +2.48873E+00 +6.29111E+00 +5.40035E+00 +3.67170E+00
 +5.02463E+00 -8.19537E-01 +1.21754E+00 -4.67202E+00 -4.17595E+00 -5.73026E+00 -8.25730E+00 -3.48370E+00
 -8.68128E+00 +5.99128E-01 -5.01790E+00 +3.91758E+00 +9.37811E-01 +4.28593E+00 +6.12065E+00 +1.26727E+00
 +7.89087E+00 -3.51089E+00 +5.50425E+00 -7.26964E+00 +5.10615E-01 -7.70007E+00 -4.14863E+00 -4.34245E+00
 -5.81923E+00 +1.09659E+00 -3.61913E+00 +5.68932E+00 +1.11794E+00 +6.95356E+00 +5.67191E+00 +4.27473E+00
 +7.52974E+00 -7.39971E-01 +5.80306E+00 -5.17521E+00 +1.65793E+00 -6.45426E+00 -2.45683E+00 -3.77070E+00
 -4.29002E+00 +1.50094E+00 -3.08779E+00 +6.61762E+00 +3.89174E-02 +9.00345E+00 +2.85768E+00 +7.61881E+00
 +3.38965E+00 +3.40914E+00 +1.08629E+00 -1.35875E+00 -2.87273E+00 -4.42410E+00 -6.29908E+00 -4.72903E+00
 -7.27298E+00 -2.82534E+00 -5.21753E+00 -3.37604E-01 -1.16755E+00 +1.11376E+00 +2.87092E+00 +8.48949E-01
 +5.04724E+00 -6.09628E-01 +4.61119E+00 -2.03333E+00 +2.16985E+00 -2.36121E+00 -8.09618E-01 -1.37761E+00
 -2.88029E+00 +2.08911E-01 -3.33369E+00 +1.28398E+00 -2.37802E+00 +1.07045E+00 -7.72326E-01 -3.86109E-01
 +7.58325E-01 -2.27298E+00 +1.91712E+00 -3.52938E+00 +2.81860E+00 -3.46922E+00 +3.65253E+00 -2.11596E+00
 +4.33818E+00 -7.87531E-02 +4.46023E+00 +1.88997E+00 +3.54996E+00 +3.32453E+00 +1.50555E+00 +4.18034E+00
 -1.17313E+00 +4.62787E+00 -3.54433E+00 +4.71618E+00 -4.71453E+00 +4.20648E+00 -4.35442E+00 +2.73946E+00
 -2.89575E+00 +2.34695E-01 -1.26126E+00 -2.78450E+00 -2.86916E-01 -5.23762E+00 -2.09127E-01 -5.96970E+00
 -5.60335E-01 -4.42631E+00 -5.54014E-01 -1.10216E+00 +2.89219E-01 +2.56544E+00 +1.70117E+00 +4.86805E+00
 +2.73882E+00 +4.71703E+00 +2.37170E+00 +2.24292E+00 +2.35377E-01 -1.26484E+00 -2.94256E+00 -4.06724E+00
