 Created: 16-Jan-2021
 $NMID
 ID='D:\BASISSIMULATI'
 FMTDAT='(8E13.5)'
 VOLUME=   1.00000E+00
 TRAMP=   1.00000E+00
 $END
 +3.14609E+01 +4.48370E-01 +1.51746E+01 +2.58724E+01 -1.35886E+01 +2.26963E+01 -2.20411E+01 -2.97994E+00
 -2.81873E+00 -1.93070E+01 +1.82561E+01 -7.47925E+00 +1.44980E+01 +1.62268E+01 -9.18982E+00 +2.14868E+01
 -2.32117E+01 +1.56815E+00 -1.03910E+01 -1.87549E+01 +1.27211E+01 -1.43505E+01 +1.65203E+01 +8.79513E+00
 -4.63734E+00 +2.07127E+01 -2.48239E+01 +4.50119E+00 -1.79349E+01 -2.22455E+01 +1.01938E+01 -2.81173E+01
 +2.82243E+01 -5.67583E+00 +1.66048E+01 +1.95354E+01 -9.45439E+00 +1.95745E+01 -1.88471E+01 -2.90979E+00
 -1.95364E+00 -1.89657E+01 +1.87883E+01 -8.96939E+00 +1.72191E+01 +1.40983E+01 -4.56449E+00 +2.15929E+01
 -1.95710E+01 +4.81274E+00 -9.79526E+00 -1.46399E+01 +1.14637E+01 -1.20808E+01 +1.62343E+01 +9.36207E+00
 -3.23654E+00 +2.23224E+01 -2.43561E+01 +8.83808E+00 -2.13445E+01 -1.72186E+01 +3.44749E+00 -2.64054E+01
 +2.21624E+01 -8.89271E+00 +1.46775E+01 +1.40757E+01 -7.87911E+00 +1.59914E+01 -1.74008E+01 -3.45302E+00
 -2.89012E+00 -1.91112E+01 +1.71091E+01 -1.15872E+01 +1.80927E+01 +9.57378E+00 -3.74067E-01 +1.85405E+01
 -1.48628E+01 +5.35531E+00 -7.57772E+00 -1.21346E+01 +1.15609E+01 -1.08424E+01 +1.73065E+01 +8.67743E+00
 +4.44121E-01 +2.26132E+01 -2.04721E+01 +1.29592E+01 -2.13172E+01 -1.03748E+01 -1.38379E+00 -2.12938E+01
 +1.59695E+01 -8.64405E+00 +1.14321E+01 +1.09869E+01 -7.64588E+00 +1.38055E+01 -1.70847E+01 -2.72222E+00
 -5.42900E+00 -1.78000E+01 +1.28752E+01 -1.32625E+01 +1.60027E+01 +4.62456E+00 +1.53967E+00 +1.37477E+01
 -1.12458E+01 +3.76879E+00 -5.77606E+00 -1.14089E+01 +1.12225E+01 -1.12632E+01 +1.80770E+01 +5.73309E+00
 +4.90839E+00 +1.99942E+01 -1.41020E+01 +1.45694E+01 -1.77149E+01 -4.37982E+00 -2.98478E+00 -1.51183E+01
 +1.16933E+01 -6.36749E+00 +9.01484E+00 +9.77836E+00 -6.83918E+00 +1.31378E+01 -1.61454E+01 -2.36065E-01
 -7.87373E+00 -1.41052E+01 +7.52413E+00 -1.24314E+01 +1.17104E+01 +1.35212E+00 +1.03806E+00 +9.40453E+00
 -9.57328E+00 +1.88840E+00 -5.60214E+00 -1.10820E+01 +9.00780E+00 -1.22626E+01 +1.67241E+01 +1.31644E+00
 +7.88799E+00 +1.46214E+01 -7.59458E+00 +1.27988E+01 -1.22989E+01 -1.10864E+00 -2.06741E+00 -1.02194E+01
 +9.58747E+00 -4.21888E+00 +8.21019E+00 +8.75865E+00 -4.43890E+00 +1.26293E+01 -1.32604E+01 +2.83254E+00
 -8.43694E+00 -8.84016E+00 +3.17037E+00 -9.18064E+00 +7.19193E+00 +5.41261E-01 -4.57380E-01 +6.90078E+00
 -9.02329E+00 +1.30039E+00 -6.62728E+00 -9.52783E+00 +5.00640E+00 -1.20489E+01 +1.27295E+01 -2.57972E+00
 +7.96795E+00 +8.32384E+00 -3.13273E+00 +8.71437E+00 -7.42832E+00 -5.90793E-01 -5.46976E-01 -7.51193E+00
 +8.37918E+00 -3.49233E+00 +8.18350E+00 +6.56411E+00 -1.02732E+00 +1.07798E+01 -8.61749E+00 +4.70223E+00
 -6.60210E+00 -3.90758E+00 +1.09912E+00 -5.07990E+00 +4.16935E+00 +1.31648E+00 -1.22189E+00 +6.02958E+00
 -8.02555E+00 +2.20506E+00 -7.31426E+00 -6.23872E+00 +7.52504E-01 -9.60437E+00 +7.29075E+00 -4.23025E+00
 +5.50466E+00 +3.32950E+00 -1.40375E+00 +4.44839E+00 -4.51866E+00 -1.33957E+00 -2.55478E-02 -6.25671E+00
 +6.57585E+00 -3.92303E+00 +7.47059E+00 +3.20282E+00 +1.82261E+00 +7.23002E+00 -3.73562E+00 +4.39593E+00
 -3.41649E+00 -8.97013E-01 +1.02273E+00 -1.95896E+00 +3.01589E+00 +2.03813E+00 -5.30410E-01 +5.47655E+00
 -5.64008E+00 +3.47881E+00 -6.36099E+00 -2.19192E+00 -1.96227E+00 -5.47931E+00 +2.44685E+00 -3.35998E+00
 +2.22166E+00 +8.24441E-01 -1.45497E+00 +1.71323E+00 -3.39322E+00 -1.65801E+00 -7.74057E-01 -5.03303E+00
 +3.69896E+00 -4.26284E+00 +5.30433E+00 -1.09626E-01 +2.85804E+00 +3.01635E+00 -2.97827E-01 +2.40823E+00
 -6.10013E-01 -6.46319E-02 +1.56559E+00 -6.62424E-01 +2.80793E+00 +1.61519E+00 +9.86674E-01 +4.06593E+00
 -2.27732E+00 +3.75470E+00 -3.74318E+00 +9.69325E-01 -2.38101E+00 -1.35151E+00 -3.16905E-01 -1.18404E+00
 -8.23799E-02 +4.08789E-01 -1.68590E+00 +8.45992E-01 -2.86334E+00 -8.37109E-01 -1.88525E+00 -3.01285E+00
 +5.26749E-01 -3.50847E+00 +2.21856E+00 -2.03843E+00 +2.07000E+00 -2.75690E-01 +1.00688E+00 +2.08440E-01
 +6.56040E-01 -4.12035E-01 +1.45177E+00 -7.16539E-01 +2.32819E+00 +1.85099E-01 +2.08756E+00 +1.70897E+00
 +7.25266E-01 +2.57012E+00 -6.83398E-01 +2.19381E+00 -1.19622E+00 +1.19785E+00 -9.04755E-01 +5.96030E-01
 -6.62792E-01 +7.22964E-01 -1.08647E+00 +9.92398E-01 -1.91070E+00 +6.16135E-01 -2.29383E+00 -5.28503E-01
 -1.69557E+00 -1.74277E+00 -4.42221E-01 -2.18022E+00 +5.71820E-01 -1.67398E+00 +7.59210E-01 -8.94096E-01
 +4.18680E-01 -6.50060E-01 +3.92791E-01 -1.02524E+00 +1.11126E+00 -1.27165E+00 +2.04053E+00 -6.47054E-01
 +2.21156E+00 +6.79715E-01 +1.31520E+00 +1.71041E+00 +1.20121E-01 +1.68803E+00 -3.51633E-01 +9.65491E-01
 -4.37455E-04 +6.04803E-01 +2.32025E-01 +1.09788E+00 -4.75229E-01 +1.72366E+00 -1.73525E+00 +1.38959E+00
 -2.31171E+00 +1.12618E-02 -1.57984E+00 -1.26637E+00 -3.31832E-01 -1.36680E+00 +1.24662E-01 -5.69404E-01
 -4.58777E-01 -1.75588E-01 -9.62479E-01 -8.95012E-01 -2.96459E-01 -1.92349E+00 +1.18816E+00 -1.90124E+00
 +2.05568E+00 -6.13072E-01 +1.52273E+00 +6.91728E-01 +4.23926E-01 +8.07625E-01 +1.63934E-01 +5.00720E-02
 +9.39597E-01 -1.73530E-01 +1.48337E+00 +8.06187E-01 +6.93639E-01 +2.00290E+00 -8.95588E-01 +1.97595E+00
 -1.70523E+00 +6.65577E-01 -1.06342E+00 -4.82353E-01 -4.73698E-02 -3.09070E-01 -1.07793E-01 +6.04436E-01
 -1.20003E+00 +6.99801E-01 -1.82365E+00 -5.22074E-01 -9.58737E-01 -1.80234E+00 +5.74839E-01 -1.70287E+00
 +1.12205E+00 -4.61825E-01 +3.12013E-01 +2.91194E-01 -4.53442E-01 -3.51603E-01 +1.63944E-01 -1.35700E+00
 +1.61937E+00 -1.06857E+00 +2.09435E+00 +5.78514E-01 +8.41155E-01 +1.84177E+00 -7.57117E-01 +1.34121E+00
 -8.77338E-01 -1.32409E-01 +3.96241E-01 -5.73639E-01 +1.12986E+00 +6.45113E-01 +4.13097E-02 +1.88623E+00
 -1.74133E+00 +1.32094E+00 -2.03086E+00 -6.27861E-01 -4.22523E-01 -1.69311E+00 +1.05728E+00 -6.47555E-01
 +4.90418E-01 +1.01147E+00 -1.37216E+00 +8.88872E-01 -1.92477E+00 -1.16026E+00 -5.04229E-02 -2.64423E+00
 +2.25181E+00 -1.51849E+00 +2.22764E+00 +1.08009E+00 -1.03757E-01 +2.06983E+00 -1.79685E+00 +2.86144E-01
 -6.27586E-01 -1.90357E+00 +1.97290E+00 -1.48378E+00 +2.56907E+00 +1.30296E+00 +9.21740E-02 +3.05588E+00
 -2.59415E+00 +1.44537E+00 -2.15362E+00 -1.67479E+00 +9.17823E-01 -2.39700E+00 +2.68641E+00 +2.98364E-01
 +6.68490E-01 +3.02576E+00 -2.83634E+00 +2.09474E+00 -3.38702E+00 -1.71657E+00 +9.00816E-03 -3.84368E+00
 +3.38061E+00 -1.54383E+00 +2.55828E+00 +2.47948E+00 -1.51843E+00 +3.21107E+00 -3.72399E+00 -4.04075E-01
 -1.07265E+00 -3.90390E+00 +3.34627E+00 -2.72084E+00 +3.98619E+00 +1.97744E+00 -2.01469E-01 +4.45967E+00
 -4.17933E+00 +1.49438E+00 -2.91548E+00 -3.39679E+00 +2.20954E+00 -4.06761E+00 +4.82691E+00 +5.66073E-01
 +1.42518E+00 +4.88382E+00 -4.03491E+00 +3.35911E+00 -4.76345E+00 -2.41592E+00 +3.92927E-01 -5.38642E+00
 +5.21233E+00 -1.69525E+00 +3.61122E+00 +4.28845E+00 -2.66508E+00 +5.10776E+00 -5.89178E+00 -5.06858E-01
 -1.84737E+00 -5.75831E+00 +4.70488E+00 -3.99955E+00 +5.62560E+00 +2.88118E+00 -4.99522E-01 +6.46907E+00
 -6.30080E+00 +2.12832E+00 -4.52559E+00 -5.02710E+00 +2.86054E+00 -6.17747E+00 +6.80385E+00 +2.77254E-01
 +2.27095E+00 +6.45437E+00 -5.28711E+00 +4.55256E+00 -6.40757E+00 -3.33720E+00 +6.31349E-01 -7.49077E+00
 +7.34687E+00 -2.48610E+00 +5.31265E+00 +5.81704E+00 -3.26641E+00 +7.19410E+00 -7.91491E+00 -2.98665E-01
 -2.68960E+00 -7.58674E+00 +6.23115E+00 -5.52152E+00 +7.83536E+00 +3.70793E+00 -1.68401E-01 +8.92805E+00
 -8.23933E+00 +3.59571E+00 -6.52433E+00 -5.95663E+00 +2.92545E+00 -8.06802E+00 +8.43962E+00 -1.16366E-01
 +3.05063E+00 +8.01723E+00 -6.69091E+00 +5.99303E+00 -8.55505E+00 -4.05295E+00 +2.08475E-01 -9.81230E+00
 +9.12058E+00 -3.89719E+00 +7.14460E+00 +6.75771E+00 -3.55564E+00 +9.08500E+00 -9.89305E+00 -3.08727E-02
 -3.79448E+00 -9.57506E+00 +7.63730E+00 -7.65443E+00 +1.05026E+01 +3.81115E+00 +1.09324E+00 +1.11331E+01
 -9.34909E+00 +5.47873E+00 -8.24200E+00 -6.19352E+00 +2.85386E+00 -9.52529E+00 +1.00123E+01 -4.27666E-01
 +4.07651E+00 +9.71028E+00 -7.84376E+00 +7.96089E+00 -1.09087E+01 -4.01724E+00 -9.08001E-01 -1.16849E+01
 +1.01908E+01 -5.42517E+00 +8.70203E+00 +7.33466E+00 -3.81101E+00 +1.08838E+01 -1.20618E+01 +4.87921E-01
 -5.58979E+00 -1.14731E+01 +8.23849E+00 -1.03602E+01 +1.29286E+01 +2.80258E+00 +2.90848E+00 +1.23684E+01
 -9.58342E+00 +7.06337E+00 -9.40743E+00 -6.21594E+00 +2.89812E+00 -1.08461E+01 +1.17380E+01 -9.67438E-01
 +5.70733E+00 +1.11664E+01 -8.14413E+00 +1.02242E+01 -1.27794E+01 -3.12470E+00 -2.21176E+00 -1.27024E+01
 +1.07818E+01 -6.60606E+00 +1.00826E+01 +7.89858E+00 -3.87652E+00 +1.29148E+01 -1.42550E+01 +1.76558E+00
 -8.15990E+00 -1.25596E+01 +7.51961E+00 -1.29629E+01 +1.42970E+01 +9.90569E-01 +4.49723E+00 +1.24965E+01
 -9.45813E+00 +7.97744E+00 -1.03272E+01 -6.38766E+00 +2.77615E+00 -1.23630E+01 +1.33225E+01 -2.19591E+00
 +7.81543E+00 +1.17196E+01 -7.37590E+00 +1.20712E+01 -1.36583E+01 -1.87634E+00 -3.13872E+00 -1.30670E+01
 +1.13510E+01 -7.49006E+00 +1.17136E+01 +8.38590E+00 -3.17668E+00 +1.51547E+01 -1.57497E+01 +4.05581E+00
 -1.08984E+01 -1.21636E+01 +5.66879E+00 -1.45332E+01 +1.43259E+01 -7.82658E-01 +5.33455E+00 +1.20483E+01
 -9.48942E+00 +8.49505E+00 -1.14712E+01 -6.51013E+00 +1.92757E+00 -1.39107E+01 +1.40531E+01 -4.13767E+00
 +9.69360E+00 +1.10031E+01 -5.99767E+00 +1.28557E+01 -1.36744E+01 -9.61860E-01 -3.62765E+00 -1.33489E+01
 +1.19932E+01 -8.58600E+00 +1.37671E+01 +8.20164E+00 -1.25966E+00 +1.69427E+01 -1.57148E+01 +6.88910E+00
 -1.27806E+01 -1.02891E+01 +3.55306E+00 -1.45890E+01 +1.35048E+01 -1.79812E+00 +5.59257E+00 +1.17101E+01
 -9.63263E+00 +9.21338E+00 -1.28615E+01 -5.95643E+00 +1.33698E-01 -1.47765E+01 +1.33852E+01 -6.14411E+00
 +1.05446E+01 +9.37205E+00 -4.82044E+00 +1.25650E+01 -1.34802E+01 -6.23332E-01 -4.20986E+00 -1.38574E+01
 +1.21718E+01 -1.02896E+01 +1.57260E+01 +6.69903E+00 +1.61543E+00 +1.73182E+01 -1.39115E+01 +9.19756E+00
 -1.30843E+01 -7.75800E+00 +2.09880E+00 -1.34961E+01 +1.26718E+01 -2.04326E+00 +5.94815E+00 +1.16597E+01
 -9.25990E+00 +1.03864E+01 -1.38574E+01 -4.29315E+00 -2.08760E+00 -1.42371E+01 +1.14983E+01 -7.28466E+00
