 Created: 19-Jan-2021
 $NMID
 ID='D:\BASISSIMULATI'
 FMTDAT='(8E13.5)'
 VOLUME=   1.00000E+00
 TRAMP=   1.00000E+00
 $END
 +4.40489E+01 +8.18228E+00 +3.66293E+01 +2.48534E+01 +2.24965E+01 +3.62069E+01 +4.99885E+00 +3.97023E+01
 -1.17068E+01 +3.47304E+01 -2.36952E+01 +2.27620E+01 -2.82515E+01 +6.96954E+00 -2.45393E+01 -8.57855E+00
 -1.37890E+01 -1.99431E+01 +1.03615E+00 -2.42956E+01 +1.60059E+01 -2.06067E+01 +2.72187E+01 -9.87184E+00
 +3.17718E+01 +5.17551E+00 +2.84607E+01 +2.07792E+01 +1.80372E+01 +3.31146E+01 +2.97224E+00 +3.92342E+01
 -1.32017E+01 +3.77668E+01 -2.67909E+01 +2.92029E+01 -3.48490E+01 +1.57077E+01 -3.58656E+01 +5.27126E-01
 -3.00711E+01 -1.28485E+01 -1.92991E+01 -2.15440E+01 -6.45960E+00 -2.39656E+01 +5.22538E+00 -2.01187E+01
 +1.30213E+01 -1.15139E+01 +1.53152E+01 -7.10273E-01 +1.19359E+01 +9.37170E+00 +4.10088E+00 +1.61816E+01
 -5.97323E+00 +1.81308E+01 -1.56766E+01 +1.49073E+01 -2.26628E+01 +7.45654E+00 -2.53908E+01 -2.34299E+00
 -2.34258E+01 -1.22033E+01 -1.74474E+01 -2.00046E+01 -8.98691E+00 -2.42799E+01 +1.47631E-02 -2.44954E+01
 +7.70316E+00 -2.10777E+01 +1.27319E+01 -1.52083E+01 +1.45148E+01 -8.45966E+00 +1.32655E+01 -2.38265E+00
 +9.84092E+00 +1.84898E+00 +5.45286E+00 +3.65551E+00 +1.33576E+00 +3.09546E+00 -1.53974E+00 +7.50985E-01
 -2.64379E+00 -2.49271E+00 -1.92876E+00 -5.70148E+00 +2.51668E-01 -8.11032E+00 +3.30216E+00 -9.25702E+00
 +6.56725E+00 -9.01449E+00 +9.48281E+00 -7.53570E+00 +1.16644E+01 -5.14701E+00 +1.29252E+01 -2.23302E+00
 +1.32392E+01 +8.51306E-01 +1.26792E+01 +3.82307E+00 +1.13607E+01 +6.47033E+00 +9.41390E+00 +8.62605E+00
 +6.98603E+00 +1.01421E+01 +4.26563E+00 +1.08847E+01 +1.50470E+00 +1.07588E+01 -9.82424E-01 +9.75558E+00
 -2.85647E+00 +8.00080E+00 -3.82478E+00 +5.77941E+00 -3.72844E+00 +3.51617E+00 -2.61665E+00 +1.70495E+00
 -7.78549E-01 +7.98412E-01 +1.28715E+00 +1.08514E+00 +2.96711E+00 +2.59024E+00 +3.67477E+00 +5.03285E+00
 +3.00350E+00 +7.86074E+00 +8.49688E-01 +1.03615E+01 -2.53178E+00 +1.18269E+01 -6.56057E+00 +1.17314E+01
 -1.04506E+01 +9.87589E+00 -1.33902E+01 +6.45815E+00 -1.47387E+01 +2.04622E+00 -1.41890E+01 -2.54281E+00
 -1.18531E+01 -6.43082E+00 -8.24535E+00 -8.88748E+00 -4.16640E+00 -9.50711E+00 -5.14196E-01 -8.30828E+00
 +1.93021E+00 -5.73012E+00 +2.68918E+00 -2.52559E+00 +1.70046E+00 +4.21633E-01 -6.72800E-01 +2.31089E+00
 -3.73547E+00 +2.61578E+00 -6.63294E+00 +1.20588E+00 -8.55880E+00 -1.62938E+00 -8.94615E+00 -5.25864E+00
 -7.59635E+00 -8.86632E+00 -4.71582E+00 -1.16495E+01 -8.55340E-01 -1.30051E+01 +3.22978E+00 -1.26622E+01
 +6.76167E+00 -1.07307E+01 +9.11843E+00 -7.65840E+00 +9.96692E+00 -4.11107E+00 +9.32093E+00 -8.09301E-01
 +7.51530E+00 +1.63775E+00 +5.10769E+00 +2.86172E+00 +2.73609E+00 +2.79980E+00 +9.68418E-01 +1.68460E+00
 +1.80262E-01 -3.28390E-02 +4.86498E-01 -1.80335E+00 +1.73816E+00 -3.11177E+00 +3.57921E+00 -3.58929E+00
 +5.54437E+00 -3.08216E+00 +7.17159E+00 -1.66562E+00 +8.10203E+00 +3.94444E-01 +8.14631E+00 +2.71733E+00
 +7.30638E+00 +4.89955E+00 +5.75356E+00 +6.60043E+00 +3.77363E+00 +7.60329E+00 +1.69542E+00 +7.84228E+00
 -1.78892E-01 +7.39420E+00 -1.62727E+00 +6.44263E+00 -2.53649E+00 +5.22683E+00 -2.90448E+00 +3.98877E+00
 -2.82124E+00 +2.92960E+00 -2.43647E+00 +2.18227E+00 -1.92361E+00 +1.80197E+00 -1.44776E+00 +1.77171E+00
 -1.14234E+00 +2.01776E+00 -1.09562E+00 +2.42948E+00 -1.34592E+00 +2.87902E+00 -1.88270E+00 +3.23860E+00
 -2.65144E+00 +3.39490E+00 -3.56080E+00 +3.26116E+00 -4.49218E+00 +2.78772E+00 -5.31241E+00 +1.97063E+00
 -5.89016E+00 +8.56844E-01 -6.11542E+00 -4.56382E-01 -5.91967E+00 -1.83016E+00 -5.29288E+00 -3.10163E+00
 -4.29272E+00 -4.10952E+00 -3.04196E+00 -4.72358E+00 -1.71239E+00 -4.87235E+00 -4.96235E-01 -4.56229E+00
 +4.29989E-01 -3.88291E+00 +9.42228E-01 -2.99457E+00 +9.97643E-01 -2.09983E+00 +6.48077E-01 -1.40326E+00
 +3.37029E-02 -1.06775E+00 -6.43293E-01 -1.17718E+00 -1.16040E+00 -1.71437E+00 -1.32326E+00 -2.56038E+00
 -1.01036E+00 -3.51650E+00 -2.03365E-01 -4.34512E+00 +1.00426E+00 -4.82103E+00 +2.42333E+00 -4.78185E+00
 +3.80683E+00 -4.16628E+00 +4.90195E+00 -3.03102E+00 +5.50469E+00 -1.54204E+00 +5.50500E+00 +5.85210E-02
 +4.91216E+00 +1.50285E+00 +3.85422E+00 +2.55436E+00 +2.55151E+00 +3.05849E+00 +1.26961E+00 +2.97587E+00
 +2.62269E-01 +2.39054E+00 -2.83380E-01 +1.49113E+00 -2.86921E-01 +5.29140E-01 +2.08596E-01 -2.36492E-01
 +1.04704E+00 -5.96335E-01 +1.99435E+00 -4.36330E-01 +2.79061E+00 +2.37440E-01 +3.20756E+00 +1.30043E+00
 +3.09889E+00 +2.53725E+00 +2.43235E+00 +3.68899E+00 +1.29678E+00 +4.50979E+00 -1.17337E-01 +4.82022E+00
 -1.55920E+00 +4.54575E+00 -2.77181E+00 +3.73225E+00 -3.54691E+00 +2.53523E+00 -3.76883E+00 +1.18543E+00
 -3.43770E+00 -6.13497E-02 -2.66744E+00 -9.79273E-01 -1.65909E+00 -1.42013E+00 -6.55625E-01 -1.34348E+00
 +1.11453E-01 -8.22911E-01 +4.72261E-01 -2.73255E-02 +3.54268E-01 +8.18170E-01 -2.03860E-01 +1.48303E+00
 -1.06306E+00 +1.78226E+00 -2.01653E+00 +1.61655E+00 -2.83665E+00 +9.92707E-01 -3.32564E+00 +2.04171E-02
 -3.35861E+00 -1.11361E+00 -2.90966E+00 -2.18791E+00 -2.05569E+00 -2.99527E+00 -9.57396E-01 -3.38740E+00
 +1.77503E-01 -3.30553E+00 +1.14043E+00 -2.79047E+00 +1.76682E+00 -1.97057E+00 +1.96986E+00 -1.03092E+00
 +1.75595E+00 -1.71184E-01 +1.21924E+00 +4.38006E-01 +5.17145E-01 +6.90512E-01 -1.66819E-01 +5.64462E-01
 -6.64080E-01 +1.22715E-01 -8.56775E-01 -5.05117E-01 -7.00619E-01 -1.15416E+00 -2.30645E-01 -1.66164E+00
 +4.50382E-01 -1.90160E+00 +1.19726E+00 -1.80977E+00 +1.85500E+00 -1.39383E+00 +2.29142E+00 -7.28070E-01
 +2.42285E+00 +6.52999E-02 +2.22822E+00 +8.43267E-01 +1.74973E+00 +1.47132E+00 +1.08106E+00 +1.84899E+00
 +3.46555E-01 +1.92694E+00 -3.23761E-01 +1.71328E+00 -8.18467E-01 +1.26884E+00 -1.06401E+00 +6.93268E-01
 -1.03611E+00 +1.05283E-01 -7.62053E-01 -3.79349E-01 -3.14189E-01 -6.68314E-01 +2.03973E-01 -7.08692E-01
 +6.76580E-01 -4.96052E-01 +9.96347E-01 -7.54245E-02 +1.08437E+00 +4.66113E-01 +9.05649E-01 +1.01439E+00
 +4.77630E-01 +1.44867E+00 -1.30437E-01 +1.66462E+00 -8.07909E-01 +1.59589E+00 -1.42210E+00 +1.23004E+00
 -1.84371E+00 +6.15017E-01 -1.97386E+00 -1.46109E-01 -1.76725E+00 -9.12545E-01 -1.24588E+00 -1.53278E+00
 -4.99478E-01 -1.87639E+00 +3.29039E-01 -1.86397E+00 +1.07124E+00 -1.48819E+00 +1.56881E+00 -8.20344E-01
 +1.70970E+00 +5.65558E-04 +1.45627E+00 +7.95009E-01 +8.58282E-01 +1.38142E+00 +4.64755E-02 +1.61767E+00
 -7.93111E-01 +1.43603E+00 -1.45926E+00 +8.62800E-01 -1.78153E+00 +1.71001E-02 -1.66143E+00 -9.12135E-01
 -1.09893E+00 -1.70666E+00 -1.97210E-01 -2.16825E+00 +8.56471E-01 -2.16562E+00 +1.83030E+00 -1.66781E+00
 +2.49940E+00 -7.55645E-01 +2.69777E+00 +3.92200E-01 +2.35850E+00 +1.53626E+00 +1.53267E+00 +2.42857E+00
 +3.81841E-01 +2.86861E+00 -8.54862E-01 +2.75021E+00 -1.91228E+00 +2.08843E+00 -2.55809E+00 +1.01973E+00
 -2.64596E+00 -2.25169E-01 -2.15078E+00 -1.37037E+00 -1.17772E+00 -2.15539E+00 +5.75620E-02 -2.39387E+00
 +1.27394E+00 -2.01752E+00 +2.18562E+00 -1.09497E+00 +2.56584E+00 +1.79146E-01 +2.29945E+00 +1.52337E+00
 +1.41248E+00 +2.62908E+00 +7.14997E-02 +3.22822E+00 -1.44802E+00 +3.15434E+00 -2.81866E+00 +2.38358E+00
 -3.73162E+00 +1.04564E+00 -3.96597E+00 -5.98746E-01 -3.44128E+00 -2.21029E+00 -2.24138E+00 -3.44329E+00
 -6.02453E-01 -4.02235E+00 +1.13329E+00 -3.80675E+00 +2.58981E+00 -2.82761E+00 +3.44039E+00 -1.28812E+00
 +3.48346E+00 +4.75117E-01 +2.69359E+00 +2.06279E+00 +1.23478E+00 +3.10116E+00 -5.68991E-01 +3.32862E+00
 -2.30133E+00 +2.66062E+00 -3.54543E+00 +1.21667E+00 -3.98038E+00 -6.98594E-01 -3.45954E+00 -2.65820E+00
 -2.05177E+00 -4.20693E+00 -3.40333E-02 -4.96596E+00 +2.16503E+00 -4.72400E+00 +4.05935E+00 -3.49266E+00
 +5.21681E+00 -1.51141E+00 +5.36177E+00 +8.00894E-01 +4.44412E+00 +2.93855E+00 +2.65712E+00 +4.42491E+00
 +3.98101E-01 +4.92472E+00 -1.82028E+00 +4.32582E+00 -3.48821E+00 +2.76980E+00 -4.21868E+00 +6.22944E-01
 -3.84038E+00 -1.60679E+00 -2.44061E+00 -3.38776E+00 -3.47254E-01 -4.28973E+00 +1.94683E+00 -4.08598E+00
 +3.89901E+00 -2.80759E+00 +5.04438E+00 -7.36663E-01 +5.10463E+00 +1.66013E+00 +4.05242E+00 +3.84150E+00
 +2.11571E+00 +5.31830E+00 -2.78182E-01 +5.76655E+00 -2.60457E+00 +5.09977E+00 -4.36436E+00 +3.48418E+00
 -5.19792E+00 +1.29423E+00 -4.96317E+00 -9.79068E-01 -3.76049E+00 -2.84381E+00 -1.90047E+00 -3.91861E+00
 +1.75219E-01 -4.01357E+00 +1.99904E+00 -3.16336E+00 +3.18279E+00 -1.60749E+00 +3.49835E+00 +2.74569E-01
 +2.91709E+00 +2.05490E+00 +1.60218E+00 +3.35255E+00 -1.40317E-01 +3.91060E+00 -1.93655E+00 +3.63962E+00
 -3.42673E+00 +2.62139E+00 -4.33512E+00 +1.07695E+00 -4.51482E+00 -6.89409E-01 -3.96179E+00 -2.35499E+00
 -2.80055E+00 -3.63792E+00 -1.24947E+00 -4.34038E+00 +4.23848E-01 -4.37143E+00 +1.94736E+00 -3.75038E+00
 +3.08318E+00 -2.59509E+00 +3.65715E+00 -1.10058E+00 +3.57945E+00 +4.87922E-01 +2.85708E+00 +1.90566E+00
 +1.59812E+00 +2.90239E+00 +5.72764E-03 +3.27923E+00 -1.64143E+00 +2.92582E+00 -3.02508E+00 +1.85209E+00
 -3.83901E+00 +2.05950E-01 -3.85084E+00 -1.73216E+00 -2.96246E+00 -3.58432E+00 -1.25368E+00 -4.93976E+00
 +1.00633E+00 -5.44051E+00 +3.39044E+00 -4.87103E+00 +5.38883E+00 -3.22956E+00 +6.51722E+00 -7.58888E-01
 +6.43552E+00 +2.07856E+00 +5.04785E+00 +4.68402E+00 +2.55478E+00 +6.45113E+00 -5.62378E-01 +6.91275E+00
 -3.62999E+00 +5.86989E+00 -5.92876E+00 +3.46696E+00 -6.86696E+00 +1.87787E-01 -6.13786E+00 -3.23475E+00
 -3.81887E+00 -5.98035E+00 -3.81500E-01 -7.33845E+00 +3.39788E+00 -6.89292E+00 +6.61113E+00 -4.64533E+00
 +8.43637E+00 -1.04069E+00 +8.34795E+00 +3.11760E+00 +6.26347E+00 +6.84846E+00 +2.58665E+00 +9.22856E+00
 -1.87049E+00 +9.62465E+00 -6.07209E+00 +7.86346E+00 -9.00690E+00 +4.29253E+00 -9.93994E+00 -2.87647E-01
 -8.60321E+00 -4.80757E+00 -5.27506E+00 -8.18584E+00 -7.24725E-01 -9.59598E+00 +3.96712E+00 -8.67575E+00
 +7.66916E+00 -5.62464E+00 +9.47708E+00 -1.16292E+00 +8.93836E+00 +3.63938E+00 +6.16705E+00 +7.62207E+00
 +1.81890E+00 +9.81835E+00 -3.06765E+00 +9.69158E+00 -7.32483E+00 +7.26587E+00 -9.94012E+00 +3.11822E+00
 -1.03008E+01 -1.76510E+00 -8.33855E+00 -6.23103E+00 -4.53870E+00 -9.24001E+00 +1.84846E-01 -1.01141E+01
