 Created: 19-Jan-2021
 $NMID
 ID='D:\BASISSIMULATI'
 FMTDAT='(8E13.5)'
 VOLUME=   1.00000E+00
 TRAMP=   1.00000E+00
 $END
 +3.95500E+01 +5.93713E+00 +3.08398E+01 +2.48442E+01 +1.32824E+01 +3.56166E+01 -6.86298E+00 +3.47361E+01
 -2.24866E+01 +2.29328E+01 -2.82316E+01 +4.88163E+00 -2.24377E+01 -1.25446E+01 -7.71496E+00 -2.28153E+01
 +1.00535E+01 -2.21390E+01 +2.39031E+01 -1.08369E+01 +2.83620E+01 +6.80297E+00 +2.14598E+01 +2.41282E+01
 +5.43818E+00 +3.45826E+01 -1.40902E+01 +3.41173E+01 -3.02143E+01 +2.26660E+01 -3.72615E+01 +4.15192E+00
 -3.28626E+01 -1.49689E+01 -1.87943E+01 -2.80812E+01 -2.96179E-01 -3.08251E+01 +1.58751E+01 -2.26667E+01
 +2.39310E+01 -7.05422E+00 +2.11620E+01 +9.88684E+00 +8.90093E+00 +2.16286E+01 -8.00383E+00 +2.36456E+01
 -2.30016E+01 +1.50646E+01 -3.02639E+01 -1.03785E+00 -2.68256E+01 -1.87916E+01 -1.36595E+01 -3.17046E+01
 +4.70068E+00 -3.50479E+01 +2.18405E+01 -2.75761E+01 +3.18209E+01 -1.19596E+01 +3.13414E+01 +6.22187E+00
 +2.09194E+01 +2.05406E+01 +4.66146E+00 +2.60756E+01 -1.12770E+01 +2.11931E+01 -2.09680E+01 +8.10766E+00
 -2.08824E+01 -7.97327E+00 -1.11621E+01 -2.07934E+01 +4.46733E+00 -2.53587E+01 +2.00961E+01 -1.97647E+01
 +2.98204E+01 -5.87457E+00 +2.99105E+01 +1.13908E+01 +2.01644E+01 +2.58770E+01 +3.95603E+00 +3.24572E+01
 -1.30250E+01 +2.88962E+01 -2.48701E+01 +1.66392E+01 -2.76081E+01 +2.47266E-01 -2.06315E+01 -1.43024E+01
 -6.87680E+00 -2.18159E+01 +8.29383E+00 -1.97721E+01 +1.90869E+01 -9.21336E+00 +2.14089E+01 +5.67870E+00
 +1.43524E+01 +1.91536E+01 +4.97925E-01 +2.60214E+01 -1.50648E+01 +2.35545E+01 -2.66262E+01 +1.24686E+01
 -2.99538E+01 -3.36791E+00 -2.38279E+01 -1.83758E+01 -1.04585E+01 -2.73181E+01 +5.35674E+00 -2.72061E+01
 +1.80105E+01 -1.83620E+01 +2.31402E+01 -4.25996E+00 +1.92028E+01 +9.78455E+00 +7.99927E+00 +1.85819E+01
 -6.03002E+00 +1.89661E+01 -1.74683E+01 +1.09286E+01 -2.19225E+01 -2.41767E+00 -1.76243E+01 -1.60171E+01
 -6.05146E+00 -2.47481E+01 +8.64670E+00 -2.53018E+01 +2.11956E+01 -1.73757E+01 +2.71347E+01 -3.75303E+00
 +2.44364E+01 +1.07464E+01 +1.42156E+01 +2.10478E+01 +2.82231E-01 +2.36724E+01 -1.22843E+01 +1.79826E+01
 -1.90062E+01 +6.37145E+00 -1.76318E+01 -6.65727E+00 -8.92543E+00 -1.61678E+01 +3.65821E+00 -1.86060E+01
 +1.52780E+01 -1.30825E+01 +2.15007E+01 -1.66310E+00 +1.99210E+01 +1.14260E+01 +1.10180E+01 +2.13727E+01
 -2.05409E+00 +2.45460E+01 -1.46515E+01 +1.98082E+01 -2.23529E+01 +8.89714E+00 -2.25668E+01 -4.24648E+00
 -1.54475E+01 -1.49462E+01 -3.79459E+00 -1.95034E+01 +8.01010E+00 -1.65282E+01 +1.56279E+01 -7.40596E+00
 +1.63462E+01 +4.25577E+00 +1.00430E+01 +1.39842E+01 -8.10688E-01 +1.80923E+01 -1.20965E+01 +1.50169E+01
 -1.95810E+01 +5.85919E+00 -2.04662E+01 -6.05663E+00 -1.43917E+01 -1.64300E+01 -3.52998E+00 -2.15672E+01
 +8.24291E+00 -1.97177E+01 +1.67856E+01 -1.16799E+01 +1.92015E+01 -4.66719E-01 +1.48690E+01 +9.82934E+00
 +5.62518E+00 +1.55457E+01 -4.95169E+00 +1.47746E+01 -1.28802E+01 +8.02455E+00 -1.52370E+01 -2.01232E+00
 -1.12054E+01 -1.14850E+01 -2.33497E+00 -1.68128E+01 +8.06633E+00 -1.59892E+01 +1.61711E+01 -9.28804E+00
 +1.90381E+01 +8.75864E-01 +1.56677E+01 +1.08638E+01 +7.33151E+00 +1.71592E+01 -2.93368E+00 +1.76426E+01
 -1.14631E+01 +1.23339E+01 -1.53077E+01 +3.34020E+00 -1.32896E+01 -5.95519E+00 -6.39089E+00 -1.21506E+01
 +2.65292E+00 -1.30646E+01 +1.03884E+01 -8.50317E+00 +1.39196E+01 -2.86758E-01 +1.19527E+01 +8.45742E+00
 +5.23388E+00 +1.44638E+01 -3.76462E+00 +1.55220E+01 -1.17810E+01 +1.12595E+01 -1.59665E+01 +3.23888E+00
 -1.49109E+01 -5.65179E+00 -9.12146E+00 -1.22763E+01 -7.93908E-01 -1.43925E+01 +7.02462E+00 -1.14429E+01
 +1.15617E+01 -4.71331E+00 +1.13176E+01 +3.18137E+00 +6.57663E+00 +9.28189E+00 -7.44230E-01 +1.13692E+01
 -7.83499E+00 +8.75198E+00 -1.20386E+01 +2.47895E+00 -1.18136E+01 -5.08758E+00 -7.26660E+00 -1.11638E+01
 -7.13724E-02 -1.35663E+01 +7.17854E+00 -1.14882E+01 +1.19335E+01 -5.75523E+00 +1.26085E+01 +1.51820E+00
 +9.12883E+00 +7.72968E+00 +2.91142E+00 +1.07435E+01 -3.69241E+00 +9.64766E+00 -8.27672E+00 +5.04530E+00
 -9.25311E+00 -1.21250E+00 -6.39969E+00 -6.73717E+00 -8.97395E-01 -9.48571E+00 +5.14310E+00 -8.49035E+00
 +9.47611E+00 -4.17508E+00 +1.05387E+01 +1.84224E+00 +7.99432E+00 +7.37348E+00 +2.81413E+00 +1.04692E+01
 -3.11678E+00 +1.01139E+01 -7.71011E+00 +6.55906E+00 -9.43282E+00 +1.18723E+00 -7.83757E+00 -4.02727E+00
 -3.68155E+00 -7.25112E+00 +1.39369E+00 -7.44571E+00 +5.48895E+00 -4.70876E+00 +7.14201E+00 -1.92493E-01
 +5.83661E+00 +4.35526E+00 +2.14933E+00 +7.24579E+00 -2.50362E+00 +7.45556E+00 -6.41147E+00 +4.96690E+00
 -8.19629E+00 +7.31605E-01 -7.29303E+00 -3.71254E+00 -4.11559E+00 -6.81863E+00 +1.36416E-01 -7.58395E+00
 +3.94350E+00 -5.88167E+00 +6.02402E+00 -2.46228E+00 +5.77857E+00 +1.35934E+00 +3.46699E+00 +4.20274E+00
 +6.84123E-02 +5.11759E+00 -3.10835E+00 +3.89832E+00 -4.91055E+00 +1.11490E+00 -4.74348E+00 -2.13558E+00
 -2.74947E+00 -4.65082E+00 +2.86965E-01 -5.55734E+00 +3.25708E+00 -4.60034E+00 +5.14081E+00 -2.19469E+00
 +5.36086E+00 +7.65352E-01 +3.95550E+00 +3.25352E+00 +1.52102E+00 +4.48091E+00 -1.03879E+00 +4.15415E+00
 -2.85246E+00 +2.53879E+00 -3.38195E+00 +3.20702E-01 -2.58139E+00 -1.66890E+00 -8.69021E-01 -2.75554E+00
 +1.06107E+00 -2.64115E+00 +2.50595E+00 -1.47120E+00 +2.99747E+00 +2.59792E-01 +2.43881E+00 +1.91445E+00
 +1.09730E+00 +2.94581E+00 -5.27871E-01 +3.07247E+00 -1.90147E+00 +2.34099E+00 -2.63488E+00 +1.06801E+00
 -2.59355E+00 -3.01333E-01 -1.90257E+00 -1.35713E+00 -8.64488E-01 -1.85010E+00 +1.67177E-01 -1.74158E+00
 +9.06673E-01 -1.17488E+00 +1.20746E+00 -3.93852E-01 +1.07241E+00 +3.50993E-01 +6.14890E-01 +8.73142E-01
 -1.23013E-03 +1.07967E+00 -6.14140E-01 +9.63397E-01 -1.09308E+00 +5.76121E-01 -1.34459E+00 +3.54431E-03
 -1.30953E+00 -6.46659E-01 -9.65764E-01 -1.24662E+00 -3.42948E-01 -1.65329E+00 +4.58521E-01 -1.73047E+00
 +1.26216E+00 -1.39110E+00 +1.84109E+00 -6.47269E-01 +1.97966E+00 +3.56965E-01 +1.55617E+00 +1.35555E+00
 +6.15001E-01 +2.02515E+00 -6.08514E-01 +2.09273E+00 -1.73477E+00 +1.45025E+00 -2.35539E+00 +2.28950E-01
 -2.18381E+00 -1.20726E+00 -1.18509E+00 -2.36205E+00 +3.71986E-01 -2.77634E+00 +1.97447E+00 -2.20943E+00
 +3.02910E+00 -7.60535E-01 +3.07956E+00 +1.12640E+00 +1.99752E+00 +2.79164E+00 +6.88300E-02 +3.58770E+00
 -2.07122E+00 +3.12798E+00 -3.64450E+00 +1.46088E+00 -4.01234E+00 -9.06375E-01 -2.93111E+00 -3.15804E+00
 -6.79300E-01 -4.45208E+00 +2.00425E+00 -4.23684E+00 +4.16312E+00 -2.48280E+00 +4.96823E+00 +2.66661E-01
 +4.04020E+00 +3.05893E+00 +1.62386E+00 +4.86346E+00 -1.46241E+00 +4.95569E+00 -4.09872E+00 +3.21054E+00
 -5.26774E+00 +1.87244E-01 -4.44522E+00 -3.04005E+00 -1.82742E+00 -5.25713E+00 +1.70102E+00 -5.55983E+00
 +4.86142E+00 -3.71251E+00 +6.44077E+00 -2.73887E-01 +5.75148E+00 +3.57035E+00 +2.91694E+00 +6.42020E+00
 -1.13391E+00 +7.17574E+00 -4.97578E+00 +5.46386E+00 -7.19769E+00 +1.81185E+00 -6.93192E+00 -2.50957E+00
 -4.20261E+00 -5.92986E+00 +4.56737E-02 -7.15438E+00 +4.26390E+00 -5.66104E+00 +6.85495E+00 -1.92760E+00
 +6.77086E+00 +2.70738E+00 +3.92782E+00 +6.51236E+00 -7.24188E-01 +7.99657E+00 -5.51703E+00 +6.47808E+00
 -8.66114E+00 +2.37006E+00 -8.90994E+00 -2.93248E+00 -6.04502E+00 -7.53774E+00 -9.93821E-01 -9.74517E+00
 +4.47725E+00 -8.68566E+00 +8.39352E+00 -4.67238E+00 +9.30127E+00 +8.78718E-01 +6.82560E+00 +5.94315E+00
 +1.84250E+00 +8.62497E+00 -3.81110E+00 +7.86852E+00 -7.99538E+00 +3.87774E+00 -9.05848E+00 -1.92274E+00
 -6.46846E+00 -7.38364E+00 -1.04539E+00 -1.04124E+01 +5.30459E+00 -9.75574E+00 +1.02681E+01 -5.49129E+00
 +1.19739E+01 +9.63500E-01 +9.70084E+00 +7.34155E+00 +4.17580E+00 +1.13459E+01 -2.65984E+00 +1.15017E+01
 -8.34176E+00 +7.72362E+00 -1.07862E+01 +1.37992E+00 -9.07345E+00 -5.18356E+00 -3.81648E+00 -9.49446E+00
 +3.03263E+00 -9.87246E+00 +8.87984E+00 -6.07403E+00 +1.14415E+01 +5.82979E-01 +9.60309E+00 +7.67353E+00
 +3.86248E+00 +1.25422E+01 -3.81727E+00 +1.32856E+01 -1.07030E+01 +9.47662E+00 -1.42884E+01 +2.35602E+00
 -1.32269E+01 -5.59213E+00 -7.85435E+00 -1.15353E+01 -9.61784E-02 -1.33350E+01 +7.21711E+00 -1.03518E+01
 +1.13839E+01 -3.70889E+00 +1.08373E+01 +4.09378E+00 +5.74795E+00 +1.00850E+01 -2.00750E+00 +1.19196E+01
 -9.51304E+00 +8.76350E+00 -1.38787E+01 +1.63397E+00 -1.33159E+01 -6.94230E+00 -7.82421E+00 -1.38378E+01
 +7.74290E-01 -1.64727E+01 +9.47544E+00 -1.37802E+01 +1.51834E+01 -6.62799E+00 +1.58535E+01 +2.47069E+00
 +1.12638E+01 +1.02607E+01 +3.12378E+00 +1.39381E+01 -5.53187E+00 +1.21944E+01 -1.14500E+01 +5.72256E+00
 -1.23640E+01 -3.01232E+00 -7.85070E+00 -1.06631E+01 +4.83431E-01 -1.42319E+01 +9.56699E+00 -1.21913E+01
 +1.59805E+01 -5.07597E+00 +1.72199E+01 +4.68031E+00 +1.26390E+01 +1.36151E+01 +3.71876E+00 +1.85016E+01
 -6.44838E+00 +1.75438E+01 -1.42775E+01 +1.10588E+01 -1.70077E+01 +1.38657E+00 -1.37309E+01 -7.95072E+00
 -5.74778E+00 -1.35376E+01 +3.88989E+00 -1.33309E+01 +1.14913E+01 -7.43258E+00 +1.40897E+01 +1.92267E+00
 +1.05542E+01 +1.11708E+01 +2.03479E+00 +1.67250E+01 -8.43153E+00 +1.63076E+01 -1.70201E+01 +9.81364E+00
 -2.05230E+01 -6.18252E-01 -1.75428E+01 -1.13657E+01 -9.03166E+00 -1.86396E+01 +2.03283E+00 -1.98789E+01
 +1.17236E+01 -1.47066E+01 +1.66031E+01 -5.08878E+00 +1.49960E+01 +5.37062E+00 +7.62358E+00 +1.27489E+01
 -2.64292E+00 +1.42546E+01 -1.18270E+01 +9.27391E+00 -1.63124E+01 -3.78931E-01 -1.41904E+01 -1.11075E+01
 -5.98934E+00 -1.88466E+01 +5.49002E+00 -2.05631E+01 +1.61821E+01 -1.53916E+01 +2.22424E+01 -4.97979E+00
 +2.14670E+01 +7.09046E+00 +1.41198E+01 +1.66031E+01 +2.85639E+00 +2.02538E+01 -8.23590E+00 +1.68730E+01
 -1.51355E+01 +7.87097E+00 -1.53720E+01 -3.26671E+00 -8.95013E+00 -1.22553E+01 +1.63336E+00 -1.55932E+01
 +1.22958E+01 -1.18682E+01 +1.88690E+01 -2.30192E+00 +1.86453E+01 +9.67590E+00 +1.13972E+01 +1.96737E+01
 -5.10873E-01 +2.39516E+01 -1.29671E+01 +2.08083E+01 -2.16102E+01 +1.12279E+01 -2.34308E+01 -1.46010E+00
 -1.78876E+01 -1.27881E+01 -7.11983E+00 -1.87866E+01 +4.82697E+00 -1.74481E+01 +1.34849E+01 -9.47636E+00
 +1.56130E+01 +1.96091E+00 +1.04049E+01 +1.23919E+01 -1.96605E-01 +1.76905E+01 -1.21981E+01 +1.56107E+01
