 Created: 19-Jan-2021
 $NMID
 ID='D:\BASISSIMULATI'
 FMTDAT='(8E13.5)'
 VOLUME=   1.00000E+00
 TRAMP=   1.00000E+00
 $END
 +4.71334E+01 +7.07552E+00 +4.58365E+01 +1.29897E+01 +4.36318E+01 +1.86305E+01 +4.05772E+01 +2.38506E+01
 +3.67546E+01 +2.85153E+01 +3.22678E+01 +3.25054E+01 +2.72392E+01 +3.57213E+01 +2.18059E+01 +3.80859E+01
 +1.61161E+01 +3.95465E+01 +1.03243E+01 +4.00766E+01 +4.58701E+00 +3.96762E+01 -9.42137E-01 +3.83719E+01
 -6.11679E+00 +3.62160E+01 -1.08021E+01 +3.32846E+01 -1.48788E+01 +2.96753E+01 -1.82464E+01 +2.55040E+01
 -2.08260E+01 +2.09016E+01 -2.25626E+01 +1.60095E+01 -2.34264E+01 +1.09759E+01 -2.34134E+01 +5.95095E+00
 -2.25453E+01 +1.08217E+00 -2.08685E+01 -3.48961E+00 -1.84523E+01 -7.63458E+00 -1.53869E+01 -1.12376E+01
 -1.17798E+01 -1.42015E+01 -7.75300E+00 -1.64498E+01 -3.43874E+00 -1.79286E+01 +1.02461E+00 -1.86078E+01
 +5.49677E+00 -1.84820E+01 +9.83984E+00 -1.75698E+01 +1.39225E+01 -1.59134E+01 +1.76238E+01 -1.35762E+01
 +2.08367E+01 -1.06412E+01 +2.34714E+01 -7.20775E+00 +2.54572E+01 -3.38816E+00 +2.67449E+01 +6.95815E-01
 +2.73076E+01 +4.91700E+00 +2.71411E+01 +9.14686E+00 +2.62640E+01 +1.32595E+01 +2.47160E+01 +1.71355E+01
 +2.25568E+01 +2.06658E+01 +1.98635E+01 +2.37544E+01 +1.67281E+01 +2.63216E+01 +1.32538E+01 +2.83060E+01
 +9.55203E+00 +2.96661E+01 +5.73844E+00 +3.03811E+01 +1.92907E+00 +3.04514E+01 -1.76331E+00 +2.98977E+01
 -5.23278E+00 +2.87606E+01 -8.38360E+00 +2.70980E+01 -1.11331E+01 +2.49835E+01 -1.34141E+01 +2.25034E+01
 -1.51769E+01 +1.97536E+01 -1.63903E+01 +1.68363E+01 -1.70427E+01 +1.38565E+01 -1.71417E+01 +1.09184E+01
 -1.67136E+01 +8.12174E+00 -1.58021E+01 +5.55891E+00 -1.44669E+01 +3.31169E+00 -1.27808E+01 +1.44875E+00
 -1.08272E+01 +2.35402E-02 -8.69748E+00 -9.27278E-01 -6.48712E+00 -1.38483E+00 -4.29281E+00 -1.34840E+00
 -2.20890E+00 -8.35200E-01 -3.24285E-01 +1.20448E-01 +1.28067E+00 +1.46853E+00 +2.53677E+00 +3.14525E+00
 +3.38827E+00 +5.07534E+00 +3.79469E+00 +7.17485E+00 +3.73205E+00 +9.35405E+00 +3.19360E+00 +1.15206E+01
 +2.18992E+00 +1.35829E+01 +7.48473E-01 +1.54530E+01 -1.08747E+00 +1.70496E+01 -3.26036E+00 +1.83013E+01
 -5.70039E+00 +1.91484E+01 -8.32794E+00 +1.95452E+01 -1.10563E+01 +1.94617E+01 -1.37947E+01 +1.88841E+01
 -1.64512E+01 +1.78157E+01 -1.89360E+01 +1.62767E+01 -2.11644E+01 +1.43034E+01 -2.30598E+01 +1.19469E+01
 -2.45557E+01 +9.27177E+00 -2.55986E+01 +6.35345E+00 -2.61496E+01 +3.27612E+00 -2.61852E+01 +1.29782E-01
 -2.56990E+01 -2.99268E+00 -2.47011E+01 -5.99853E+00 -2.32183E+01 -8.79818E+00 -2.12928E+01 -1.13082E+01
 -1.89816E+01 -1.34538E+01 -1.63537E+01 -1.51715E+01 -1.34890E+01 -1.64111E+01 -1.04746E+01 -1.71373E+01
 -7.40295E+00 -1.73307E+01 -4.36854E+00 -1.69887E+01 -1.46485E+00 -1.61252E+01 +1.21843E+00 -1.47708E+01
 +3.59835E+00 -1.29710E+01 +5.60119E+00 -1.07856E+01 +7.16486E+00 -8.28608E+00 +8.24075E+00 -5.55399E+00
 +8.79526E+00 -2.67802E+00 +8.81079E+00 +2.48638E-01 +8.28631E+00 +3.13115E+00 +7.23729E+00 +5.87603E+00
 +5.69523E+00 +8.39394E+00 +3.70663E+00 +1.06025E+01 +1.33154E+00 +1.24286E+01 -1.35836E+00 +1.38109E+01
 -4.28195E+00 +1.47013E+01 -7.35118E+00 +1.50667E+01 -1.04738E+01 +1.48896E+01 -1.35560E+01 +1.41686E+01
 -1.65057E+01 +1.29187E+01 -1.92346E+01 +1.11703E+01 -2.16615E+01 +8.96830E+00 -2.37143E+01 +6.37081E+00
 -2.53320E+01 +3.44717E+00 -2.64668E+01 +2.75828E-01 -2.70851E+01 -3.05811E+00 -2.71684E+01 -6.46546E+00
 -2.67139E+01 -9.85563E+00 -2.57342E+01 -1.31394E+01 -2.42566E+01 -1.62314E+01 -2.23227E+01 -1.90527E+01
 -1.99863E+01 -2.15333E+01 -1.73121E+01 -2.36136E+01 -1.43736E+01 -2.52462E+01 -1.12504E+01 -2.63975E+01
 -8.02635E+00 -2.70479E+01 -4.78641E+00 -2.71926E+01 -1.61455E+00 -2.68412E+01 +1.40893E+00 -2.60175E+01
 +4.20968E+00 -2.47581E+01 +6.72137E+00 -2.31116E+01 +8.88758E+00 -2.11364E+01 +1.06632E+01 -1.88993E+01
 +1.20156E+01 -1.64727E+01 +1.29255E+01 -1.39331E+01 +1.33868E+01 -1.13580E+01 +1.34071E+01 -8.82403E+00
 +1.30068E+01 -6.40444E+00 +1.22181E+01 -4.16706E+00 +1.10841E+01 -2.17231E+00 +9.65709E+00 -4.71626E-01
 +7.99661E+00 +8.93972E-01 +6.16766E+00 +1.89482E+00 +4.23853E+00 +2.51328E+00 +2.27861E+00 +2.74394E+00
 +3.56258E-01 +2.59352E+00 -1.46328E+00 +2.08036E+00 -3.11978E+00 +1.23354E+00 -4.55978E+00 +9.17296E-02
 -5.73806E+00 -1.29826E+00 -6.61881E+00 -2.88311E+00 -7.17655E+00 -4.60484E+00 -7.39656E+00 -6.40271E+00
 -7.27516E+00 -8.21522E+00 -6.81946E+00 -9.98198E+00 -6.04689E+00 -1.16456E+01 -4.98437E+00 -1.31535E+01
 -3.66723E+00 -1.44592E+01 -2.13785E+00 -1.55238E+01 -4.44171E-01 -1.63170E+01 +1.36200E+00 -1.68178E+01
 +3.22669E+00 -1.70148E+01 +5.09554E+00 -1.69064E+01 +6.91553E+00 -1.65006E+01 +8.63663E+00 -1.58144E+01
 +1.02133E+01 -1.48731E+01 +1.16057E+01 -1.37093E+01 +1.27812E+01 -1.23615E+01 +1.37145E+01 -1.08728E+01
 +1.43889E+01 -9.28952E+00 +1.47965E+01 -7.65939E+00 +1.49377E+01 -6.03018E+00 +1.48215E+01 -4.44810E+00
 +1.44648E+01 -2.95635E+00 +1.38916E+01 -1.59384E+00 +1.31319E+01 -3.94043E-01 +1.22209E+01 +6.15900E-01
 +1.11975E+01 +1.41591E+00 +1.01028E+01 +1.99340E+00 +8.97905E+00 +2.34349E+00 +7.86804E+00 +2.46892E+00
 +6.80980E+00 +2.37980E+00 +5.84136E+00 +2.09301E+00 +4.99564E+00 +1.63155E+00 +4.30047E+00 +1.02357E+00
 +3.77786E+00 +3.01335E-01 +3.44344E+00 -4.99918E-01 +3.30609E+00 -1.34321E+00 +3.36788E+00 -2.19105E+00
 +3.62415E+00 -3.00667E+00 +4.06385E+00 -3.75518E+00 +4.67005E+00 -4.40463E+00 +5.42067E+00 -4.92701E+00
 +6.28926E+00 -5.29895E+00 +7.24602E+00 -5.50243E+00 +8.25880E+00 -5.52519E+00 +9.29418E+00 -5.36093E+00
 +1.03186E+01 -5.00940E+00 +1.12993E+01 -4.47621E+00 +1.22056E+01 -3.77255E+00 +1.30093E+01 -2.91460E+00
 +1.36862E+01 -1.92299E+00 +1.42159E+01 -8.21938E-01 +1.45832E+01 +3.61515E-01 +1.47777E+01 +1.59847E+00
 +1.47943E+01 +2.85911E+00 +1.46331E+01 +4.11360E+00 +1.42993E+01 +5.33303E+00 +1.38029E+01 +6.49025E+00
 +1.31583E+01 +7.56060E+00 +1.23832E+01 +8.52263E+00 +1.14987E+01 +9.35854E+00 +1.05281E+01 +1.00546E+01
 +9.49622E+00 +1.06016E+01 +8.42865E+00 +1.09945E+01 +7.35085E+00 +1.12328E+01 +6.28754E+00 +1.13204E+01
 +5.26192E+00 +1.12648E+01 +4.29510E+00 +1.10775E+01 +3.40556E+00 +1.07726E+01 +2.60873E+00 +1.03671E+01
 +1.91672E+00 +9.87960E+00 +1.33812E+00 +9.33011E+00 +8.77891E-01 +8.73921E+00 +5.37497E-01 +8.12748E+00
 +3.14986E-01 +7.51487E+00 +2.05266E-01 +6.92024E+00 +2.00426E-01 +6.36079E+00 +2.90129E-01 +5.85177E+00
 +4.62051E-01 +5.40610E+00 +7.02351E-01 +5.03415E+00 +9.96159E-01 +4.74369E+00 +1.32805E+00 +4.53977E+00
 +1.68253E+00 +4.42479E+00 +2.04441E+00 +4.39867E+00 +2.39925E+00 +4.45896E+00 +2.73367E+00 +4.60113E+00
 +3.03559E+00 +4.81886E+00 +3.29449E+00 +5.10431E+00 +3.50150E+00 +5.44849E+00 +3.64950E+00 +5.84153E+00
 +3.73314E+00 +6.27308E+00 +3.74880E+00 +6.73251E+00 +3.69450E+00 +7.20925E+00 +3.56979E+00 +7.69300E+00
 +3.37560E+00 +8.17392E+00 +3.11405E+00 +8.64276E+00 +2.78834E+00 +9.09103E+00 +2.40249E+00 +9.51099E+00
 +1.96125E+00 +9.89578E+00 +1.46991E+00 +1.02393E+01 +9.34171E-01 +1.05364E+01 +3.60045E-01 +1.07826E+01
 -2.46227E-01 +1.09741E+01 -8.78245E-01 +1.11080E+01 -1.52948E+00 +1.11818E+01 -2.19331E+00 +1.11938E+01
 -2.86302E+00 +1.11428E+01 -3.53179E+00 +1.10283E+01 -4.19273E+00 +1.08501E+01 -4.83887E+00 +1.06091E+01
 -5.46318E+00 +1.03065E+01 -6.05860E+00 +9.94438E+00 -6.61811E+00 +9.52561E+00 -7.13483E+00 +9.05394E+00
 -7.60208E+00 +8.53402E+00 -8.01355E+00 +7.97148E+00 -8.36347E+00 +7.37290E+00 -8.64673E+00 +6.74587E+00
 -8.85913E+00 +6.09889E+00 -8.99753E+00 +5.44130E+00 -9.06005E+00 +4.78318E+00 -9.04625E+00 +4.13514E+00
 -8.95731E+00 +3.50814E+00 -8.79610E+00 +2.91321E+00 -8.56727E+00 +2.36120E+00 -8.27734E+00 +1.86244E+00
 -7.93457E+00 +1.42640E+00 -7.54897E+00 +1.06141E+00 -7.13205E+00 +7.74279E-01 -6.69666E+00 +5.69996E-01
 -6.25670E+00 +4.51479E-01 -5.82673E+00 +4.19326E-01 -5.42163E+00 +4.71656E-01 -5.05611E+00 +6.04005E-01
 -4.74429E+00 +8.09310E-01 -4.49923E+00 +1.07797E+00 -4.33242E+00 +1.39801E+00 -4.25336E+00 +1.75531E+00
 -4.26915E+00 +2.13394E+00 -4.38411E+00 +2.51660E+00 -4.59955E+00 +2.88504E+00 -4.91352E+00 +3.22069E+00
 -5.32073E+00 +3.50513E+00 -5.81257E+00 +3.72080E+00 -6.37722E+00 +3.85155E+00 -6.99989E+00 +3.88325E+00
 -7.66315E+00 +3.80435E+00 -8.34741E+00 +3.60636E+00 -9.03142E+00 +3.28426E+00 -9.69295E+00 +2.83687E+00
 -1.03094E+01 +2.26696E+00 -1.08587E+01 +1.58141E+00 -1.13198E+01 +7.91105E-01 -1.16736E+01 -8.92377E-02
 -1.19035E+01 -1.04141E+00 -1.19962E+01 -2.04419E+00 -1.19423E+01 -3.07387E+00 -1.17365E+01 -4.10502E+00
 -1.13781E+01 -5.11121E+00 -1.08713E+01 -6.06585E+00 -1.02249E+01 -6.94307E+00 -9.45251E+00 -7.71861E+00
 -8.57210E+00 -8.37064E+00 -7.60557E+00 -8.88059E+00 -6.57817E+00 -9.23386E+00 -5.51774E+00 -9.42045E+00
 -4.45395E+00 -9.43539E+00 -3.41729E+00 -9.27911E+00 -2.43813E+00 -8.95757E+00 -1.54571E+00 -8.48223E+00
 -7.67117E-01 -7.86985E+00 -1.26323E-01 -7.14208E+00 +3.56687E-01 -6.32487E+00 +6.66714E-01 -5.44776E+00
 +7.93982E-01 -4.54300E+00 +7.34620E-01 -3.64451E+00 +4.90967E-01 -2.78685E+00 +7.16640E-02 -2.00407E+00
 -5.08449E-01 -1.32853E+00 -1.22866E+00 -7.89828E-01 -2.06289E+00 -4.13678E-01 -2.98043E+00 -2.20982E-01
 -3.94684E+00 -2.26982E-01 -4.92495E+00 -4.40598E-01 -5.87608E+00 -8.63948E-01 -6.76120E+00 -1.49209E+00
 -7.54232E+00 -2.31300E+00 -8.18366E+00 -3.30775E+00 -8.65301E+00 -4.45095E+00 -8.92279E+00 -5.71142E+00
 -8.97116E+00 -7.05304E+00 -8.78285E+00 -8.43582E+00 -8.34986E+00 -9.81708E+00 -7.67191E+00 -1.11528E+01
 -6.75668E+00 -1.23990E+01 -5.61971E+00 -1.35132E+01 -4.28417E+00 -1.44559E+01 -2.78026E+00 -1.51917E+01
 -1.14442E+00 -1.56908E+01 +5.81655E-01 -1.59300E+01 +2.35229E+00 -1.58937E+01 +4.11915E+00 -1.55745E+01
 +5.83276E+00 -1.49735E+01 +7.44402E+00 -1.41008E+01 +8.90584E+00 -1.29751E+01 +1.01747E+01 -1.16234E+01
 +1.12119E+01 -1.00804E+01 +1.19853E+01 -8.38740E+00 +1.24701E+01 -6.59124E+00 +1.26500E+01 -4.74295E+00
 +1.25178E+01 -2.89615E+00 +1.20759E+01 -1.10545E+00 +1.13363E+01 +5.75271E-01 +1.03204E+01 +2.09457E+00
 +9.05861E+00 +3.40512E+00 +7.58964E+00 +4.46526E+00 +5.95918E+00 +5.24043E+00 +4.21876E+00 +5.70438E+00
