 Created: 19-Jan-2021
 $NMID
 ID='D:\BASISSIMULATI'
 FMTDAT='(8E13.5)'
 VOLUME=   1.00000E+00
 TRAMP=   1.00000E+00
 $END
 +2.83909E+01 +5.03676E+00 +2.56019E+01 +1.30959E+01 +2.03369E+01 +1.97519E+01 +1.32539E+01 +2.42359E+01
 +5.24020E+00 +2.60703E+01 -2.71007E+00 +2.51309E+01 -9.63238E+00 +2.16600E+01 -1.47233E+01 +1.62286E+01
 -1.74480E+01 +9.65240E+00 -1.76092E+01 +2.87584E+00 -1.53684E+01 -3.16149E+00 -1.12157E+01 -7.65533E+00
 -5.89525E+00 -1.00466E+01 -2.95446E-01 -1.00954E+01 +4.67973E+00 -7.90843E+00 +8.23911E+00 -3.91820E+00
 +9.81523E+00 +1.18456E+00 +9.14182E+00 +6.55310E+00 +6.28771E+00 +1.13077E+01 +1.64288E+00 +1.46614E+01
 -4.14045E+00 +1.60310E+01 -1.02429E+01 +1.51173E+01 -1.57949E+01 +1.19448E+01 -1.99991E+01 +6.85516E+00
 -2.22405E+01 +4.56166E-01 -2.21693E+01 -6.46500E+00 -1.97460E+01 -1.30522E+01 -1.52419E+01 -1.84983E+01
 -9.19689E+00 -2.21536E+01 -2.34169E+00 -2.36109E+01 +4.50512E+00 -2.27542E+01 +1.05491E+01 -1.97675E+01
 +1.51257E+01 -1.51011E+01 +1.77854E+01 -9.40293E+00 +1.83466E+01 -3.42483E+00 +1.69102E+01 +2.08272E+00
 +1.38346E+01 +6.47197E+00 +9.67698E+00 +9.28167E+00 +5.10813E+00 +1.02923E+01 +8.15606E-01 +9.54576E+00
 -2.59231E+00 +7.32832E+00 -4.66794E+00 +4.12018E+00 -5.18021E+00 +5.20033E-01 -4.13833E+00 -2.84405E+00
 -1.78122E+00 -5.40446E+00 +1.46486E+00 -6.73220E+00 +5.05309E+00 -6.59280E+00 +8.39733E+00 -4.97309E+00
 +1.09559E+01 -2.07624E+00 +1.23063E+01 +1.71306E+00 +1.22004E+01 +5.88734E+00 +1.05940E+01 +9.88988E+00
 +7.64726E+00 +1.31924E+01 +3.69666E+00 +1.53660E+01 -7.95428E-01 +1.61359E+01 -5.30668E+00 +1.54130E+01
 -9.32615E+00 +1.32991E+01 -1.24211E+01 +1.00665E+01 -1.42904E+01 +6.11505E+00 -1.47980E+01 +1.91437E+00
 -1.39827E+01 -2.06071E+00 -1.20440E+01 -5.39222E+00 -9.30749E+00 -7.77045E+00 -6.17465E+00 -9.02829E+00
 -3.06577E+00 -9.15457E+00 -3.62969E-01 -8.28595E+00 +1.63831E+00 -6.67928E+00 +2.76358E+00 -4.66937E+00
 +2.97531E+00 -2.61863E+00 +2.36962E+00 -8.65678E-01 +1.15492E+00 +3.19977E-01 -3.83401E-01 +7.71491E-01
 -1.92698E+00 +4.42514E-01 -3.17071E+00 -5.92230E-01 -3.86496E+00 -2.15284E+00 -3.84815E+00 -3.98362E+00
 -3.06614E+00 -5.79140E+00 -1.57615E+00 -7.28716E+00 +4.64260E-01 -8.22543E+00 +2.82124E+00 -8.43626E+00
 +5.21775E+00 -7.84593E+00 +7.37110E+00 -6.48423E+00 +9.02978E+00 -4.47795E+00 +1.00049E+01 -2.03208E+00
 +1.01925E+01 +5.98379E-01 +9.58361E+00 +3.14196E+00 +8.26286E+00 +5.34505E+00 +6.39422E+00 +7.00268E+00
 +4.19789E+00 +7.98199E+00 +1.92086E+00 +8.23563E+00 -1.94832E-01 +7.80398E+00 -1.94192E+00 +6.80612E+00
 -3.17221E+00 +5.42130E+00 -3.81247E+00 +3.86342E+00 -3.87027E+00 +2.35211E+00 -3.42920E+00 +1.08409E+00
 -2.63462E+00 +2.08345E-01 -1.67175E+00 -1.91653E-01 -7.39298E-01 -1.06815E-01 -2.19223E-02 +3.98678E-01
 +3.34861E-01 +1.19806E+00 +2.44170E-01 +2.12076E+00 -3.10765E-01 +2.97669E+00 -1.27455E+00 +3.58298E+00
 -2.52720E+00 +3.78953E+00 -3.90029E+00 +3.50022E+00 -5.19960E+00 +2.68694E+00 -6.23134E+00 +1.39466E+00
 -6.82851E+00 -2.63213E-01 -6.87395E+00 -2.11855E+00 -6.31710E+00 -3.96970E+00 -5.18211E+00 -5.60733E+00
 -3.56630E+00 -6.84165E+00 -1.62887E+00 -7.52746E+00 +4.28614E-01 -7.58362E+00 +2.38762E+00 -7.00441E+00
 +4.04054E+00 -5.86108E+00 +5.21749E+00 -4.29329E+00 +5.80844E+00 -2.49144E+00 +5.77759E+00 -6.72104E-01
 +5.16809E+00 +9.50205E-01 +4.09619E+00 +2.19125E+00 +2.73565E+00 +2.92139E+00 +1.29420E+00 +3.08282E+00
 -1.46647E-02 +2.69708E+00 -1.00091E+00 +1.86189E+00 -1.52421E+00 +7.37586E-01 -1.51349E+00 -4.75255E-01
 -9.77154E-01 -1.56384E+00 -2.32301E-03 -2.33318E+00 +1.25682E+00 -2.63390E+00 +2.60016E+00 -2.38403E+00
 +3.80948E+00 -1.58165E+00 +4.67909E+00 -3.06473E-01 +5.04513E+00 +1.28980E+00 +4.80952E+00 +3.00343E+00
 +3.95498E+00 +4.60596E+00 +2.54918E+00 +5.87540E+00 +7.37144E-01 +6.62690E+00 -1.27706E+00 +6.73871E+00
 -3.25692E+00 +6.16980E+00 -4.96481E+00 +4.96660E+00 -6.19373E+00 +3.25792E+00 -6.79512E+00 +1.23867E+00
 -6.69897E+00 -8.55419E-01 -5.92334E+00 -2.77877E+00 -4.57210E+00 -4.30821E+00 -2.82116E+00 -5.27224E+00
 -8.95022E-01 -5.57333E+00 +9.63020E-01 -5.20024E+00 +2.52308E+00 -4.22867E+00 +3.59882E+00 -2.81030E+00
 +4.07149E+00 -1.15185E+00 +3.90473E+00 +5.13131E-01 +3.14814E+00 +1.95563E+00 +1.92939E+00 +2.98158E+00
 +4.35979E-01 +3.45717E+00 -1.11076E+00 +3.32581E+00 -2.48567E+00 +2.61444E+00 -3.48993E+00 +1.42878E+00
 -3.97716E+00 -6.19332E-02 -3.87216E+00 -1.64828E+00 -3.17998E+00 -3.10894E+00 -1.98422E+00 -4.24001E+00
 -4.35117E-01 -4.88158E+00 +1.27083E+00 -4.93796E+00 +2.91684E+00 -4.38935E+00 +4.29394E+00 -3.29340E+00
 +5.22746E+00 -1.77688E+00 +5.59858E+00 -1.87397E-02 +5.35843E+00 +1.77304E+00 +4.53303E+00 +3.38770E+00
 +3.21885E+00 +4.63761E+00 +1.56979E+00 +5.38080E+00 -2.22513E-01 +5.53718E+00 -1.95244E+00 +5.09692E+00
 -3.42516E+00 +4.12013E+00 -4.47939E+00 +2.72819E+00 -5.00558E+00 +1.08808E+00 -4.95750E+00 -6.08148E-01
 -4.35605E+00 -2.16629E+00 -3.28529E+00 -3.41245E+00 -1.88124E+00 -4.21254E+00 -3.15214E-01 -4.48675E+00
 +1.22660E+00 -4.21747E+00 +2.56458E+00 -3.45003E+00 +3.54594E+00 -2.28637E+00 +4.06168E+00 -8.72604E-01
 +4.05828E+00 +6.18220E-01 +3.54318E+00 +2.00597E+00 +2.58345E+00 +3.12396E+00 +1.29790E+00 +3.83775E+00
 -1.56450E-01 +4.06047E+00 -1.60221E+00 +3.76281E+00 -2.86173E+00 +2.97678E+00 -3.77755E+00 +1.79264E+00
 -4.23075E+00 +3.49308E-01 -4.15544E+00 -1.18081E+00 -3.54757E+00 -2.61122E+00 -2.46684E+00 -3.76279E+00
 -1.03147E+00 -4.48499E+00 +5.94014E-01 -4.67456E+00 +2.21688E+00 -4.28928E+00 +3.63820E+00 -3.35514E+00
 +4.67659E+00 -1.96565E+00 +5.19072E+00 -2.73080E-01 +5.09807E+00 +1.52786E+00 +4.38727E+00 +3.22208E+00
 +3.12225E+00 +4.59982E+00 +1.43735E+00 +5.48268E+00 -4.76707E-01 +5.74702E+00 -2.39439E+00 +5.34150E+00
 -4.08238E+00 +4.29621E+00 -5.32869E+00 +2.72187E+00 -5.97034E+00 +7.98686E-01 -5.91580E+00 -1.24423E+00
 -5.15910E+00 -3.15660E+00 -3.78340E+00 -4.69854E+00 -1.95294E+00 -5.67198E+00 +1.05945E-01 -5.94772E+00
 +2.13269E+00 -5.48434E+00 +3.86592E+00 -4.33608E+00 +5.07805E+00 -2.64816E+00 +5.60646E+00 -6.39801E-01
 +5.37690E+00 +1.42333E+00 +4.41558E+00 +3.26373E+00 +2.84799E+00 +4.62933E+00 +8.84120E-01 +5.32830E+00
 -1.20829E+00 +5.25653E+00 -3.13912E+00 +4.41380E+00 -4.63521E+00 +2.90606E+00 -5.47829E+00 +9.33066E-01
 -5.53625E+00 -1.23725E+00 -4.78309E+00 -3.30439E+00 -3.30461E+00 -4.97624E+00 -1.28865E+00 -6.00964E+00
 +9.99076E-01 -6.24497E+00 +3.25042E+00 -5.62972E+00 +5.15681E+00 -4.22746E+00 +6.45194E+00 -2.21087E+00
 +6.94927E+00 +1.60691E-01 +6.56882E+00 +2.57599E+00 +5.34940E+00 +4.71439E+00 +3.44442E+00 +6.29013E+00
 +1.10152E+00 +7.09217E+00 -1.37113E+00 +7.01387E+00 -3.64724E+00 +6.06819E+00 -5.42762E+00 +4.38630E+00
 -6.48176E+00 +2.19946E+00 -6.67992E+00 -1.93200E-01 -6.01100E+00 -2.46650E+00 -4.58370E+00 -4.31478E+00
 -2.61081E+00 -5.49459E+00 -3.78693E-01 -5.85863E+00 +1.79354E+00 -5.37585E+00 +3.59936E+00 -4.13499E+00
 +4.78813E+00 -2.33114E+00 +5.20030E+00 -2.37085E-01 +4.78934E+00 +1.83619E+00 +3.62737E+00 +3.58418E+00
 +1.89380E+00 +4.75237E+00 -1.51281E-01 +5.17216E+00 -2.20515E+00 +4.78424E+00 -3.96617E+00 +3.64605E+00
 -5.17694E+00 +1.92244E+00 -5.66078E+00 -1.39001E-01 -5.34605E+00 -2.24419E+00 -4.27527E+00 -4.09507E+00
 -2.59771E+00 -5.43215E+00 -5.46742E-01 -6.07098E+00 +1.59451E+00 -5.92728E+00 +3.53409E+00 -5.02743E+00
 +5.01278E+00 -3.50287E+00 +5.84024E+00 -1.56960E+00 +5.92057E+00 +5.04084E-01 +5.26394E+00 +2.43668E+00
 +3.98269E+00 +3.97364E+00 +2.27293E+00 +4.92279E+00 +3.84581E-01 +5.18001E+00 -1.41567E+00 +4.74164E+00
 -2.88278E+00 +3.70214E+00 -3.82773E+00 +2.23774E+00 -4.14288E+00 +5.78706E-01 -3.81490E+00 -1.02531E+00
 -2.92374E+00 -2.34186E+00 -1.62817E+00 -3.18863E+00 -1.40345E-01 -3.45824E+00 +1.30658E+00 -3.13145E+00
 +2.49288E+00 -2.27718E+00 +3.24373E+00 -1.03983E+00 +3.45318E+00 +3.83928E-01 +3.09747E+00 +1.77524E+00
 +2.23598E+00 +2.92534E+00 +1.00027E+00 +3.66541E+00 -4.27012E-01 +3.88967E+00 -1.83981E+00 +3.56868E+00
 -3.03879E+00 +2.75124E+00 -3.85947E+00 +1.55505E+00 -4.19441E+00 +1.47889E-01 -4.00644E+00 -1.27771E+00
 -3.33153E+00 -2.53226E+00 -2.27110E+00 -3.45571E+00 -9.75489E-01 -3.93860E+00 +3.78791E-01 -3.93521E+00
 +1.61451E+00 -3.46730E+00 +2.57816E+00 -2.61822E+00 +3.15999E+00 -1.51868E+00 +3.30706E+00 -3.26685E-01
 +3.02772E+00 +7.95463E-01 +2.38751E+00 +1.70354E+00 +1.49736E+00 +2.29021E+00 +4.96051E-01 +2.49782E+00
 -4.70044E-01 +2.32368E+00 -1.26735E+00 +1.81764E+00 -1.79256E+00 +1.07262E+00 -1.98515E+00 +2.09802E-01
 -1.83342E+00 -6.39125E-01 -1.37368E+00 -1.35023E+00 -6.83194E-01 -1.82356E+00 +1.32042E-01 -1.99535E+00
 +9.52483E-01 -1.84487E+00 +1.66126E+00 -1.39533E+00 +2.15920E+00 -7.09159E-01 +2.37684E+00 +1.21495E-01
 +2.28217E+00 +9.87431E-01 +1.88335E+00 +1.77660E+00 +1.22645E+00 +2.38795E+00 +3.88784E-01 +2.74340E+00
 -5.31197E-01 +2.79648E+00 -1.42602E+00 +2.53714E+00 -2.19191E+00 +1.99200E+00 -2.74064E+00 +1.22068E+00
 -3.00936E+00 +3.08395E-01 -2.96730E+00 -6.44002E-01 -2.61895E+00 -1.53149E+00 -2.00329E+00 -2.25666E+00
 -1.18931E+00 -2.74061E+00 -2.68330E-01 -2.93173E+00 +6.56190E-01 -2.81165E+00 +1.48025E+00 -2.39762E+00
 +2.11117E+00 -1.74091E+00 +2.47852E+00 -9.21474E-01 +2.54275E+00 -3.91480E-02 +2.30067E+00 +7.97749E-01
 +1.78679E+00 +1.48525E+00 +1.07025E+00 +1.93662E+00 +2.47402E-01 +2.09377E+00 -5.69356E-01 +1.93569E+00
 -1.26542E+00 +1.48268E+00 -1.73884E+00 +7.95528E-01 -1.91441E+00 -3.06056E-02 -1.75511E+00 -8.77242E-01
 -1.26917E+00 -1.61740E+00 -5.11411E-01 -2.13252E+00 +4.21629E-01 -2.32927E+00 +1.40263E+00 -2.15406E+00
 +2.28943E+00 -1.60281E+00 +2.94398E+00 -7.24640E-01 +3.25202E+00 +3.81865E-01 +3.14059E+00 +1.57946E+00
 +2.59071E+00 +2.70926E+00 +1.64331E+00 +3.61182E+00 +3.96819E-01 +4.14957E+00 -1.00350E+00 +4.22738E+00
 -2.38356E+00 +3.80823E+00 -3.56353E+00 +2.92131E+00 -4.38296E+00 +1.66106E+00 -4.72434E+00 +1.76763E-01
 -4.53154E+00 -1.34637E+00 -3.82025E+00 -2.71210E+00 -2.67832E+00 -3.74080E+00 -1.25563E+00 -4.29580E+00
 +2.55531E-01 -4.30449E+00 +1.64710E+00 -3.77078E+00 +2.72519E+00 -2.77675E+00 +3.33902E+00 -1.47277E+00
