 Created: 19-Jan-2021
 $NMID
 ID='D:\BASISSIMULATI'
 FMTDAT='(8E13.5)'
 VOLUME=   1.00000E+00
 TRAMP=   1.00000E+00
 $END
 +6.52882E+01 +1.01111E+01 +5.06499E+01 +4.01141E+01 +2.23567E+01 +5.67139E+01 -9.31975E+00 +5.47983E+01
 -3.32510E+01 +3.62646E+01 -4.17715E+01 +9.04272E+00 -3.34833E+01 -1.62563E+01 -1.34414E+01 -3.06349E+01
 +9.27613E+00 -3.01538E+01 +2.55134E+01 -1.71354E+01 +2.97966E+01 +1.29151E+00 +2.23300E+01 +1.65859E+01
 +8.44698E+00 +2.26033E+01 -4.15175E+00 +1.81595E+01 -9.09224E+00 +7.26842E+00 -4.29240E+00 -2.98821E+00
 +7.11415E+00 -5.96152E+00 +1.82912E+01 +1.28767E+00 +2.19617E+01 +1.64202E+01 +1.39515E+01 +3.26846E+01
 -4.58493E+00 +4.18644E+01 -2.72912E+01 +3.80282E+01 -4.50952E+01 +2.04276E+01 -5.00292E+01 -5.76383E+00
 -3.87538E+01 -3.12617E+01 -1.42557E+01 -4.63262E+01 +1.50562E+01 -4.47517E+01 +3.85332E+01 -2.65155E+01
 +4.74618E+01 +2.04518E+00 +3.85120E+01 +3.06299E+01 +1.50404E+01 +4.89737E+01 -1.42809E+01 +5.08118E+01
 -3.89295E+01 +3.61958E+01 -5.06493E+01 +1.12469E+01 -4.65323E+01 -1.44994E+01 -2.98359E+01 -3.20053E+01
 -8.27627E+00 -3.62564E+01 +9.40361E+00 -2.79603E+01 +1.70953E+01 -1.27833E+01 +1.36633E+01 +1.45061E+00
 +3.01974E+00 +8.32274E+00 -8.00803E+00 +5.57682E+00 -1.30098E+01 -4.10535E+00 -9.01522E+00 -1.45964E+01
 +2.13675E+00 -1.93686E+01 +1.46782E+01 -1.47014E+01 +2.16373E+01 -1.59819E+00 +1.81834E+01 +1.44649E+01
 +4.08757E+00 +2.58741E+01 -1.58271E+01 +2.62908E+01 -3.34983E+01 +1.36458E+01 -4.09638E+01 -8.62079E+00
 -3.38115E+01 -3.26660E+01 -1.32559E+01 -4.92857E+01 +1.40826E+01 -5.16415E+01 +3.86476E+01 -3.81156E+01
 +5.16722E+01 -1.30875E+01 +4.86297E+01 +1.47084E+01 +3.09913E+01 +3.55801E+01 +5.57799E+00 +4.26331E+01
 -1.82045E+01 +3.43531E+01 -3.20891E+01 +1.49852E+01 -3.20902E+01 -7.39445E+00 -1.98028E+01 -2.42593E+01
 -1.38614E+00 -3.00314E+01 +1.52588E+01 -2.40950E+01 +2.38698E+01 -1.06422E+01 +2.23162E+01 +3.49184E+00
 +1.31794E+01 +1.19993E+01 +2.24714E+00 +1.18689E+01 -4.34661E+00 +4.56069E+00 -3.03417E+00 -4.88587E+00
 +5.52154E+00 -1.03655E+01 +1.67413E+01 -7.69117E+00 +2.42709E+01 +3.30199E+00 +2.29883E+01 +1.84864E+01
 +1.15291E+01 +3.11495E+01 -6.81004E+00 +3.49483E+01 -2.52318E+01 +2.68223E+01 -3.62003E+01 +8.58062E+00
 -3.46430E+01 -1.35641E+01 -2.02235E+01 -3.13649E+01 +2.30567E+00 -3.78448E+01 +2.48514E+01 -3.01607E+01
 +3.91289E+01 -1.08256E+01 +3.99168E+01 +1.32288E+01 +2.70822E+01 +3.33647E+01 +5.55376E+00 +4.26078E+01
 -1.67194E+01 +3.82932E+01 -3.19555E+01 +2.29240E+01 -3.55475E+01 +2.93964E+00 -2.76689E+01 -1.40405E+01
 -1.28685E+01 -2.23131E+01 +2.09874E+00 -2.02335E+01 +1.12273E+01 -1.05542E+01 +1.17238E+01 +1.10662E+00
 +4.95121E+00 +8.93266E+00 -4.49161E+00 +9.51874E+00 -1.10848E+01 +3.28475E+00 -1.10321E+01 -5.89170E+00
 -4.05104E+00 -1.26186E+01 +6.48373E+00 -1.26125E+01 +1.50950E+01 -4.81555E+00 +1.67597E+01 +7.95089E+00
 +9.32513E+00 +2.01026E+01 -5.29894E+00 +2.57077E+01 -2.17264E+01 +2.11538E+01 -3.32419E+01 +6.89857E+00
 -3.46097E+01 -1.24781E+01 -2.43517E+01 -2.99810E+01 -5.51444E+00 -3.89720E+01 +1.54191E+01 -3.58589E+01
 +3.10385E+01 -2.15785E+01 +3.59052E+01 -1.25784E+00 +2.86518E+01 +1.78041E+01 +1.24323E+01 +2.89956E+01
 -6.43448E+00 +2.89157E+01 -2.10367E+01 +1.85458E+01 -2.65767E+01 +2.63013E+00 -2.21055E+01 -1.24205E+01
 -1.06117E+01 -2.11848E+01 +2.50153E+00 -2.13269E+01 +1.18424E+01 -1.42861E+01 +1.42975E+01 -4.33404E+00
 +1.01812E+01 +3.52116E+00 +2.82089E+00 +5.83116E+00 -3.17772E+00 +2.19240E+00 -4.17599E+00 -4.70830E+00
 +7.57888E-01 -1.04707E+01 +9.38743E+00 -1.11374E+01 +1.73229E+01 -5.14901E+00 +2.00553E+01 +5.78467E+00
 +1.51016E+01 +1.72998E+01 +3.30193E+00 +2.42265E+01 -1.13241E+01 +2.28734E+01 -2.31298E+01 +1.27535E+01
 -2.71602E+01 -3.01015E+00 -2.12574E+01 -1.87997E+01 -7.05752E+00 -2.86939E+01 +1.05539E+01 -2.88303E+01
 +2.53126E+01 -1.89610E+01 +3.20062E+01 -2.56101E+00 +2.84697E+01 +1.45458E+01 +1.63418E+01 +2.64667E+01
 +3.02348E-01 +2.94871E+01 -1.38610E+01 +2.33769E+01 -2.15342E+01 +1.12624E+01 -2.09691E+01 -1.82805E+00
 -1.37228E+01 -1.10889E+01 -3.72784E+00 -1.38284E+01 +4.54902E+00 -1.03511E+01 +8.03426E+00 -3.51886E+00
 +6.23745E+00 +2.75200E+00 +1.22723E+00 +5.35249E+00 -3.53867E+00 +3.36886E+00 -4.96389E+00 -1.60064E+00
 -1.83987E+00 -6.30965E+00 +4.53911E+00 -7.49213E+00 +1.09437E+01 -3.50640E+00 +1.37020E+01 +4.75468E+00
 +1.04484E+01 +1.41079E+01 +1.34541E+00 +2.03885E+01 -1.07793E+01 +2.02627E+01 -2.14661E+01 +1.27599E+01
 -2.64079E+01 -1.49364E-01 -2.32401E+01 -1.41957E+01 -1.25802E+01 -2.44271E+01 +2.12369E+00 -2.71381E+01
 +1.58803E+01 -2.13215E+01 +2.40546E+01 -9.05360E+00 +2.41060E+01 +5.33247E+00 +1.64738E+01 +1.69316E+01
 +4.27885E+00 +2.21148E+01 -7.99754E+00 +1.97997E+01 -1.62858E+01 +1.16612E+01 -1.84200E+01 +1.25397E+00
 -1.47644E+01 -7.53661E+00 -7.77669E+00 -1.20428E+01 -7.60037E-01 -1.17242E+01 +3.61681E+00 -8.10505E+00
 +4.38618E+00 -3.83424E+00 +2.50083E+00 -1.33535E+00 +1.61897E-01 -1.66795E+00 -3.95354E-01 -4.10140E+00
 +1.91913E+00 -6.56696E+00 +6.45012E+00 -6.75574E+00 +1.10488E+01 -3.34441E+00 +1.30618E+01 +3.22162E+00
 +1.06109E+01 +1.07564E+01 +3.58491E+00 +1.61802E+01 -6.11023E+00 +1.68280E+01 -1.51804E+01 +1.16559E+01
 -2.02036E+01 +1.81960E+00 -1.90050E+01 -9.63970E+00 -1.15734E+01 -1.88892E+01 -1.37938E-01 -2.27403E+01
 +1.16295E+01 -1.98484E+01 +1.99650E+01 -1.11989E+01 +2.23738E+01 +2.98960E-01 +1.84699E+01 +1.09300E+01
 +9.98813E+00 +1.75377E+01 +4.91997E-03 +1.85968E+01 -8.28204E+00 +1.45939E+01 -1.27076E+01 +7.61711E+00
 -1.27786E+01 +3.81622E-01 -9.59191E+00 -4.87163E+00 -5.13278E+00 -7.14580E+00 -1.30889E+00 -6.84262E+00
 +8.45172E-01 -5.30026E+00 +1.46257E+00 -3.97818E+00 +1.55280E+00 -3.68837E+00 +2.30556E+00 -4.22513E+00
 +4.34524E+00 -4.54545E+00 +7.29896E+00 -3.39251E+00 +9.88589E+00 -5.24434E-02 +1.04905E+01 +5.12320E+00
 +7.95889E+00 +1.06881E+01 +2.25239E+00 +1.46003E+01 -5.34801E+00 +1.50471E+01 -1.26000E+01 +1.12450E+01
 -1.70915E+01 +3.86820E+00 -1.71498E+01 -5.08752E+00 -1.24999E+01 -1.29645E+01 -4.40773E+00 -1.73704E+01
 +4.74757E+00 -1.70117E+01 +1.22996E+01 -1.21158E+01 +1.61944E+01 -4.29649E+00 +1.56264E+01 +4.06170E+00
 +1.11921E+01 +1.06416E+01 +4.54355E+00 +1.39280E+01 -2.28081E+00 +1.35798E+01 -7.56602E+00 +1.03436E+01
 -1.04003E+01 +5.60191E+00 -1.07785E+01 +7.82549E-01 -9.35184E+00 -3.12055E+00 -6.98870E+00 -5.74168E+00
 -4.36705E+00 -7.22702E+00 -1.77453E+00 -7.92031E+00 +8.27313E-01 -8.03846E+00 +3.55021E+00 -7.50688E+00
 +6.29912E+00 -6.02876E+00 +8.62943E+00 -3.33862E+00 +9.82994E+00 +5.02788E-01 +9.20418E+00 +4.93674E+00
 +6.42229E+00 +8.96440E+00 +1.77587E+00 +1.14333E+01 -3.79322E+00 +1.14439E+01 -8.92321E+00 +8.71085E+00
 -1.22440E+01 +3.72597E+00 -1.28161E+01 -2.34722E+00 -1.04335E+01 -8.01184E+00 -5.68207E+00 -1.18831E+01
 +2.54353E-01 -1.30813E+01 +5.95852E+00 -1.14430E+01 +1.01767E+01 -7.49957E+00 +1.21172E+01 -2.26099E+00
 +1.15746E+01 +3.09560E+00 +8.87699E+00 +7.51866E+00 +4.71685E+00 +1.02754E+01 -5.09144E-02 +1.10213E+01
 -4.57793E+00 +9.77404E+00 -8.13140E+00 +6.84373E+00 -1.01570E+01 +2.76211E+00 -1.03263E+01 -1.77819E+00
 -8.58789E+00 -5.99127E+00 -5.21286E+00 -9.09880E+00 -8.00507E-01 -1.04723E+01 +3.79465E+00 -9.79055E+00
 +7.62691E+00 -7.15792E+00 +9.88476E+00 -3.12292E+00 +1.01092E+01 +1.43323E+00 +8.32460E+00 +5.51956E+00
 +5.02574E+00 +8.30076E+00 +1.02001E+00 +9.31200E+00 -2.81939E+00 +8.54588E+00 -5.79470E+00 +6.38585E+00
 -7.52998E+00 +3.42433E+00 -7.97805E+00 +2.51047E-01 -7.30838E+00 -2.69587E+00 -5.75085E+00 -5.16098E+00
 -3.48596E+00 -6.99363E+00 -6.41531E-01 -8.02944E+00 +2.60824E+00 -8.02259E+00 +5.91015E+00 -6.69439E+00
 +8.66631E+00 -3.89754E+00 +1.01141E+01 +1.78224E-01 +9.56118E+00 +4.87676E+00 +6.69857E+00 +9.12612E+00
 +1.85442E+00 +1.17021E+01 -3.95060E+00 +1.16372E+01 -9.21814E+00 +8.62390E+00 -1.24174E+01 +3.23616E+00
 -1.25125E+01 -3.15314E+00 -9.36677E+00 -8.76598E+00 -3.85052E+00 -1.19999E+01 +2.41697E+00 -1.19816E+01
 +7.61122E+00 -8.87434E+00 +1.03317E+01 -3.80809E+00 +1.00714E+01 +1.54831E+00 +7.34005E+00 +5.60793E+00
 +3.39459E+00 +7.42991E+00 -3.08038E-01 +6.99939E+00 -2.70065E+00 +5.11526E+00 -3.48769E+00 +2.94582E+00
 -3.15937E+00 +1.45736E+00 -2.64274E+00 +9.76087E-01 -2.75849E+00 +1.08417E+00 -3.74403E+00 +8.97971E-01
 -5.07698E+00 -4.01316E-01 -5.69898E+00 -3.03864E+00 -4.55254E+00 -6.38251E+00 -1.18938E+00 -9.10190E+00
 +3.84270E+00 -9.70632E+00 +9.04495E+00 -7.24896E+00 +1.24713E+01 -1.87867E+00 +1.25079E+01 +5.03037E+00
 +8.60670E+00 +1.12736E+01 +1.64438E+00 +1.46115E+01 -6.27953E+00 +1.36573E+01 -1.25623E+01 +8.48564E+00
 -1.50672E+01 +6.90769E-01 -1.29533E+01 -7.15932E+00 -7.01970E+00 -1.24728E+01 +5.91304E-01 -1.36119E+01
 +7.22400E+00 -1.04992E+01 +1.07376E+01 -4.60142E+00 +1.03112E+01 +1.70487E+00 +6.69368E+00 +6.11940E+00
 +1.79934E+00 +7.34108E+00 -2.17056E+00 +5.53775E+00 -3.69635E+00 +2.16814E+00 -2.57554E+00 -7.57527E-01
 +5.25588E-02 -1.64557E+00 +2.30214E+00 -7.95569E-02 +2.48783E+00 +2.97367E+00 -7.30524E-03 +5.61590E+00
 -4.34721E+00 +5.93466E+00 -8.53806E+00 +2.97636E+00 -1.02975E+01 -2.67382E+00 -8.12740E+00 -8.99393E+00
 -2.11163E+00 -1.33028E+01 +5.93973E+00 -1.34031E+01 +1.31043E+01 -8.60170E+00 +1.64952E+01 -1.50604E-01
 +1.44727E+01 +9.11795E+00 +7.40268E+00 +1.58460E+01 -2.38267E+00 +1.74779E+01 -1.14370E+01 +1.33115E+01
 -1.65340E+01 +4.82491E+00 -1.59396E+01 -4.87853E+00 -1.00942E+01 -1.22897E+01 -1.41250E+00 -1.48814E+01
 +6.71845E+00 -1.20883E+01 +1.13270E+01 -5.46955E+00 +1.10469E+01 +2.00821E+00 +6.60938E+00 +7.26084E+00
 +4.34383E-01 +8.39361E+00 -4.49380E+00 +5.46462E+00 -5.97301E+00 +3.78092E-01 -3.55965E+00 -4.04027E+00
 +1.25621E+00 -5.37491E+00 +5.75847E+00 -2.76588E+00 +7.28596E+00 +2.64905E+00 +4.51790E+00 +8.20735E+00
 -1.81796E+00 +1.09179E+01 -9.15270E+00 +8.86090E+00 -1.41383E+01 +2.16814E+00 -1.41219E+01 -6.87395E+00
 -8.39363E+00 -1.46804E+01 +1.35440E+00 -1.78468E+01 +1.15905E+01 -1.46302E+01 +1.83265E+01 -5.78910E+00
 +1.87565E+01 +5.60214E+00 +1.24605E+01 +1.53210E+01 +1.65132E+00 +1.96792E+01 -9.66424E+00 +1.70239E+01
