 Created: 19-Jan-2021
 $NMID
 ID='D:\BASISSIMULATI'
 FMTDAT='(8E13.5)'
 VOLUME=   1.00000E+00
 TRAMP=   1.00000E+00
 $END
 +1.49182E+02 +2.28384E+01 +1.38165E+02 +5.95825E+01 +1.17873E+02 +9.20163E+01 +8.98371E+01 +1.17804E+02
 +5.61660E+01 +1.35121E+02 +1.93815E+01 +1.42796E+02 -1.77773E+01 +1.40392E+02 -5.25658E+01 +1.28244E+02
 -8.24464E+01 +1.07421E+02 -1.05282E+02 +7.96442E+01 -1.19501E+02 +4.71459E+01 -1.24210E+02 +1.24941E+01
 -1.19264E+02 -2.16105E+01 -1.05265E+02 -5.25455E+01 -8.35134E+01 -7.79710E+01 -5.58960E+01 -9.60096E+01
 -2.47353E+01 -1.05390E+02 +7.39811E+00 -1.05540E+02 +3.78904E+01 -9.66260E+01 +6.42909E+01 -7.95333E+01
 +8.45050E+01 -5.57881E+01 +9.69562E+01 -2.74316E+01 +1.00707E+02 +3.14672E+00 +9.55296E+01 +3.34024E+01
 +8.19141E+01 +6.08397E+01 +6.10278E+01 +8.32105E+01 +3.46147E+01 +9.86918E+01 +4.85186E+00 +1.06028E+02
 -2.58274E+01 +1.04628E+02 -5.49303E+01 +9.46054E+01 -8.01045E+01 +7.67690E+01 -9.93256E+01 +5.25487E+01
 -1.11057E+02 +2.38798E+01 -1.14370E+02 -6.95643E+00 -1.09015E+02 -3.75175E+01 -9.54351E+01 -6.53966E+01
 -7.47286E+01 -8.84153E+01 -4.85555E+01 -1.04797E+02 -1.90006E+01 -1.13307E+02 +1.15963E+01 -1.13347E+02
 +4.08303E+01 -1.05001E+02 +6.64255E+01 -8.90233E+01 +8.64171E+01 -6.67721E+01 +9.93080E+01 -4.00974E+01
 +1.04186E+02 -1.11879E+01 +1.00795E+02 +1.76082E+01 +8.95512E+01 +4.39742E+01 +7.15028E+01 +6.58130E+01
 +4.82449E+01 +8.14157E+01 +2.17841E+01 +8.95988E+01 -5.62661E+00 +8.97981E+01 -3.16730E+01 +8.21115E+01
 -5.41691E+01 +6.72880E+01 -7.12358E+01 +4.66646E+01 -8.14542E+01 +2.20540E+01 -8.39803E+01 -4.40485E+00
 -7.86140E+01 -3.04230E+01 -6.58143E+01 -5.37501E+01 -4.66616E+01 -7.23589E+01 -2.27691E+01 -8.46123E+01
 +3.84922E+00 -8.93981E+01 +3.09434E+01 -8.62211E+01 +5.62113E+01 -7.52453E+01 +7.74870E+01 -5.72822E+01
 +9.29187E+01 -3.37267E+01 +1.01121E+02 -6.44567E+00 +1.01289E+02 +2.23727E+01 +9.32696E+01 +5.03951E+01
 +7.75718E+01 +7.53320E+01 +5.53332E+01 +9.51233E+01 +2.82295E+01 +1.08106E+02 -1.65814E+00 +1.13151E+02
 -3.20081E+01 +1.09755E+02 -6.04442E+01 +9.80864E+01 -8.47255E+01 +7.89725E+01 -1.02927E+02 +5.38379E+01
 -1.13593E+02 +2.45927E+01 -1.15858E+02 -6.51852E+00 -1.09515E+02 -3.70935E+01 -9.50370E+01 -6.47638E+01
 -7.35378E+01 -8.73824E+01 -4.66885E+01 -1.03196E+02 -1.65843E+01 -1.10984E+02 +1.44202E+01 -1.10156E+02
 +4.38976E+01 -1.00804E+02 +6.95401E+01 -8.36884E+01 +8.93426E+01 -6.01860E+01 +1.01762E+02 -3.21772E+01
 +1.05840E+02 -1.89860E+00 +1.01280E+02 +2.82342E+01 +8.84693E+01 +5.58181E+01 +6.84505E+01 +7.86533E+01
 +4.28385E+01 +9.49174E+01 +1.36920E+01 +1.03311E+02 -1.66491E+01 +1.03159E+02 -4.57495E+01 +9.44665E+01
 -7.12715E+01 +7.79174E+01 -9.11605E+01 +5.48198E+01 -1.03808E+02 +2.70032E+01 -1.08178E+02 -3.32685E+00
 -1.03892E+02 -3.37636E+01 -9.12539E+01 -6.18894E+01 -7.12317E+01 -8.54673E+01 -4.53764E+01 -1.02618E+02
 -1.57006E+01 -1.11968E+02 +1.54804E+01 -1.12758E+02 +4.57327E+01 -1.04904E+02 +7.26952E+01 -8.89990E+01
 +9.42664E+01 -6.62715E+01 +1.08770E+02 -3.84827E+01 +1.15086E+02 -7.78923E+00 +1.12738E+02 +2.34285E+01
 +1.01931E+02 +5.27543E+01 +8.35303E+01 +7.79265E+01 +5.89953E+01 +9.70167E+01 +3.02603E+01 +1.08580E+02
 -4.19142E-01 +1.11768E+02 -3.06448E+01 +1.06394E+02 -5.80663E+01 +9.29451E+01 -8.05663E+01 +7.25405E+01
 -9.64271E+01 +4.68414E+01 -1.04465E+02 +1.79172E+01 -1.04121E+02 -1.19207E+01 -9.55049E+01 -4.03029E+01
 -7.93792E+01 -6.49900E+01 -5.70996E+01 -8.40503E+01 -3.05028E+01 -9.60116E+01 -1.75824E+00 -9.99765E+01
 +2.68060E+01 -9.56912E+01 +5.28896E+01 -8.35626E+01 +7.44030E+01 -6.46234E+01 +8.96339E+01 -4.04468E+01
 +9.73822E+01 -1.30185E+01 +9.70541E+01 +1.54235E+01 +8.87071E+01 +4.25692E+01 +7.30431E+01 +6.62216E+01
 +5.13503E+01 +8.44722E+01 +2.53974E+01 +9.58530E+01 -2.70887E+00 +9.94529E+01 -3.06943E+01 +9.49890E+01
 -5.62994E+01 +8.28275E+01 -7.74611E+01 +6.39526E+01 -9.24769E+01 +3.98862E+01 -1.00141E+02 +1.25647E+01
 -9.98410E+01 -1.58175E+01 -9.16025E+01 -4.29840E+01 -7.60892E+01 -6.67594E+01 -5.45468E+01 -8.52431E+01
 -2.87024E+01 -9.69611E+01 -6.25175E-01 -1.00983E+02 +2.74396E+01 -9.69978E+01 +5.32508E+01 -8.53328E+01
 +7.47510E+01 -6.69316E+01 +9.02305E+01 -4.32746E+01 +9.84639E+01 -1.62602E+01 +9.88069E+01 +1.19472E+01
 +9.12475E+01 +3.90915E+01 +7.64052E+01 +6.30052E+01 +5.54809E+01 +8.17825E+01 +3.01599E+01 +9.39313E+01
 +2.47588E+00 +9.84919E+01 -2.53516E+01 +9.51129E+01 -5.10955E+01 +8.40780E+01 -7.26987E+01 +6.62823E+01
 -8.84388E+01 +4.31600E+01 -9.70646E+01 +1.65686E+01 -9.78957E+01 -1.13605E+01 -9.08757E+01 -3.83925E+01
 -7.65754E+01 -6.23678E+01 -5.61466E+01 -8.13752E+01 -3.12284E+01 -9.39033E+01 -3.81564E+00 -9.89610E+01
 +2.39011E+01 -9.61559E+01 +4.97112E+01 -8.57240E+01 +7.15603E+01 -6.85102E+01 +8.77147E+01 -4.58991E+01
 +9.68987E+01 -1.97039E+01 +9.83962E+01 +7.98006E+00 +9.21065E+01 +3.49427E+01 +7.85511E+01 +5.90364E+01
 +5.88310E+01 +7.83476E+01 +3.45374E+01 +9.13493E+01 +7.62350E+00 +9.70220E+01 -1.97525E+01 +9.49350E+01
 -4.54005E+01 +8.52788E+01 -6.72733E+01 +6.88491E+01 -8.36308E+01 +4.69821E+01 -9.31779E+01 +2.14459E+01
 -9.51679E+01 -5.70122E+00 -8.94607E+01 -3.22764E+01 -7.65332E+01 -5.61470E+01 -5.74397E+01 -7.54015E+01
 -3.37267E+01 -8.85018E+01 -7.30780E+00 -9.44058E+01 +1.96897E+01 -9.26499E+01 +4.50959E+01 -8.33853E+01
 +6.68721E+01 -6.73645E+01 +8.32735E+01 -4.58803E+01 +9.29888E+01 -2.06611E+01 +9.52443E+01 +6.26818E+00
 +8.98652E+01 +3.27486E+01 +7.72882E+01 +5.66605E+01 +5.85259E+01 +7.60934E+01 +3.50844E+01 +8.94983E+01
 +8.84215E+00 +9.58114E+01 -1.81012E+01 +9.45387E+01 -4.35937E+01 +8.57944E+01 -6.56032E+01 +7.02907E+01
 -8.23804E+01 +4.92803E+01 -9.25987E+01 +2.44544E+01 -9.54596E+01 -2.19276E+00 -9.07560E+01 -2.85252E+01
 -7.88886E+01 -5.24360E+01 -6.08320E+01 -7.20169E+01 -3.80563E+01 -8.57108E+01 -1.24084E+01 -9.24367E+01
 +1.40367E+01 -9.16758E+01 +3.91432E+01 -8.35127E+01 +6.08857E+01 -6.86282E+01 +7.75121E+01 -4.82440E+01
 +8.76843E+01 -2.40243E+01 +9.05856E+01 +2.05821E+00 +8.59862E+01 +2.78807E+01 +7.42619E+01 +5.13414E+01
 +5.63635E+01 +7.05277E+01 +3.37411E+01 +8.38710E+01 +8.22788E+00 +9.02717E+01 -1.81073E+01 +8.91889E+01
 -4.31254E+01 +8.06837E+01 -6.47886E+01 +6.54150E+01 -8.13242E+01 +4.45876E+01 -9.13666E+01 +1.98561E+01
 -9.40677E+01 -6.80661E+00 -8.91647E+01 -3.32671E+01 -7.70028E+01 -5.74015E+01 -5.85081E+01 -7.72650E+01
 -3.51147E+01 -9.12474E+01 -8.65088E+00 -9.82018E+01 +1.88054E+01 -9.75370E+01 +4.50919E+01 -8.92646E+01
 +6.81339E+01 -7.39993E+01 +8.61089E+01 -5.29105E+01 +9.75914E+01 -2.76299E+01 +1.01667E+02 -1.22754E-01
 +9.80026E+01 +2.74682E+01 +8.68774E+01 +5.29921E+01 +6.91565E+01 +7.44602E+01 +4.62245E+01 +9.02034E+01
 +1.98755E+01 +9.90039E+01 -7.82943E+00 +1.00192E+02 -3.47250E+01 +9.36963E+01 -5.87133E+01 +8.00527E+01
 -7.79294E+01 +6.03576E+01 -9.08888E+01 +3.61821E+01 -9.66036E+01 +9.44688E+00 -9.46606E+01 -1.77307E+01
 -8.52521E+01 -4.32041E+01 -6.91601E+01 -6.49676E+01 -4.76927E+01 -8.13148E+01 -2.25797E+01 -9.09730E+01
 +4.16537E+00 -9.32030E+01 +3.04056E+01 -8.78562E+01 +5.40498E+01 -7.53853E+01 +7.32185E+01 -5.68066E+01
 +8.63922E+01 -3.36184E+01 +9.25306E+01 -7.68073E+00 +9.11539E+01 +1.89327E+01 +8.23796E+01 +4.40996E+01
 +6.69111E+01 +6.58170E+01 +4.59809E+01 +8.23601E+01 +2.12508E+01 +9.24177E+01 -5.32051E+00 +9.51950E+01
 -3.16336E+01 +9.04749E+01 -5.56151E+01 +7.86334E+01 -7.53817E+01 +6.06079E+01 -8.93888E+01 +3.78206E+01
 -9.65511E+01 +1.20646E+01 -9.63273E+01 -1.46397E+01 -8.87603E+01 -4.02059E+01 -7.44714E+01 -6.26464E+01
 -5.46087E+01 -8.02301E+01 -3.07533E+01 -9.16183E+01 -4.79187E+00 -9.59683E+01 +2.12347E+01 -9.29987E+01
 +4.52939E+01 -8.30079E+01 +6.55236E+01 -6.68477E+01 +8.03787E+01 -4.58520E+01 +8.87526E+01 -2.17281E+01
 +9.00629E+01 +3.58152E+00 +8.42943E+01 +2.80561E+01 +7.19971E+01 +4.97582E+01 +5.42394E+01 +6.69884E+01
 +3.25184E+01 +7.84198E+01 +8.63775E+00 +8.32027E+01 -1.54388E+01 +8.10300E+01 -3.77466E+01 +7.21587E+01
 -5.64782E+01 +5.73866E+01 -7.01286E+01 +3.79847E+01 -7.76149E+01 +1.55930E+01 -7.83624E+01 -7.91439E+00
 -7.23486E+01 -3.05815E+01 -6.01032E+01 -5.05293E+01 -4.26634E+01 -6.61074E+01 -2.14878E+01 -7.60277E+01
 +1.66232E+00 -7.94674E+01 +2.48672E+01 -7.61349E+01 +4.62042E+01 -6.62924E+01 +6.39041E+01 -5.07338E+01
 +7.64939E+01 -3.07198E+01 +8.29167E+01 -7.87495E+00 +8.26165E+01 +1.59441E+01 +7.55835E+01 +3.87990E+01
 +6.23543E+01 +5.88267E+01 +4.39692E+01 +7.43905E+01 +2.18877E+01 +8.42120E+01 -2.12931E+00 +8.74750E+01
 -2.61614E+01 +8.38915E+01 -4.82836E+01 +7.37251E+01 -6.67220E+01 +5.77703E+01 -7.99962E+01 +3.72888E+01
 -8.70398E+01 +1.39082E+01 -8.72858E+01 -1.05091E+01 -8.07131E+01 -3.40153E+01 -6.78485E+01 -5.47340E+01
 -4.97249E+01 -7.10116E+01 -2.77987E+01 -8.15501E+01 -3.83270E+00 -8.55119E+01 +2.02448E+01 -8.25879E+01
 +4.24951E+01 -7.30226E+01 +6.11252E+01 -5.75952E+01 +7.46315E+01 -3.75578E+01 +8.19215E+01 -1.45349E+01
 +8.24019E+01 +9.60574E+00 +7.60269E+01 +3.29035E+01 +6.33032E+01 +5.34617E+01 +4.52500E+01 +6.96000E+01
 +2.33182E+01 +7.99895E+01 -7.24733E-01 +8.37600E+01 -2.49357E+01 +8.05710E+01 -4.73513E+01 +7.06397E+01
 -6.61447E+01 +5.47251E+01 -7.97719E+01 +3.40690E+01 -8.70956E+01 +1.02974E+01 -8.74771E+01 -1.47076E+01
 -8.08282E+01 -3.89574E+01 -6.76199E+01 -6.05148E+01 -4.88457E+01 -7.76478E+01 -2.59444E+01 -8.89684E+01
 -6.86718E-01 -9.35421E+01 +2.49642E+01 -9.09640E+01 +4.90078E+01 -8.13908E+01 +6.95644E+01 -6.55299E+01
 +8.50233E+01 -4.45838E+01 +9.41705E+01 -2.01558E+01 +9.62842E+01 +5.87613E+00 +9.11922E+01 +3.15070E+01
 +7.92852E+01 +5.47630E+01 +6.14858E+01 +7.38565E+01 +3.91755E+01 +8.73266E+01 +1.40859E+01 +9.41536E+01
 -1.18386E+01 +9.38386E+01 -3.65935E+01 +8.64418E+01 -5.82721E+01 +7.25764E+01 -7.52156E+01 +5.33592E+01
 -8.61424E+01 +3.03212E+01 -9.02482E+01 +5.28584E+00 -8.72677E+01 -1.97753E+01 -7.74935E+01 -4.28989E+01
 -6.17515E+01 -6.22842E+01 -4.13328E+01 -7.64348E+01 -1.78907E+01 -8.42754E+01 +6.69198E+00 -8.52354E+01
 +3.04524E+01 -7.92916E+01 +5.15036E+01 -6.69677E+01 +6.81837E+01 -4.92908E+01 +7.91866E+01 -2.77074E+01
