 Created: 19-Jan-2021
 $NMID
 ID='D:\BASISSIMULATI'
 FMTDAT='(8E13.5)'
 VOLUME=   1.00000E+00
 TRAMP=   1.00000E+00
 $END
 +7.46566E+01 +1.14313E+01 +7.00092E+01 +2.13745E+01 +5.97795E+01 +2.99232E+01 +4.49765E+01 +3.67209E+01
 +2.70944E+01 +4.15117E+01 +7.94234E+00 +4.41360E+01 -1.05629E+01 +4.45290E+01 -2.66158E+01 +4.27239E+01
 -3.87270E+01 +3.88594E+01 -4.58877E+01 +3.31889E+01 -4.76758E+01 +2.60861E+01 -4.42908E+01 +1.80431E+01
 -3.65141E+01 +9.65399E+00 -2.56015E+01 +1.58260E+00 -1.31213E+01 -5.48742E+00 -7.60291E-01 -1.09167E+01
 +9.87939E+00 -1.41824E+01 +1.74670E+01 -1.49499E+01 +2.10917E+01 -1.31332E+01 +2.03554E+01 -8.93340E+00
 +1.54018E+01 -2.84662E+00 +6.88019E+00 +4.36397E+00 -4.14986E+00 +1.17336E+01 -1.63572E+01 +1.81937E+01
 -2.83037E+01 +2.26937E+01 -3.86129E+01 +2.43311E+01 -4.61228E+01 +2.24770E+01 -5.00050E+01 +1.68756E+01
 -4.98384E+01 +7.70734E+00 -4.56318E+01 -4.39921E+00 -3.77962E+01 -1.84095E+01 -2.70743E+01 -3.29783E+01
 -1.44390E+01 -4.65901E+01 -9.75907E-01 -5.77273E+01 +1.22348E+01 -6.50491E+01 +2.42233E+01 -6.75570E+01
 +3.42106E+01 -6.47273E+01 +4.16589E+01 -5.65909E+01 +4.62892E+01 -4.37504E+01 +4.80698E+01 -2.73290E+01
 +4.71815E+01 -8.85551E+00 +4.39682E+01 +9.90105E+00 +3.88823E+01 +2.71295E+01 +3.24317E+01 +4.11823E+01
 +2.51365E+01 +5.07651E+01 +1.74971E+01 +5.50859E+01 +9.97427E+00 +5.39451E+01 +2.97916E+00 +4.77560E+01
 -3.13114E+00 +3.74918E+01 -8.05684E+00 +2.45662E+01 -1.15617E+01 +1.06618E+01 -1.34845E+01 -2.47186E+00
 -1.37558E+01 -1.32269E+01 -1.24177E+01 -2.03257E+01 -9.64185E+00 -2.29677E+01 -5.74034E+00 -2.09160E+01
 -1.16335E+00 -1.45155E+01 +3.52117E+00 -4.64041E+00 +7.66768E+00 +7.42029E+00 +1.06123E+01 +2.01246E+01
 +1.17467E+01 +3.18652E+01 +1.05980E+01 +4.11601E+01 +6.90507E+00 +4.68223E+01 +6.79689E-01 +4.80901E+01
 -7.75908E+00 +4.47024E+01 -1.77846E+01 +3.69126E+01 -2.85017E+01 +2.54429E+01 -3.88238E+01 +1.13854E+01
 -4.75826E+01 -3.93309E+00 -5.36588E+01 -1.91065E+01 -5.61185E+01 -3.28049E+01 -5.43395E+01 -4.39106E+01
 -4.81078E+01 -5.16215E+01 -3.76730E+01 -5.55110E+01 -2.37499E+01 -5.55416E+01 -7.46474E+00 -5.20335E+01
 +9.75191E+00 -4.55979E+01 +2.63136E+01 -3.70446E+01 +4.06523E+01 -2.72787E+01 +5.13980E+01 -1.72002E+01
 +5.75400E+01 -7.61718E+00 +5.85522E+01 +8.18512E-01 +5.44621E+01 +7.64860E+00 +4.58569E+01 +1.26189E+01
 +3.38216E+01 +1.56668E+01 +1.98172E+01 +1.68915E+01 +5.51141E+00 +1.65151E+01 -7.41645E+00 +1.48421E+01
 -1.74746E+01 +1.22226E+01 -2.35357E+01 +9.02422E+00 -2.49712E+01 +5.61290E+00 -2.17249E+01 +2.34201E+00
 -1.43181E+01 -4.54102E-01 -3.78407E+00 -2.46594E+00 +8.45815E+00 -3.41817E+00 +2.07770E+01 -3.08511E+00
 +3.15253E+01 -1.31299E+00 +3.92381E+01 +1.95286E+00 +4.28055E+01 +6.64007E+00 +4.16024E+01 +1.25264E+01
 +3.55571E+01 +1.92288E+01 +2.51539E+01 +2.62096E+01 +1.13695E+01 +3.28050E+01 -4.44710E+00 +3.82759E+01
 -2.07350E+01 +4.18781E+01 -3.59025E+01 +4.29473E+01 -4.85052E+01 +4.09869E+01 -5.74012E+01 +3.57492E+01
 -6.18648E+01 +2.72957E+01 -6.16476E+01 +1.60277E+01 -5.69818E+01 +2.67829E+00 -4.85293E+01 -1.17376E+01
 -3.72838E+01 -2.60118E+01 -2.44431E+01 -3.88632E+01 -1.12657E+01 -4.90769E+01 +1.06731E+00 -5.56456E+01
 +1.15713E+01 -5.78957E+01 +1.95444E+01 -5.55807E+01 +2.46135E+01 -4.89296E+01 +2.67394E+01 -3.86392E+01
 +2.61835E+01 -2.58108E+01 +2.34445E+01 -1.18358E+01 +1.91766E+01 +1.75900E+00 +1.41011E+01 +1.34860E+01
 +8.92288E+00 +2.20731E+01 +4.26088E+00 +2.66177E+01 +5.99971E-01 +2.66998E+01 -1.73497E+00 +2.24390E+01
 -2.58299E+00 +1.44869E+01 -1.93362E+00 +3.95399E+00 +9.81239E-02 -7.71951E+00 +3.30160E+00 -1.89352E+01
 +7.39942E+00 -2.81288E+01 +1.20713E+01 -3.39607E+01 +1.69710E+01 -3.54798E+01 +2.17366E+01 -3.22417E+01
 +2.59974E+01 -2.43662E+01 +2.93811E+01 -1.25264E+01 +3.15241E+01 +2.12801E+00 +3.20899E+01 +1.81046E+01
 +3.07956E+01 +3.37420E+01 +2.74457E+01 +4.74020E+01 +2.19693E+01 +5.76574E+01 +1.44554E+01 +6.34515E+01
 +5.17882E+00 +6.42121E+01 -5.39018E+00 +5.99060E+01 -1.65981E+01 +5.10298E+01 -2.76458E+01 +3.85392E+01
 -3.76506E+01 +2.37279E+01 -4.57291E+01 +8.07170E+00 -5.10924E+01 -6.94178E+00 -5.31422E+01 -1.99772E+01
 -5.15561E+01 -2.99899E+01 -4.63485E+01 -3.63233E+01 -3.78971E+01 -3.87564E+01 -2.69280E+01 -3.74977E+01
 -1.44574E+01 -3.31304E+01 -1.69420E+00 -2.65186E+01 +1.00876E+01 -1.86876E+01 +1.96926E+01 -1.06960E+01
 +2.61460E+01 -3.51407E+00 +2.88165E+01 +2.07606E+00 +2.75032E+01 +5.54992E+00 +2.24740E+01 +6.67320E+00
 +1.44482E+01 +5.49802E+00 +4.52295E+00 +2.32720E+00 -5.94891E+00 -2.34537E+00 -1.55166E+01 -7.90785E+00
 -2.28060E+01 -1.37064E+01 -2.66895E+01 -1.91144E+01 -2.64306E+01 -2.35873E+01 -2.17835E+01 -2.66996E+01
 -1.30353E+01 -2.81627E+01 -9.84342E-01 -2.78260E+01 +1.31450E+01 -2.56659E+01 +2.78391E+01 -2.17673E+01
 +4.14701E+01 -1.63045E+01 +5.24850E+01 -9.52401E+00 +5.95886E+01 -1.73257E+00 +6.18958E+01 +6.71011E+00
 +5.90362E+01 +1.53958E+01 +5.11967E+01 +2.38728E+01 +3.90992E+01 +3.16565E+01 +2.39151E+01 +3.82474E+01
 +7.12792E+00 +4.31606E+01 -9.63797E+00 +4.59644E+01 -2.48025E+01 +4.63270E+01 -3.70052E+01 +4.40645E+01
 -4.52510E+01 +3.91835E+01 -4.90084E+01 +3.19110E+01 -4.82510E+01 +2.27025E+01 -4.34387E+01 +1.22257E+01
 -3.54427E+01 +1.31436E+00 -2.54259E+01 -9.10240E+00 -1.46950E+01 -1.80928E+01 -4.54302E+00 -2.48249E+01
 +3.89782E+00 -2.86680E+01 +9.77662E+00 -2.92790E+01 +1.26037E+01 -2.66610E+01 +1.22834E+01 -2.11843E+01
 +9.09863E+00 -1.35636E+01 +3.65240E+00 -4.79176E+00 -3.22384E+00 +3.96576E+00 -1.05810E+01 +1.15035E+01
 -1.74681E+01 +1.67213E+01 -2.30374E+01 +1.87641E+01 -2.66296E+01 +1.71382E+01 -2.78280E+01 +1.17887E+01
 -2.64810E+01 +3.12560E+00 -2.26924E+01 -8.00606E+00 -1.67857E+01 -2.04111E+01 -9.24918E+00 -3.26748E+01
 -6.72698E-01 -4.33252E+01 +8.31667E+00 -5.10072E+01 +1.71106E+01 -5.46472E+01 +2.51631E+01 -5.35884E+01
 +3.20186E+01 -4.76787E+01 +3.73255E+01 -3.72994E+01 +4.08383E+01 -2.33314E+01 +4.24120E+01 -7.06054E+00
 +4.19939E+01 +9.96487E+00 +3.96164E+01 +2.61092E+01 +3.53940E+01 +3.98346E+01 +2.95239E+01 +4.98750E+01
 +2.22886E+01 +5.53763E+01 +1.40579E+01 +5.59878E+01 +5.28536E+00 +5.18926E+01 -3.50507E+00 +4.37756E+01
 -1.17444E+01 +3.27324E+01 -1.88573E+01 +2.01327E+01 -2.43125E+01 +7.45407E+00 -2.76796E+01 -3.89188E+00
 -2.86855E+01 -1.27201E+01 -2.72631E+01 -1.82011E+01 -2.35826E+01 -1.99425E+01 -1.80576E+01 -1.80166E+01
 -1.13238E+01 -1.29310E+01 -4.18609E+00 -5.54959E+00 +2.46071E+00 +3.02566E+00 +7.73053E+00 +1.15948E+01
 +1.08534E+01 +1.90047E+01 +1.12782E+01 +2.42811E+01 +8.75595E+00 +2.67317E+01 +3.39320E+00 +2.60103E+01
 -4.33630E+00 +2.21376E+01 -1.36243E+01 +1.54775E+01 -2.34052E+01 +6.67602E+00 -3.24695E+01 -3.42612E+00
 -3.96029E+01 -1.38968E+01 -4.37328E+01 -2.38157E+01 -4.40662E+01 -3.23667E+01 -4.01992E+01 -3.89092E+01
 -3.21846E+01 -4.30219E+01 -2.05462E+01 -4.45188E+01 -6.23771E+00 -4.34375E+01 +9.45272E+00 -4.00072E+01
 +2.50404E+01 -3.46024E+01 +3.90093E+01 -2.76911E+01 +4.99850E+01 -1.97851E+01 +5.68938E+01 -1.13969E+01
 +5.90887E+01 -3.00904E+00 +5.64265E+01 +4.94645E+00 +4.92854E+01 +1.20977E+01 +3.85216E+01 +1.81363E+01
 +2.53686E+01 +2.28181E+01 +1.12928E+01 +2.59645E+01 -2.17824E+00 +2.74684E+01 -1.36329E+01 +2.73030E+01
 -2.19371E+01 +2.55345E+01 -2.63609E+01 +2.23343E+01 -2.66543E+01 +1.79853E+01 -2.30649E+01 +1.28805E+01
 -1.62954E+01 +7.50609E+00 -7.40860E+00 +2.41050E+00 +2.30961E+00 -1.84248E+00 +1.15091E+01 -4.73216E+00
 +1.89380E+01 -5.84512E+00 +2.35887E+01 -4.93684E+00 +2.48095E+01 -1.98151E+00 +2.23707E+01 +2.79874E+00
 +1.64778E+01 +8.93231E+00 +7.73357E+00 +1.57281E+01 -2.94527E+00 +2.23369E+01 -1.44442E+01 +2.78393E+01
 -2.55842E+01 +3.13515E+01 -3.52548E+01 +3.21366E+01 -4.25327E+01 +2.97075E+01 -4.67710E+01 +2.39069E+01
 -4.76509E+01 +1.49535E+01 -4.51937E+01 +3.44378E+00 -3.97334E+01 -9.69118E+00 -3.18572E+01 -2.32733E+01
 -2.23239E+01 -3.60001E+01 -1.19724E+01 -4.65885E+01 -1.63121E+00 -5.39237E+01 +7.95945E+00 -5.71939E+01
 +1.62060E+01 -5.59946E+01 +2.26957E+01 -5.03869E+01 +2.72072E+01 -4.09029E+01 +2.96988E+01 -2.84947E+01
 +3.02815E+01 -1.44321E+01 +2.91821E+01 -1.61029E-01 +2.67050E+01 +1.28612E+01 +2.31958E+01 +2.33339E+01
 +1.90129E+01 +3.02641E+01 +1.45082E+01 +3.30806E+01 +1.00145E+01 +3.16988E+01 +5.84009E+00 +2.65267E+01
 +2.26386E+00 +1.84121E+01 -4.70063E-01 +8.53695E+00 -2.16231E+00 -1.72764E+00 -2.67335E+00 -1.09881E+01
 -1.94276E+00 -1.79957E+01 -9.87777E-03 -2.17948E+01 +2.96889E+00 -2.18338E+01 +6.71107E+00 -1.80252E+01
 +1.08125E+01 -1.07500E+01 +1.47685E+01 -8.05091E-01 +1.80127E+01 +1.06971E+01 +1.99724E+01 +2.24647E+01
 +2.01350E+01 +3.31795E+01 +1.81183E+01 +4.16495E+01 +1.37351E+01 +4.69408E+01 +7.04264E+00 +4.84760E+01
 -1.63254E+00 +4.60866E+01 -1.17001E+01 +4.00159E+01 -2.23457E+01 +3.08754E+01 -3.26021E+01 +1.95606E+01
 -4.14471E+01 +7.13975E+00 -4.79165E+01 -5.27044E+00 -5.12196E+01 -1.66257E+01 -5.08433E+01 -2.60586E+01
 -4.66286E+01 -3.29543E+01 -3.88105E+01 -3.69925E+01 -2.80125E+01 -3.81517E+01 -1.51936E+01 -3.66811E+01
 -1.55335E+00 -3.30446E+01 +1.15963E+01 -2.78485E+01 +2.29778E+01 -2.17620E+01 +3.14952E+01 -1.54422E+01
 +3.63646E+01 -9.47101E+00 +3.72097E+01 -4.31013E+00 +3.41113E+01 -2.76979E-01 +2.76025E+01 +2.46006E+00
 +1.86093E+01 +3.86982E+00 +8.34307E+00 +4.03545E+00 -1.84310E+00 +3.12626E+00 -1.06159E+01 +1.36975E+00
 -1.68227E+01 -9.72144E-01 -1.96308E+01 -3.62045E+00 -1.86293E+01 -6.29017E+00 -1.38789E+01 -8.69673E+00
 -5.90532E+00 -1.05611E+01 +4.36348E+00 -1.16165E+01 +1.57088E+01 -1.16206E+01 +2.67667E+01 -1.03731E+01
 +3.61907E+01 -7.74023E+00 +4.28094E+01 -3.68151E+00 +4.57633E+01 +1.72340E+00 +4.46013E+01 +8.25502E+00
 +3.93276E+01 +1.55462E+01 +3.03950E+01 +2.30912E+01 +1.86445E+01 +3.02746E+01 +5.20259E+00 +3.64199E+01
 -8.65213E+00 +4.08545E+01 -2.16353E+01 +4.29852E+01 -3.25979E+01 +4.23752E+01 -4.06458E+01 +3.88121E+01
 -4.52248E+01 +3.23572E+01 -4.61616E+01 +2.33665E+01 -4.36603E+01 +1.24786E+01 -3.82545E+01 +5.67014E-01
 -3.07268E+01 -1.13399E+01 -2.20041E+01 -2.21644E+01 -1.30462E+01 -3.08974E+01 -4.73839E+00 -3.67166E+01
