 Created: 19-Jan-2021
 $NMID
 ID='D:\BASISSIMULATI'
 FMTDAT='(8E13.5)'
 VOLUME=   1.00000E+00
 TRAMP=   1.00000E+00
 $END
 +2.49234E+01 +3.81618E+00 +2.41084E+01 +7.31609E+00 +2.28050E+01 +1.06619E+01 +2.10404E+01 +1.37859E+01
 +1.88512E+01 +1.66249E+01 +1.62825E+01 +1.91218E+01 +1.33871E+01 +2.12264E+01 +1.02243E+01 +2.28965E+01
 +6.85884E+00 +2.40989E+01 +3.35931E+00 +2.48098E+01 -2.02973E-01 +2.50158E+01 -3.75554E+00 +2.47132E+01
 -7.22624E+00 +2.39092E+01 -1.05447E+01 +2.26207E+01 -1.36438E+01 +2.08748E+01 -1.64609E+01 +1.87076E+01
 -1.89391E+01 +1.61638E+01 -2.10288E+01 +1.32956E+01 -2.26881E+01 +1.01619E+01 -2.38839E+01 +6.82673E+00
 -2.45927E+01 +3.35809E+00 -2.48008E+01 -1.73312E-01 -2.45048E+01 -3.69565E+00 -2.37115E+01 -7.13740E+00
 -2.24379E+01 -1.04288E+01 -2.07104E+01 -1.35031E+01 -1.85650E+01 -1.62984E+01 -1.60459E+01 -1.87582E+01
 -1.32047E+01 -2.08331E+01 -1.00998E+01 -2.24816E+01 -6.79465E+00 -2.36708E+01 -3.35665E+00 -2.43773E+01
 +1.44145E-01 -2.45876E+01 +3.63652E+00 -2.42981E+01 +7.04954E+00 -2.35155E+01 +1.03140E+01 -2.22565E+01
 +1.33638E+01 -2.05473E+01 +1.61374E+01 -1.84235E+01 +1.85789E+01 -1.59287E+01 +2.06391E+01 -1.31144E+01
 +2.22769E+01 -1.00380E+01 +2.34596E+01 -6.76261E+00 +2.41639E+01 -3.35497E+00 +2.43763E+01 +1.15468E-01
 +2.40931E+01 +3.57812E+00 +2.33211E+01 +6.96265E+00 +2.20765E+01 +1.02004E+01 +2.03855E+01 +1.32260E+01
 +1.82830E+01 +1.59781E+01 +1.58125E+01 +1.84013E+01 +1.30246E+01 +2.04469E+01 +9.97653E+00 +2.20740E+01
 +6.73062E+00 +2.32502E+01 +3.35308E+00 +2.39523E+01 -8.72726E-02 +2.41667E+01 -3.52045E+00 +2.38899E+01
 -6.87673E+00 +2.31282E+01 -1.00881E+01 +2.18980E+01 -1.30894E+01 +2.02249E+01 -1.58202E+01 +1.81435E+01
 -1.82253E+01 +1.56970E+01 -2.02565E+01 +1.29354E+01 -2.18730E+01 +9.91534E+00 -2.30427E+01 +6.69866E+00
 -2.37425E+01 +3.35096E+00 -2.39589E+01 -5.95539E-02 -2.36883E+01 -3.46350E+00 -2.29369E+01 -6.79176E+00
 -2.17209E+01 -9.97683E+00 -2.00655E+01 -1.29542E+01 -1.80051E+01 -1.56639E+01 -1.55823E+01 -1.80510E+01
 -1.28467E+01 -2.00678E+01 -9.85445E+00 -2.16738E+01 -6.66675E+00 -2.28370E+01 -3.34863E+00 -2.35345E+01
 +3.23056E-02 -2.37528E+01 +3.40727E+00 -2.34884E+01 +6.70773E+00 -2.27472E+01 +9.86676E+00 -2.15451E+01
 +1.28204E+01 -1.99073E+01 +1.55090E+01 -1.78677E+01 +1.78784E+01 -1.54683E+01 +1.98808E+01 -1.27586E+01
 +2.14763E+01 -9.79386E+00 +2.26331E+01 -6.63488E+00 +2.33283E+01 -3.34608E+00 +2.35485E+01 +5.52166E-03
 +2.32901E+01 +3.35175E+00 +2.25590E+01 +6.62465E+00 +2.13708E+01 +9.75784E+00 +1.97504E+01 +1.26879E+01
 +1.77313E+01 +1.53557E+01 +1.53552E+01 +1.77073E+01 +1.26710E+01 +1.96956E+01 +9.73357E+00 +2.12806E+01
 +6.60306E+00 +2.24310E+01 +3.34333E+00 +2.31239E+01 +2.08039E-02 +2.33459E+01 -3.29693E+00 +2.30935E+01
 -6.54248E+00 +2.23723E+01 -9.65005E+00 +2.11978E+01 -1.25567E+01 +1.95946E+01 -1.52038E+01 +1.75959E+01
 -1.75378E+01 +1.52429E+01 -1.95120E+01 +1.25840E+01 -2.10867E+01 +9.67358E+00 -2.22306E+01 +6.57128E+00
 -2.29212E+01 +3.34037E+00 -2.31451E+01 +4.66769E-02 -2.28985E+01 -3.24279E+00 -2.21871E+01 -6.46123E+00
 -2.10262E+01 -9.54337E+00 -1.94401E+01 -1.24268E+01 -1.74615E+01 -1.50533E+01 -1.51313E+01 -1.73699E+01
 -1.24975E+01 -1.93301E+01 -9.61389E+00 -2.08945E+01 -6.53956E+00 -2.20321E+01 -3.33721E+00 -2.27203E+01
 -7.21032E-02 -2.29459E+01 +3.18934E+00 -2.27051E+01 +6.38089E+00 -2.20035E+01 +9.43781E+00 -2.08560E+01
 +1.22982E+01 -1.92867E+01 +1.49043E+01 -1.73281E+01 +1.72036E+01 -1.50205E+01 +1.91498E+01 -1.24115E+01
 +2.07040E+01 -9.55450E+00 +2.18352E+01 -6.50788E+00 +2.25211E+01 -3.33386E+00 +2.27484E+01 -9.70885E-02
 +2.25133E+01 +3.13657E+00 +2.18213E+01 +6.30144E+00 +2.06871E+01 +9.33335E+00 +1.91345E+01 +1.21709E+01
 +1.71956E+01 +1.47568E+01 +1.49105E+01 +1.70389E+01 +1.23261E+01 +1.89713E+01 +9.49541E+00 +2.05153E+01
 +6.47626E+00 +2.16401E+01 +3.33031E+00 +2.23236E+01 +1.21639E-01 +2.25526E+01 -3.08446E+00 +2.23232E+01
 -6.22288E+00 +2.16406E+01 -9.22997E+00 +2.05196E+01 -1.20449E+01 +1.89835E+01 -1.46107E+01 +1.70642E+01
 -1.68756E+01 +1.48013E+01 -1.87943E+01 +1.22413E+01 -2.03282E+01 +9.43662E+00 -2.14467E+01 +6.44470E+00
 -2.21279E+01 +3.32657E+00 -2.23585E+01 +1.45759E-01 -2.21346E+01 -3.03302E+00 -2.14614E+01 -6.14520E+00
 -2.03533E+01 -9.12767E+00 -1.88336E+01 -1.19200E+01 -1.69337E+01 -1.44659E+01 -1.46928E+01 -1.67140E+01
 -1.21569E+01 -1.86190E+01 -9.37812E+00 -2.01428E+01 -6.41319E+00 -2.12550E+01 -3.32264E+00 -2.19338E+01
 -1.69455E-01 -2.21660E+01 +2.98223E+00 -2.19475E+01 +6.06838E+00 -2.12836E+01 +9.02643E+00 -2.01884E+01
 +1.17965E+01 -1.86849E+01 +1.43226E+01 -1.68041E+01 +1.65538E+01 -1.45850E+01 +1.84452E+01 -1.20731E+01
 +1.99590E+01 -9.31992E+00 +2.10650E+01 -6.38174E+00 +2.17414E+01 -3.31853E+00 +2.19751E+01 -1.92732E-01
 +2.17620E+01 +2.93208E+00 +2.11073E+01 +5.99243E+00 +2.00248E+01 +8.92625E+00 +1.85373E+01 +1.16742E+01
 +1.66756E+01 +1.41806E+01 +1.44780E+01 +1.63951E+01 +1.19898E+01 +1.82731E+01 +9.26202E+00 +1.97769E+01
 +6.35034E+00 +2.08767E+01 +3.31425E+00 +2.15507E+01 +2.15597E-01 +2.17858E+01 -2.88257E+00 +2.15781E+01
 -5.91732E+00 +2.09324E+01 -8.82711E+00 +1.98625E+01 -1.15530E+01 +1.83908E+01 -1.40400E+01 +1.65479E+01
 -1.62379E+01 +1.43718E+01 -1.81025E+01 +1.19071E+01 -1.95964E+01 +9.20441E+00 -2.06900E+01 +6.31901E+00
 -2.13616E+01 +3.30978E+00 -2.15982E+01 +2.38053E-01 -2.13957E+01 -2.83369E+00 -2.07589E+01 -5.84306E+00
 -1.97015E+01 -8.72901E+00 -1.82455E+01 -1.14331E+01 -1.64212E+01 -1.39008E+01 -1.42662E+01 -1.60822E+01
 -1.18248E+01 -1.79335E+01 -9.14709E+00 -1.94176E+01 -6.28774E+00 -2.05049E+01 -3.30515E+00 -2.11741E+01
 -2.60107E-01 -2.14121E+01 +2.78544E+00 -2.12148E+01 +5.76963E+00 -2.05869E+01 +8.63193E+00 -1.95417E+01
 +1.13144E+01 -1.81013E+01 +1.37628E+01 -1.62955E+01 +1.59279E+01 -1.41615E+01 +1.77660E+01 -1.17431E+01
 +1.92403E+01 -9.09007E+00 +2.03215E+01 -6.25653E+00 +2.09883E+01 -3.30034E+00 +2.12276E+01 -2.81763E-01
 +2.10354E+01 +2.73780E+00 +2.04162E+01 +5.69702E+00 +1.93833E+01 +8.53587E+00 +1.79582E+01 +1.11969E+01
 +1.61706E+01 +1.36263E+01 +1.40574E+01 +1.57751E+01 +1.16619E+01 +1.76000E+01 +9.03334E+00 +1.90647E+01
 +6.22538E+00 +2.01397E+01 +3.29537E+00 +2.08040E+01 +3.03027E-01 +2.10447E+01 -2.69078E+00 +2.08575E+01
 -5.62522E+00 +2.02469E+01 -8.44080E+00 +1.92260E+01 -1.10805E+01 +1.78162E+01 -1.34910E+01 +1.60467E+01
 -1.56237E+01 +1.39541E+01 -1.74356E+01 +1.15812E+01 -1.88906E+01 +8.97690E+00 -1.99595E+01 +6.19430E+00
 -2.06214E+01 +3.29024E+00 -2.08633E+01 +3.23904E-01 -2.06811E+01 -2.64435E+00 -2.00790E+01 -5.55424E+00
 -1.90701E+01 -8.34673E+00 -1.76753E+01 -1.09653E+01 -1.59237E+01 -1.33570E+01 -1.38515E+01 -1.54737E+01
 -1.15011E+01 -1.72727E+01 -8.92075E+00 -1.87180E+01 -6.16328E+00 -1.97809E+01 -3.28494E+00 -2.04403E+01
 -3.44399E-01 -2.06834E+01 +2.59853E+00 -2.05061E+01 +5.48405E+00 -1.99125E+01 +8.25365E+00 -1.89153E+01
 +1.08512E+01 -1.75355E+01 +1.32244E+01 -1.58017E+01 +1.53251E+01 -1.37496E+01 +1.71113E+01 -1.14214E+01
 +1.85471E+01 -8.86490E+00 +1.96039E+01 -6.13233E+00 +2.02608E+01 -3.27949E+00 +2.05051E+01 -3.64518E-01
 +2.03326E+01 +2.55329E+00 +1.97473E+01 +5.41465E+00 +1.87618E+01 +8.16154E+00 +1.73968E+01 +1.07383E+01
 +1.56805E+01 +1.30930E+01 +1.36484E+01 +1.51779E+01 +1.13422E+01 +1.69513E+01 +8.80933E+00 +1.83776E+01
 +6.10146E+00 +1.94284E+01 +3.27389E+00 +2.00828E+01 +3.84264E-01 +2.03283E+01 -2.50863E+00 +2.01605E+01
 -5.34603E+00 +1.95835E+01 -8.07039E+00 +1.86095E+01 -1.06265E+01 +1.72591E+01 -1.29628E+01 +1.55602E+01
 -1.50321E+01 +1.35479E+01 -1.67928E+01 +1.12636E+01 -1.82097E+01 +8.75406E+00 -1.92544E+01 +6.07065E+00
 -1.99064E+01 +3.26814E+00 -2.01530E+01 +4.03642E-01 -1.99899E+01 -2.46456E+00 -1.94209E+01 -5.27819E+00
 -1.84584E+01 -7.98019E+00 -1.71225E+01 -1.05159E+01 -1.54408E+01 -1.28339E+01 -1.34481E+01 -1.48877E+01
 -1.11854E+01 -1.66358E+01 -8.69907E+00 -1.80433E+01 -6.03991E+00 -1.90820E+01 -3.26224E+00 -1.97315E+01
 -4.22659E-01 -1.99792E+01 +2.42105E+00 -1.98207E+01 +5.21111E+00 -1.92598E+01 +7.89094E+00 -1.83085E+01
 +1.04063E+01 -1.69869E+01 +1.27063E+01 -1.53223E+01 +1.47446E+01 -1.33491E+01 +1.64802E+01 -1.11078E+01
 +1.78783E+01 -8.64436E+00 +1.89111E+01 -6.00924E+00 +1.95581E+01 -3.25619E+00 +1.98068E+01 -4.41318E-01
 +1.96528E+01 +2.37810E+00 +1.90999E+01 +5.14479E+00 +1.81598E+01 +7.80263E+00 +1.68524E+01 +1.02978E+01
 +1.52047E+01 +1.25799E+01 +1.32507E+01 +1.46029E+01 +1.10306E+01 +1.63260E+01 +8.58995E+00 +1.77149E+01
 +5.97865E+00 +1.87417E+01 +3.25000E+00 +1.93862E+01 +4.59624E-01 +1.96360E+01 -2.33571E+00 +1.94864E+01
 -5.07921E+00 +1.89413E+01 -7.71524E+00 +1.80123E+01 -1.01904E+01 +1.67189E+01 -1.24547E+01 +1.50879E+01
 -1.44625E+01 +1.31530E+01 -1.61733E+01 +1.09539E+01 -1.75529E+01 +8.53582E+00 -1.85738E+01 +5.94813E+00
 -1.92158E+01 +3.24368E+00 -1.94665E+01 +4.77582E-01 -1.93214E+01 -2.29387E+00 -1.87840E+01 -5.01438E+00
 -1.78660E+01 -7.62877E+00 -1.65864E+01 -1.00841E+01 -1.49720E+01 -1.23307E+01 -1.30560E+01 -1.43234E+01
 -1.08777E+01 -1.60219E+01 -8.48198E+00 -1.73924E+01 -5.91769E+00 -1.84074E+01 -3.23722E+00 -1.90469E+01
 -4.95196E-01 -1.92985E+01 +2.25258E+00 -1.91577E+01 +4.95028E+00 -1.86280E+01 +7.54320E+00 -1.77208E+01
 +9.97883E+00 -1.64550E+01 +1.22079E+01 -1.48569E+01 +1.41856E+01 -1.29596E+01 +1.58719E+01 -1.08020E+01
 +1.72333E+01 -8.42842E+00 +1.82424E+01 -5.88732E+00 +1.88794E+01 -3.23062E+00 +1.91319E+01 -5.12472E-01
 +1.89954E+01 +2.21182E+00 +1.84733E+01 +4.88691E+00 +1.75767E+01 +7.45853E+00 +1.63246E+01 +9.87462E+00
 +1.47428E+01 +1.20863E+01 +1.28640E+01 +1.40491E+01 +1.07268E+01 +1.57233E+01 +8.37514E+00 +1.70756E+01
 +5.85703E+00 +1.80789E+01 +3.22390E+00 +1.87134E+01 +5.29413E-01 +1.89668E+01 -2.17160E+00 +1.88345E+01
 -4.82425E+00 +1.83198E+01 -7.37476E+00 +1.74339E+01 -9.77145E+00 +1.61952E+01 -1.19659E+01 +1.46294E+01
 -1.39139E+01 +1.27690E+01 -1.55761E+01 +1.06521E+01 -1.69194E+01 +8.32214E+00 -1.79169E+01 +5.82681E+00
 -1.85488E+01 +3.21704E+00 -1.88030E+01 +5.46023E-01 -1.86749E+01 -2.13190E+00 -1.81676E+01 -4.76231E+00
