 Created: 19-Jan-2021
 $NMID
 ID='D:\BASISSIMULATI'
 FMTDAT='(8E13.5)'
 VOLUME=   1.00000E+00
 TRAMP=   1.00000E+00
 $END
 +6.34352E+01 +1.08696E+01 +5.63919E+01 +2.90212E+01 +4.37732E+01 +4.33662E+01 +2.74942E+01 +5.22074E+01
 +9.93328E+00 +5.47668E+01 -6.49163E+00 +5.12709E+01 -1.97320E+01 +4.28503E+01 -2.84272E+01 +3.12809E+01
 -3.20745E+01 +1.86249E+01 -3.10287E+01 +6.84932E+00 -2.63428E+01 -2.50453E+00 -1.94941E+01 -8.53725E+00
 -1.20602E+01 -1.10624E+01 -5.41555E+00 -1.05308E+01 -5.07674E-01 -7.83938E+00 +2.24879E+00 -4.07649E+00
 +2.95066E+00 -2.65704E-01 +2.07782E+00 +2.83591E+00 +2.99652E-01 +4.84622E+00 -1.73085E+00 +5.75956E+00
 -3.54423E+00 +5.85397E+00 -4.94604E+00 +5.53812E+00 -6.01725E+00 +5.18380E+00 -7.03206E+00 +4.99000E+00
 -8.32207E+00 +4.91299E+00 -1.01279E+01 +4.67829E+00 -1.24803E+01 +3.86786E+00 -1.51444E+01 +2.05666E+00
 -1.76413E+01 -1.03948E+00 -1.93447E+01 -5.44526E+00 -1.96250E+01 -1.08691E+01 -1.80084E+01 -1.67246E+01
 -1.43077E+01 -2.22275E+01 -8.69384E+00 -2.65464E+01 -1.68846E+00 -2.89710E+01 +5.92158E+00 -2.90610E+01
 +1.32293E+01 -2.67377E+01 +1.93788E+01 -2.23008E+01 +2.37244E+01 -1.63638E+01 +2.59413E+01 -9.72678E+00
 +2.60652E+01 -3.21348E+00 +2.44537E+01 +2.48702E+00 +2.16804E+01 +6.94054E+00 +1.83901E+01 +1.00231E+01
 +1.51490E+01 +1.19017E+01 +1.23255E+01 +1.29489E+01 +1.00291E+01 +1.36141E+01 +8.11964E+00 +1.42852E+01
 +6.28114E+00 +1.51744E+01 +4.14120E+00 +1.62576E+01 +1.40385E+00 +1.72793E+01 -2.03787E+00 +1.78246E+01
 -6.03848E+00 +1.74368E+01 -1.02025E+01 +1.57539E+01 -1.39541E+01 +1.26287E+01 -1.66577E+01 +8.20305E+00
 -1.77637E+01 +2.91663E+00 -1.69442E+01 -2.55463E+00 -1.41873E+01 -7.41786E+00 -9.82847E+00 -1.09157E+01
 -4.50834E+00 -1.24791E+01 +9.33171E-01 -1.18468E+01 +5.60687E+00 -9.12718E+00 +8.73642E+00 -4.78747E+00
 +9.79991E+00 +4.25940E-01 +8.62258E+00 +5.61997E+00 +5.40318E+00 +9.91267E+00 +6.70952E-01 +1.25848E+01
 -4.81583E+00 +1.31956E+01 -1.02073E+01 +1.16433E+01 -1.47067E+01 +8.16072E+00 -1.76948E+01 +3.25288E+00
 -1.88117E+01 -2.40736E+00 -1.79846E+01 -8.10140E+00 -1.54027E+01 -1.31796E+01 -1.14504E+01 -1.71471E+01
 -6.61853E+00 -1.97090E+01 -1.41336E+00 -2.07711E+01 +3.71577E+00 -2.04054E+01 +8.41971E+00 -1.87942E+01
 +1.24597E+01 -1.61699E+01 +1.56901E+01 -1.27671E+01 +1.80257E+01 -8.79663E+00 +1.94075E+01 -4.44360E+00
 +1.97805E+01 +1.14551E-01 +1.90912E+01 +4.68189E+00 +1.73059E+01 +9.02211E+00 +1.44434E+01 +1.28526E+01
 +1.06118E+01 +1.58608E+01 +6.03468E+00 +1.77436E+01 +1.05679E+00 +1.82604E+01 -3.87881E+00 +1.72903E+01
 -8.28073E+00 +1.48760E+01 -1.16790E+01 +1.12438E+01 -1.37015E+01 +6.79069E+00 -1.41401E+01 +2.03718E+00
 -1.29938E+01 -2.44544E+00 -1.04759E+01 -6.12200E+00 -6.98435E+00 -8.57679E+00 -3.03948E+00 -9.57744E+00
 +7.99791E-01 -9.10676E+00 +4.02423E+00 -7.35663E+00 +6.25068E+00 -4.68612E+00 +7.27242E+00 -1.55307E+00
 +7.07530E+00 +1.56651E+00 +5.81880E+00 +4.25496E+00 +3.78865E+00 +6.21097E+00 +1.33284E+00 +7.27961E+00
 -1.20434E+00 +7.45132E+00 -3.53655E+00 +6.83393E+00 -5.46810E+00 +5.60734E+00 -6.90101E+00 +3.97325E+00
 -7.81896E+00 +2.11253E+00 -8.25578E+00 +1.59366E-01 -8.25933E+00 -1.80361E+00 -7.86200E+00 -3.73101E+00
 -7.06611E+00 -5.58801E+00 -5.84797E+00 -7.32122E+00 -4.17899E+00 -8.83748E+00 -2.05682E+00 -9.99846E+00
 +4.63042E-01 -1.06345E+01 +3.24568E+00 -1.05759E+01 +6.07326E+00 -9.69414E+00 +8.66346E+00 -7.94378E+00
 +1.07079E+01 -5.39291E+00 +1.19237E+01 -2.23385E+00 +1.21077E+01 +1.23105E+00 +1.11807E+01 +4.62755E+00
 +9.21257E+00 +7.56543E+00 +6.41989E+00 +9.70139E+00 +3.13742E+00 +1.07966E+01 -2.33562E-01 +1.07568E+01
 -3.28928E+00 +9.64740E+00 -5.68778E+00 +7.67969E+00 -7.20105E+00 +5.17144E+00 -7.74498E+00 +2.49015E+00
 -7.38236E+00 -9.88714E-03 -6.29920E+00 -2.04417E+00 -4.76061E+00 -3.43749E+00 -3.05609E+00 -4.13972E+00
 -1.44583E+00 -4.21659E+00 -1.18909E-01 -3.81910E+00 +8.29195E-01 -3.13995E+00 +1.39673E+00 -2.36727E+00
 +1.65566E+00 -1.64593E+00 +1.71792E+00 -1.05430E+00 +1.69704E+00 -6.00332E-01 +1.67461E+00 -2.35965E-01
 +1.67946E+00 +1.15045E-01 +1.68370E+00 +5.23967E-01 +1.61579E+00 +1.02733E+00 +1.38650E+00 +1.60819E+00
 +9.20644E-01 +2.19298E+00 +1.86420E-01 +2.66479E+00 -7.85275E-01 +2.88963E+00 -1.89647E+00 +2.74949E+00
 -2.99416E+00 +2.17426E+00 -3.89635E+00 +1.16484E+00 -4.42652E+00 -1.97845E-01 -4.44904E+00 -1.76045E+00
 -3.89793E+00 -3.31997E+00 -2.79304E+00 -4.65699E+00 -1.24017E+00 -5.57276E+00 +5.84440E-01 -5.92263E+00
 +2.46208E+00 -5.63951E+00 +4.16618E+00 -4.74326E+00 +5.49669E+00 -3.33492E+00 +6.30807E+00 -1.57787E+00
 +6.52622E+00 +3.29689E-01 +6.15238E+00 +2.18507E+00 +5.25480E+00 +3.80860E+00 +3.95126E+00 +5.06370E+00
 +2.38703E+00 +5.86704E+00 +7.13022E-01 +6.18875E+00 -9.31718E-01 +6.04476E+00 -2.43100E+00 +5.48450E+00
 -3.69543E+00 +4.57798E+00 -4.66081E+00 +3.40519E+00 -5.28359E+00 +2.04989E+00 -5.53641E+00 +5.97797E-01
 -5.40607E+00 -8.62167E-01 -4.89523E+00 -2.23609E+00 -4.02733E+00 -3.42533E+00 -2.85301E+00 -4.33089E+00
 -1.45507E+00 -4.86273E+00 +5.08250E-02 -4.95295E+00 +1.52205E+00 -4.57056E+00 +2.80223E+00 -3.73423E+00
 +3.74070E+00 -2.51936E+00 +4.21547E+00 -1.05647E+00 +4.15531E+00 +4.80402E-01 +3.55658E+00 +1.89482E+00
 +2.49050E+00 +2.99567E+00 +1.09852E+00 +3.62709E+00 -4.24819E-01 +3.69517E+00 -1.85926E+00 +3.18621E+00
 -2.99242E+00 +2.17265E+00 -3.65376E+00 +8.04703E-01 -3.74296E+00 -7.11436E-01 -3.24741E+00 -2.14560E+00
 -2.24532E+00 -3.28044E+00 -8.93485E-01 -3.94678E+00 +5.98315E-01 -4.05103E+00 +2.00205E+00 -3.59000E+00
 +3.10920E+00 -2.65029E+00 +3.76488E+00 -1.39227E+00 +3.89245E+00 -2.18027E-02 +3.50423E+00 +1.24555E+00
 +2.69672E+00 +2.22114E+00 +1.63147E+00 +2.77446E+00 +5.05051E-01 +2.85344E+00 -4.86087E-01 +2.49066E+00
 -1.17985E+00 +1.79468E+00 -1.47571E+00 +9.28318E-01 -1.35046E+00 +7.82815E-02 -8.60136E-01 -5.78637E-01
 -1.28086E-01 -9.06666E-01 +6.78160E-01 -8.34325E-01 +1.37709E+00 -3.66144E-01 +1.80515E+00 +4.18779E-01
 +1.84496E+00 +1.38071E+00 +1.44548E+00 +2.34302E+00 +6.30985E-01 +3.12159E+00 -5.02252E-01 +3.55497E+00
 -1.80047E+00 +3.53065E+00 -3.07574E+00 +3.00339E+00 -4.13419E+00 +2.00332E+00 -4.80487E+00 +6.32710E-01
 -4.96520E+00 -9.47617E-01 -4.55939E+00 -2.54010E+00 -3.60762E+00 -3.93735E+00 -2.20493E+00 -4.95045E+00
 -5.10066E-01 -5.43493E+00 +1.27414E+00 -5.31118E+00 +2.92646E+00 -4.57672E+00 +4.23581E+00 -3.30882E+00
 +5.02932E+00 -1.65682E+00 +5.19636E+00 +1.74943E-01 +4.70545E+00 +1.95208E+00 +3.61162E+00 +3.44006E+00
 +2.05277E+00 +4.43568E+00 +2.34683E-01 +4.79606E+00 -1.59401E+00 +4.46124E+00 -3.17447E+00 +3.46662E+00
 -4.27387E+00 +1.94289E+00 -4.72039E+00 +1.02122E-01 -4.43164E+00 -1.78901E+00 -3.43174E+00 -3.44612E+00
 -1.85334E+00 -4.60927E+00 +7.71319E-02 -5.08431E+00 +2.07001E+00 -4.77653E+00 +3.81514E+00 -3.71069E+00
 +5.03061E+00 -2.03277E+00 +5.50987E+00 +8.13780E-03 +5.15893E+00 +2.09617E+00 +4.01667E+00 +3.89835E+00
 +2.25351E+00 +5.11974E+00 +1.47375E-01 +5.55467E+00 -1.96006E+00 +5.12487E+00 -3.72013E+00 +3.89696E+00
 -4.83733E+00 +2.07502E+00 -5.12228E+00 -3.13068E-02 -4.52751E+00 -2.05858E+00 -3.15888E+00 -3.65245E+00
 -1.25995E+00 -4.53046E+00 +8.28779E-01 -4.53348E+00 +2.72878E+00 -3.65587E+00 +4.09010E+00 -2.04858E+00
 +4.65362E+00 +5.70524E-03 +4.29752E+00 +2.14116E+00 +3.05954E+00 +3.97226E+00 +1.13094E+00 +5.16053E+00
 -1.17624E+00 +5.47257E+00 -3.48246E+00 +4.81906E+00 -5.40433E+00 +3.26830E+00 -6.61720E+00 +1.03273E+00
 -6.90568E+00 -1.56788E+00 -6.19403E+00 -4.15917E+00 -4.55259E+00 -6.37060E+00 -2.18111E+00 -7.88937E+00
 +6.26202E-01 -8.50125E+00 +3.52602E+00 -8.11325E+00 +6.17314E+00 -6.75685E+00 +8.26192E+00 -4.57437E+00
 +9.55687E+00 -1.79375E+00 +9.91043E+00 +1.30217E+00 +9.26889E+00 +4.40615E+00 +7.66983E+00 +7.21324E+00
 +5.23463E+00 +9.44244E+00 +2.15919E+00 +1.08544E+01 -1.29595E+00 +1.12674E+01 -4.81739E+00 +1.05740E+01
 -8.05508E+00 +8.75860E+00 -1.06463E+01 +5.91445E+00 -1.22494E+01 +2.25551E+00 -1.25867E+01 -1.88267E+00
 -1.14924E+01 -6.05922E+00 -8.95762E+00 -9.76525E+00 -5.16181E+00 -1.24822E+01 -4.81711E-01 -1.37562E+01
 +4.53201E+00 -1.32779E+01 +9.21210E+00 -1.09532E+01 +1.28627E+01 -6.95047E+00 +1.48667E+01 -1.70909E+00
 +1.47955E+01 +4.09745E+00 +1.25005E+01 +9.64458E+00 +8.16677E+00 +1.40762E+01 +2.31405E+00 +1.66428E+01
 -4.26050E+00 +1.68349E+01 -1.05938E+01 +1.44861E+01 -1.57058E+01 +9.82346E+00 -1.87623E+01 +3.45340E+00
 -1.92216E+01 -3.72102E+00 -1.69370E+01 -1.06386E+01 -1.21956E+01 -1.62527E+01 -5.68015E+00 -1.97071E+01
 +1.63829E+00 -2.04836E+01 +8.66184E+00 -1.84928E+01 +1.43514E+01 -1.40892E+01 +1.79028E+01 -8.00852E+00
 +1.88809E+01 -1.23650E+00 +1.72861E+01 +5.16598E+00 +1.35415E+01 +1.02485E+01 +8.40415E+00 +1.33328E+01
 +2.81679E+00 +1.41199E+01 -2.26818E+00 +1.27248E+01 -6.06029E+00 +9.63206E+00 -8.06431E+00 +5.58548E+00
 -8.15134E+00 +1.43406E+00 -6.55626E+00 -2.03317E+00 -3.80584E+00 -4.23075E+00 -5.95045E-01 -4.87154E+00
 +2.36062E+00 -3.99659E+00 +4.46566E+00 -1.93803E+00 +5.34985E+00 +7.72976E-01 +4.91919E+00 +3.53025E+00
 +3.34602E+00 +5.78054E+00 +1.00551E+00 +7.12806E+00 -1.62351E+00 +7.39523E+00 -4.06827E+00 +6.63071E+00
 -5.95734E+00 +5.06782E+00 -7.08125E+00 +3.04809E+00 -7.40820E+00 +9.31189E-01 -7.05617E+00 -9.85612E-01
 -6.23337E+00 -2.51966E+00 -5.16600E+00 -3.61672E+00 -4.03432E+00 -4.32698E+00 -2.93436E+00 -4.75410E+00
 -1.87449E+00 -4.99522E+00 -8.05604E-01 -5.09156E+00 +3.26308E-01 -5.00615E+00 +1.52330E+00 -4.63656E+00
 +2.69447E+00 -3.86038E+00 +3.64703E+00 -2.60054E+00 +4.11717E+00 -8.90631E-01 +3.83717E+00 +1.08189E+00
 +2.62370E+00 +2.97251E+00 +4.64429E-01 +4.32523E+00 -2.42265E+00 +4.66277E+00 -5.57892E+00 +3.60492E+00
 -8.35542E+00 +9.88218E-01 -1.00213E+01 -3.04327E+00 -9.91277E+00 -8.00356E+00 -7.59388E+00 -1.31035E+01
 -2.99173E+00 -1.73644E+01 +3.52652E+00 -1.97902E+01 +1.11603E+01 -1.95683E+01 +1.87737E+01 -1.62573E+01
 +2.50745E+01 -9.92092E+00 +2.88432E+01 -1.17481E+00 +2.91709E+01 +8.87241E+00 +2.56561E+01 +1.87791E+01
 +1.85198E+01 +2.70076E+01 +8.60882E+00 +3.21959E+01 -2.71835E+00 +3.34118E+01 -1.38081E+01 +3.03401E+01
