 Created: 19-Jan-2021
 $NMID
 ID='D:\BASISSIMULATI'
 FMTDAT='(8E13.5)'
 VOLUME=   1.00000E+00
 TRAMP=   1.00000E+00
 $END
 +3.46020E+01 +5.29797E+00 +3.22424E+01 +1.28012E+01 +2.81739E+01 +1.94387E+01 +2.26932E+01 +2.48116E+01
 +1.61901E+01 +2.86187E+01 +9.11542E+00 +3.06781E+01 +1.94602E+00 +3.09373E+01 -4.85285E+00 +2.94745E+01
 -1.08626E+01 +2.64880E+01 -1.57423E+01 +2.22774E+01 -1.92518E+01 +1.72161E+01 -2.12672E+01 +1.17194E+01
 -2.17857E+01 +6.20979E+00 -2.09201E+01 +1.08277E+00 -1.88849E+01 -3.32423E+00 -1.59734E+01 -6.75676E+00
 -1.25297E+01 -9.06072E+00 -8.91687E+00 -1.01906E+01 -5.48451E+00 -1.02082E+01 -2.53897E+00 -9.27222E+00
 -3.17826E-01 -7.61948E+00 +1.02873E+00 -5.54037E+00 +1.44819E+00 -3.34985E+00 +9.87216E-01 -1.35720E+00
 -2.15934E-01 +1.62973E-01 -1.94689E+00 +9.95975E-01 -3.93732E+00 +1.00641E+00 -5.89151E+00 +1.50041E-01
 -7.51508E+00 -1.52280E+00 -8.54328E+00 -3.87235E+00 -8.76631E+00 -6.68258E+00 -8.04951E+00 -9.68122E+00
 -6.34682E+00 -1.25647E+01 -3.70619E+00 -1.50258E+01 -2.66700E-01 -1.67816E+01 +3.75235E+00 -1.75995E+01
 +8.06938E+00 -1.73186E+01 +1.23639E+01 -1.58651E+01 +1.63035E+01 -1.32600E+01 +1.95712E+01 -9.61932E+00
 +2.18927E+01 -5.14535E+00 +2.30590E+01 -1.11664E-01 +2.29440E+01 +5.15854E+00 +2.15157E+01 +1.03178E+01
 +1.88384E+01 +1.50217E+01 +1.50688E+01 +1.89561E+01 +1.04428E+01 +2.18610E+01 +5.25754E+00 +2.35509E+01
 -1.52223E-01 +2.39281E+01 -5.44002E+00 +2.29889E+01 -1.02742E+01 +2.08228E+01 -1.43630E+01 +1.76038E+01
 -1.74753E+01 +1.35750E+01 -1.94574E+01 +9.02841E+00 -2.02415E+01 +4.28154E+00 -1.98487E+01 -3.48153E-01
 -1.83835E+01 -4.56744E+00 -1.60229E+01 -8.12904E+00 -1.29992E+01 -1.08489E+01 -9.57933E+00 -1.26178E+01
 -6.04171E+00 -1.34063E+01 -2.65358E+00 -1.32632E+01 +3.50328E-01 -1.23072E+01 +2.78537E+00 -1.07135E+01
 +4.52968E+00 -8.69606E+00 +5.53104E+00 -6.48686E+00 +5.80753E+00 -4.31516E+00 +5.44203E+00 -2.38737E+00
 +4.57139E+00 -8.69767E-01 +3.37116E+00 +1.24475E-01 +2.03759E+00 +5.43210E-01 +7.68329E-01 +3.97444E-01
 -2.56345E-01 -2.42239E-01 -8.90094E-01 -1.25453E+00 -1.03360E+00 -2.48058E+00 -6.42972E-01 -3.74025E+00
 +2.67012E-01 -4.84992E+00 +1.62516E+00 -5.64023E+00 +3.31114E+00 -5.97224E+00 +5.16712E+00 -5.75049E+00
 +7.01268E+00 -4.93202E+00 +8.66144E+00 -3.53056E+00 +9.93822E+00 -1.61553E+00 +1.06949E+01 +6.93801E-01
 +1.08240E+01 +3.23856E+00 +1.02680E+01 +5.83389E+00 +9.02524E+00 +8.28469E+00 +7.14990E+00 +1.04022E+01
 +4.74803E+00 +1.20196E+01 +1.96878E+00 +1.30064E+01 -1.00778E+00 +1.32782E+01 -3.98521E+00 +1.28044E+01
 -6.76654E+00 +1.16092E+01 -9.16978E+00 +9.77023E+00 -1.10420E+01 +7.41092E+00 -1.22708E+01 +4.69065E+00
 -1.27922E+01 +1.79145E+00 -1.25943E+01 -1.09650E+00 -1.17170E+01 -3.78977E+00 -1.02469E+01 -6.12557E+00
 -8.30946E+00 -7.97352E+00 -6.05746E+00 -9.24442E+00 -3.65818E+00 -9.89540E+00 -1.27970E+00 -9.93106E+00
 +9.22228E-01 -9.40074E+00 +2.81576E+00 -8.39225E+00 +4.30209E+00 -7.02272E+00 +5.32131E+00 -5.42747E+00
 +5.85488E+00 -3.74790E+00 +5.92443E+00 -2.11954E+00 +5.58724E+00 -6.61155E-01 +4.92892E+00 +5.34110E-01
 +4.05414E+00 +1.40487E+00 +3.07608E+00 +1.92461E+00 +2.10583E+00 +2.10148E+00 +1.24256E+00 +1.97518E+00
 +5.65185E-01 +1.61099E+00 +1.26483E-01 +1.09204E+00 -5.02397E-02 +5.10227E-01 +2.84718E-02 -4.31734E-02
 +3.28604E-01 -4.86312E-01 +7.93495E-01 -7.54312E-01 +1.35056E+00 -8.04853E-01 +1.91921E+00 -6.21383E-01
 +2.41917E+00 -2.13764E-01 +2.77851E+00 +3.83610E-01 +2.94046E+00 +1.11595E+00 +2.86867E+00 +1.91398E+00
 +2.55026E+00 +2.70105E+00 +1.99662E+00 +3.40066E+00 +1.24189E+00 +3.94377E+00 +3.39344E-01 +4.27522E+00
 -6.43916E-01 +4.35858E+00 -1.63335E+00 +4.17923E+00 -2.55393E+00 +3.74523E+00 -3.33684E+00 +3.08618E+00
 -3.92552E+00 +2.25004E+00 -4.28030E+00 +1.29849E+00 -4.38141E+00 +3.01096E-01 -4.23005E+00 -6.70977E-01
 -3.84754E+00 -1.55119E+00 -3.27272E+00 -2.28318E+00 -2.55779E+00 -2.82524E+00 -1.76322E+00 -3.15314E+00
 -9.52026E-01 -3.26144E+00 -1.84221E-01 -3.16283E+00 +4.88329E-01 -2.88604E+00 +1.02595E+00 -2.47223E+00
 +1.40390E+00 -1.97049E+00 +1.61357E+00 -1.43291E+00 +1.66207E+00 -9.09519E-01 +1.57040E+00 -4.43827E-01
 +1.37038E+00 -6.91992E-02 +1.10068E+00 +1.93546E-01 +8.02494E-01 +3.37161E-01 +5.15151E-01 +3.67581E-01
 +2.72255E-01 +3.02225E-01 +9.86057E-02 +1.67222E-01 +8.23584E-03 -6.10033E-03 +3.70437E-03 -1.85071E-01
 +7.66604E-02 -3.39460E-01 +2.09569E-01 -4.44795E-01 +3.78370E-01 -4.84866E-01 +5.55745E-01 -4.53189E-01
 +7.14623E-01 -3.53298E-01 +8.31527E-01 -1.97874E-01 +8.89402E-01 -6.82032E-03 +8.79611E-01 +1.95454E-01
 +8.02897E-01 +3.83245E-01 +6.69211E-01 +5.32885E-01 +4.96437E-01 +6.25807E-01 +3.08153E-01 +6.51016E-01
 +1.30686E-01 +6.06662E-01 -1.02055E-02 +5.00548E-01 -9.26670E-02 +3.49488E-01 -1.01712E-01 +1.77586E-01
 -3.14782E-02 +1.35813E-02 +1.13491E-01 -1.12440E-01 +3.18112E-01 -1.72642E-01 +5.57820E-01 -1.44951E-01
 +8.00756E-01 -1.60946E-02 +1.01087E+00 +2.16175E-01 +1.15167E+00 +5.41933E-01 +1.19021E+00 +9.39187E-01
 +1.10094E+00 +1.37527E+00 +8.69039E-01 +1.80942E+00 +4.92746E-01 +2.19634E+00 -1.54011E-02 +2.49044E+00
 -6.28750E-01 +2.65031E+00 -1.30810E+00 +2.64304E+00 -2.00455E+00 +2.44792E+00 -2.66348E+00 +2.05920E+00
 -3.22916E+00 +1.48750E+00 -3.64981E+00 +7.59794E-01 -3.88235E+00 -8.21628E-02 -3.89668E+00 -9.84786E-01
 -3.67883E+00 -1.88684E+00 -3.23285E+00 -2.72445E+00 -2.58101E+00 -3.43646E+00 -1.76252E+00 -3.96981E+00
 -8.30544E-01 -4.28419E+00 +1.51942E-01 -4.35578E+00 +1.11738E+00 -4.17953E+00 +1.99928E+00 -3.76986E+00
 +2.73792E+00 -3.15957E+00 +3.28548E+00 -2.39721E+00 +3.61022E+00 -1.54287E+00 +3.69918E+00 -6.63007E-01
 +3.55933E+00 +1.75400E-01 +3.21681E+00 +9.10790E-01 +2.71451E+00 +1.49249E+00 +2.10805E+00 +1.88525E+00
 +1.46060E+00 +2.07236E+00 +8.36913E-01 +2.05711E+00 +2.97216E-01 +1.86238E+00 -1.08553E-01 +1.52838E+00
 -3.45602E-01 +1.10878E+00 -3.97759E-01 +6.65441E-01 -2.69236E-01 +2.62399E-01 +1.55287E-02 -4.05417E-02
 +4.13954E-01 -1.93892E-01 +8.69175E-01 -1.63708E-01 +1.31535E+00 +6.45381E-02 +1.68398E+00 +4.83831E-01
 +1.91061E+00 +1.06548E+00 +1.94139E+00 +1.76100E+00 +1.73885E+00 +2.50597E+00 +1.28629E+00 +3.22544E+00
 +5.90466E-01 +3.84052E+00 -3.17866E-01 +4.27557E+00 -1.38549E+00 +4.46538E+00 -2.54039E+00 +4.36153E+00
 -3.69723E+00 +3.93767E+00 -4.76416E+00 +3.19285E+00 -5.65046E+00 +2.15284E+00 -6.27430E+00 +8.69122E-01
 -6.56999E+00 -5.84350E-01 -6.49403E+00 -2.11639E+00 -6.02948E+00 -3.62543E+00 -5.18820E+00 -5.00743E+00
 -4.01067E+00 -6.16416E+00 -2.56350E+00 -7.01112E+00 -9.34725E-01 -7.48455E+00 +7.72791E-01 -7.54677E+00
 +2.44919E+00 -7.18945E+00 +3.98614E+00 -6.43456E+00 +5.28528E+00 -5.33277E+00 +6.26589E+00 -3.95956E+00
 +6.87112E+00 -2.40928E+00 +7.07233E+00 -7.87626E-01 +6.87100E+00 +7.96744E-01 +6.29829E+00 +2.24082E+00
 +5.41198E+00 +3.45535E+00 +4.29141E+00 +4.37169E+00 +3.03054E+00 +4.94689E+00 +1.72993E+00 +5.16663E+00
 +4.88249E-01 +5.04556E+00 -6.05936E-01 +4.62531E+00 -1.48140E+00 +3.97016E+00 -2.08989E+00 +3.16079E+00
 -2.40966E+00 +2.28675E+00 -2.44664E+00 +1.43820E+00 -2.23316E+00 +6.97793E-01 -1.82432E+00 +1.33196E-01
 -1.29231E+00 -2.08832E-01 -7.19330E-01 -3.06506E-01 -1.89578E-01 -1.64740E-01 +2.18901E-01 +1.85553E-01
 +4.41759E-01 +6.90555E-01 +4.34653E-01 +1.27874E+00 +1.77726E-01 +1.86770E+00 -3.22132E-01 +2.37206E+00
 -1.03147E+00 +2.71164E+00 -1.89286E+00 +2.81934E+00 -2.82976E+00 +2.64780E+00 -3.75312E+00 +2.17453E+00
 -4.56922E+00 +1.40472E+00 -5.18810E+00 +3.71736E-01 -5.53180E+00 -8.64941E-01 -5.54162E+00 -2.22406E+00
 -5.18392E+00 -3.60893E+00 -4.45383E+00 -4.91527E+00 -3.37654E+00 -6.03972E+00 -2.00604E+00 -6.88849E+00
 -4.21500E-01 -7.38536E+00 +1.27861E+00 -7.47823E+00 +2.98403E+00 -7.14379E+00 +4.58120E+00 -6.38991E+00
 +5.96225E+00 -5.25538E+00 +7.03337E+00 -3.80727E+00 +7.72228E+00 -2.13583E+00 +7.98377E+00 -3.47656E-01
 +7.80321E+00 +1.44254E+00 +7.19750E+00 +3.12079E+00 +6.21349E+00 +4.58252E+00 +4.92406E+00 +5.74048E+00
 +3.42209E+00 +6.53116E+00 +1.81294E+00 +6.91915E+00 +2.06067E-01 +6.89926E+00 -1.29362E+00 +6.49609E+00
 -2.59377E+00 +5.76125E+00 -3.62142E+00 +4.76839E+00 -4.32817E+00 +3.60659E+00 -4.69302E+00 +2.37259E+00
 -4.72306E+00 +1.16267E+00 -4.45162E+00 +6.47342E-02 -3.93442E+00 -8.48656E-01 -3.24377E+00 -1.52572E+00
 -2.46170E+00 -1.93899E+00 -1.67228E+00 -2.08660E+00 -9.54143E-01 -1.99137E+00 -3.73554E-01 -1.69768E+00
 +2.11227E-02 -1.26658E+00 +2.03285E-01 -7.69471E-01 +1.69891E-01 -2.81109E-01 -5.89101E-02 +1.27644E-01
 -4.42238E-01 +3.96507E-01 -9.22790E-01 +4.81424E-01 -1.43258E+00 +3.58628E-01 -1.89957E+00 +2.68130E-02
 -2.25468E+00 -4.92763E-01 -2.43834E+00 -1.15823E+00 -2.40629E+00 -1.91094E+00 -2.13392E+00 -2.68076E+00
 -1.61880E+00 -3.39245E+00 -8.81303E-01 -3.97243E+00 +3.68330E-02 -4.35551E+00 +1.07584E+00 -4.49077E+00
 +2.16279E+00 -4.34630E+00 +3.21769E+00 -3.91227E+00 +4.16009E+00 -3.20211E+00 +4.91582E+00 -2.25174E+00
 +5.42320E+00 -1.11683E+00 +5.63811E+00 +1.31516E-01 +5.53769E+00 +1.41237E+00 +5.12218E+00 +2.64140E+00
 +4.41492E+00 +3.73748E+00 +3.46043E+00 +4.62903E+00 +2.32078E+00 +5.25947E+00 +1.07064E+00 +5.59139E+00
 -2.08652E-01 +5.60916E+00 -1.43543E+00 +5.31965E+00 -2.53390E+00 +4.75122E+00 -3.43976E+00 +3.95097E+00
 -4.10473E+00 +2.98057E+00 -4.49968E+00 +1.91104E+00 -4.61606E+00 +8.16978E-01 -4.46573E+00 -2.29314E-01
 -4.07904E+00 -1.16330E+00 -3.50158E+00 -1.93282E+00 -2.78979E+00 -2.50150E+00 -2.00586E+00 -2.85070E+00
 -1.21246E+00 -2.97996E+00 -4.67652E-01 -2.90583E+00 +1.79557E-01 -2.65943E+00 +6.92634E-01 -2.28288E+00
 +1.04971E+00 -1.82495E+00 +1.24438E+00 -1.33645E+00 +1.28515E+00 -8.65656E-01 +1.19354E+00 -4.54256E-01
 +1.00123E+00 -1.34081E-01 +7.46439E-01 +7.50792E-02 +4.69856E-01 +1.66450E-01 +2.10679E-01 +1.46011E-01
 +2.94059E-03 +3.10823E-02 -1.27459E-01 -1.52074E-01 -1.64821E-01 -3.71346E-01 -1.04639E-01 -5.92267E-01
 +4.64992E-02 -7.81551E-01 +2.72064E-01 -9.10361E-01 +5.47627E-01 -9.57002E-01 +8.43568E-01 -9.08820E-01
 +1.12816E+00 -7.63165E-01 +1.37072E+00 -5.27369E-01 +1.54461E+00 -2.17767E-01 +1.62960E+00 +1.42077E-01
