 Created: 19-Jan-2021
 $NMID
 ID='D:\BASISSIMULATI'
 FMTDAT='(8E13.5)'
 VOLUME=   1.00000E+00
 TRAMP=   1.00000E+00
 $END
 +4.92619E+01 +9.45767E+00 +4.07597E+01 +2.90636E+01 +2.46687E+01 +4.29878E+01 +4.36359E+00 +4.84834E+01
 -1.59258E+01 +4.46696E+01 -3.20897E+01 +3.26991E+01 -4.10679E+01 +1.54429E+01 -4.15082E+01 -3.22275E+00
 -3.40012E+01 -1.93441E+01 -2.08451E+01 -2.98002E+01 -5.41528E+00 -3.29755E+01 +8.69277E+00 -2.90389E+01
 +1.85272E+01 -1.97775E+01 +2.24369E+01 -8.04815E+00 +2.03692E+01 +3.00094E+00 +1.37534E+01 +1.07295E+01
 +5.02109E+00 +1.36262E+01 -3.09489E+00 +1.16030E+01 -8.29248E+00 +5.90814E+00 -9.27506E+00 -1.30009E+00
 -6.03007E+00 -7.58834E+00 +2.43400E-01 -1.09181E+01 +7.51965E+00 -1.01751E+01 +1.35274E+01 -5.42891E+00
 +1.63663E+01 +2.12834E+00 +1.49975E+01 +1.05327E+01 +9.49015E+00 +1.75810E+01 +9.73556E-01 +2.13998E+01
 -8.67496E+00 +2.09043E+01 -1.73126E+01 +1.60381E+01 -2.30517E+01 +7.74714E+00 -2.46872E+01 -2.28554E+00
 -2.19322E+01 -1.20626E+01 -1.54205E+01 -1.97355E+01 -6.49709E+00 -2.39921E+01 +3.13245E+00 -2.42840E+01
 +1.17928E+01 -2.08556E+01 +1.81723E+01 -1.45945E+01 +2.15266E+01 -6.76280E+00 +2.17251E+01 +1.30756E+00
 +1.91551E+01 +8.47509E+00 +1.45363E+01 +1.39501E+01 +8.71135E+00 +1.73383E+01 +2.47286E+00 +1.85844E+01
 -3.53461E+00 +1.78596E+01 -8.83272E+00 +1.54460E+01 -1.30696E+01 +1.16582E+01 -1.59624E+01 +6.82306E+00
 -1.72615E+01 +1.30752E+00 -1.67635E+01 -4.43343E+00 -1.43732E+01 -9.82949E+00 -1.01919E+01 -1.42195E+01
 -4.59344E+00 -1.69403E+01 +1.75518E+00 -1.74653E+01 +7.95336E+00 -1.55570E+01 +1.30110E+01 -1.13818E+01
 +1.60496E+01 -5.54396E+00 +1.65109E+01 +9.88244E-01 +1.43138E+01 +7.05973E+00 +9.91037E+00 +1.15727E+01
 +4.21267E+00 +1.37384E+01 -1.59885E+00 +1.32698E+01 -6.34477E+00 +1.04591E+01 -9.12635E+00 +6.11339E+00
 -9.54228E+00 +1.35851E+00 -7.78303E+00 -2.64247E+00 -4.57399E+00 -4.98405E+00 -9.78508E-01 -5.24873E+00
 +1.88962E+00 -3.61041E+00 +3.16922E+00 -7.80622E-01 +2.48935E+00 +2.19060E+00 +7.64364E-02 +4.20825E+00
 -3.30018E+00 +4.44277E+00 -6.53258E+00 +2.57392E+00 -8.47625E+00 -1.09869E+00 -8.27075E+00 -5.71083E+00
 -5.59377E+00 -1.00434E+01 -7.79689E-01 -1.28345E+01 +5.23129E+00 -1.31131E+01 +1.11038E+01 -1.04694E+01
 +1.54264E+01 -5.18855E+00 +1.70589E+01 +1.78619E+00 +1.54217E+01 +9.05598E+00 +1.06526E+01 +1.50841E+01
 +3.59372E+00 +1.85517E+01 -4.39007E+00 +1.86645E+01 -1.17156E+01 +1.53366E+01 -1.69344E+01 +9.20857E+00
 -1.90499E+01 +1.49844E+00 -1.77254E+01 -6.27535E+00 -1.33358E+01 -1.26306E+01 -6.85921E+00 -1.64369E+01
 +3.61630E-01 -1.71382E+01 +6.92527E+00 -1.48362E+01 +1.16713E+01 -1.02222E+01 +1.39056E+01 -4.38461E+00
 +1.35039E+01 +1.45606E+00 +1.08818E+01 +6.21829E+00 +6.84620E+00 +9.17319E+00 +2.37710E+00 +1.00575E+01
 -1.60609E+00 +9.06957E+00 -4.43570E+00 +6.76168E+00 -5.80528E+00 +3.86553E+00 -5.78116E+00 +1.09995E+00
 -4.72523E+00 -9.91265E-01 -3.15907E+00 -2.13621E+00 -1.61013E+00 -2.35159E+00 -4.80307E-01 -1.88610E+00
 +3.37177E-02 -1.11484E+00 -4.45549E-02 -4.18165E-01 -5.15460E-01 -7.80798E-02 -1.08645E+00 -2.16139E-01
 -1.46735E+00 -7.82864E-01 -1.45111E+00 -1.59384E+00 -9.61190E-01 -2.39614E+00 -5.83114E-02 -2.94327E+00
 +1.08884E+00 -3.05778E+00 +2.25557E+00 -2.66755E+00 +3.21856E+00 -1.81092E+00 +3.80330E+00 -6.15296E-01
 +3.91155E+00 +7.40150E-01 +3.52674E+00 +2.06456E+00 +2.70178E+00 +3.18770E+00 +1.53772E+00 +3.97877E+00
 +1.62327E-01 +4.35194E+00 -1.28534E+00 +4.26327E+00 -2.66276E+00 +3.70580E+00 -3.82704E+00 +2.70807E+00
 -4.63864E+00 +1.33790E+00 -4.97107E+00 -2.90934E-01 -4.72888E+00 -2.01487E+00 -3.87208E+00 -3.62642E+00
 -2.44044E+00 -4.89418E+00 -5.68973E-01 -5.59735E+00 +1.51392E+00 -5.56960E+00 +3.51065E+00 -4.74241E+00
 +5.09994E+00 -3.17587E+00 +5.99636E+00 -1.06649E+00 +6.01120E+00 +1.27437E+00 +5.10000E+00 +3.46996E+00
 +3.38369E+00 +5.14731E+00 +1.13576E+00 +6.01147E+00 -1.26435E+00 +5.90815E+00 -3.40289E+00 +4.85938E+00
 -4.91348E+00 +3.06292E+00 -5.55061E+00 +8.54302E-01 -5.23824E+00 -1.36092E+00 -4.08232E+00 -3.18965E+00
 -2.34452E+00 -4.33006E+00 -3.83405E-01 -4.62931E+00 +1.42326E+00 -4.10753E+00 +2.75703E+00 -2.94379E+00
 +3.42074E+00 -1.42861E+00 +3.37063E+00 +1.04994E-01 +2.71300E+00 +1.35520E+00 +1.66830E+00 +2.11308E+00
 +5.12600E-01 +2.29901E+00 -4.88438E-01 +1.96735E+00 -1.13768E+00 +1.28063E+00 -1.34394E+00 +4.61439E-01
 -1.13185E+00 -2.64929E-01 -6.24099E-01 -7.23278E-01 -2.67535E-03 -8.24806E-01 +5.40159E-01 -5.80006E-01
 +8.48869E-01 -8.72776E-02 +8.38946E-01 +4.97910E-01 +5.11800E-01 +1.00442E+00 -5.13411E-02 +1.28696E+00
 -7.13144E-01 +1.25834E+00 -1.31451E+00 +9.06145E-01 -1.71090E+00 +2.91690E-01 -1.80271E+00 -4.66641E-01
 -1.55380E+00 -1.22058E+00 -9.95777E-01 -1.82291E+00 -2.18884E-01 -2.15559E+00 +6.47329E-01 -2.15009E+00
 +1.45855E+00 -1.79709E+00 +2.08062E+00 -1.14542E+00 +2.41071E+00 -2.91666E-01 +2.39192E+00 +6.36549E-01
 +2.02035E+00 +1.50055E+00 +1.34433E+00 +2.17084E+00 +4.56997E-01 +2.54520E+00 -5.16744E-01 +2.56288E+00
 -1.43713E+00 +2.21347E+00 -2.16873E+00 +1.53952E+00 -2.59984E+00 +6.32339E-01 -2.65976E+00 -3.79183E-01
 -2.33135E+00 -1.34598E+00 -1.65660E+00 -2.12061E+00 -7.33177E-01 -2.58065E+00 +2.98295E-01 -2.64995E+00
 +1.27540E+00 -2.31373E+00 +2.04050E+00 -1.62417E+00 +2.46838E+00 -6.94377E-01 +2.48980E+00 +3.19160E-01
 +2.10611E+00 +1.24332E+00 +1.39117E+00 +1.91968E+00 +4.79567E-01 +2.23464E+00 -4.57695E-01 +2.14210E+00
 -1.24562E+00 +1.67380E+00 -1.73972E+00 +9.34333E-01 -1.85557E+00 +8.12833E-02 -1.58689E+00 -7.06318E-01
 -1.00807E+00 -1.26499E+00 -2.59553E-01 -1.48177E+00 +4.81254E-01 -1.31952E+00 +1.03822E+00 -8.26756E-01
 +1.27585E+00 -1.29016E-01 +1.13126E+00 +5.97100E-01 +6.31347E-01 +1.16251E+00 -1.09445E-01 +1.40883E+00
 -9.11295E-01 +1.24692E+00 -1.56732E+00 +6.81690E-01 -1.89031E+00 -1.83035E-01 -1.75789E+00 -1.16198E+00
 -1.14575E+00 -2.02567E+00 -1.40713E-01 -2.55024E+00 +1.07062E+00 -2.56931E+00 +2.23665E+00 -2.01642E+00
 +3.09260E+00 -9.47693E-01 +3.41869E+00 +4.61522E-01 +3.09205E+00 +1.94686E+00 +2.12028E+00 +3.20683E+00
 +6.48070E-01 +3.96593E+00 -1.06591E+00 +4.03544E+00 -2.69823E+00 +3.35834E+00 -3.92630E+00 +2.02749E+00
 -4.49630E+00 +2.72065E-01 -4.27870E+00 -1.58600E+00 -3.29843E+00 -3.19675E+00 -1.73260E+00 -4.25448E+00
 +1.24591E-01 -4.56168E+00 +1.92246E+00 -4.07039E+00 +3.32685E+00 -2.89156E+00 +4.08949E+00 -1.27016E+00
 +4.09817E+00 +4.68499E-01 +3.39686E+00 +1.98919E+00 +2.17124E+00 +3.01802E+00 +7.03533E-01 +3.39851E+00
 -6.92840E-01 +3.12024E+00 -1.74346E+00 +2.31378E+00 -2.27194E+00 +1.21420E+00 -2.23438E+00 +1.01896E-01
 -1.72208E+00 -7.64712E-01 -9.32544E-01 -1.20887E+00 -1.16500E-01 -1.17383E+00 +4.85969E-01 -7.31302E-01
 +7.04901E-01 -5.88935E-02 +4.81552E-01 +6.07520E-01 -1.18195E-01 +1.03458E+00 -9.20700E-01 +1.05085E+00
 -1.68722E+00 +5.90930E-01 -2.17202E+00 -2.85772E-01 -2.18226E+00 -1.40551E+00 -1.62612E+00 -2.51713E+00
 -5.38514E-01 -3.34681E+00 +9.20842E-01 -3.65840E+00 +2.49617E+00 -3.30628E+00 +3.88465E+00 -2.26987E+00
 +4.79535E+00 -6.63233E-01 +5.00614E+00 +1.28164E+00 +4.40797E+00 +3.25377E+00 +3.02854E+00 +4.91672E+00
 +1.03209E+00 +5.96664E+00 -1.30414E+00 +6.18496E+00 -3.63197E+00 +5.47720E+00 -5.58604E+00 +3.89242E+00
 -6.84090E+00 +1.62063E+00 -7.16318E+00 -1.03117E+00 -6.45164E+00 -3.68120E+00 -4.75915E+00 -5.92784E+00
 -2.29290E+00 -7.41044E+00 +6.08796E-01 -7.86772E+00 +3.52150E+00 -7.18516E+00 +5.99702E+00 -5.42290E+00
 +7.63502E+00 -2.81766E+00 +8.15327E+00 +2.44901E-01 +7.44369E+00 +3.28640E+00 +5.60249E+00 +5.81374E+00
 +2.92509E+00 +7.40691E+00 -1.37263E-01 +7.80060E+00 -3.05509E+00 +6.94216E+00 -5.32003E+00 +5.01138E+00
 -6.54708E+00 +2.39366E+00 -6.55766E+00 -3.92102E-01 -5.42314E+00 -2.79925E+00 -3.45535E+00 -4.37140E+00
 -1.14186E+00 -4.84668E+00 +9.63321E-01 -4.22215E+00 +2.37067E+00 -2.75988E+00 +2.77750E+00 -9.28711E-01
 +2.15056E+00 +7.08893E-01 +7.45220E-01 +1.64054E+00 -9.48822E-01 +1.54404E+00 -2.32702E+00 +3.87543E-01
 -2.82912E+00 -1.53942E+00 -2.09980E+00 -3.67806E+00 -1.08925E-01 -5.32905E+00 +2.80367E+00 -5.83108E+00
 +5.97732E+00 -4.74691E+00 +8.56943E+00 -2.00923E+00 +9.75622E+00 +2.01523E+00 +8.94930E+00 +6.56729E+00
 +5.97385E+00 +1.06413E+01 +1.16013E+00 +1.32079E+01 -4.68224E+00 +1.34629E+01 -1.04101E+01 +1.10440E+01
 -1.47857E+01 +6.15748E+00 -1.67567E+01 -4.21493E-01 -1.57119E+01 -7.48367E+00 -1.16491E+01 -1.36312E+01
 -5.21052E+00 -1.75807E+01 +2.42948E+00 -1.84546E+01 +9.80401E+00 -1.59900E+01 +1.54677E+01 -1.06150E+01
 +1.83141E+01 -3.36688E+00 +1.78205E+01 +4.32795E+00 +1.41628E+01 +1.09664E+01 +8.17087E+00 +1.52985E+01
 +1.13403E+00 +1.65979E+01 -5.49603E+00 +1.48086E+01 -1.04348E+01 +1.05340E+01 -1.28472E+01 +4.87327E+00
 -1.25158E+01 -8.54851E-01 -9.85666E+00 -5.42979E+00 -5.78170E+00 -8.01130E+00 -1.44693E+00 -8.31691E+00
 +2.04899E+00 -6.65381E+00 +3.93816E+00 -3.80148E+00 +3.96054E+00 -7.79298E-01 +2.40244E+00 +1.43798E+00
 -9.33528E-03 +2.18195E+00 -2.32624E+00 +1.26233E+00 -3.64953E+00 -9.93875E-01 -3.38202E+00 -3.84266E+00
 -1.39451E+00 -6.33345E+00 +1.93524E+00 -7.57206E+00 +5.81854E+00 -6.96611E+00 +9.25927E+00 -4.38939E+00
 +1.13097E+01 -2.23951E-01 +1.13116E+01 +4.72797E+00 +9.06190E+00 +9.43655E+00 +4.86240E+00 +1.28895E+01
 -5.53619E-01 +1.43261E+01 -6.19492E+00 +1.34036E+01 -1.10375E+01 +1.02569E+01 -1.42432E+01 +5.44566E+00
 -1.53192E+01 -1.90541E-01 -1.41851E+01 -5.72525E+00 -1.11417E+01 -1.03344E+01 -6.76096E+00 -1.34360E+01
 -1.73706E+00 -1.47539E+01 +3.25812E+00 -1.43014E+01 +7.67782E+00 -1.23077E+01 +1.11433E+01 -9.11804E+00
 +1.34303E+01 -5.10739E+00 +1.44214E+01 -6.31502E-01 +1.40556E+01 +3.97598E+00 +1.23052E+01 +8.37310E+00
 +9.19313E+00 +1.21730E+01 +4.84768E+00 +1.49326E+01 -4.30394E-01 +1.61889E+01 -6.12286E+00 +1.55476E+01
 -1.15045E+01 +1.28059E+01 -1.57284E+01 +8.07265E+00 -1.79802E+01 +1.84018E+00 -1.76716E+01 -5.02909E+00
 -1.46214E+01 -1.14202E+01 -9.16824E+00 -1.61742E+01 -2.16966E+00 -1.83457E+01 +5.13106E+00 -1.74445E+01
 +1.13527E+01 -1.35946E+01 +1.52862E+01 -7.55513E+00 +1.61901E+01 -5.83501E-01 +1.39925E+01 +5.83869E+00
