 Created: 19-Jan-2021
 $NMID
 ID='D:\BASISSIMULATI'
 FMTDAT='(8E13.5)'
 VOLUME=   1.00000E+00
 TRAMP=   1.00000E+00
 $END
 +7.73085E+01 +1.23468E+01 +7.38366E+01 +2.54027E+01 +6.75072E+01 +3.74003E+01 +5.86262E+01 +4.77531E+01
 +4.76262E+01 +5.59604E+01 +3.50423E+01 +6.16341E+01 +2.14832E+01 +6.45188E+01 +7.59772E+00 +6.45045E+01
 -5.96046E+00 +6.16306E+01 -1.85674E+01 +5.60819E+01 -2.96619E+01 +4.81762E+01 -3.87738E+01 +3.83445E+01
 -4.55470E+01 +2.71061E+01 -4.97556E+01 +1.50378E+01 -5.13119E+01 +2.74201E+00 -5.02670E+01 -9.18660E+00
 -4.68030E+01 -2.01930E+01 -4.12183E+01 -2.97902E+01 -3.39072E+01 -3.75833E+01 -2.53336E+01 -4.32873E+01
 -1.60030E+01 -4.67381E+01 -6.43249E+00 -4.78958E+01 +2.87850E+00 -4.68417E+01 +1.14753E+01 -4.37675E+01
 +1.89712E+01 -3.89591E+01 +2.50654E+01 -3.27757E+01 +2.95556E+01 -2.56254E+01 +3.23437E+01 -1.79393E+01
 +3.34351E+01 -1.01457E+01 +3.29320E+01 -2.64544E+00 +3.10213E+01 +4.20922E+00 +2.79576E+01 +1.01323E+01
 +2.40437E+01 +1.49160E+01 +1.96086E+01 +1.84382E+01 +1.49857E+01 +2.06632E+01 +1.04915E+01 +2.16374E+01
 +6.40693E+00 +2.14807E+01 +2.96167E+00 +2.03733E+01 +3.23144E-01 +1.85393E+01 -1.41041E+00 +1.62288E+01
 -2.21173E+00 +1.36996E+01 -2.12179E+00 +1.11994E+01 -1.24269E+00 +8.94894E+00 +2.72918E-01 +7.12935E+00
 +2.23524E+00 +5.87151E+00 +4.43234E+00 +5.25005E+00 +6.64596E+00 +5.28114E+00 +8.66678E+00 +5.92436E+00
 +1.03085E+01 +7.08822E+00 +1.14198E+01 +8.63878E+00 +1.18931E+01 +1.04108E+01 +1.16707E+01 +1.22205E+01
 +1.07470E+01 +1.38786E+01 +9.16739E+00 +1.52042E+01 +7.02394E+00 +1.60364E+01 +4.44845E+00 +1.62453E+01
 +1.60310E+00 +1.57402E+01 -1.33046E+00 +1.44751E+01 -4.16270E+00 +1.24515E+01 -6.70806E+00 +9.71819E+00
 -8.79609E+00 +6.36819E+00 -1.02814E+01 +2.53327E+00 -1.10520E+01 -1.62365E+00 -1.10351E+01 -5.91765E+00
 -1.02012E+01 -1.01519E+01 -8.56505E+00 -1.41283E+01 -6.18479E+00 -1.76575E+01 -3.15826E+00 -2.05689E+01
 +3.82194E-01 -2.27188E+01 +4.27675E+00 -2.39973E+01 +8.34626E+00 -2.43332E+01 +1.24011E+01 -2.36975E+01
 +1.62506E+01 -2.21038E+01 +1.97116E+01 -1.96077E+01 +2.26172E+01 -1.63037E+01 +2.48244E+01 -1.23207E+01
 +2.62201E+01 -7.81634E+00 +2.67263E+01 -2.96936E+00 +2.63030E+01 +2.02769E+00 +2.49501E+01 +6.97695E+00
 +2.27073E+01 +1.16835E+01 +1.96523E+01 +1.59636E+01 +1.58972E+01 +1.96520E+01 +1.15845E+01 +2.26088E+01
 +6.88051E+00 +2.47251E+01 +1.96895E+00 +2.59270E+01 -2.95686E+00 +2.61793E+01 -7.70184E+00 +2.54857E+01
 -1.20773E+01 +2.38898E+01 -1.59089E+01 +2.14721E+01 -1.90438E+01 +1.83473E+01 -2.13572E+01 +1.46590E+01
 -2.27582E+01 +1.05740E+01 -2.31934E+01 +6.27448E+00 -2.26493E+01 +1.95068E+00 -2.11539E+01 -2.20789E+00
 -1.87746E+01 -6.02072E+00 -1.56166E+01 -9.32450E+00 -1.18173E+01 -1.19805E+01 -7.54108E+00 -1.38812E+01
 -2.97169E+00 -1.49548E+01 +1.69619E+00 -1.51693E+01 +6.26577E+00 -1.45333E+01 +1.05473E+01 -1.30960E+01
 +1.43669E+01 -1.09446E+01 +1.75749E+01 -8.19977E+00 +2.00523E+01 -5.00957E+00 +2.17171E+01 -1.54204E+00
 +2.25270E+01 +2.02355E+00 +2.24817E+01 +5.50590E+00 +2.16218E+01 +8.73103E+00 +2.00263E+01 +1.15413E+01
 +1.78080E+01 +1.38035E+01 +1.51064E+01 +1.54157E+01 +1.20804E+01 +1.63120E+01 +8.89878E+00 +1.64660E+01
 +5.73115E+00 +1.58915E+01 +2.73849E+00 +1.46407E+01 +6.43800E-02 +1.28011E+01 -2.17259E+00 +1.04899E+01
 -3.88490E+00 +7.84638E+00 -5.02027E+00 +5.02389E+00 -5.56365E+00 +2.18053E+00 -5.53697E+00 -5.30072E-01
 -4.99667E+00 -2.96768E+00 -4.02913E+00 -5.01344E+00 -2.74437E+00 -6.57635E+00 -1.26838E+00 -7.59812E+00
 +2.65481E-01 -8.05572E+00 +1.72532E+00 -7.96191E+00 +2.98941E+00 -7.36338E+00 +3.95405E+00 -6.33688E+00
 +4.54020E+00 -4.98346E+00 +4.69838E+00 -3.42126E+00 +4.41167E+00 -1.77735E+00 +3.69643E+00 -1.79067E-01
 +2.60091E+00 +1.25453E+00 +1.20178E+00 +2.42053E+00 -4.01306E-01 +3.23892E+00 -2.09251E+00 +3.65773E+00
 -3.74775E+00 +3.65629E+00 -5.24311E+00 +3.24636E+00 -6.46332E+00 +2.47115E+00 -7.30953E+00 +1.40215E+00
 -7.70619E+00 +1.34239E-01 -7.60626E+00 -1.22093E+00 -6.99472E+00 -2.54251E+00 -5.88996E+00 -3.70877E+00
 -4.34297E+00 -4.60544E+00 -2.43458E+00 -5.13359E+00 -2.70618E-01 -5.21663E+00 +2.02439E+00 -4.80585E+00
 +4.31484E+00 -3.88421E+00 +6.46236E+00 -2.46818E+00 +8.33430E+00 -6.07441E-01 +9.81200E+00 +1.61747E+00
 +1.07981E+01 +4.09948E+00 +1.12229E+01 +6.71101E+00 +1.10485E+01 +9.31119E+00 +1.02717E+01 +1.17541E+01
 +8.92431E+00 +1.38973E+01 +7.07168E+00 +1.56101E+01 +4.80922E+00 +1.67816E+01 +2.25700E+00 +1.73268E+01
 -4.46942E-01 +1.71926E+01 -3.15439E+00 +1.63603E+01 -5.71530E+00 +1.48476E+01 -7.98628E+00 +1.27077E+01
 -9.83860E+00 +1.00269E+01 -1.11654E+01 +6.91996E+00 -1.18877E+01 +3.52415E+00 -1.19587E+01 -7.95605E-03
 -1.13662E+01 -3.51650E+00 -1.01336E+01 -6.84270E+00 -8.31797E+00 -9.83707E+00 -6.00757E+00 -1.23671E+01
 -3.31652E+00 -1.43240E+01 -3.78827E-01 -1.56277E+01 +2.65884E+00 -1.62312E+01 +5.64490E+00 -1.61218E+01
 +8.43082E+00 -1.53218E+01 +1.08788E+01 -1.38864E+01 +1.28686E+01 -1.19005E+01 +1.43038E+01 -9.47361E+00
 +1.51163E+01 -6.73407E+00 +1.52691E+01 -3.82179E+00 +1.47581E+01 -8.81057E-01 +1.36115E+01 +1.94693E+00
 +1.18881E+01 +4.53115E+00 +9.67311E+00 +6.75719E+00 +7.07408E+00 +8.53255E+00 +4.21449E+00 +9.79077E+00
 +1.22737E+00 +1.04940E+01 -1.75159E+00 +1.06342E+01 -4.59098E+00 +1.02325E+01 -7.17008E+00 +9.33687E+00
 -9.38468E+00 +8.01940E+00 -1.11518E+01 +6.37111E+00 -1.24131E+01 +4.49679E+00 -1.31372E+01 +2.50888E+00
 -1.33205E+01 +5.21258E-01 -1.29858E+01 -1.35694E+00 -1.21809E+01 -3.02708E+00 -1.09744E+01 -4.40601E+00
 -9.45227E+00 -5.43012E+00 -7.71163E+00 -6.05821E+00 -5.85581E+00 -6.27309E+00 -3.98828E+00 -6.08175E+00
 -2.20704E+00 -5.51430E+00 -5.99466E-01 -4.62155E+00 +7.62118E-01 -3.47161E+00 +1.82393E+00 -2.14548E+00
 +2.55306E+00 -7.32113E-01 +2.93854E+00 +6.76908E-01 +2.99122E+00 +1.99272E+00 +2.74227E+00 +3.13430E+00
 +2.24067E+00 +4.03299E+00 +1.54966E+00 +4.63631E+00 +7.42397E-01 +4.91069E+00 -1.02794E-01 +4.84317E+00
 -9.07482E-01 +4.44180E+00 -1.59807E+00 +3.73483E+00 -2.11040E+00 +2.76881E+00 -2.39371E+00 +1.60553E+00
 -2.41382E+00 +3.18202E-01 -2.15518E+00 -1.01309E+00 -1.62188E+00 -2.30622E+00 -8.37411E-01 -3.48197E+00
 +1.56683E-01 -4.46879E+00 +1.30332E+00 -5.20710E+00 +2.53328E+00 -5.65280E+00 +3.76933E+00 -5.77991E+00
 +4.93092E+00 -5.58212E+00 +5.93902E+00 -5.07322E+00 +6.72091E+00 -4.28624E+00 +7.21469E+00 -3.27156E+00
 +7.37311E+00 -2.09396E+00 +7.16664E+00 -8.28803E-01 +6.58544E+00 +4.42389E-01 +5.64035E+00 +1.63673E+00
 +4.36254E+00 +2.67487E+00 +2.80207E+00 +3.48571E+00 +1.02542E+00 +4.01062E+00 -8.88087E-01 +4.20702E+00
 -2.85045E+00 +4.05098E+00 -4.76976E+00 +3.53876E+00 -6.55521E+00 +2.68727E+00 -8.12202E+00 +1.53327E+00
 -9.39607E+00 +1.31454E-01 -1.03180E+01 -1.44846E+00 -1.08464E+01 -3.12556E+00 -1.09602E+01 -4.81218E+00
 -1.06595E+01 -6.41877E+00 -9.96603E+00 -7.85884E+00 -8.92149E+00 -9.05382E+00 -7.58549E+00 -9.93746E+00
 -6.03218E+00 -1.04595E+01 -4.34616E+00 -1.05888E+01 -2.61785E+00 -1.03146E+01 -9.38538E-01 -9.64771E+00
 +6.04632E-01 -8.61992E+00 +1.93338E+00 -7.28215E+00 +2.98254E+00 -5.70188E+00 +3.70355E+00 -3.95952E+00
 +4.06705E+00 -2.14405E+00 +4.06434E+00 -3.48256E-01 +3.70777E+00 +1.33633E+00 +3.02989E+00 +2.82437E+00
 +2.08151E+00 +4.04131E+00 +9.28771E-01 +4.92743E+00 -3.50711E-01 +5.44108E+00 -1.67226E+00 +5.56089E+00
 -2.94903E+00 +5.28688E+00 -4.09693E+00 +4.64046E+00 -5.03952E+00 +3.66318E+00 -5.71242E+00 +2.41437E+00
 -6.06705E+00 +9.67882E-01 -6.07355E+00 -5.92069E-01 -5.72265E+00 -2.17561E+00 -5.02637E+00 -3.69226E+00
 -4.01753E+00 -5.05598E+00 -2.74814E+00 -6.19010E+00 -1.28661E+00 -7.03163E+00 +2.85948E-01 -7.53494E+00
 +1.88017E+00 -7.67439E+00 +3.40343E+00 -7.44592E+00 +4.76506E+00 -6.86745E+00 +5.88157E+00 -5.97794E+00
 +6.68145E+00 -4.83537E+00 +7.10949E+00 -3.51354E+00 +7.13010E+00 -2.09796E+00 +6.72974E+00 -6.81005E-01
 +5.91796E+00 +6.43349E-01 +4.72735E+00 +1.78498E+00 +3.21200E+00 +2.66294E+00 +1.44490E+00 +3.21028E+00
 -4.85908E-01 +3.37819E+00 -2.48200E+00 +3.13915E+00 -4.43993E+00 +2.48887E+00 -6.25692E+00 +1.44698E+00
 -7.83664E+00 +5.63159E-02 -9.09468E+00 -1.61915E+00 -9.96337E+00 -3.49759E+00 -1.03958E+01 -5.48373E+00
 -1.03686E+01 -7.47404E+00 -9.88351E+00 -9.36258E+00 -8.96744E+00 -1.10470E+01 -7.67110E+00 -1.24342E+01
 -6.06629E+00 -1.34463E+01 -4.24191E+00 -1.40247E+01 -2.29894E+00 -1.41338E+01 -3.44650E-01 -1.37633E+01
 +1.51349E+00 -1.29292E+01 +3.17408E+00 -1.16727E+01 +4.54765E+00 -1.00581E+01 +5.56190E+00 -8.16931E+00
 +6.16587E+00 -6.10525E+00 +6.33293E+00 -3.97383E+00 +6.06226E+00 -1.88599E+00 +5.37884E+00 +5.07758E-02
 +4.33181E+00 +1.73865E+00 +2.99144E+00 +3.09512E+00 +1.44477E+00 +4.05768E+00 -2.09783E-01 +4.58737E+00
 -1.86846E+00 +4.67087E+00 -3.42857E+00 +4.32095E+00 -4.79480E+00 +3.57542E+00 -5.88502E+00 +2.49450E+00
 -6.63532E+00 +1.15685E+00 -7.00381E+00 -3.45593E-01 -6.97307E+00 -1.91348E+00 -6.55104E+00 -3.44638E+00
 -5.77031E+00 -4.84915E+00 -4.68578E+00 -6.03786E+00 -3.37102E+00 -6.94497E+00 -1.91338E+00 -7.52348E+00
 -4.08236E-01 -7.74958E+00 +1.04715E+00 -7.62388E+00 +2.35996E+00 -7.17102E+00 +3.44775E+00 -6.43769E+00
 +4.24367E+00 -5.48922E+00 +4.70065E+00 -4.40502E+00 +4.79423E+00 -3.27309E+00 +4.52393E+00 -2.18403E+00
 +3.91301E+00 -1.22491E+00 +3.00668E+00 -4.73491E-01 +1.86889E+00 +6.95824E-03 +5.77940E-01 +1.71786E-01
 -7.78799E-01 -2.18297E-03 -2.11074E+00 -5.15241E-01 -3.33002E+00 -1.34493E+00 -4.35720E+00 -2.44768E+00
 -5.12634E+00 -3.76185E+00 -5.58909E+00 -5.21187E+00 -5.71753E+00 -6.71337E+00 -5.50563E+00 -8.17868E+00
 -4.96928E+00 -9.52256E+00 -4.14473E+00 -1.06677E+01 -3.08590E+00 -1.15494E+01 -1.86036E+00 -1.21197E+01
 -5.44675E-01 -1.23499E+01 +7.80843E-01 -1.22321E+01 +2.03746E+00 -1.17790E+01 +3.15311E+00 -1.10226E+01
 +4.06687E+00 -1.00117E+01 +4.73254E+00 -8.80794E+00 +5.12118E+00 -7.48165E+00 +5.22225E+00 -6.10688E+00
 +5.04361E+00 -4.75651E+00 +4.61014E+00 -3.49761E+00 +3.96126E+00 -2.38741E+00 +3.14760E+00 -1.47007E+00
 +2.22693E+00 -7.74577E-01 +1.25983E+00 -3.13747E-01 +3.05352E-01 -8.44613E-02 -5.83053E-01 -6.90225E-02
