 Created: 19-Jan-2021
 $NMID
 ID='D:\BASISSIMULATI'
 FMTDAT='(8E13.5)'
 VOLUME=   1.00000E+00
 TRAMP=   1.00000E+00
 $END
 +7.17252E+01 +1.18266E+01 +6.34026E+01 +1.75389E+01 +4.28791E+01 +2.05736E+01 +1.46327E+01 +2.08747E+01
 -1.51427E+01 +1.87057E+01 -3.99997E+01 +1.45505E+01 -5.47471E+01 +9.05331E+00 -5.66364E+01 +2.99446E+00
 -4.59368E+01 -2.72472E+00 -2.57734E+01 -7.13363E+00 -1.28667E+00 -9.31245E+00 +2.16560E+01 -8.58258E+00
 +3.78645E+01 -4.72953E+00 +4.39969E+01 +1.81295E+00 +3.92221E+01 +9.89907E+00 +2.52419E+01 +1.77895E+01
 +5.70831E+00 +2.34666E+01 -1.47781E+01 +2.50984E+01 -3.18103E+01 +2.15429E+01 -4.21630E+01 +1.27550E+01
 -4.43982E+01 -4.10994E-02 -3.89766E+01 -1.44946E+01 -2.78997E+01 -2.75920E+01 -1.40319E+01 -3.63497E+01
 -3.12150E-01 -3.85713E+01 +1.09229E+01 -3.34674E+01 +1.83470E+01 -2.19578E+01 +2.17177E+01 -6.54907E+00
 +2.16520E+01 +9.21074E+00 +1.92260E+01 +2.15797E+01 +1.55492E+01 +2.75627E+01 +1.14536E+01 +2.56999E+01
 +7.37540E+00 +1.64835E+01 +3.43396E+00 +2.28181E+00 -3.61258E-01 -1.32290E+01 -3.88429E+00 -2.59857E+01
 -6.75452E+00 -3.25758E+01 -8.35530E+00 -3.11204E+01 -8.01320E+00 -2.17646E+01 -5.27694E+00 -6.64419E+00
 -1.91327E-01 +1.06664E+01 +6.54568E+00 +2.60774E+01 +1.36216E+01 +3.60332E+01 +1.93602E+01 +3.84070E+01
 +2.21304E+01 +3.30068E+01 +2.08005E+01 +2.15630E+01 +1.51023E+01 +7.21258E+00 +5.78825E+00 -6.37013E+00
 -5.48018E+00 -1.59530E+01 -1.64965E+01 -1.95677E+01 -2.50339E+01 -1.69572E+01 -2.93905E+01 -9.53964E+00
 -2.88048E+01 +7.96866E-02 -2.36279E+01 +8.89683E+00 -1.52062E+01 +1.43640E+01 -5.51260E+00 +1.50692E+01
 +3.36783E+00 +1.10572E+01 +9.75090E+00 +3.71781E+00 +1.27256E+01 -4.70563E+00 +1.22914E+01 -1.18264E+01
 +9.23948E+00 -1.58261E+01 +4.83224E+00 -1.59572E+01 +3.92664E-01 -1.26973E+01 -3.06550E+00 -7.52323E+00
 -5.05736E+00 -2.38816E+00 -5.64263E+00 +9.26985E-01 -5.25379E+00 +1.38529E+00 -4.41577E+00 -9.87015E-01
 -3.46975E+00 -5.12766E+00 -2.40862E+00 -9.29787E+00 -8.88786E-01 -1.16582E+01 +1.58287E+00 -1.08795E+01
 +5.35462E+00 -6.59818E+00 +1.03408E+01 +4.26862E-01 +1.58581E+01 +8.50531E+00 +2.06708E+01 +1.55001E+01
 +2.32639E+01 +1.94602E+01 +2.22817E+01 +1.92112E+01 +1.70050E+01 +1.47274E+01 +7.71561E+00 +7.16971E+00
 -4.19020E+00 -1.42201E+00 -1.64060E+01 -8.69577E+00 -2.62163E+01 -1.26488E+01 -3.11781E+01 -1.21919E+01
 -2.98029E+01 -7.45566E+00 -2.20422E+01 +2.48328E-01 -9.42279E+00 +8.79601E+00 +5.23188E+00 +1.58404E+01
 +1.84465E+01 +1.94520E+01 +2.69487E+01 +1.86290E+01 +2.85129E+01 +1.35381E+01 +2.25658E+01 +5.42838E+00
 +1.03823E+01 -3.74564E+00 -5.19373E+00 -1.18734E+01 -2.04378E+01 -1.72475E+01 -3.16709E+01 -1.89760E+01
 -3.61788E+01 -1.71420E+01 -3.28850E+01 -1.26818E+01 -2.26005E+01 -7.03959E+00 -7.78827E+00 -1.71570E+00
 +8.08874E+00 +2.14898E+00 +2.14574E+01 +4.03323E+00 +2.95225E+01 +4.07625E+00 +3.09199E+01 +2.90899E+00
 +2.59711E+01 +1.35176E+00 +1.64893E+01 +9.20175E-02 +5.21061E+00 -5.45243E-01 -4.97912E+00 -6.60096E-01
 -1.17988E+01 -6.61428E-01 -1.41058E+01 -1.02418E+00 -1.20765E+01 -2.01787E+00 -7.00797E+00 -3.51504E+00
 -8.26090E-01 -4.96055E+00 +4.53715E+00 -5.52635E+00 +7.70535E+00 -4.40871E+00 +8.19657E+00 -1.16987E+00
 +6.45397E+00 +3.99779E+00 +3.58157E+00 +1.01904E+01 +8.88608E-01 +1.59459E+01 -5.99064E-01 +1.96086E+01
 -4.98559E-01 +1.98105E+01 +8.14289E-01 +1.59267E+01 +2.36555E+00 +8.35981E+00 +2.96177E+00 -1.45113E+00
 +1.65698E+00 -1.13256E+01 -1.85055E+00 -1.88761E+01 -7.02871E+00 -2.21455E+01 -1.26005E+01 -2.01666E+01
 -1.68938E+01 -1.32829E+01 -1.83506E+01 -3.12214E+00 -1.60381E+01 +7.78154E+00 -1.00023E+01 +1.66289E+01
 -1.34468E+00 +2.10889E+01 +8.01394E+00 +1.99242E+01 +1.58241E+01 +1.33351E+01 +2.01175E+01 +2.92188E+00
 +1.97608E+01 -8.72810E+00 +1.47924E+01 -1.87175E+01 +6.43991E+00 -2.45963E+01 -3.19035E+00 -2.49926E+01
 -1.16671E+01 -1.99465E+01 -1.68771E+01 -1.08604E+01 -1.75769E+01 -8.69146E-02 -1.37013E+01 +9.72347E+00
 -6.34741E+00 +1.63300E+01 +2.55449E+00 +1.84671E+01 +1.07818E+01 +1.61166E+01 +1.64154E+01 +1.04246E+01
 +1.83210E+01 +3.30103E+00 +1.63882E+01 -3.16756E+00 +1.14720E+01 -7.31576E+00 +5.07095E+00 -8.33337E+00
 -1.14666E+00 -6.41887E+00 -5.82253E+00 -2.62240E+00 -8.24963E+00 +1.55709E+00 -8.48343E+00 +4.68422E+00
 -7.20618E+00 +5.84500E+00 -5.40556E+00 +4.90856E+00 -3.98488E+00 +2.51766E+00 -3.43881E+00 -1.79640E-01
 -3.70208E+00 -1.96253E+00 -4.21716E+00 -1.98837E+00 -4.19244E+00 -1.11536E-01 -2.95683E+00 +3.03684E+00
 -2.83197E-01 +6.23819E+00 +3.43849E+00 +8.08774E+00 +7.24922E+00 +7.48062E+00 +9.88785E+00 +4.02586E+00
 +1.02000E+01 -1.75004E+00 +7.56005E+00 -8.48535E+00 +2.16518E+00 -1.43386E+01 -4.90622E+00 -1.75188E+01
 -1.19109E+01 -1.68346E+01 -1.68860E+01 -1.20946E+01 -1.82031E+01 -4.23129E+00 -1.50704E+01 +4.89888E+00
 -7.83033E+00 +1.29937E+01 +2.04867E+00 +1.79294E+01 +1.22995E+01 +1.83551E+01 +2.04244E+01 +1.40853E+01
 +2.43517E+01 +6.17479E+00 +2.30003E+01 -3.34966E+00 +1.65911E+01 -1.20285E+01 +6.61309E+00 -1.76289E+01
 -4.55024E+00 -1.87405E+01 -1.42358E+01 -1.51406E+01 -2.01887E+01 -7.83090E+00 -2.11361E+01 +1.26065E+00
 -1.70896E+01 +9.82120E+00 -9.30187E+00 +1.57819E+01 +1.06438E-01 +1.78556E+01 +8.73591E+00 +1.58361E+01
 +1.45462E+01 +1.05849E+01 +1.63647E+01 +3.72289E+00 +1.41319E+01 -2.87064E+00 +8.82730E+00 -7.59804E+00
 +2.11518E+00 -9.56331E+00 -4.17303E+00 -8.75624E+00 -8.56118E+00 -5.96021E+00 -1.03028E+01 -2.42818E+00
 -9.50739E+00 +5.59651E-01 -6.99679E+00 +2.11176E+00 -3.95558E+00 +1.98416E+00 -1.49721E+00 +6.06140E-01
 -2.91003E-01 -1.12587E+00 -3.68552E-01 -2.21025E+00 -1.16657E+00 -1.93200E+00 -1.78420E+00 -1.50211E-01
 -1.36206E+00 +2.61826E+00 +5.49718E-01 +5.35122E+00 +3.76408E+00 +6.86394E+00 +7.45433E+00 +6.23230E+00
 +1.03867E+01 +3.15670E+00 +1.13205E+01 -1.85828E+00 +9.45009E+00 -7.57848E+00 +4.74255E+00 -1.23599E+01
 -1.94591E+00 -1.46262E+01 -9.02976E+00 -1.33626E+01 -1.45978E+01 -8.47401E+00 -1.69521E+01 -8.90304E-01
 -1.51251E+01 +7.62665E+00 -9.21906E+00 +1.49301E+01 -4.55695E-01 +1.90695E+01 +9.09192E+00 +1.88406E+01
 +1.70221E+01 +1.41456E+01 +2.12416E+01 +6.05410E+00 +2.05407E+01 -3.45832E+00 +1.49414E+01 -1.20260E+01
 +5.71800E+00 -1.75209E+01 -4.92104E+00 -1.86179E+01 -1.44053E+01 -1.51391E+01 -2.04717E+01 -8.08367E+00
 -2.17475E+01 +6.62066E-01 -1.80878E+01 +8.84912E+00 -1.05797E+01 +1.44735E+01 -1.21846E+00 +1.62962E+01
 +7.64677E+00 +1.41333E+01 +1.39394E+01 +8.84239E+00 +1.63781E+01 +2.02344E+00 +1.47573E+01 -4.47069E+00
 +9.91829E+00 -9.06276E+00 +3.43702E+00 -1.08653E+01 -2.86805E+00 -9.86540E+00 -7.45614E+00 -6.83893E+00
 -9.46047E+00 -3.03531E+00 -8.85364E+00 +2.57522E-01 -6.34922E+00 +2.12674E+00 -3.08839E+00 +2.29738E+00
 -2.23759E-01 +1.16717E+00 +1.46133E+00 -3.88887E-01 +1.77728E+00 -1.37191E+00 +1.13099E+00 -1.04862E+00
 +3.15835E-01 +7.56061E-01 +1.67820E-01 +3.56364E+00 +1.21019E+00 +6.37988E+00 +3.41190E+00 +8.02512E+00
 +6.14744E+00 +7.55164E+00 +8.37855E+00 +4.61151E+00 +9.00398E+00 -3.50611E-01 +7.26500E+00 -6.15292E+00
 +3.07133E+00 -1.11770E+01 -2.86795E+00 -1.38319E+01 -9.16596E+00 -1.30466E+01 -1.41113E+01 -8.63828E+00
 -1.61572E+01 -1.43946E+00 -1.44037E+01 +6.86804E+00 -8.92400E+00 +1.41759E+01 -8.26106E-01 +1.85160E+01
 +7.98220E+00 +1.86107E+01 +1.52729E+01 +1.42494E+01 +1.90930E+01 +6.37830E+00 +1.83097E+01 -3.12818E+00
 +1.29484E+01 -1.19534E+01 +4.22235E+00 -1.79496E+01 -5.76107E+00 -1.97038E+01 -1.45420E+01 -1.69006E+01
 -1.99503E+01 -1.03847E+01 -2.06716E+01 -1.90775E+00 -1.65837E+01 +6.36240E+00 -8.77116E+00 +1.24294E+01
 +7.81161E-01 +1.49857E+01 +9.72645E+00 +1.37183E+01 +1.59741E+01 +9.32539E+00 +1.82171E+01 +3.25143E+00
 +1.62273E+01 -2.76846E+00 +1.08485E+01 -7.21517E+00 +3.70113E+00 -9.19206E+00 -3.30263E+00 -8.61734E+00
 -8.48896E+00 -6.15725E+00 -1.08458E+01 -2.93577E+00 -1.02267E+01 -1.23687E-01 -7.29209E+00 +1.45644E+00
 -3.22491E+00 +1.58264E+00 +6.77611E-01 +6.65682E-01 +3.40390E+00 -4.43398E-01 +4.49702E+00 -8.01436E-01
 +4.11869E+00 +2.43160E-01 +2.90286E+00 +2.76334E+00 +1.66169E+00 +6.16492E+00 +1.05189E+00 +9.33478E+00
 +1.31890E+00 +1.09870E+01 +2.20684E+00 +1.01011E+01 +3.06419E+00 +6.31302E+00 +3.10784E+00 +1.27039E-01
 +1.75283E+00 -7.13203E+00 -1.10926E+00 -1.36290E+01 -4.98641E+00 -1.75132E+01 -8.87082E+00 -1.74589E+01
 -1.15181E+01 -1.30929E+01 -1.18403E+01 -5.17583E+00 -9.29076E+00 +4.52777E+00 -4.11199E+00 +1.36678E+01
 +2.64264E+00 +1.99087E+01 +9.33928E+00 +2.15502E+01 +1.41917E+01 +1.79953E+01 +1.57698E+01 +9.93645E+00
 +1.34390E+01 -7.97723E-01 +7.59617E+00 -1.16955E+01 -3.79786E-01 -2.01946E+01 -8.46142E+00 -2.43241E+01
 -1.45057E+01 -2.31865E+01 -1.68410E+01 -1.71541E+01 -1.47407E+01 -7.73641E+00 -8.64741E+00 +2.83616E+00
 -7.56756E-02 +1.21915E+01 +8.78283E+00 +1.83980E+01 +1.56466E+01 +2.03978E+01 +1.87605E+01 +1.81857E+01
 +1.73679E+01 +1.27074E+01 +1.19076E+01 +5.52555E+00 +3.87943E+00 -1.63316E+00 -4.58035E+00 -7.31717E+00
 -1.12935E+01 -1.06557E+01 -1.46339E+01 -1.14627E+01 -1.39555E+01 -1.01375E+01 -9.73495E+00 -7.42027E+00
 -3.39650E+00 -4.10120E+00 +3.12553E+00 -7.84139E-01 +7.95384E+00 +2.22326E+00 +9.79951E+00 +4.87205E+00
 +8.30554E+00 +7.22248E+00 +4.10846E+00 +9.25782E+00 -1.39141E+00 +1.07495E+01 -6.47522E+00 +1.12409E+01
 -9.62889E+00 +1.01706E+01 -9.98746E+00 +7.10260E+00 -7.57055E+00 +1.98230E+00 -3.24412E+00 -4.68144E+00
 +1.57274E+00 -1.17927E+01 +5.36160E+00 -1.78434E+01 +6.97805E+00 -2.12625E+01 +6.00022E+00 -2.08522E+01
 +2.84860E+00 -1.61871E+01 -1.35607E+00 -7.84708E+00 -5.15009E+00 +2.60540E+00 -7.18750E+00 +1.29255E+01
 -6.66269E+00 +2.07045E+01 -3.56584E+00 +2.39786E+01 +1.30567E+00 +2.17656E+01 +6.58229E+00 +1.43760E+01
 +1.07317E+01 +3.40093E+00 +1.25183E+01 -8.63548E+00 +1.13736E+01 -1.88797E+01 +7.56826E+00 -2.48554E+01
 +2.13299E+00 -2.50874E+01 -3.44391E+00 -1.94772E+01 -7.65230E+00 -9.32813E+00 -9.39786E+00 +2.98739E+00
 -8.31220E+00 +1.46300E+01 -4.84573E+00 +2.30037E+01 -1.19291E-01 +2.63857E+01 +4.41693E+00 +2.43131E+01
 +7.41249E+00 +1.76318E+01 +8.00490E+00 +8.20656E+00 +6.05329E+00 -1.61415E+00 +2.15262E+00 -9.62479E+00
