 Created: 19-Jan-2021
 $NMID
 ID='D:\BASISSIMULATI'
 FMTDAT='(8E13.5)'
 VOLUME=   1.00000E+00
 TRAMP=   1.00000E+00
 $END
 +5.02715E+01 +8.67171E+00 +4.21698E+01 +2.80082E+01 +2.65563E+01 +4.18207E+01 +6.72548E+00 +4.73485E+01
 -1.31381E+01 +4.36371E+01 -2.88884E+01 +3.17428E+01 -3.73347E+01 +1.44875E+01 -3.69411E+01 -4.18166E+00
 -2.81511E+01 -2.00796E+01 -1.32661E+01 -2.97177E+01 +4.09048E+00 -3.10730E+01 +1.97997E+01 -2.40212E+01
 +3.01752E+01 -1.03398E+01 +3.27818E+01 +6.71561E+00 +2.69634E+01 +2.31587E+01 +1.39650E+01 +3.51726E+01
 -3.37177E+00 +3.99575E+01 -2.12632E+01 +3.63368E+01 -3.58356E+01 +2.49906E+01 -4.39799E+01 +8.27291E+00
 -4.40179E+01 -1.03388E+01 -3.60361E+01 -2.70283E+01 -2.18216E+01 -3.84796E+01 -4.42542E+00 -4.25824E+01
 +1.25392E+01 -3.88504E+01 +2.56980E+01 -2.84686E+01 +3.26368E+01 -1.39729E+01 +3.23844E+01 +1.35545E+00
 +2.55592E+01 +1.42343E+01 +1.41615E+01 +2.20944E+01 +1.07041E+00 +2.36049E+01 -1.06285E+01 +1.89029E+01
 -1.83296E+01 +9.48967E+00 -2.04545E+01 -2.16909E+00 -1.67453E+01 -1.32336E+01 -8.25310E+00 -2.11330E+01
 +2.96127E+00 -2.41141E+01 +1.43307E+01 -2.15811E+01 +2.33679E+01 -1.41620E+01 +2.81990E+01 -3.50410E+00
 +2.79313E+01 +8.14068E+00 +2.27825E+01 +1.84348E+01 +1.39620E+01 +2.54576E+01 +3.34490E+00 +2.80826E+01
 -6.97314E+00 +2.61538E+01 -1.51332E+01 +2.04402E+01 -1.98817E+01 +1.23936E+01 -2.07757E+01 +3.78142E+00
 -1.81955E+01 -3.71455E+00 -1.31773E+01 -8.84233E+00 -7.12204E+00 -1.09952E+01 -1.45644E+00 -1.02648E+01
 +2.67360E+00 -7.33595E+00 +4.61221E+00 -3.26545E+00 +4.26994E+00 +7.93811E-01 +2.06615E+00 +3.85398E+00
 -1.23269E+00 +5.28179E+00 -4.72825E+00 +4.88315E+00 -7.60246E+00 +2.87788E+00 -9.27810E+00 -2.13182E-01
 -9.49845E+00 -3.72878E+00 -8.32082E+00 -7.02971E+00 -6.04070E+00 -9.62372E+00 -3.07848E+00 -1.12295E+01
 +1.34837E-01 -1.17761E+01 +3.24270E+00 -1.13516E+01 +6.00189E+00 -1.01287E+01 +8.27526E+00 -8.29438E+00
 +9.99281E+00 -6.00636E+00 +1.11041E+01 -3.38663E+00 +1.15452E+01 -5.46493E-01 +1.12350E+01 +2.37327E+00
 +1.01053E+01 +5.16934E+00 +8.15204E+00 +7.56974E+00 +5.48871E+00 +9.26495E+00 +2.37814E+00 +9.97333E+00
 -7.76655E-01 +9.52431E+00 -3.48951E+00 +7.93421E+00 -5.28833E+00 +5.44789E+00 -5.83095E+00 +2.52623E+00
 -5.00893E+00 -2.26743E-01 -3.00815E+00 -2.18662E+00 -3.03391E-01 -2.85504E+00 +2.42069E+00 -1.99421E+00
 +4.41024E+00 +2.87085E-01 +5.01564E+00 +3.52314E+00 +3.85715E+00 +6.96693E+00 +9.41113E-01 +9.74089E+00
 -3.30625E+00 +1.10321E+01 -8.10194E+00 +1.02884E+01 -1.24582E+01 +7.36712E+00 -1.53930E+01 +2.59981E+00
 -1.61527E+01 -3.24982E+00 -1.43956E+01 -9.12922E+00 -1.02913E+01 -1.39141E+01 -4.50848E+00 -1.66525E+01
 +1.90970E+00 -1.67800E+01 +7.75966E+00 -1.42568E+01 +1.19341E+01 -9.59147E+00 +1.36644E+01 -3.74316E+00
 +1.26942E+01 +2.07859E+00 +9.34158E+00 +6.67412E+00 +4.43556E+00 +9.11609E+00 -8.62304E-01 +8.95499E+00
 -5.31227E+00 +6.32099E+00 -7.87051E+00 +1.89767E+00 -7.92173E+00 -3.22740E+00 -5.41799E+00 -7.80297E+00
 -8.92016E-01 -1.06919E+01 +4.65840E+00 -1.11247E+01 +9.98933E+00 -8.87208E+00 +1.38845E+01 -4.29812E+00
 +1.54227E+01 +1.71731E+00 +1.41799E+01 +7.96979E+00 +1.03218E+01 +1.31920E+01 +4.56599E+00 +1.63276E+01
 -1.97513E+00 +1.67571E+01 -8.03605E+00 +1.44262E+01 -1.24701E+01 +9.84957E+00 -1.44911E+01 +3.99187E+00
 -1.38334E+01 -1.94704E+00 -1.07948E+01 -6.79312E+00 -6.15811E+00 -9.64776E+00 -1.00847E+00 -1.00715E+01
 +3.50915E+00 -8.16333E+00 +6.43885E+00 -4.52135E+00 +7.21411E+00 -9.57875E-02 +5.76737E+00 +4.02957E+00
 +2.52758E+00 +6.87814E+00 -1.69027E+00 +7.79009E+00 -5.87584E+00 +6.55597E+00 -9.05017E+00 +3.44775E+00
 -1.04776E+01 -8.55741E-01 -9.81754E+00 -5.42912E+00 -7.18460E+00 -9.30810E+00 -3.10861E+00 -1.16977E+01
 +1.59369E+00 -1.21355E+01 +6.00309E+00 -1.05769E+01 +9.29632E+00 -7.38626E+00 +1.09147E+01 -3.24183E+00
 +1.06679E+01 +1.02270E+00 +8.75365E+00 +4.60115E+00 +5.69371E+00 +6.88225E+00 +2.20380E+00 +7.56578E+00
 -9.69897E-01 +6.70537E+00 -3.21086E+00 +4.67276E+00 -4.15429E+00 +2.05610E+00 -3.74704E+00 -4.81720E-01
 -2.23628E+00 -2.35135E+00 -9.40292E-02 -3.15924E+00 +2.10181E+00 -2.77903E+00 +3.80100E+00 -1.35992E+00
 +4.59896E+00 +7.25327E-01 +4.31470E+00 +2.97721E+00 +3.01440E+00 +4.88668E+00 +9.79764E-01 +6.04563E+00
 -1.36790E+00 +6.22708E+00 -3.56771E+00 +5.41993E+00 -5.21960E+00 +3.81434E+00 -6.06311E+00 +1.74516E+00
 -6.01928E+00 -3.90786E-01 -5.18965E+00 -2.22298E+00 -3.81673E+00 -3.48131E+00 -2.21810E+00 -4.04110E+00
 -7.11449E-01 -3.93195E+00 +4.52204E-01 -3.31227E+00 +1.13296E+00 -2.41870E+00 +1.31688E+00 -1.50444E+00
 +1.10102E+00 -7.81507E-01 +6.55764E-01 -3.79645E-01 +1.75319E-01 -3.29017E-01 -1.70512E-01 -5.67964E-01
 -2.72533E-01 -9.70855E-01 -9.93165E-02 -1.38705E+00 +3.06264E-01 -1.68039E+00 +8.47645E-01 -1.75982E+00
 +1.40514E+00 -1.59491E+00 +1.86774E+00 -1.21451E+00 +2.15818E+00 -6.91224E-01 +2.24597E+00 -1.17385E-01
 +2.14669E+00 +4.20238E-01 +1.90976E+00 +8.60282E-01 +1.59925E+00 +1.17680E+00 +1.27398E+00 +1.37808E+00
 +9.72298E-01 +1.49602E+00 +7.05371E-01 +1.57027E+00 +4.59771E-01 +1.63228E+00 +2.07785E-01 +1.69392E+00
 -7.83451E-02 +1.74372E+00 -4.12827E-01 +1.75136E+00 -7.87471E-01 +1.67874E+00 -1.17014E+00 +1.49395E+00
 -1.51094E+00 +1.18411E+00 -1.75428E+00 +7.63233E-01 -1.85361E+00 +2.72809E-01 -1.78465E+00 -2.25203E-01
 -1.55370E+00 -6.61241E-01 -1.19851E+00 -9.73688E-01 -7.81694E-01 -1.12320E+00 -3.77764E-01 -1.10225E+00
 -5.71753E-02 -9.37584E-01 +1.29116E-01 -6.84827E-01 +1.60912E-01 -4.16566E-01 +5.33114E-02 -2.06496E-01
 -1.46483E-01 -1.13221E-01 -3.69371E-01 -1.67247E-01 -5.39334E-01 -3.63963E-01 -5.89962E-01 -6.64072E-01
 -4.79074E-01 -1.00132E+00 -1.98421E-01 -1.29590E+00 +2.23461E-01 -1.47075E+00 +7.25778E-01 -1.46747E+00
 +1.22646E+00 -1.25883E+00 +1.63748E+00 -8.55266E-01 +1.88155E+00 -3.04343E-01 +1.90711E+00 +3.16881E-01
 +1.69876E+00 +9.15160E-01 +1.28127E+00 +1.39763E+00 +7.16176E-01 +1.68870E+00 +9.16591E-02 +1.74409E+00
 -4.92692E-01 +1.55962E+00 -9.43617E-01 +1.17279E+00 -1.19121E+00 +6.56861E-01 -1.20215E+00 +1.08155E-01
 -9.86590E-01 -3.71219E-01 -5.97142E-01 -6.92322E-01 -1.19923E-01 -7.96490E-01 +3.41112E-01 -6.67335E-01
 +6.83839E-01 -3.35124E-01 +8.28089E-01 +1.27667E-01 +7.32371E-01 +6.19234E-01 +4.03743E-01 +1.02768E+00
 -1.01481E-01 +1.25319E+00 -6.86837E-01 +1.22888E+00 -1.23338E+00 +9.36065E-01 -1.62280E+00 +4.10621E-01
 -1.76166E+00 -2.61491E-01 -1.60181E+00 -9.59105E-01 -1.15259E+00 -1.54874E+00 -4.81873E-01 -1.91118E+00
 +2.94837E-01 -1.96650E+00 +1.03573E+00 -1.69214E+00 +1.60039E+00 -1.13014E+00 +1.87852E+00 -3.81174E-01
 +1.81365E+00 +4.13660E-01 +1.41672E+00 +1.10035E+00 +7.66142E-01 +1.54321E+00 -6.23299E-03 +1.65358E+00
 -7.40881E-01 +1.40972E+00 -1.28313E+00 +8.63355E-01 -1.51585E+00 +1.30954E-01 -1.38530E+00 -6.28989E-01
 -9.14420E-01 -1.24843E+00 -2.00197E-01 -1.58536E+00 +6.04871E-01 -1.55499E+00 +1.32383E+00 -1.14977E+00
 +1.79257E+00 -4.43384E-01 +1.89562E+00 +4.22525E-01 +1.59252E+00 +1.26669E+00 +9.28979E-01 +1.90602E+00
 +2.97472E-02 +2.19491E+00 -9.25775E-01 +2.05774E+00 -1.74041E+00 +1.50720E+00 -2.24100E+00 +6.44109E-01
 -2.31618E+00 -3.61756E-01 -1.94189E+00 -1.30626E+00 -1.18867E+00 -1.99385E+00 -2.08722E-01 -2.27966E+00
 +7.95022E-01 -2.10178E+00 +1.61149E+00 -1.49627E+00 +2.06684E+00 -5.91280E-01 +2.06266E+00 +4.18913E-01
 +1.59866E+00 +1.31475E+00 +7.74437E-01 +1.89858E+00 -2.30421E-01 +2.03796E+00 -1.19402E+00 +1.69557E+00
 -1.89972E+00 +9.39029E-01 -2.18342E+00 -7.20603E-02 -1.97016E+00 -1.11925E+00 -1.29196E+00 -1.97173E+00
 -2.82659E-01 -2.43626E+00 +8.49440E-01 -2.39962E+00 +1.86544E+00 -1.85438E+00 +2.54692E+00 -9.01991E-01
 +2.74324E+00 +2.67553E-01 +2.40461E+00 +1.41545E+00 +1.59386E+00 +2.30470E+00 +4.73954E-01 +2.75076E+00
 -7.26035E-01 +2.66128E+00 -1.75935E+00 +2.05622E+00 -2.41393E+00 +1.06411E+00 -2.55759E+00 -1.05039E-01
 -2.16613E+00 -1.20415E+00 -1.32849E+00 -2.00147E+00 -2.27953E-01 -2.32958E+00 +8.96770E-01 -2.12078E+00
 +1.80190E+00 -1.42119E+00 +2.28991E+00 -3.80894E-01 +2.25085E+00 +7.77676E-01 +1.68513E+00 +1.80635E+00
 +7.03248E-01 +2.48281E+00 -4.97333E-01 +2.65647E+00 -1.67296E+00 +2.27922E+00 -2.58365E+00 +1.41483E+00
 -3.04166E+00 +2.25606E-01 -2.94900E+00 -1.06080E+00 -2.31635E+00 -2.19722E+00 -1.26015E+00 -2.96610E+00
 +2.11998E-02 -3.22203E+00 +1.28697E+00 -2.91948E+00 +2.30125E+00 -2.12060E+00 +2.87852E+00 -9.82047E-01
 +2.91869E+00 +2.76181E-01 +2.42543E+00 +1.41347E+00 +1.50444E+00 +2.21465E+00 +3.42593E-01 +2.53062E+00
 -8.27856E-01 +2.30621E+00 -1.77321E+00 +1.59033E+00 -2.30226E+00 +5.26778E-01 -2.30233E+00 -6.72204E-01
 -1.76099E+00 -1.76507E+00 -7.69728E-01 -2.52559E+00 +4.91244E-01 -2.78516E+00 +1.78439E+00 -2.46534E+00
 +2.85727E+00 -1.59484E+00 +3.48873E+00 -3.07502E-01 +3.53081E+00 +1.17870E+00 +2.93886E+00 +2.59867E+00
 +1.78412E+00 +3.68722E+00 +2.45616E-01 +4.22814E+00 -1.41806E+00 +4.09665E+00 -2.91317E+00 +3.28708E+00
 -3.96420E+00 +1.91983E+00 -4.36679E+00 +2.25097E-01 -4.03030E+00 -1.49530E+00 -3.00121E+00 -2.92197E+00
 -1.46146E+00 -3.77888E+00 +2.99680E-01 -3.88961E+00 +1.93672E+00 -3.21765E+00 +3.11351E+00 -1.88166E+00
 +3.57124E+00 -1.40513E-01 +3.18543E+00 +1.65074E+00 +1.99932E+00 +3.10749E+00 +2.25396E-01 +3.89261E+00
 -1.78793E+00 +3.78890E+00 -3.61976E+00 +2.75158E+00 -4.85937E+00 +9.28545E-01 -5.19223E+00 -1.35812E+00
 -4.47138E+00 -3.66806E+00 -2.75844E+00 -5.52686E+00 -3.23515E-01 -6.52249E+00 +2.39857E+00 -6.39458E+00
 +4.88911E+00 -5.09711E+00 +6.64855E+00 -2.81965E+00 +7.30110E+00 +3.95861E-02 +6.67898E+00 +2.94612E+00
 +4.86704E+00 +5.33387E+00 +2.19647E+00 +6.72158E+00 -8.13814E-01 +6.81699E+00 -3.55815E+00 +5.58565E+00
 -5.46786E+00 +3.26842E+00 -6.13250E+00 +3.41196E-01 -5.39248E+00 -2.57680E+00 -3.38226E+00 -4.84887E+00
 -5.12612E-01 -5.95547E+00 +2.60649E+00 -5.60899E+00 +5.28832E+00 -3.82362E+00 +6.91270E+00 -9.23565E-01
 +7.06032E+00 +2.51435E+00 +5.60923E+00 +5.77378E+00 +2.77141E+00 +8.14544E+00 -9.39987E-01 +9.07710E+00
 -4.80831E+00 +8.29522E+00 -8.05698E+00 +5.87145E+00 -1.00100E+01 +2.21849E+00 -1.02358E+01 -1.98603E+00
