 Created: 19-Jan-2021
 $NMID
 ID='D:\BASISSIMULATI'
 FMTDAT='(8E13.5)'
 VOLUME=   1.00000E+00
 TRAMP=   1.00000E+00
 $END
 +2.49171E+01 +3.81478E+00 +2.35258E+01 +8.99749E+00 +2.10705E+01 +1.37643E+01 +1.76642E+01 +1.78999E+01
 +1.34627E+01 +2.12177E+01 +8.65770E+00 +2.35688E+01 +3.46788E+00 +2.48481E+01 -1.87096E+00 +2.49994E+01
 -7.11663E+00 +2.40174E+01 -1.20316E+01 +2.19485E+01 -1.63935E+01 +1.88883E+01 -2.00057E+01 +1.49768E+01
 -2.27056E+01 +1.03927E+01 -2.43722E+01 +5.34489E+00 -2.49317E+01 +6.27483E-02 -2.43605E+01 -5.21395E+00
 -2.26862E+01 -1.02461E+01 -1.99864E+01 -1.48060E+01 -1.63851E+01 -1.86877E+01 -1.20469E+01 -2.17165E+01
 -7.16955E+00 -2.37563E+01 -1.97494E+00 -2.47164E+01 +3.30102E+00 -2.45548E+01 +8.41909E+00 -2.32807E+01
 +1.31476E+01 -2.09535E+01 +1.72728E+01 -1.76804E+01 +2.06088E+01 -1.36112E+01 +2.30056E+01 -8.93153E+00
 +2.43561E+01 -3.85445E+00 +2.46006E+01 +1.38934E+00 +2.37299E+01 +6.56193E+00 +2.17852E+01 +1.14290E+01
 +1.88562E+01 +1.57705E+01 +1.50773E+01 +1.93905E+01 +1.06210E+01 +2.21261E+01 +5.69046E+00 +2.38547E+01
 +5.09717E-01 +2.44994E+01 -4.68599E+00 +2.40329E+01 -9.66118E+00 +2.24780E+01 -1.41907E+01 +1.99068E+01
 -1.80701E+01 +1.64376E+01 -2.11244E+01 +1.22288E+01 -2.32166E+01 +7.47248E+00 -2.42534E+01 +2.38497E+00
 -2.41894E+01 -2.80265E+00 -2.30293E+01 -7.85511E+00 -2.08274E+01 -1.25437E+01 -1.76850E+01 -1.66564E+01
 -1.37462E+01 -2.00078E+01 -9.19051E+00 -2.24472E+01 -4.22550E+00 -2.38656E+01 +9.23204E-01 -2.42001E+01
 +6.02199E+00 -2.34374E+01 +1.08399E+01 -2.16138E+01 +1.51589E+01 -1.88135E+01 +1.87842E+01 -1.51650E+01
 +2.15526E+01 -1.08350E+01 +2.33398E+01 -6.02074E+00 +2.40666E+01 -9.41186E-01 +2.37015E+01 +4.17305E+00
 +2.22629E+01 +9.09013E+00 +1.98176E+01 +1.35876E+01 +1.64780E+01 +1.74621E+01 +1.23970E+01 +2.05393E+01
 +7.76048E+00 +2.26808E+01 +2.77958E+00 +2.37911E+01 -2.31946E+00 +2.38214E+01 -7.30539E+00 +2.27722E+01
 -1.19524E+01 +2.06926E+01 -1.60505E+01 +1.76785E+01 -1.94147E+01 +1.38680E+01 -2.18939E+01 +9.43496E+00
 -2.33769E+01 +4.58132E+00 -2.37982E+01 -4.72331E-01 -2.31403E+01 -5.49664E+00 -2.14348E+01 -1.02640E+01
 -1.87606E+01 -1.45587E+01 -1.52403E+01 -1.81868E+01 -1.10349E+01 -2.09851E+01 -6.33606E+00 -2.28280E+01
 -1.35741E+00 -2.36334E+01 +3.67493E+00 -2.33666E+01 +8.53283E+00 -2.20412E+01 +1.29964E+01 -1.97190E+01
 +1.68640E+01 -1.65069E+01 +1.99613E+01 -1.25517E+01 +2.21491E+01 -8.03386E+00 +2.33297E+01 -3.15906E+00
 +2.34511E+01 +1.85125E+00 +2.25097E+01 +6.76980E+00 +2.05495E+01 +1.13738E+01 +1.76612E+01 +1.54552E+01
 +1.39771E+01 +1.88297E+01 +9.66525E+00 +2.13457E+01 +4.92220E+00 +2.28903E+01 -3.64800E-02 +2.33951E+01
 -4.98572E+00 +2.28389E+01 -9.70124E+00 +2.12486E+01 -1.39697E+01 +1.86977E+01 -1.75984E+01 +1.53036E+01
 -2.04239E+01 +1.12212E+01 -2.23193E+01 +6.63672E+00 -2.32003E+01 +1.75866E+00 -2.30285E+01 -3.19145E+00
 -2.18133E+01 -7.98915E+00 -1.96116E+01 -1.24173E+01 -1.65244E+01 -1.62757E+01 -1.26933E+01 -1.93905E+01
 -8.29297E+00 -2.16216E+01 -3.52369E+00 -2.28694E+01 +1.39779E+00 -2.30788E+01 +6.24819E+00 -2.22420E+01
 +1.08078E+01 -2.03985E+01 +1.48705E+01 -1.76335E+01 +1.82529E+01 -1.40737E+01 +2.08028E+01 -9.88170E+00
 +2.24059E+01 -5.24843E+00 +2.29911E+01 -3.84589E-01 +2.25335E+01 +4.48905E+00 +2.10554E+01 +9.15160E+00
 +1.86254E+01 +1.33921E+01 +1.53552E+01 +1.70190E+01 +1.13942E+01 +1.98690E+01 +6.92305E+00 +2.18140E+01
 +2.14518E+00 +2.27675E+01 -2.72240E+00 +2.26876E+01 -7.45897E+00 +2.15797E+01 -1.18501E+01 +1.94955E+01
 -1.56973E+01 +1.65312E+01 -1.88270E+01 +1.28223E+01 -2.10987E+01 +8.53811E+00 -2.24106E+01 +3.87374E+00
 -2.27048E+01 -9.58856E-01 -2.19696E+01 -5.74042E+00 -2.02400E+01 -1.02543E+01 -1.75958E+01 -1.42964E+01
 -1.41583E+01 -1.76843E+01 -1.00846E+01 -2.02654E+01 -5.56033E+00 -2.19241E+01 -7.91117E-01 -2.25866E+01
 +4.00646E+00 -2.22245E+01 +8.61494E+00 -2.08557E+01 +1.28258E+01 -1.85440E+01 +1.64487E+01 -1.53955E+01
 +1.93206E+01 -1.15542E+01 +2.13124E+01 -7.19534E+00 +2.23351E+01 -2.51724E+00 +2.23441E+01 +2.26760E+00
 +2.13405E+01 +6.94216E+00 +1.93713E+01 +1.12948E+01 +1.65274E+01 +1.51287E+01 +1.29389E+01 +1.82710E+01
 +8.76962E+00 +2.05803E+01 +4.20949E+00 +2.19534E+01 -5.34240E-01 +2.23294E+01 -5.24632E+00 +2.16928E+01
 -9.71324E+00 +2.00742E+01 -1.37330E+01 +1.75484E+01 -1.71240E+01 +1.42313E+01 -1.97337E+01 +1.02744E+01
 -2.14450E+01 +5.85816E+00 -2.21818E+01 +1.18334E+00 -2.19121E+01 -3.53777E+00 -2.06499E+01 -8.09114E+00
 -1.84538E+01 -1.22707E+01 -1.54248E+01 -1.58876E+01 -1.17016E+01 -1.87788E+01 -7.45391E+00 -2.08145E+01
 -2.87510E+00 -2.19036E+01 +1.82683E+00 -2.19985E+01 +6.43858E+00 -2.10962E+01 +1.07513E+01 -1.92393E+01
 +1.45700E+01 -1.65134E+01 +1.77225E+01 -1.30434E+01 +2.00668E+01 -8.98780E+00 +2.14981E+01 -4.53122E+00
 +2.19528E+01 +1.23714E-01 +2.14120E+01 +4.76574E+00 +1.99016E+01 +9.18450E+00 +1.74917E+01 +1.31801E+01
 +1.42929E+01 +1.65721E+01 +1.04514E+01 +1.92078E+01 +6.14224E+00 +2.09689E+01 +1.56151E+00 +2.17769E+01
 -3.08280E+00 +2.15967E+01 -7.58010E+00 +2.04381E+01 -1.17268E+01 +1.83551E+01 -1.53356E+01 +1.54436E+01
 -1.82437E+01 +1.18367E+01 -2.03205E+01 +7.69906E+00 -2.14731E+01 +3.21901E+00 -2.16508E+01 -1.39989E+00
 -2.08470E+01 -5.94810E+00 -1.90998E+01 -1.02196E+01 -1.64897E+01 -1.40213E+01 -1.31363E+01 -1.71816E+01
 -9.19299E+00 -1.95582E+01 -4.83920E+00 -2.10448E+01 -2.72944E-01 -2.15754E+01 +4.29852E+00 -2.11273E+01
 +8.66800E+00 -1.97225E+01 +1.26378E+01 -1.74261E+01 +1.60286E+01 -1.43435E+01 +1.86878E+01 -1.06158E+01
 +2.04958E+01 -6.41285E+00 +2.13722E+01 -1.92586E+00 +2.12786E+01 +2.64136E+00 +2.02209E+01 +7.08171E+00
 +1.82484E+01 +1.11942E+01 +1.54521E+01 +1.47929E+01 +1.19598E+01 +1.77155E+01 +7.93109E+00 +1.98307E+01
 +3.54923E+00 +2.10439E+01 -9.86591E-01 +2.13015E+01 -5.47059E+00 +2.05934E+01 -9.69962E+00 +1.89531E+01
 -1.34825E+01 +1.64564E+01 -1.66483E+01 +1.32179E+01 -1.90548E+01 +9.38548E+00 -2.05939E+01 +5.13371E+00
 -2.11973E+01 +6.55959E-01 -2.08392E+01 -3.84449E+00 -1.95372E+01 -8.16365E+00 -1.73518E+01 -1.21061E+01
 -1.43835E+01 -1.54937E+01 -1.07681E+01 -1.81738E+01 -6.67028E+00 -2.00261E+01 -2.27664E+00 -2.09680E+01
 +2.21328E+00 -2.09581E+01 +6.59584E+00 -1.99984E+01 +1.06726E+01 -1.81340E+01 +1.42593E+01 -1.54507E+01
 +1.71942E+01 -1.20714E+01 +1.93452E+01 -8.15031E+00 +2.06162E+01 -3.86604E+00 +2.09509E+01 +5.86714E-01
 +2.03356E+01 +5.00589E+00 +1.87996E+01 +9.19126E+00 +1.64141E+01 +1.29535E+01 +1.32885E+01 +1.61229E+01
 +9.56560E+00 +1.85566E+01 +5.41502E+00 +2.01455E+01 +1.02556E+00 +2.08189E+01 -3.40350E+00 +2.05478E+01
 -7.67136E+00 +1.93460E+01 -1.15849E+01 +1.72693E+01 -1.49672E+01 +1.44132E+01 -1.76660E+01 +1.09084E+01
 -1.95599E+01 +6.91481E+00 -2.05644E+01 +2.61409E+00 -2.06354E+01 -1.79836E+00 -1.97711E+01 -6.12237E+00
 -1.80122E+01 -1.01621E+01 -1.54397E+01 -1.37350E+01 -1.21716E+01 -1.66799E+01 -8.35701E+00 -1.88642E+01
 -4.16967E+00 -2.01902E+01 +2.00054E-01 -2.05991E+01 +4.55386E+00 -2.00738E+01 +8.69445E+00 -1.86397E+01
 +1.24345E+01 -1.63630E+01 +1.56052E+01 -1.33485E+01 +1.80637E+01 -9.73365E+00 +1.96997E+01 -5.68341E+00
 +2.04404E+01 -1.38196E+00 +2.02536E+01 +2.97536E+00 +1.91493E+01 +7.19101E+00 +1.71788E+01 +1.10742E+01
 +1.44329E+01 +1.44493E+01 +1.10373E+01 +1.71644E+01 +7.14674E+00 +1.90973E+01 +2.93844E+00 +2.01618E+01
 -1.39641E+00 +2.03108E+01 -5.66118E+00 +1.95392E+01 -9.66269E+00 +1.78833E+01 -1.32200E+01 +1.54195E+01
 -1.61727E+01 +1.22609E+01 -1.83878E+01 +8.55149E+00 -1.97660E+01 +4.46040E+00 -2.02464E+01 +1.73596E-01
 -1.98085E+01 -4.11435E+00 -1.84736E+01 -8.20911E+00 -1.63035E+01 -1.19254E+01 -1.33980E+01 -1.50954E+01
 -9.88994E+00 -1.75764E+01 -5.93915E+00 -1.92569E+01 -1.72540E+00 -2.00621E+01 +2.55992E+00 -1.99568E+01
 +6.72251E+00 -1.89473E+01 +1.05739E+01 -1.70807E+01 +1.39401E+01 -1.44430E+01 +1.66692E+01 -1.11548E+01
 +1.86386E+01 -7.36634E+00 +1.97603E+01 -3.24996E+00 +1.99847E+01 +1.00725E+00 +1.93030E+01 +5.21213E+00
 +1.77477E+01 +9.17420E+00 +1.53904E+01 +1.27143E+01 +1.23395E+01 +1.56726E+01 +8.73404E+00 +1.79161E+01
 +4.73848E+00 +1.93440E+01 +5.34447E-01 +1.98931E+01 -3.68721E+00 +1.95398E+01 -7.73514E+00 +1.83016E+01
 -1.14262E+01 +1.62359E+01 -1.45936E+01 +1.34376E+01 -1.70947E+01 +1.00348E+01 -1.88171E+01 +6.18250E+00
 -1.96841E+01 +2.05610E+00 -1.96577E+01 -2.15700E+00 -1.87404E+01 -6.26574E+00 -1.69753E+01 -1.00841E+01
 -1.44437E+01 -1.34394E+01 -1.12615E+01 -1.61804E+01 -7.57390E+00 -1.81839E+01 -3.54887E+00 -1.93601E+01
 +6.30681E-01 -1.96571E+01 +4.77509E+00 -1.90628E+01 +8.69658E+00 -1.76056E+01 +1.22178E+01 -1.53528E+01
 +1.51798E+01 -1.24077E+01 +1.74492E+01 -8.90497E+00 +1.89243E+01 -5.00417E+00 +1.95395E+01 -8.82708E-01
 +1.92682E+01 +3.27229E+00 +1.81241E+01 +7.27246E+00 +1.61604E+01 +1.09368E+01 +1.34675E+01 +1.40997E+01
 +1.01684E+01 +1.66187E+01 +6.41374E+00 +1.83806E+01 +2.37429E+00 +1.93067E+01 -1.76643E+00 +1.93565E+01
 -5.82059E+00 +1.85289E+01 -9.60461E+00 +1.68630E+01 -1.29474E+01 +1.44354E+01 -1.56982E+01 +1.13575E+01
 -1.77333E+01 +7.76970E+00 -1.89615E+01 +3.83541E+00 -1.93285E+01 -2.66510E-01 -1.88190E+01 -4.34992E+00
 -1.74574E+01 -8.22979E+00 -1.53068E+01 -1.17306E+01 -1.24659E+01 -1.46943E+01 -9.06454E+00 -1.69874E+01
 -5.25771E+00 -1.85071E+01 -1.21859E+00 -1.91857E+01 +2.86942E+00 -1.89937E+01 +6.82097E+00 -1.79413E+01
 +1.04572E+01 -1.60775E+01 +1.36138E+01 -1.34879E+01 +1.61485E+01 -1.02912E+01 +1.79474E+01 -6.63314E+00
 +1.89302E+01 -2.68019E+00 +1.90535E+01 +1.38802E+00 +1.83131E+01 +5.38694E+00 +1.67439E+01 +9.13545E+00
 +1.44185E+01 +1.24641E+01 +1.14432E+01 +1.52226E+01 +7.95401E+00 +1.72870E+01 +4.10984E+00 +1.85647E+01
 +8.54556E-02 +1.89990E+01 -3.93649E+00 +1.85717E+01 -7.77372E+00 +1.73034E+01 -1.12526E+01 +1.52529E+01
 -1.42161E+01 +1.25144E+01 -1.65307E+01 +9.21306E+00 -1.80926E+01 +5.49938E+00 -1.88320E+01 +1.54231E+00
 -1.87168E+01 -2.47845E+00 -1.77536E+01 -6.38058E+00 -1.59874E+01 -9.98742E+00 -1.34993E+01 -1.31360E+01
 -1.04035E+01 -1.56843E+01 -6.84096E+00 -1.75178E+01 -2.97404E+00 -1.85546E+01 +1.02160E+00 -1.87489E+01
