 Created: 19-Jan-2021
 $NMID
 ID='D:\BASISSIMULATI'
 FMTDAT='(8E13.5)'
 VOLUME=   1.00000E+00
 TRAMP=   1.00000E+00
 $END
 +2.11614E+02 +3.23628E+01 +1.98822E+02 +7.71573E+01 +1.75758E+02 +1.17424E+02 +1.43933E+02 +1.50741E+02
 +1.05429E+02 +1.75169E+02 +6.27517E+01 +1.89385E+02 +1.86473E+01 +1.92771E+02 -2.40920E+01 +1.85449E+02
 -6.28261E+01 +1.68261E+02 -9.52521E+01 +1.42699E+02 -1.19562E+02 +1.10790E+02 -1.34563E+02 +7.49362E+01
 -1.39751E+02 +3.77377E+01 -1.35330E+02 +1.79917E+00 -1.22184E+02 -3.04603E+01 -1.01791E+02 -5.69805E+01
 -7.61036E+01 -7.62034E+01 -4.73861E+01 -8.71761E+01 -1.80385E+01 -8.96070E+01 +9.59023E+00 -8.38699E+01
 +3.33811E+01 -7.09578E+01 +5.16027E+01 -5.23896E+01 +6.30369E+01 -3.00781E+01 +6.70614E+01 -6.16925E+00
 +6.36858E+01 +1.71334E+01 +5.35363E+01 +3.77471E+01 +3.77924E+01 +5.38750E+01 +1.80810E+01 +6.41473E+01
 -3.66426E+00 +6.77256E+01 -2.53665E+01 +6.43646E+01 -4.49784E+01 +5.44249E+01 -6.06521E+01 +3.88375E+01
 -7.08905E+01 +1.90219E+01 -7.46704E+01 -3.23395E+00 -7.15261E+01 -2.59232E+01 -6.15884E+01 -4.69871E+01
 -4.55742E+01 -6.44857E+01 -2.47301E+01 -7.67588E+01 -7.32059E-01 -8.25646E+01 +2.44493E+01 -8.11847E+01
 +4.87072E+01 -7.24877E+01 +6.99694E+01 -5.69454E+01 +8.63666E+01 -3.56009E+01 +9.63853E+01 -9.99119E+00
 +9.89940E+01 +1.79703E+01 +9.37309E+01 +4.61422E+01 +8.07484E+01 +7.23217E+01 +6.08081E+01 +9.44188E+01
 +3.52286E+01 +1.10621E+02 +5.78937E+00 +1.19540E+02 -2.54029E+01 +1.20323E+02 -5.60738E+01 +1.12725E+02
 -8.39554E+01 +9.71378E+01 -1.06961E+02 +7.45604E+01 -1.23346E+02 +4.65330E+01 -1.31848E+02 +1.50216E+01
 -1.31782E+02 -1.77285E+01 -1.23101E+02 -4.93613E+01 -1.06403E+02 -7.75890E+01 -8.28884E+01 -1.00367E+02
 -5.42735E+01 -1.16048E+02 -2.26625E+01 -1.23513E+02 +9.61027E+00 -1.22255E+02 +4.01565E+01 -1.12422E+02
 +6.67145E+01 -9.48072E+01 +8.73210E+01 -7.07912E+01 +1.00461E+02 -4.22396E+01 +1.05182E+02 -1.13630E+01
 +1.01173E+02 +1.94500E+01 +8.87810E+01 +4.78129E+01 +6.89948E+01 +7.15219E+01 +4.33663E+01 +8.87237E+01
 +1.38960E+01 +9.80557E+01 -1.71172E+01 +9.87507E+01 -4.72495E+01 +9.06957E+01 -7.41346E+01 +7.44417E+01
 -9.56423E+01 +5.11636E+01 -1.10039E+02 +2.25725E+01 -1.16120E+02 -9.21205E+00 -1.13297E+02 -4.18207E+01
 -1.01649E+02 -7.28116E+01 -8.19077E+01 -9.98529E+01 -5.54123E+01 -1.20897E+02 -2.40029E+01 -1.34334E+02
 +1.01147E+01 -1.39109E+02 +4.45337E+01 -1.34800E+02 +7.68259E+01 -1.21649E+02 +1.04721E+02 -1.00541E+02
 +1.26276E+02 -7.29342E+01 +1.40014E+02 -4.07517E+01 +1.45032E+02 -6.23362E+00 +1.41067E+02 +2.82292E+01
 +1.28504E+02 +6.02743E+01 +1.08346E+02 +8.77421E+01 +8.21312E+01 +1.08834E+02 +5.18123E+01 +1.22243E+02
 +1.96075E+01 +1.27244E+02 -1.21705E+01 +1.23739E+02 -4.12882E+01 +1.12259E+02 -6.57590E+01 +9.39129E+01
 -8.39890E+01 +7.02938E+01 -9.48922E+01 +4.33517E+01 -9.79647E+01 +1.52381E+01 -9.33138E+01 -1.18617E+01
 -8.16396E+01 -3.58984E+01 -6.41708E+01 -5.51153E+01 -4.25604E+01 -6.81800E+01 -1.87488E+01 -7.42832E+01
 +5.19311E+00 -7.31937E+01 +2.72307E+01 -6.52692E+01 +4.55273E+01 -5.14195E+01 +5.85888E+01 -3.30270E+01
 +6.53810E+01 -1.18302E+01 +6.54084E+01 +1.02201E+01 +5.87508E+01 +3.11208E+01 +4.60532E+01 +4.89799E+01
 +2.84711E+01 +6.21706E+01 +7.57473E+00 +6.94633E+01 -1.47791E+01 +7.01262E+01 -3.65987E+01 +6.39856E+01
 -5.59194E+01 +5.14426E+01 -7.09642E+01 +3.34422E+01 -8.02892E+01 +1.14008E+01 -8.29036E+01 -1.29053E+01
 -7.83537E+01 -3.74802E+01 -6.67654E+01 -6.02665E+01 -4.88399E+01 -7.93098E+01 -2.58051E+01 -9.29158E+01
 +6.75063E-01 -9.97876E+01 +2.86269E+01 -9.91335E+01 +5.59174E+01 -9.07356E+01 +8.04187E+01 -7.49745E+01
 +1.00174E+02 -5.28073E+01 +1.13550E+02 -2.57009E+01 +1.19366E+02 +4.47427E+00 +1.16992E+02 +3.55827E+01
 +1.06401E+02 +6.53837E+01 +8.81747E+01 +9.16997E+01 +6.34702E+01 +1.12582E+02 +3.39342E+01 +1.26457E+02
 +1.58489E+00 +1.32251E+02 -3.13374E+01 +1.29470E+02 -6.25356E+01 +1.18241E+02 -8.98265E+01 +9.93043E+01
 -1.11304E+02 +7.39626E+01 -1.25479E+02 +4.39828E+01 -1.31394E+02 +1.14672E+01 -1.28689E+02 -2.13035E+01
 -1.17632E+02 -5.20383E+01 -9.90933E+01 -7.86065E+01 -7.44834E+01 -9.91952E+01 -4.56425E+01 -1.12442E+02
 -1.47033E+01 -1.17534E+02 +1.60701E+01 -1.14267E+02 +4.44522E+01 -1.03055E+02 +6.84220E+01 -8.48923E+01
 +8.63133E+01 -6.12813E+01 +9.69367E+01 -3.41092E+01 +9.96659E+01 -5.50521E+00 +9.44796E+01 +2.23233E+01
 +8.19580E+01 +4.72587E+01 +6.32334E+01 +6.74334E+01 +3.98987E+01 +8.13703E+01 +1.38817E+01 +8.80920E+01
 -1.27058E+01 +8.71921E+01 -3.77319E+01 +7.88613E+01 -5.92090E+01 +6.38679E+01 -7.54466E+01 +4.34947E+01
 -8.51798E+01 +1.94354E+01 -8.76649E+01 -6.33920E+00 -8.27335E+01 -3.17359E+01 -7.08034E+01 -5.47026E+01
 -5.28419E+01 -7.33878E+01 -3.02892E+01 -8.62842E+01 -4.94350E+00 -9.23443E+01 +2.11799E+01 -9.10611E+01
 +4.60066E+01 -8.25054E+01 +6.75647E+01 -6.73195E+01 +8.41383E+01 -4.66654E+01 +9.44007E+01 -2.21337E+01
 +9.75168E+01 +4.38087E+00 +9.32077E+01 +3.08270E+01 +8.17717E+01 +5.51563E+01 +6.40604E+01 +7.54827E+01
 +4.14127E+01 +9.02280E+01 +1.55505E+01 +9.82440E+01 -1.15549E+01 +9.89017E+01 -3.78355E+01 +9.21387E+01
 -6.12862E+01 +7.84644E+01 -8.01199E+01 +5.89198E+01 -9.29053E+01 +3.49966E+01 -9.86767E+01 +8.52225E+00
 -9.70084E+01 -1.84822E+01 -8.80466E+01 -4.39575E+01 -7.24976E+01 -6.59653E+01 -5.15723E+01 -8.28374E+01
 -2.68925E+01 -9.33038E+01 -3.65018E-01 -9.65904E+01 +2.59660E+01 -9.24773E+01 +5.00765E+01 -8.13154E+01
 +7.01192E+01 -6.39981E+01 +8.45653E+01 -4.18912E+01 +9.23223E+01 -1.67272E+01 +9.28177E+01 +9.52943E+00
 +8.60420E+01 +3.48345E+01 +7.25490E+01 +5.72218E+01 +5.34120E+01 +7.49555E+01 +3.01398E+01 +8.66634E+01
 +4.56011E+00 +9.14433E+01 -2.13228E+01 +8.89317E+01 -4.54828E+01 +7.93317E+01 -6.60292E+01 +6.33966E+01
 -8.13525E+01 +4.23714E+01 -9.02488E+01 +1.78964E+01 -9.20130E+01 -8.12030E+00 -8.64927E+01 -3.36502E+01
 -7.41006E+01 -5.67009E+01 -5.57816E+01 -7.54706E+01 -3.29410E+01 -8.84868E+01 -7.33492E+00 -9.47204E+01
 +1.90642E+01 -9.36648E+01 +4.42202E+01 -8.53754E+01 +6.61899E+01 -7.04653E+01 +8.32730E+01 -5.00584E+01
 +9.41426E+01 -2.57028E+01 +9.79478E+01 +7.48233E-01 +9.43789E+01 +2.72783E+01 +8.36916E+01 +5.18632E+01
 +6.66868E+01 +7.26262E+01 +4.46498E+01 +8.79821E+01 +1.92508E+01 +9.67589E+01 -7.58252E+00 +9.82873E+01
 -3.38135E+01 +9.24520E+01 -5.74524E+01 +7.96999E+01 -7.67086E+01 +6.10058E+01 -9.01279E+01 +3.77973E+01
 -9.67035E+01 +1.18445E+01 -9.59523E+01 -1.48756E+01 -8.79514E+01 -4.03306E+01 -7.33316E+01 -6.25889E+01
 -5.32276E+01 -7.99670E+01 -2.91910E+01 -9.11583E+01 -3.06997E+00 -9.53326E+01 +2.31325E+01 -9.21985E+01
 +4.74126E+01 -8.20249E+01 +6.79192E+01 -6.56193E+01 +8.30958E+01 -4.42645E+01 +9.17990E+01 -1.96193E+01
 +9.33855E+01 +6.40949E+00 +8.77605E+01 +3.18142E+01 +7.53837E+01 +5.46406E+01 +5.72325E+01 +7.31380E+01
 +3.47266E+01 +8.58931E+01 +9.61700E+00 +9.19382E+01 -1.61486E+01 +9.08247E+01 -4.05763E+01 +8.26561E+01
 -6.17792E+01 +6.80797E+01 -7.81227E+01 +4.82353E+01 -8.83494E+01 +2.46667E+01 -9.16753E+01 -7.97741E-01
 -8.78493E+01 -2.61860E+01 -7.71719E+01 -4.95345E+01 -6.04707E+01 -6.90391E+01 -3.90363E+01 -8.31937E+01
 -1.45224E+01 -9.09053E+01 +1.11819E+01 -9.15773E+01 +3.60977E+01 -8.51551E+01 +5.83086E+01 -7.21290E+01
 +7.61071E+01 -5.34962E+01 +8.81262E+01 -3.06827E+01 +9.34432E+01 -5.43404E+00 +9.16500E+01 +2.03199E+01
 +8.28834E+01 +4.46126E+01 +6.78137E+01 +6.55925E+01 +4.75922E+01 +8.16640E+01 +2.37617E+01 +9.16098E+01
 -1.86216E+00 +9.46830E+01 -2.73309E+01 +9.06633E+01 -5.07128E+01 +7.98728E+01 -7.02411E+01 +6.31497E+01
 -8.44488E+01 +4.17826E+01 -9.22802E+01 +1.74104E+01 -9.31704E+01 -8.10447E+00 -8.70877E+01 -3.28194E+01
 -7.45336E+01 -5.48613E+01 -5.65025E+01 -7.25697E+01 -3.44040E+01 -8.46242E+01 -9.95273E+00 -9.01441E+01
 +1.49648E+01 -8.87545E+01 +3.84359E+01 -8.06139E+01 +5.86690E+01 -6.63992E+01 +7.41315E+01 -4.72519E+01
 +8.36670E+01 -2.46883E+01 +8.65833E+01 -4.80583E-01 +8.27037E+01 +2.34805E+01 +7.23797E+01 +4.53327E+01
 +5.64610E+01 +6.33865E+01 +3.62288E+01 +7.62551E+01 +1.32946E+01 +8.29613E+01 -1.05258E+01 +8.30122E+01
 -3.33536E+01 +7.64360E+01 -5.33935E+01 +6.37787E+01 -6.90732E+01 +4.60602E+01 -7.91648E+01 +2.46945E+01
 -8.28804E+01 +1.37898E+00 -7.99327E+01 -2.20387E+01 -7.05568E+01 -4.37038E+01 -5.54915E+01 -6.18998E+01
 -3.59219E+01 -7.51812E+01 -1.33868E+01 -8.24866E+01 +1.03409E+01 -8.32212E+01 +3.33918E+01 -7.73035E+01
 +5.39457E+01 -6.51719E+01 +7.03725E+01 -4.77510E+01 +8.13596E+01 -2.63810E+01 +8.60141E+01 -2.71391E+00
 +8.39323E+01 +2.14139E+01 +7.52324E+01 +4.41236E+01 +6.05463E+01 +6.36388E+01 +4.09714E+01 +7.84237E+01
 +1.79874E+01 +8.73014E+01 -6.65716E+00 +8.95458E+01 -3.10789E+01 +8.49387E+01 -5.34043E+01 +7.37868E+01
 -7.19133E+01 +5.69003E+01 -8.51718E+01 +3.55307E+01 -9.21420E+01 +1.12766E+01 -9.22624E+01 -1.40389E+01
 -8.54914E+01 -3.85067E+01 -7.23112E+01 -6.02773E+01 -5.36912E+01 -7.77026E+01 -3.10151E+01 -8.94609E+01
 -5.97502E+00 -9.46581E+01 +1.95568E+01 -9.28958E+01 +4.36706E+01 -8.43013E+01 +6.45640E+01 -6.95179E+01
 +8.06794E+01 -4.96554E+01 +9.08214E+01 -2.62053E+01 +9.42471E+01 -9.27311E-01 +9.07222E+01 +2.42853E+01
 +8.05370E+01 +4.75493E+01 +6.44835E+01 +6.71345E+01 +4.37937E+01 +8.15949E+01 +2.00446E+01 +8.98775E+01
 -4.96258E+00 +9.14010E+01 -2.93406E+01 +8.60983E+01 -5.12597E+01 +7.44197E+01 -6.90868E+01 +5.72962E+01
 -8.15094E+01 +3.60667E+01 -8.76337E+01 +1.23739E+01 -8.70510E+01 -1.19626E+01 -7.98668E+01 -3.50858E+01
 -6.66898E+01 -5.52440E+01 -4.85832E+01 -7.09240E+01 -2.69805E+01 -8.09662E+01 -3.57348E+00 -8.46515E+01
 +1.98185E+01 -8.17542E+01 +4.13895E+01 -7.25572E+01 +5.94860E+01 -5.78273E+01 +7.27333E+01 -3.87537E+01
 +8.01405E+01 -1.68545E+01 +8.11751E+01 +6.14231E+00 +7.58018E+01 +2.84336E+01 +6.44837E+01 +4.82805E+01
 +4.81435E+01 +6.41433E+01 +2.80908E+01 +7.47994E+01 +5.91879E+00 +7.94376E+01 -1.66206E+01 +7.77189E+01
 -3.77528E+01 +6.98020E+01 -5.58190E+01 +5.63287E+01 -6.94045E+01 +3.83733E+01 -7.74484E+01 +1.73572E+01
 -7.93247E+01 -5.06143E+00 -7.48908E+01 -2.71182E+01 -6.44972E+01 -4.70792E+01 -4.89596E+01 -6.33764E+01
