 Created: 19-Jan-2021
 $NMID
 ID='D:\BASISSIMULATI'
 FMTDAT='(8E13.5)'
 VOLUME=   1.00000E+00
 TRAMP=   1.00000E+00
 $END
 +1.25310E+02 +1.99618E+01 +1.13066E+02 +3.33073E+01 +8.40765E+01 +4.51533E+01 +4.52237E+01 +5.63801E+01
 +5.71045E+00 +6.62559E+01 -2.57713E+01 +7.24457E+01 -4.35719E+01 +7.20097E+01 -4.64465E+01 +6.29410E+01
 -3.73602E+01 +4.55228E+01 -2.19436E+01 +2.28338E+01 -6.29083E+00 +9.24569E-02 +5.03016E+00 -1.69710E+01
 +1.00621E+01 -2.40920E+01 +9.38383E+00 -2.00080E+01 +5.11673E+00 -6.93009E+00 -4.06807E-01 +1.02424E+01
 -5.67542E+00 +2.56518E+01 -1.03259E+01 +3.44700E+01 -1.47475E+01 +3.43844E+01 -1.93024E+01 +2.60582E+01
 -2.36622E+01 +1.24817E+01 -2.66594E+01 -2.41727E+00 -2.67547E+01 -1.52715E+01 -2.28783E+01 -2.42725E+01
 -1.51838E+01 -2.93388E+01 -5.27633E+00 -3.15278E+01 +4.27728E+00 -3.20957E+01 +1.09901E+01 -3.17229E+01
 +1.35868E+01 -3.02856E+01 +1.26811E+01 -2.72300E+01 +1.06307E+01 -2.22792E+01 +1.05685E+01 -1.60176E+01
 +1.49939E+01 -9.95941E+00 +2.45392E+01 -5.98011E+00 +3.74830E+01 -5.33988E+00 +5.02738E+01 -7.78474E+00
 +5.88854E+01 -1.12342E+01 +6.04488E+01 -1.23313E+01 +5.44558E+01 -7.73590E+00 +4.29994E+01 +4.33503E+00
 +2.99188E+01 +2.29941E+01 +1.91965E+01 +4.45531E+01 +1.32901E+01 +6.35487E+01 +1.21226E+01 +7.46067E+01
 +1.31834E+01 +7.44428E+01 +1.27114E+01 +6.31901E+01 +7.45906E+00 +4.44823E+01 -3.72377E+00 +2.42027E+01
 -1.91852E+01 +8.35867E+00 -3.49712E+01 +9.01273E-01 -4.63421E+01 +2.34921E+00 -4.96771E+01 +9.75622E+00
 -4.39681E+01 +1.80208E+01 -3.12728E+01 +2.19978E+01 -1.59370E+01 +1.85572E+01 -2.91237E+00 +7.77425E+00
 +4.12782E+00 -7.19549E+00 +4.09880E+00 -2.14563E+01 -1.27727E+00 -3.03455E+01 -8.39362E+00 -3.12256E+01
 -1.33896E+01 -2.43940E+01 -1.37756E+01 -1.28055E+01 -9.36745E+00 -7.99525E-01 -2.16912E+00 +7.58446E+00
 +4.69193E+00 +1.00020E+01 +8.46780E+00 +6.38663E+00 +8.05401E+00 -1.41063E+00 +4.46912E+00 -1.06471E+01
 +3.70999E-01 -1.88467E+01 -1.14069E+00 -2.45655E+01 +2.11585E+00 -2.74876E+01 +1.04797E+01 -2.79283E+01
 +2.23334E+01 -2.61143E+01 +3.47984E+01 -2.17012E+01 +4.48821E+01 -1.38351E+01 +5.05396E+01 -1.75656E+00
 +5.11947E+01 +1.43659E+01 +4.75490E+01 +3.28503E+01 +4.08618E+01 +5.05567E+01 +3.21297E+01 +6.36894E+01
 +2.16249E+01 +6.90857E+01 +9.04309E+00 +6.54638E+01 -5.82345E+00 +5.40636E+01 -2.22711E+01 +3.83432E+01
 -3.82263E+01 +2.27883E+01 -5.05005E+01 +1.12872E+01 -5.57832E+01 +5.73322E+00 -5.20143E+01 +5.44459E+00
 -3.95385E+01 +7.65403E+00 -2.14641E+01 +8.86285E+00 -2.94289E+00 +6.47682E+00 +1.04608E+01 +1.02537E-02
 +1.47296E+01 -8.67473E+00 +8.91219E+00 -1.62088E+01 -4.43785E+00 -1.92760E+01 -2.01322E+01 -1.62093E+01
 -3.22307E+01 -7.90874E+00 -3.62221E+01 +2.34823E+00 -3.06546E+01 +1.01571E+01 -1.75790E+01 +1.17880E+01
 -1.64334E+00 +5.78020E+00 +1.17803E+01 -6.35362E+00 +1.86772E+01 -2.06263E+01 +1.78505E+01 -3.20867E+01
 +1.12063E+01 -3.67255E+01 +2.80141E+00 -3.29947E+01 -2.90632E+00 -2.23299E+01 -2.85985E+00 -8.48231E+00
 +3.46987E+00 +4.03519E+00 +1.40441E+01 +1.17264E+01 +2.52436E+01 +1.33852E+01 +3.34019E+01 +1.03707E+01
 +3.62113E+01 +5.82816E+00 +3.34298E+01 +3.23990E+00 +2.66637E+01 +4.95098E+00 +1.84141E+01 +1.12831E+01
 +1.08839E+01 +2.05621E+01 +5.10248E+00 +2.99715E+01 +7.37613E-01 +3.67937E+01 -3.39136E+00 +3.94671E+01
 -8.41516E+00 +3.80142E+01 -1.46184E+01 +3.37183E+01 -2.11582E+01 +2.82805E+01 -2.64363E+01 +2.29191E+01
 -2.89303E+01 +1.78659E+01 -2.80474E+01 +1.24932E+01 -2.45492E+01 +5.96723E+00 -2.02972E+01 -1.94335E+00
 -1.74032E+01 -1.03689E+01 -1.71796E+01 -1.74596E+01 -1.94003E+01 -2.11271E+01 -2.22709E+01 -2.00786E+01
 -2.31800E+01 -1.46376E+01 -1.99356E+01 -6.90339E+00 -1.19330E+01 -8.85038E-02 -6.96553E-01 +2.74740E+00
 +1.05131E+01 +3.93708E-02 +1.79251E+01 -7.47097E+00 +1.88309E+01 -1.68657E+01 +1.28328E+01 -2.41399E+01
 +2.19984E+00 -2.58393E+01 -8.87364E+00 -2.05714E+01 -1.58475E+01 -9.72795E+00 -1.56246E+01 +2.92954E+00
 -7.80875E+00 +1.27020E+01 +5.10017E+00 +1.58427E+01 +1.86729E+01 +1.11330E+01 +2.82909E+01 +4.81957E-01
 +3.09477E+01 -1.17219E+01 +2.63727E+01 -2.02666E+01 +1.70230E+01 -2.11239E+01 +6.96682E+00 -1.30072E+01
 +1.40437E-01 +2.13826E+00 -1.28277E+00 +1.98883E+01 +2.26481E+00 +3.50132E+01 +8.02163E+00 +4.33832E+01
 +1.21469E+01 +4.33538E+01 +1.13937E+01 +3.61187E+01 +4.49255E+00 +2.49625E+01 -7.32001E+00 +1.37939E+01
 -2.08179E+01 +5.60931E+00 -3.20882E+01 +1.51479E+00 -3.80455E+01 +6.51584E-01 -3.75255E+01 +9.58312E-01
 -3.15355E+01 +3.47651E-01 -2.26282E+01 -2.26950E+00 -1.37359E+01 -6.56271E+00 -7.01036E+00 -1.11016E+01
 -3.16561E+00 -1.41992E+01 -1.55247E+00 -1.48260E+01 -8.41526E-01 -1.31367E+01 +8.33575E-02 -1.03577E+01
 +1.48972E+00 -8.11417E+00 +2.72986E+00 -7.55128E+00 +2.74934E+00 -8.70889E+00 +8.76919E-01 -1.04802E+01
 -2.54762E+00 -1.11951E+01 -6.07731E+00 -9.54908E+00 -7.69889E+00 -5.41398E+00 -5.78881E+00 -9.71139E-02
 -2.96339E-02 +4.12990E+00 +8.18653E+00 +5.06354E+00 +1.61290E+01 +1.70317E+00 +2.07810E+01 -5.05574E+00
 +2.01472E+01 -1.25460E+01 +1.42354E+01 -1.72922E+01 +5.23449E+00 -1.64478E+01 -3.25447E+00 -9.09940E+00
 -7.66502E+00 +3.15113E+00 -5.99876E+00 +1.66299E+01 +1.21544E+00 +2.69321E+01 +1.09827E+01 +3.06370E+01
 +1.89495E+01 +2.66921E+01 +2.11365E+01 +1.68760E+01 +1.55935E+01 +5.12239E+00 +3.28588E+00 -4.03574E+00
 -1.21727E+01 -7.27458E+00 -2.58560E+01 -3.79645E+00 -3.33981E+01 +4.38502E+00 -3.26499E+01 +1.33051E+01
 -2.44552E+01 +1.86916E+01 -1.22456E+01 +1.77081E+01 -6.40520E-01 +1.00831E+01 +6.36152E+00 -1.82448E+00
 +6.86380E+00 -1.40201E+01 +1.64732E+00 -2.24914E+01 -6.34392E+00 -2.47660E+01 -1.33384E+01 -2.07777E+01
 -1.63011E+01 -1.27246E+01 -1.40726E+01 -4.03379E+00 -7.64870E+00 +2.08493E+00 +4.45823E-01 +3.87091E+00
 +7.34947E+00 +1.53607E+00 +1.10657E+01 -3.08044E+00 +1.11580E+01 -7.50074E+00 +8.68620E+00 -9.75260E+00
 +5.48946E+00 -9.15136E+00 +3.21113E+00 -6.40408E+00 +2.54773E+00 -3.05470E+00 +3.06416E+00 -5.93845E-01
 +3.62127E+00 +3.04943E-01 +3.15661E+00 +4.97383E-02 +1.39042E+00 -2.12891E-01 -9.24819E-01 +6.53394E-01
 -2.35687E+00 +3.02744E+00 -1.58259E+00 +6.19279E+00 +1.78600E+00 +8.61319E+00 +6.77842E+00 +8.71367E+00
 +1.13077E+01 +5.79124E+00 +1.30234E+01 +5.86306E-01 +1.04134E+01 -4.81812E+00 +3.64226E+00 -7.79574E+00
 -5.30091E+00 -6.36036E+00 -1.32792E+01 -2.06655E-01 -1.72679E+01 +8.89672E+00 -1.56730E+01 +1.76076E+01
 -9.12127E+00 +2.22617E+01 -3.35703E-01 +2.03841E+01 +6.90353E+00 +1.18214E+01 +9.31238E+00 -1.01527E+00
 +5.52459E+00 -1.39524E+01 -3.23368E+00 -2.26127E+01 -1.35341E+01 -2.41151E+01 -2.10748E+01 -1.82174E+01
 -2.24195E+01 -7.42424E+00 -1.64319E+01 +3.99874E+00 -4.80749E+00 +1.17081E+01 +8.53121E+00 +1.29794E+01
 +1.89377E+01 +7.72912E+00 +2.28354E+01 -1.54411E+00 +1.90775E+01 -1.08524E+01 +9.33390E+00 -1.63753E+01
 -2.62910E+00 -1.59882E+01 -1.24558E+01 -1.00413E+01 -1.68663E+01 -1.09849E+00 -1.48097E+01 +7.21281E+00
 -7.67556E+00 +1.17272E+01 +1.46090E+00 +1.09937E+01 +9.18449E+00 +5.75118E+00 +1.30841E+01 -1.52522E+00
 +1.25447E+01 -7.75903E+00 +8.71266E+00 -1.05682E+01 +3.73522E+00 -9.16451E+00 -3.19850E-01 -4.50761E+00
 -2.35052E+00 +1.28878E+00 -2.53179E+00 +5.97392E+00 -1.96644E+00 +8.11366E+00 -1.90777E+00 +7.56107E+00
 -2.97869E+00 +5.27909E+00 -4.79103E+00 +2.66597E+00 -6.15392E+00 +7.61809E-01 -5.75704E+00 -2.50707E-01
 -2.97089E+00 -1.00680E+00 +1.65946E+00 -2.42277E+00 +6.50738E+00 -4.96555E+00 +9.53799E+00 -8.14152E+00
 +9.26280E+00 -1.05183E+01 +5.52001E+00 -1.03287E+01 -3.17189E-01 -6.40283E+00 -5.84868E+00 +1.02045E+00
 -8.68099E+00 +1.00382E+01 -7.53426E+00 +1.75906E+01 -2.90844E+00 +2.05927E+01 +3.03022E+00 +1.72434E+01
 +7.34064E+00 +7.94243E+00 +7.61652E+00 -4.62643E+00 +3.14430E+00 -1.63532E+01 -4.62365E+00 -2.32053E+01
 -1.25344E+01 -2.27871E+01 -1.69882E+01 -1.53130E+01 -1.54760E+01 -3.57454E+00 -7.74715E+00 +8.11326E+00
 +3.91051E+00 +1.55751E+01 +1.54383E+01 +1.63803E+01 +2.25406E+01 +1.07401E+01 +2.23743E+01 +1.33808E+00
 +1.47041E+01 -7.82411E+00 +2.04600E+00 -1.30782E+01 -1.12668E+01 -1.25541E+01 -2.07209E+01 -6.86249E+00
 -2.33045E+01 +1.26047E+00 -1.85678E+01 +8.16708E+00 -8.66046E+00 +1.08386E+01 +2.62763E+00 +8.10259E+00
 +1.13982E+01 +1.03712E+00 +1.51084E+01 -7.57014E+00 +1.33902E+01 -1.44353E+01 +7.94338E+00 -1.71237E+01
 +1.62183E+00 -1.49586E+01 -2.84428E+00 -9.14025E+00 -3.92769E+00 -2.08228E+00 -1.75251E+00 +3.69451E+00
 +2.21266E+00 +6.59945E+00 +6.00151E+00 +6.49618E+00 +8.10040E+00 +4.52835E+00 +8.05777E+00 +2.38947E+00
 +6.50346E+00 +1.42458E+00 +4.62811E+00 +2.00383E+00 +3.43151E+00 +3.45288E+00 +3.14577E+00 +4.53981E+00
 +3.13360E+00 +4.24333E+00 +2.30946E+00 +2.39246E+00 -1.42969E-01 -1.63609E-01 -4.14483E+00 -1.95891E+00
 -8.54277E+00 -1.69839E+00 -1.15173E+01 +9.63809E-01 -1.14248E+01 +5.06535E+00 -7.68401E+00 +8.62006E+00
 -1.26232E+00 +9.46456E+00 +5.52613E+00 +6.30357E+00 +9.89061E+00 -5.33367E-01 +9.76239E+00 -9.01120E+00
 +4.79924E+00 -1.60838E+01 -3.27967E+00 -1.89115E+01 -1.12364E+01 -1.60952E+01 -1.55647E+01 -8.38041E+00
 -1.39546E+01 +1.50908E+00 -6.35429E+00 +9.88401E+00 +4.84601E+00 +1.35532E+01 +1.56321E+01 +1.11327E+01
 +2.18895E+01 +3.63987E+00 +2.10319E+01 -5.89608E+00 +1.30725E+01 -1.36648E+01 +6.93925E-01 -1.66422E+01
 -1.17244E+01 -1.38399E+01 -1.97372E+01 -6.70920E+00 -2.04751E+01 +1.47789E+00 -1.36532E+01 +7.01448E+00
 -1.56893E+00 +7.33629E+00 +1.18687E+01 +2.13134E+00 +2.26507E+01 -6.47948E+00 +2.80950E+01 -1.47649E+01
 +2.76310E+01 -1.88672E+01 +2.26831E+01 -1.63396E+01 +1.57854E+01 -7.11920E+00 +9.37031E+00 +6.43737E+00
 +4.78238E+00 +2.04369E+01 +1.92458E+00 +3.08662E+01 -3.64295E-01 +3.49651E+01 -3.44153E+00 +3.20339E+01
 -7.95415E+00 +2.34221E+01 -1.33425E+01 +1.17956E+01 -1.79919E+01 +6.25603E-02 -1.99542E+01 -9.56712E+00
 -1.78936E+01 -1.60346E+01 -1.18022E+01 -1.93079E+01 -3.14258E+00 -1.98687E+01 +5.65812E+00 -1.81613E+01
 +1.21416E+01 -1.43255E+01 +1.47596E+01 -8.34893E+00 +1.34068E+01 -5.15859E-01 +9.32111E+00 +8.15204E+00
 +4.42174E+00 +1.57938E+01 +4.12060E-01 +2.01170E+01 -1.92379E+00 +1.92225E+01 -2.90503E+00 +1.25083E+01
