 Created: 19-Jan-2021
 $NMID
 ID='D:\BASISSIMULATI'
 FMTDAT='(8E13.5)'
 VOLUME=   1.00000E+00
 TRAMP=   1.00000E+00
 $END
 +9.75248E+01 +1.68485E+01 +8.66003E+01 +2.64105E+01 +6.09499E+01 +3.37842E+01 +2.67043E+01 +3.96128E+01
 -8.05466E+00 +4.37443E+01 -3.56905E+01 +4.51373E+01 -5.11550E+01 +4.23799E+01 -5.31711E+01 +3.45631E+01
 -4.41218E+01 +2.20683E+01 -2.87903E+01 +6.84970E+00 -1.24966E+01 -7.98660E+00 +6.51408E-01 -1.91850E+01
 +8.78393E+00 -2.45226E+01 +1.23046E+01 -2.36633E+01 +1.30741E+01 -1.82897E+01 +1.32044E+01 -1.14156E+01
 +1.40247E+01 -6.13520E+00 +1.56412E+01 -4.31853E+00 +1.72009E+01 -5.80800E+00 +1.76374E+01 -8.47783E+00
 +1.64672E+01 -9.16205E+00 +1.42065E+01 -5.08755E+00 +1.21822E+01 +4.77925E+00 +1.18203E+01 +1.90482E+01
 +1.37642E+01 +3.42019E+01 +1.72753E+01 +4.57940E+01 +2.02653E+01 +5.00945E+01 +2.00221E+01 +4.55323E+01
 +1.43737E+01 +3.33533E+01 +2.80528E+00 +1.72182E+01 -1.29739E+01 +1.88520E+00 -2.93161E+01 -8.50875E+00
 -4.17315E+01 -1.18993E+01 -4.64126E+01 -8.91605E+00 -4.16071E+01 -2.45091E+00 -2.83009E+01 +3.63039E+00
 -9.93215E+00 +6.09798E+00 +8.76270E+00 +3.63984E+00 +2.33300E+01 -2.68466E+00 +3.10027E+01 -9.97183E+00
 +3.14063E+01 -1.47330E+01 +2.63374E+01 -1.43497E+01 +1.87643E+01 -8.12812E+00 +1.15059E+01 +2.45758E+00
 +6.15273E+00 +1.43955E+01 +2.66504E+00 +2.43411E+01 -2.31370E-01 +2.98755E+01 -4.08311E+00 +3.02999E+01
 -9.65963E+00 +2.66697E+01 -1.63252E+01 +2.11114E+01 -2.21454E+01 +1.57690E+01 -2.47032E+01 +1.18710E+01
 -2.22713E+01 +9.33154E+00 -1.48061E+01 +7.03831E+00 -4.28537E+00 +3.66094E+00 +5.82164E+00 -1.43068E+00
 +1.17895E+01 -7.59856E+00 +1.11030E+01 -1.30210E+01 +3.55355E+00 -1.54289E+01 -8.50787E+00 -1.31835E+01
 -2.09063E+01 -6.20865E+00 -2.91163E+01 +3.67590E+00 -2.99170E+01 +1.32297E+01 -2.25906E+01 +1.89401E+01
 -9.20100E+00 +1.84050E+01 +6.15369E+00 +1.13835E+01 +1.88180E+01 +5.73645E-02 +2.52101E+01 -1.16473E+01
 +2.39880E+01 -1.94501E+01 +1.63303E+01 -2.02923E+01 +5.27775E+00 -1.34876E+01 -5.55164E+00 -9.96386E-01
 -1.33272E+01 +1.32852E+01 -1.69078E+01 +2.49391E+01 -1.69616E+01 +3.05889E+01 -1.53299E+01 +2.90104E+01
 -1.39752E+01 +2.13815E+01 -1.40115E+01 +1.06205E+01 -1.52465E+01 +1.26242E-01 -1.64127E+01 -7.53929E+00
 -1.59442E+01 -1.14874E+01 -1.29056E+01 -1.25485E+01 -7.61333E+00 -1.25659E+01 -1.63625E+00 -1.32981E+01
 +2.84935E+00 -1.54477E+01 +4.07069E+00 -1.82628E+01 +1.57157E+00 -1.98899E+01 -3.41234E+00 -1.83164E+01
 -8.33204E+00 -1.24674E+01 -1.03442E+01 -2.94596E+00 -7.56316E+00 +7.94831E+00 -1.23152E-02 +1.69751E+01
 +1.01590E+01 +2.11950E+01 +1.93352E+01 +1.91835E+01 +2.37505E+01 +1.16968E+01 +2.09563E+01 +1.48372E+00
 +1.08545E+01 -7.71210E+00 -4.13027E+00 -1.25775E+01 -1.98305E+01 -1.15142E+01 -3.17794E+01 -5.26496E+00
 -3.67654E+01 +3.37560E+00 -3.38999E+01 +1.06509E+01 -2.48009E+01 +1.32983E+01 -1.28480E+01 +9.79266E+00
 -1.83252E+00 +8.92280E-01 +5.44488E+00 -1.07073E+01 +8.07590E+00 -2.14431E+01 +7.11951E+00 -2.82258E+01
 +4.87426E+00 -2.95070E+01 +3.70274E+00 -2.56648E+01 +4.93306E+00 -1.86007E+01 +8.30602E+00 -1.07751E+01
 +1.21831E+01 -4.13345E+00 +1.43917E+01 +6.00604E-01 +1.33071E+01 +3.97585E+00 +8.67532E+00 +7.22345E+00
 +1.80011E+00 +1.13378E+01 -4.99069E+00 +1.62888E+01 -9.36561E+00 +2.07668E+01 -1.00393E+01 +2.26185E+01
 -7.37627E+00 +1.98108E+01 -3.26258E+00 +1.15036E+01 -2.81107E-01 -1.26239E+00 -5.33066E-01 -1.56170E+01
 -4.61655E+00 -2.76994E+01 -1.12194E+01 -3.39950E+01 -1.75325E+01 -3.26518E+01 -2.03426E+01 -2.42405E+01
 -1.73716E+01 -1.16279E+01 -8.30950E+00 +1.01644E+00 +4.89677E+00 +9.71318E+00 +1.86396E+01 +1.20920E+01
 +2.89138E+01 +8.18969E+00 +3.27541E+01 +3.26688E-01 +2.92849E+01 -7.87355E+00 +1.99751E+01 -1.29190E+01
 +8.01448E+00 -1.27657E+01 -2.92022E+00 -7.50691E+00 -1.00049E+01 +8.06202E-01 -1.21833E+01 +9.09625E+00
 -1.03205E+01 +1.45292E+01 -6.58138E+00 +1.55885E+01 -3.34400E+00 +1.25276E+01 -2.13450E+00 +7.05569E+00
 -3.04061E+00 +1.44157E+00 -4.83264E+00 -2.53746E+00 -5.70232E+00 -4.32836E+00 -4.25704E+00 -4.70153E+00
 -2.99131E-01 -5.19608E+00 +4.97794E+00 -7.18927E+00 +9.47849E+00 -1.10390E+01 +1.11676E+01 -1.57173E+01
 +9.07470E+00 -1.91334E+01 +3.87328E+00 -1.90309E+01 -2.25510E+00 -1.40766E+01 -6.45394E+00 -4.65273E+00
 -6.39537E+00 +7.02723E+00 -1.34948E+00 +1.75807E+01 +7.34953E+00 +2.36663E+01 +1.66719E+01 +2.32669E+01
 +2.29843E+01 +1.65220E+01 +2.34478E+01 +5.75249E+00 +1.71674E+01 -5.35451E+00 +5.62459E+00 -1.30948E+01
 -7.79276E+00 -1.51041E+01 -1.89896E+01 -1.11899E+01 -2.46279E+01 -3.32022E+00 -2.32880E+01 +5.21417E+00
 -1.58890E+01 +1.11120E+01 -5.22771E+00 +1.23173E+01 +5.14913E+00 +8.72410E+00 +1.22704E+01 +2.07184E+00
 +1.47357E+01 -4.88579E+00 +1.30110E+01 -9.56373E+00 +8.95959E+00 -1.05736E+01 +4.86324E+00 -8.17671E+00
 +2.38514E+00 -4.00137E+00 +1.92720E+00 -1.85359E-01 +2.63751E+00 +1.65309E+00 +3.02370E+00 +1.14908E+00
 +1.85582E+00 -6.94855E-01 -1.08348E+00 -2.05626E+00 -4.76848E+00 -1.24504E+00 -7.34546E+00 +2.38057E+00
 -7.01892E+00 +7.96422E+00 -3.00793E+00 +1.33953E+01 +3.87830E+00 +1.61668E+01 +1.13455E+01 +1.44908E+01
 +1.64091E+01 +8.18501E+00 +1.65824E+01 -1.07089E+00 +1.09709E+01 -1.02569E+01 +8.03192E-01 -1.61284E+01
 -1.08603E+01 -1.64871E+01 -2.01652E+01 -1.10858E+01 -2.38627E+01 -1.79008E+00 -2.05295E+01 +8.08963E+00
 -1.11245E+01 +1.50367E+01 +1.34168E+00 +1.66514E+01 +1.28974E+01 +1.25338E+01 +2.00380E+01 +4.38104E+00
 +2.09372E+01 -4.72400E+00 +1.59871E+01 -1.15347E+01 +7.48696E+00 -1.38720E+01 -1.35557E+00 -1.13767E+01
 -7.68305E+00 -5.50103E+00 -9.99474E+00 +1.21794E+00 -8.51934E+00 +6.27136E+00 -4.85389E+00 +8.19457E+00
 -1.07991E+00 +7.06562E+00 +1.22285E+00 +4.30118E+00 +1.62457E+00 +1.87354E+00 +8.85549E-01 +1.32063E+00
 +4.03426E-01 +3.00160E+00 +1.35297E+00 +5.93247E+00 +3.94257E+00 +8.27201E+00 +7.15711E+00 +8.23443E+00
 +9.13408E+00 +5.01074E+00 +8.02655E+00 -7.29205E-01 +2.97325E+00 -7.00155E+00 -5.27348E+00 -1.12951E+01
 -1.43818E+01 -1.16551E+01 -2.11801E+01 -7.59673E+00 -2.28405E+01 -4.37191E-01 -1.80362E+01 +7.12584E+00
 -7.59369E+00 +1.20464E+01 +5.65461E+00 +1.21631E+01 +1.77928E+01 +7.12614E+00 +2.51809E+01 -1.37497E+00
 +2.57330E+01 -1.01968E+01 +1.96220E+01 -1.59227E+01 +9.14720E+00 -1.61751E+01 -2.17097E+00 -1.05385E+01
 -1.08993E+01 -7.28711E-01 -1.48873E+01 +1.00568E+01 -1.38957E+01 +1.83392E+01 -9.44755E+00 +2.16310E+01
 -4.01515E+00 +1.92823E+01 +8.30317E-02 +1.25866E+01 +1.59996E+00 +4.14153E+00 +7.22613E-01 -3.24276E+00
 -1.23438E+00 -7.62062E+00 -2.62178E+00 -8.53927E+00 -2.34607E+00 -6.99033E+00 -4.37625E-01 -4.75470E+00
 +1.96672E+00 -3.46664E+00 +3.21644E+00 -3.82986E+00 +2.03789E+00 -5.33366E+00 -1.69991E+00 -6.58184E+00
 -6.72161E+00 -6.06567E+00 -1.07460E+01 -3.01019E+00 -1.14168E+01 +2.11199E+00 -7.38233E+00 +7.65644E+00
 +9.43362E-01 +1.14635E+01 +1.12974E+01 +1.18194E+01 +2.02486E+01 +8.29531E+00 +2.44128E+01 +2.07562E+00
 +2.17399E+01 -4.40615E+00 +1.23649E+01 -8.40556E+00 -1.32671E+00 -8.00780E+00 -1.54637E+01 -2.99353E+00
 -2.60020E+01 +4.94983E+00 -3.00916E+01 +1.27907E+01 -2.69865E+01 +1.72901E+01 -1.81722E+01 +1.62713E+01
 -6.69902E+00 +9.51340E+00 +3.98745E+00 -1.09486E+00 +1.12428E+01 -1.22125E+01 +1.39937E+01 -2.02622E+01
 +1.28231E+01 -2.27302E+01 +9.41195E+00 -1.90434E+01 +5.63355E+00 -1.06962E+01 +2.72425E+00 -6.00353E-01
 +8.83500E-01 +8.05886E+00 -5.57242E-01 +1.29885E+01 -2.52660E+00 +1.35171E+01 -5.49557E+00 +1.06252E+01
 -9.02357E+00 +6.31415E+00 -1.18121E+01 +2.62309E+00 -1.22660E+01 +7.37770E-01 -9.31467E+00 +5.72070E-01
 -3.10539E+00 +9.82376E-01 +4.78282E+00 +4.87835E-01 +1.17598E+01 -1.85510E+00 +1.51550E+01 -5.84176E+00
 +1.32968E+01 -1.00699E+01 +6.28866E+00 -1.24969E+01 -3.86873E+00 -1.13718E+01 -1.39043E+01 -6.13413E+00
 -2.04390E+01 +2.13256E+00 -2.12419E+01 +1.09231E+01 -1.60837E+01 +1.71588E+01 -6.84012E+00 +1.83405E+01
 +3.20671E+00 +1.35464E+01 +1.06025E+01 +3.86594E+00 +1.30087E+01 -7.91865E+00 +1.00412E+01 -1.82902E+01
 +3.33743E+00 -2.42248E+01 -4.15791E+00 -2.42160E+01 -9.39019E+00 -1.87115E+01 -1.03870E+01 -9.81556E+00
 -6.97276E+00 -4.12526E-01 -7.38409E-01 +6.91670E+00 +5.69395E+00 +1.07454E+01 +9.78399E+00 +1.11030E+01
 +1.00950E+01 +9.15976E+00 +6.80848E+00 +6.48782E+00 +1.54100E+00 +4.26641E+00 -3.43162E+00 +2.79572E+00
 -6.19026E+00 +1.52595E+00 -5.98793E+00 -4.43533E-01 -3.52091E+00 -3.66501E+00 -5.54033E-01 -7.81214E+00
 +9.22098E-01 -1.16135E+01 -3.73590E-01 -1.33293E+01 -4.39399E+00 -1.15877E+01 -9.72853E+00 -6.20680E+00
 -1.41636E+01 +1.40201E+00 -1.55953E+01 +8.50092E+00 -1.29025E+01 +1.19368E+01 -6.41293E+00 +9.38340E+00
 +2.22799E+00 +4.28407E-01 +1.07155E+01 -1.29603E+01 +1.69775E+01 -2.68394E+01 +1.99152E+01 -3.64849E+01
 +1.96830E+01 -3.79817E+01 +1.74102E+01 -2.96402E+01 +1.45168E+01 -1.27154E+01 +1.19566E+01 +8.85129E+00
 +9.74937E+00 +2.95909E+01 +7.02926E+00 +4.41670E+01 +2.59591E+00 +4.89615E+01 -4.28361E+00 +4.30554E+01
 -1.32050E+01 +2.83120E+01 -2.24326E+01 +8.60047E+00 -2.93270E+01 -1.15002E+01 -3.12697E+01 -2.80285E+01
 -2.67255E+01 -3.85538E+01 -1.60008E+01 -4.24394E+01 -1.34972E+00 -4.04937E+01 +1.36603E+01 -3.42745E+01
 +2.53179E+01 -2.53999E+01 +3.10335E+01 -1.51480E+01 +3.02109E+01 -4.43914E+00 +2.43807E+01 +5.91325E+00
 +1.65339E+01 +1.49265E+01 +9.91887E+00 +2.13870E+01 +6.77227E+00 +2.41097E+01 +7.48661E+00 +2.24324E+01
 +1.05391E+01 +1.67002E+01 +1.32015E+01 +8.45616E+00 +1.27381E+01 +1.54161E-01 +7.60642E+00 -5.58101E+00
 -1.82173E+00 -6.90272E+00 -1.33043E+01 -3.52476E+00 -2.35147E+01 +3.01501E+00 -2.92531E+01 +9.77931E+00
 -2.86048E+01 +1.34432E+01 -2.16015E+01 +1.15420E+01 -1.01492E+01 +3.48234E+00 +2.71715E+00 -9.08810E+00
 +1.39327E+01 -2.27281E+01 +2.14139E+01 -3.33265E+01 +2.46036E+01 -3.74977E+01 +2.43807E+01 -3.37323E+01
 +2.24346E+01 -2.28750E+01 +2.04106E+01 -7.76506E+00 +1.92044E+01 +7.80848E+00 +1.86869E+01 +2.04172E+01
 +1.79351E+01 +2.80653E+01 +1.58157E+01 +3.06278E+01 +1.16267E+01 +2.95271E+01 +5.49269E+00 +2.68349E+01
 -1.65407E+00 +2.42094E+01 -8.47462E+00 +2.21347E+01 -1.37917E+01 +1.97842E+01 -1.70393E+01 +1.55531E+01
