 Created: 19-Jan-2021
 $NMID
 ID='D:\BASISSIMULATI'
 FMTDAT='(8E13.5)'
 VOLUME=   1.00000E+00
 TRAMP=   1.00000E+00
 $END
 +4.13401E+01 +6.27144E+00 +3.14513E+01 +2.57989E+01 +1.22527E+01 +3.57025E+01 -8.61781E+00 +3.23919E+01
 -2.29258E+01 +1.75891E+01 -2.51509E+01 -2.39535E+00 -1.46884E+01 -1.92270E+01 +3.93729E+00 -2.59112E+01
 +2.29231E+01 -1.95996E+01 +3.43448E+01 -2.71404E+00 +3.33463E+01 +1.80552E+01 +2.00774E+01 +3.44609E+01
 -3.91875E-01 +4.00216E+01 -2.01336E+01 +3.26148E+01 -3.15606E+01 +1.53042E+01 -3.04690E+01 -4.92269E+00
 -1.77033E+01 -1.99850E+01 +1.21826E+00 -2.39611E+01 +1.83531E+01 -1.54524E+01 +2.65441E+01 +1.88459E+00
 +2.22932E+01 +2.08419E+01 +7.14572E+00 +3.35814E+01 -1.29602E+01 +3.47905E+01 -3.01065E+01 +2.38026E+01
 -3.75867E+01 +4.83755E+00 -3.25905E+01 -1.47234E+01 -1.73049E+01 -2.73200E+01 +1.99907E+00 -2.82474E+01
 +1.75139E+01 -1.75221E+01 +2.30419E+01 +1.60904E-01 +1.64720E+01 +1.73509E+01 +5.97917E-01 +2.68564E+01
 -1.80407E+01 +2.46351E+01 -3.18136E+01 +1.13969E+01 -3.50737E+01 -7.71332E+00 -2.64122E+01 -2.52118E+01
 -9.19477E+00 -3.42967E+01 +9.82381E+00 -3.15711E+01 +2.32347E+01 -1.83796E+01 +2.59515E+01 -2.29652E-01
 +1.72312E+01 +1.54532E+01 +9.34431E-01 +2.23220E+01 -1.60641E+01 +1.76484E+01 -2.66631E+01 +3.38859E+00
 -2.63904E+01 -1.46407E+01 -1.51793E+01 -2.91294E+01 +2.63803E+00 -3.42216E+01 +2.01039E+01 -2.78554E+01
 +3.04471E+01 -1.25592E+01 +2.97962E+01 +5.60014E+00 +1.87059E+01 +1.94808E+01 +1.89382E+00 +2.37390E+01
 -1.36911E+01 +1.69552E+01 -2.16785E+01 +2.16577E+00 -1.88282E+01 -1.43978E+01 -6.30312E+00 -2.58415E+01
 +1.08374E+01 -2.73835E+01 +2.57036E+01 -1.82563E+01 +3.23565E+01 -1.97959E+00 +2.81821E+01 +1.50892E+01
 +1.49090E+01 +2.63298E+01 -2.12597E+00 +2.75147E+01 -1.61520E+01 +1.84789E+01 -2.16928E+01 +3.14435E+00
 -1.67483E+01 -1.20958E+01 -3.56026E+00 -2.09678E+01 +1.23317E+01 -1.98337E+01 +2.43475E+01 -9.12519E+00
 +2.75187E+01 +6.87083E+00 +2.04663E+01 +2.17701E+01 +5.91867E+00 +2.96727E+01 -1.04233E+01 +2.75232E+01
 -2.22014E+01 +1.63055E+01 -2.49537E+01 +6.05054E-01 -1.78804E+01 -1.32683E+01 -4.12206E+00 -1.98278E+01
 +1.05453E+01 -1.65990E+01 +2.00571E+01 -5.07691E+00 +2.04960E+01 +9.91952E+00 +1.16394E+01 +2.22185E+01
 -2.99242E+00 +2.67865E+01 -1.75893E+01 +2.17341E+01 -2.64059E+01 +9.03848E+00 -2.60619E+01 -6.29285E+00
 -1.68684E+01 -1.82625E+01 -2.65773E+00 -2.22962E+01 +1.07946E+01 -1.70560E+01 +1.81075E+01 -4.93454E+00
 +1.64453E+01 +8.95203E+00 +6.62092E+00 +1.88496E+01 -7.27672E+00 +2.06812E+01 -1.95632E+01 +1.36605E+01
 -2.52573E+01 +5.66040E-01 -2.20685E+01 -1.34166E+01 -1.12803E+01 -2.28020E+01 +2.80974E+00 -2.40046E+01
 +1.46495E+01 -1.67478E+01 +1.96709E+01 -4.12965E+00 +1.61036E+01 +8.66450E+00 +5.64359E+00 +1.64672E+01
 -7.27606E+00 +1.61977E+01 -1.73000E+01 +8.06569E+00 -2.03094E+01 -4.55909E+00 -1.50549E+01 -1.65419E+01
 -3.61646E+00 -2.30642E+01 +9.47591E+00 -2.15485E+01 +1.90901E+01 -1.26578E+01 +2.15533E+01 +1.70480E-02
 +1.60986E+01 +1.14373E+01 +5.12651E+00 +1.71530E+01 -6.80477E+00 +1.50730E+01 -1.48374E+01 +6.26375E+00
 -1.57622E+01 -5.52836E+00 -9.27732E+00 -1.54196E+01 +1.93797E+00 -1.93622E+01 +1.33426E+01 -1.57514E+01
 +2.03805E+01 -6.02876E+00 +2.03035E+01 +5.94288E+00 +1.32401E+01 +1.54632E+01 +2.09680E+00 +1.88866E+01
 -8.65094E+00 +1.50607E+01 -1.47739E+01 +5.74275E+00 -1.39744E+01 -5.15397E+00 -6.77029E+00 -1.31634E+01
 +3.76360E+00 -1.50623E+01 +1.32710E+01 -1.01370E+01 +1.78798E+01 -4.23428E-01 +1.57418E+01 +1.01563E+01
 +7.73471E+00 +1.73957E+01 -2.93780E+00 +1.84903E+01 -1.20693E+01 +1.31309E+01 -1.61486E+01 +3.57994E+00
 -1.37476E+01 -6.28176E+00 -6.04993E+00 -1.25362E+01 +3.67467E+00 -1.27932E+01 +1.14186E+01 -7.11330E+00
 +1.40526E+01 +2.06641E+00 +1.05575E+01 +1.09550E+01 +2.38868E+00 +1.59500E+01 -7.15682E+00 +1.50723E+01
 -1.42945E+01 +8.72299E+00 -1.62730E+01 -5.27417E-01 -1.24495E+01 -9.01034E+00 -4.49918E+00 -1.34463E+01
 +4.30405E+00 -1.22433E+01 +1.04299E+01 -6.09337E+00 +1.15054E+01 +2.35722E+00 +7.23409E+00 +9.60889E+00
 -5.34645E-01 +1.27254E+01 -8.59426E+00 +1.04921E+01 -1.36927E+01 +3.85953E+00 -1.38307E+01 -4.48732E+00
 -9.02808E+00 -1.12415E+01 -1.26669E+00 -1.38072E+01 +6.34857E+00 -1.13154E+01 +1.08547E+01 -4.92575E+00
 +1.06063E+01 +2.68849E+00 +5.89564E+00 +8.44517E+00 -1.21646E+00 +1.00918E+01 -7.77007E+00 +7.07993E+00
 -1.11101E+01 +7.36589E-01 -9.93554E+00 -6.31656E+00 -4.77980E+00 -1.12437E+01 +2.25367E+00 -1.21299E+01
 +8.37349E+00 -8.71685E+00 +1.12307E+01 -2.45682E+00 +9.83931E+00 +4.11570E+00 +4.92634E+00 +8.42451E+00
 -1.41068E+00 +8.87670E+00 -6.58110E+00 +5.46435E+00 -8.54689E+00 -2.83766E-01 -6.61475E+00 -5.96037E+00
 -1.66719E+00 -9.26599E+00 +4.24115E+00 -8.91953E+00 +8.73982E+00 -5.13290E+00 +1.00951E+01 +5.24555E-01
 +7.87580E+00 +5.79667E+00 +3.07802E+00 +8.66028E+00 -2.32267E+00 +8.11905E+00 -6.19117E+00 +4.55978E+00
 -7.08547E+00 -4.54129E-01 -4.80107E+00 -4.84887E+00 -4.02539E-01 -6.88299E+00 +4.25035E+00 -5.82444E+00
 +7.27299E+00 -2.19926E+00 +7.50421E+00 +2.46983E+00 +4.93556E+00 +6.30936E+00 +6.64483E-01 +7.85244E+00
 -3.58936E+00 +6.60121E+00 -6.19274E+00 +3.17937E+00 -6.24047E+00 -9.67137E-01 -3.87785E+00 -4.18139E+00
 -1.91055E-01 -5.26076E+00 +3.27016E+00 -3.90895E+00 +5.12915E+00 -8.05802E-01 +4.71723E+00 +2.71351E+00
 +2.29933E+00 +5.22191E+00 -1.08275E+00 +5.76928E+00 -4.06617E+00 +4.23030E+00 -5.52357E+00 +1.30535E+00
 -4.99316E+00 -1.80575E+00 -2.81884E+00 -3.90768E+00 +3.76548E-02 -4.27991E+00 +2.41688E+00 -2.92825E+00
 +3.43179E+00 -5.31797E-01 +2.79714E+00 +1.87305E+00 +8.96743E-01 +3.32723E+00 -1.41936E+00 +3.32065E+00
 -3.20684E+00 +1.95698E+00 -3.80650E+00 -1.38039E-01 -3.07889E+00 -2.10779E+00 -1.41233E+00 -3.22223E+00
 +4.79518E-01 -3.15273E+00 +1.87009E+00 -2.06119E+00 +2.30654E+00 -4.85186E-01 +1.75741E+00 +9.14714E-01
 +5.75768E-01 +1.62913E+00 -6.87485E-01 +1.48186E+00 -1.52711E+00 +6.55786E-01 -1.67730E+00 -4.29669E-01
 -1.18176E+00 -1.32045E+00 -3.26842E-01 -1.71474E+00 +5.15297E-01 -1.55805E+00 +1.05359E+00 -1.01903E+00
 +1.18097E+00 -3.74465E-01 +9.77649E-01 +1.31066E-01 +6.29482E-01 +3.82765E-01 +3.14251E-01 +4.11425E-01
 +1.17214E-01 +3.33348E-01 +1.50676E-02 +2.57710E-01 -7.26657E-02 +2.16995E-01 -2.02456E-01 +1.58670E-01
 -3.48087E-01 -6.58349E-04 -4.02477E-01 -2.93852E-01 -2.42642E-01 -6.46770E-01 +1.77337E-01 -8.86918E-01
 +7.60431E-01 -8.22251E-01 +1.27357E+00 -3.54585E-01 +1.43758E+00 +4.32668E-01 +1.06546E+00 +1.26719E+00
 +1.82938E-01 +1.78025E+00 -9.35449E-01 +1.66860E+00 -1.84790E+00 +8.55090E-01 -2.12316E+00 -4.32256E-01
 -1.54290E+00 -1.71380E+00 -2.35337E-01 -2.43825E+00 +1.33210E+00 -2.22173E+00 +2.51612E+00 -1.04250E+00
 +2.76107E+00 +7.03229E-01 +1.85459E+00 +2.32612E+00 +5.95762E-02 +3.11280E+00 -1.94948E+00 +2.63432E+00
 -3.33708E+00 +9.61183E-01 -3.45175E+00 -1.31866E+00 -2.12298E+00 -3.30464E+00 +2.23494E-01 -4.14153E+00
 +2.69714E+00 -3.38793E+00 +4.28404E+00 -1.23714E+00 +4.26733E+00 +1.51616E+00 +2.55234E+00 +3.76787E+00
 -2.49335E-01 +4.54882E+00 -3.02950E+00 +3.44257E+00 -4.61694E+00 +7.97172E-01 -4.26553E+00 -2.37214E+00
 -1.99365E+00 -4.76742E+00 +1.37754E+00 -5.33455E+00 +4.52051E+00 -3.71814E+00 +6.12691E+00 -4.49319E-01
 +5.45379E+00 +3.22720E+00 +2.66274E+00 +5.83348E+00 -1.20110E+00 +6.26090E+00 -4.59933E+00 +4.24900E+00
 -6.11521E+00 +5.34433E-01 -5.04706E+00 -3.40769E+00 -1.73212E+00 -5.94157E+00 +2.54646E+00 -5.94123E+00
 +6.04919E+00 -3.27920E+00 +7.28011E+00 +1.07769E+00 +5.61524E+00 +5.42179E+00 +1.59597E+00 +7.97914E+00
 -3.24768E+00 +7.63854E+00 -6.98922E+00 +4.43523E+00 -8.08427E+00 -4.20271E-01 -6.02053E+00 -4.99729E+00
 -1.56587E+00 -7.41385E+00 +3.50246E+00 -6.61298E+00 +7.09404E+00 -2.82635E+00 +7.65452E+00 +2.47685E+00
 +4.82279E+00 +7.15218E+00 -3.80955E-01 +9.23873E+00 -5.92909E+00 +7.77023E+00 -9.58638E+00 +3.20333E+00
 -9.82010E+00 -2.72547E+00 -6.44946E+00 -7.67263E+00 -7.59666E-01 -9.62980E+00 +4.98223E+00 -7.75624E+00
 +8.42815E+00 -2.75630E+00 +8.10858E+00 +3.36591E+00 +4.05887E+00 +8.09154E+00 -2.15406E+00 +9.40458E+00
 -8.03176E+00 +6.63081E+00 -1.11417E+01 +7.49678E-01 -1.01137E+01 -5.96276E+00 -5.22752E+00 -1.08307E+01
 +1.66004E+00 -1.18615E+01 +7.83478E+00 -8.57619E+00 +1.08126E+01 -2.24110E+00 +9.35919E+00 +4.60822E+00
 +4.02264E+00 +9.17312E+00 -3.04954E+00 +9.52869E+00 -8.95130E+00 +5.42978E+00 -1.11877E+01 -1.55107E+00
 -8.70243E+00 -8.62483E+00 -2.34106E+00 -1.28971E+01 +5.45263E+00 -1.25460E+01 +1.15984E+01 -7.58784E+00
 +1.36213E+01 +9.14578E-02 +1.06716E+01 +7.46660E+00 +3.90338E+00 +1.15824E+01 -3.95706E+00 +1.07590E+01
 -9.69168E+00 +5.30034E+00 -1.08927E+01 -2.59173E+00 -6.95919E+00 -9.67880E+00 +6.23739E-01 -1.29859E+01
 +8.85054E+00 -1.10183E+01 +1.43905E+01 -4.39790E+00 +1.49372E+01 +4.35104E+00 +1.01650E+01 +1.17943E+01
 +1.89565E+00 +1.49681E+01 -6.60519E+00 +1.25917E+01 -1.19321E+01 +5.61611E+00 -1.19222E+01 -3.12666E+00
 -6.55457E+00 -1.00449E+01 +2.00641E+00 -1.22364E+01 +1.02567E+01 -8.68010E+00 +1.47562E+01 -6.82398E-01
 +1.35291E+01 +8.61695E+00 +6.89021E+00 +1.54916E+01 -2.64693E+00 +1.71331E+01 -1.13571E+01 +1.28055E+01
 -1.57977E+01 +4.17452E+00 -1.42100E+01 -5.33405E+00 -7.25635E+00 -1.19006E+01 +2.21500E+00 -1.28570E+01
 +1.02974E+01 -7.78654E+00 +1.35985E+01 +1.27601E+00 +1.06258E+01 +1.06372E+01 +2.41972E+00 +1.64224E+01
 -7.83369E+00 +1.61468E+01 -1.60665E+01 +9.74333E+00 -1.89673E+01 -3.77833E-01 -1.53336E+01 -1.02740E+01
 -6.58610E+00 -1.60494E+01 +3.77569E+00 -1.54347E+01 +1.15678E+01 -8.72674E+00 +1.36110E+01 +1.30214E+00
 +9.03286E+00 +1.05000E+01 -3.51018E-01 +1.50043E+01 -1.07415E+01 +1.28135E+01 -1.78739E+01 +4.62205E+00
 -1.87424E+01 -6.42915E+00 -1.28336E+01 -1.59966E+01 -2.36345E+00 -2.02803E+01 +8.58993E+00 -1.75691E+01
 +1.57178E+01 -8.95580E+00 +1.62237E+01 +2.07678E+00 +9.97116E+00 +1.10426E+01 -4.34117E-01 +1.42610E+01
 -1.06735E+01 +1.03569E+01 -1.64492E+01 +8.42474E-01 -1.52282E+01 -1.04661E+01 -7.28731E+00 -1.89716E+01
 +4.36912E+00 -2.11508E+01 +1.51978E+01 -1.59920E+01 +2.09405E+01 -5.43010E+00 +1.93495E+01 +6.40908E+00
