 Created: 19-Jan-2021
 $NMID
 ID='D:\BASISSIMULATI'
 FMTDAT='(8E13.5)'
 VOLUME=   1.00000E+00
 TRAMP=   1.00000E+00
 $END
 +6.40886E+01 +1.03522E+01 +6.06785E+01 +2.29240E+01 +5.47070E+01 +3.44859E+01 +4.64593E+01 +4.45047E+01
 +3.63321E+01 +5.25259E+01 +2.48130E+01 +5.81966E+01 +1.24541E+01 +6.12833E+01 -1.57258E-01 +6.16832E+01
 -1.24293E+01 +5.94280E+01 -2.37967E+01 +5.46801E+01 -3.37499E+01 +4.77227E+01 -4.18601E+01 +3.89424E+01
 -4.78001E+01 +2.88074E+01 -5.13591E+01 +1.78411E+01 -5.24509E+01 +6.59402E+00 -5.11147E+01 -4.38613E+00
 -4.75101E+01 -1.45822E+01 -4.19047E+01 -2.35339E+01 -3.46571E+01 -3.08596E+01 -2.61949E+01 -3.62736E+01
 -1.69905E+01 -3.95974E+01 -7.53456E+00 -4.07651E+01 +1.68979E+00 -3.98222E+01 +1.02318E+01 -3.69189E+01
 +1.76947E+01 -3.22979E+01 +2.37542E+01 -2.62777E+01 +2.81714E+01 -1.92332E+01 +3.08012E+01 -1.15733E+01
 +3.15953E+01 -3.71911E+00 +3.05998E+01 +3.91866E+00 +2.79478E+01 +1.09595E+01 +2.38487E+01 +1.70708E+01
 +1.85731E+01 +2.19818E+01 +1.24367E+01 +2.54938E+01 +5.78148E+00 +2.74856E+01 -1.04153E+00 +2.79151E+01
 -7.69030E+00 +2.68168E+01 -1.38473E+01 +2.42955E+01 -1.92327E+01 +2.05172E+01 -2.36154E+01 +1.56974E+01
 -2.68200E+01 +1.00888E+01 -2.87312E+01 +3.96712E+00 -2.92954E+01 -2.38217E+00 -2.85182E+01 -8.67663E+00
 -2.64611E+01 -1.46485E+01 -2.32348E+01 -2.00546E+01 -1.89920E+01 -2.46843E+01 -1.39184E+01 -2.83655E+01
 -8.22431E+00 -3.09685E+01 -2.13521E+00 -3.24083E+01 +4.11687E+00 -3.26444E+01 +1.03014E+01 -3.16800E+01
 +1.61966E+01 -2.95596E+01 +2.15962E+01 -2.63654E+01 +2.63144E+01 -2.22137E+01 +3.01913E+01 -1.72497E+01
 +3.30960E+01 -1.16429E+01 +3.49300E+01 -5.58165E+00 +3.56294E+01 +7.32011E-01 +3.51667E+01 +7.08848E+00
 +3.35513E+01 +1.32762E+01 +3.08296E+01 +1.90878E+01 +2.70847E+01 +2.43261E+01 +2.24343E+01 +2.88105E+01
 +1.70279E+01 +3.23829E+01 +1.10436E+01 +3.49135E+01 +4.68251E+00 +3.63062E+01 -1.83716E+00 +3.65034E+01
 -8.28702E+00 +3.54892E+01 -1.44367E+01 +3.32917E+01 -2.00626E+01 +2.99840E+01 -2.49568E+01 +2.56828E+01
 -2.89358E+01 +2.05454E+01 -3.18495E+01 +1.47649E+01 -3.35881E+01 +8.56345E+00 -3.40886E+01 +2.18316E+00
 -3.33387E+01 -4.12327E+00 -3.13790E+01 -1.01038E+01 -2.83024E+01 -1.55184E+01 -2.42513E+01 -2.01502E+01
 -1.94119E+01 -2.38165E+01 -1.40063E+01 -2.63776E+01 -8.28254E+00 -2.77445E+01 -2.50293E+00 -2.78839E+01
 +3.06866E+00 -2.68205E+01 +8.17982E+00 -2.46363E+01 +1.26023E+01 -2.14673E+01 +1.61438E+01 -1.74967E+01
 +1.86578E+01 -1.29458E+01 +2.00516E+01 -8.06292E+00 +2.02907E+01 -3.11022E+00 +1.94012E+01 +1.64973E+00
 +1.74680E+01 +5.96797E+00 +1.46303E+01 +9.62235E+00 +1.10739E+01 +1.24293E+01 +7.02117E+00 +1.42536E+01
 +2.71872E+00 +1.50155E+01 -1.57614E+00 +1.46946E+01 -5.60948E+00 +1.33309E+01 -9.14466E+00 +1.10220E+01
 -1.19752E+01 +7.91726E+00 -1.39358E+01 +4.20951E+00 -1.49114E+01 +1.23850E-01 -1.48428E+01 -4.09495E+00
 -1.37298E+01 -8.19608E+00 -1.16302E+01 -1.19365E+01 -8.65648E+00 -1.50944E+01 -4.96902E+00 -1.74808E+01
 -7.66725E-01 -1.89498E+01 +3.72411E+00 -1.94059E+01 +8.26240E+00 -1.88085E+01 +1.26054E+01 -1.71737E+01
 +1.65219E+01 -1.45723E+01 +1.98040E+01 -1.11253E+01 +2.22781E+01 -6.99692E+00 +2.38133E+01 -2.38506E+00
 +2.43273E+01 +2.48966E+00 +2.37900E+01 +7.39575E+00 +2.22236E+01 +1.21030E+01 +1.97007E+01 +1.63941E+01
 +1.63386E+01 +2.00756E+01 +1.22932E+01 +2.29868E+01 +7.74911E+00 +2.50068E+01 +2.91043E+00 +2.60595E+01
 -2.01043E+00 +2.61156E+01 -6.80326E+00 +2.51927E+01 -1.12702E+01 +2.33526E+01 -1.52347E+01 +2.06963E+01
 -1.85493E+01 +1.73582E+01 -2.11010E+01 +1.34975E+01 -2.28157E+01 +9.29032E+00 -2.36589E+01 +4.91991E+00
 -2.36361E+01 +5.68266E-01 -2.27902E+01 -3.59245E+00 -2.11974E+01 -7.40724E+00 -1.89620E+01 -1.07445E+01
 -1.62099E+01 -1.35004E+01 -1.30817E+01 -1.56022E+01 -9.72581E+00 -1.70095E+01 -6.29063E+00 -1.77141E+01
 -2.91859E+00 -1.77380E+01 +2.60012E-01 -1.71309E+01 +3.13186E+00 -1.59659E+01 +5.60442E+00 -1.43349E+01
 +7.60857E+00 -1.23434E+01 +9.10003E+00 -1.01049E+01 +1.00595E+01 -7.73566E+00 +1.04921E+01 -5.34962E+00
 +1.04253E+01 -3.05361E+00 +9.90635E+00 -9.43442E-01 +8.99950E+00 +8.99457E-01 +7.78192E+00 +2.41056E+00
 +6.34004E+00 +3.54398E+00 +4.76545E+00 +4.27333E+00 +3.15094E+00 +4.59191E+00 +1.58668E+00 +4.51206E+00
 +1.56637E-01 +4.06395E+00 -1.06457E+00 +3.29371E+00 -2.01444E+00 +2.26108E+00 -2.64483E+00 +1.03668E+00
 -2.92365E+00 -3.01071E-01 -2.83594E+00 -1.66929E+00 -2.38437E+00 -2.98404E+00 -1.58910E+00 -4.16382E+00
 -4.86955E-01 -5.13294E+00 +8.69939E-01 -5.82476E+00 +2.41619E+00 -6.18463E+00 +4.07570E+00 -6.17240E+00
 +5.76467E+00 -5.76444E+00 +7.39507E+00 -4.95510E+00 +8.87831E+00 -3.75744E+00 +1.01291E+01 -2.20323E+00
 +1.10695E+01 -3.42179E-01 +1.16321E+01 +1.75967E+00 +1.17640E+01 +4.02227E+00 +1.14295E+01 +6.35460E+00
 +1.06121E+01 +8.65836E+00 +9.31613E+00 +1.08320E+01 +7.56745E+00 +1.27754E+01 +5.41293E+00 +1.43941E+01
 +2.91912E+00 +1.56038E+01 +1.70021E-01 +1.63347E+01 -2.73615E+00 +1.65350E+01 -5.69088E+00 +1.61738E+01
 -8.57991E+00 +1.52432E+01 -1.12882E+01 +1.37591E+01 -1.37050E+01 +1.17614E+01 -1.57291E+01 +9.31283E+00
 -1.72732E+01 +6.49639E+00 -1.82687E+01 +3.41239E+00 -1.86684E+01 +1.74124E-01 -1.84495E+01 -3.09691E+00
 -1.76150E+01 -6.27636E+00 -1.61935E+01 -9.24248E+00 -1.42385E+01 -1.18817E+01 -1.18262E+01 -1.40936E+01
 -9.05200E+00 -1.57957E+01 -6.02662E+00 -1.69272E+01 -2.87097E+00 -1.74517E+01 +2.89275E-01 -1.73587E+01
 +3.32931E+00 -1.66645E+01 +6.13090E+00 -1.54109E+01 +8.58771E+00 -1.36635E+01 +1.06101E+01 -1.15085E+01
 +1.21290E+01 -9.04851E+00 +1.30992E+01 -6.39765E+00 +1.35008E+01 -3.67637E+00 +1.33404E+01 -1.00565E+00
 +1.26499E+01 +1.49867E+00 +1.14851E+01 +3.73123E+00 +9.92280E+00 +5.60203E+00 +8.05656E+00 +7.04049E+00
 +5.99230E+00 +7.99863E+00 +3.84296E+00 +8.45306E+00 +1.72293E+00 +8.40584E+00 -2.57529E-01 +7.88408E+00
 -1.99765E+00 +6.93833E+00 -3.41103E+00 +5.63991E+00 -4.42980E+00 +4.07713E+00 -5.00786E+00 +2.35078E+00
 -5.12306E+00 +5.69016E-01 -4.77820E+00 -1.15811E+00 -4.00082E+00 -2.72423E+00 -2.84176E+00 -4.03203E+00
 -1.37261E+00 -4.99820E+00 +3.17901E-01 -5.55772E+00 +2.12837E+00 -5.66718E+00 +3.94977E+00 -5.30721E+00
 +5.67099E+00 -4.48357E+00 +7.18447E+00 -3.22712E+00 +8.39168E+00 -1.59249E+00 +9.20826E+00 +3.44381E-01
 +9.56843E+00 +2.48984E+00 +9.42863E+00 +4.73696E+00 +8.77002E+00 +6.97078E+00 +7.59978E+00 +9.07387E+00
 +5.95123E+00 +1.09322E+01 +3.88258E+00 +1.24409E+01 +1.47444E+00 +1.35095E+01 -1.17374E+00 +1.40667E+01
 -3.94829E+00 +1.40643E+01 -6.72661E+00 +1.34797E+01 -9.38307E+00 +1.23174E+01 -1.17950E+01 +1.06096E+01
 -1.38486E+01 +8.41437E+00 -1.54448E+01 +5.81369E+00 -1.65038E+01 +2.90955E+00 -1.69695E+01 -1.80647E-01
 -1.68120E+01 -3.32962E+00 -1.60294E+01 -6.40615E+00 -1.46482E+01 -9.28132E+00 -1.27216E+01 -1.18346E+01
 -1.03278E+01 -1.39597E+01 -7.56559E+00 -1.55694E+01 -4.55021E+00 -1.65998E+01 -1.40743E+00 -1.70130E+01
 +1.73227E+00 -1.67993E+01 +4.73988E+00 -1.59767E+01 +7.49399E+00 -1.45902E+01 +9.88640E+00 -1.27093E+01
 +1.18270E+01 -1.04245E+01 +1.32480E+01 -7.84216E+00 +1.41061E+01 -5.07988E+00 +1.43847E+01 -2.26020E+00
 +1.40939E+01 +4.95136E-01 +1.32690E+01 +3.07091E+00 +1.19687E+01 +5.36374E+00 +1.02712E+01 +7.28667E+00
 +8.27024E+00 +8.77275E+00 +6.06987E+00 +9.77759E+00 +3.77938E+00 +1.02807E+01 +1.50784E+00 +1.02855E+01
 -6.40989E-01 +9.81853E+00 -2.57338E+00 +8.92701E+00 -4.20962E+00 +7.67596E+00 -5.48712E+00 +6.14441E+00
 -6.36268E+00 +4.42109E+00 -6.81353E+00 +2.59995E+00 -6.83756E+00 +7.75620E-01 -6.45245E+00 -9.60892E-01
 -5.69398E+00 -2.52613E+00 -4.61362E+00 -3.84750E+00 -3.27560E+00 -4.86595E+00 -1.75360E+00 -5.53786E+00
 -1.27224E-01 -5.83619E+00 +1.52148E+00 -5.75082E+00 +3.11138E+00 -5.28829E+00 +4.56536E+00 -4.47084E+00
 +5.81306E+00 -3.33501E+00 +6.79317E+00 -1.92985E+00 +7.45533E+00 -3.14784E-01 +7.76155E+00 +1.44263E+00
 +7.68723E+00 +3.26904E+00 +7.22172E+00 +5.08776E+00 +6.36868E+00 +6.82107E+00 +5.14594E+00 +8.39262E+00
 +3.58521E+00 +9.72967E+00 +1.73144E+00 +1.07654E+01 -3.58076E-01 +1.14409E+01 -2.61492E+00 +1.17076E+01
 -4.96105E+00 +1.15291E+01 -7.31073E+00 +1.08830E+01 -9.57277E+00 +9.76259E+00 -1.16532E+01 +8.17853E+00
 -1.34585E+01 +6.15956E+00 -1.48988E+01 +3.75312E+00 -1.58916E+01 +1.02520E+00 -1.63661E+01 -1.94054E+00
 -1.62664E+01 -5.04449E+00 -1.55558E+01 -8.17371E+00 -1.42199E+01 -1.12055E+01 -1.22692E+01 -1.40118E+01
 -9.74094E+00 -1.64643E+01 -6.70004E+00 -1.84402E+01 -3.23826E+00 -1.98283E+01 +5.27614E-01 -2.05352E+01
 +4.45917E+00 -2.04910E+01 +8.40123E+00 -1.96548E+01 +1.21880E+01 -1.80185E+01 +1.56501E+01 -1.56098E+01
 +1.86230E+01 -1.24938E+01 +2.09549E+01 -8.77189E+00 +2.25155E+01 -4.57930E+00 +2.32037E+01 -8.06834E-02
 +2.29545E+01 +4.53651E+00 +2.17443E+01 +9.07007E+00 +1.95944E+01 +1.33125E+01 +1.65726E+01 +1.70613E+01
 +1.27914E+01 +2.01296E+01 +8.40530E+00 +2.23565E+01 +3.60377E+00 +2.36163E+01 -1.39641E+00 +2.38272E+01
 -6.36160E+00 +2.29566E+01 -1.10528E+01 +2.10252E+01 -1.52379E+01 +1.81076E+01 -1.87043E+01 +1.43302E+01
 -2.12706E+01 +9.86656E+00 -2.27973E+01 +4.92907E+00 -2.31953E+01 -2.40809E-01 -2.24319E+01 -5.38479E+00
 -2.05341E+01 -1.02411E+01 -1.75883E+01 -1.45585E+01 -1.37371E+01 -1.81099E+01 -9.17283E+00 -2.07049E+01
 -4.12777E+00 -2.22009E+01 +1.13751E+00 -2.25118E+01 +6.34784E+00 -2.16127E+01 +1.12281E+01 -1.95428E+01
 +1.55182E+01 -1.64039E+01 +1.89872E+01 -1.23550E+01 +2.14461E+01 -7.60513E+00 +2.27583E+01 -2.40145E+00
 +2.28475E+01 +2.98325E+00 +2.17019E+01 +8.26545E+00 +1.93751E+01 +1.31661E+01 +1.59831E+01 +1.74258E+01
 +1.16987E+01 +2.08186E+01 +6.74119E+00 +2.31642E+01 +1.36508E+00 +2.43374E+01 -4.15392E+00 +2.42747E+01
 -9.53377E+00 +2.29773E+01 -1.45011E+01 +2.05100E+01 -1.88059E+01 +1.69979E+01 -2.22339E+01 +1.26184E+01
 -2.46182E+01 +7.59142E+00 -2.58466E+01 +2.16714E+00 -2.58667E+01 -3.38771E+00 -2.46876E+01 -8.80404E+00
 -2.23779E+01 -1.38245E+01 -1.90606E+01 -1.82162E+01 -1.49056E+01 -2.17827E+01 -1.01193E+01 -2.43720E+01
 -4.93306E+00 -2.58838E+01 +4.09197E-01 -2.62720E+01 +5.66403E+00 -2.55457E+01 +1.06004E+01 -2.37657E+01
