 Created: 19-Jan-2021
 $NMID
 ID='D:\BASISSIMULATI'
 FMTDAT='(8E13.5)'
 VOLUME=   1.00000E+00
 TRAMP=   1.00000E+00
 $END
 +7.52482E+01 +1.25567E+01 +6.34089E+01 +2.98548E+01 +3.77120E+01 +4.14364E+01 +4.76492E+00 +4.54832E+01
 -2.68979E+01 +4.14499E+01 -4.91843E+01 +3.01139E+01 -5.66698E+01 +1.35014E+01 -4.80301E+01 -5.33465E+00
 -2.62792E+01 -2.27289E+01 +2.22686E+00 -3.50208E+01 +2.96897E+01 -3.93134E+01 +4.90851E+01 -3.42221E+01
 +5.60383E+01 -2.03997E+01 +4.98334E+01 -6.25173E-01 +3.33186E+01 +2.06654E+01 +1.18117E+01 +3.83724E+01
 -8.59960E+00 +4.80380E+01 -2.28167E+01 +4.71111E+01 -2.80315E+01 +3.57826E+01 -2.42351E+01 +1.70888E+01
 -1.38716E+01 -3.81662E+00 -8.34283E-01 -2.10668E+01 +1.08196E+01 -2.97752E+01 +1.80214E+01 -2.75121E+01
 +1.93935E+01 -1.50921E+01 +1.53625E+01 +3.60527E+00 +7.74722E+00 +2.27651E+01 -9.66533E-01 +3.63982E+01
 -8.39425E+00 +4.01965E+01 -1.28361E+01 +3.29033E+01 -1.35543E+01 +1.67500E+01 -1.07488E+01 -3.19440E+00
 -5.33155E+00 -2.05789E+01 +1.37217E+00 -2.97510E+01 +7.89103E+00 -2.75434E+01 +1.28073E+01 -1.43027E+01
 +1.49127E+01 +6.17046E+00 +1.33699E+01 +2.77549E+01 +7.90959E+00 +4.38652E+01 -9.67896E-01 +4.94542E+01
 -1.18730E+01 +4.25422E+01 -2.26045E+01 +2.48092E+01 -3.05042E+01 +1.08274E+00 -3.30771E+01 -2.21034E+01
 -2.87496E+01 -3.84236E+01 -1.75398E+01 -4.35633E+01 -1.38219E+00 -3.63797E+01 +1.60820E+01 -1.91080E+01
 +3.02910E+01 +3.39951E+00 +3.69690E+01 +2.51274E+01 +3.34306E+01 +4.05804E+01 +1.95724E+01 +4.62029E+01
 -1.80227E+00 +4.11572E+01 -2.55099E+01 +2.73061E+01 -4.52856E+01 +8.48663E+00 -5.55228E+01 -1.06427E+01
 -5.29474E+01 -2.58184E+01 -3.77083E+01 -3.41215E+01 -1.35101E+01 -3.44612E+01 +1.33031E+01 -2.75538E+01
 +3.54837E+01 -1.55054E+01 +4.69410E+01 -1.18705E+00 +4.45142E+01 +1.24097E+01 +2.89172E+01 +2.27004E+01
 +4.55803E+00 +2.78665E+01 -2.17253E+01 +2.70550E+01 -4.26383E+01 +2.04572E+01 -5.25225E+01 +9.28817E+00
 -4.89449E+01 -4.34384E+00 -3.33168E+01 -1.77147E+01 -1.03806E+01 -2.79330E+01 +1.32560E+01 -3.25321E+01
 +3.10756E+01 -3.01034E+01 +3.85009E+01 -2.07991E+01 +3.40991E+01 -6.51754E+00 +1.98191E+01 +9.36534E+00
 +2.42420E-01 +2.27320E+01 -1.88734E+01 +2.97871E+01 -3.22888E+01 +2.81711E+01 -3.67054E+01 +1.77832E+01
 -3.15271E+01 +1.01797E+00 -1.87981E+01 -1.77266E+01 -2.41053E+00 -3.31929E+01 +1.31193E+01 -4.07633E+01
 +2.39142E+01 -3.78764E+01 +2.76822E+01 -2.49136E+01 +2.41245E+01 -5.24222E+00 +1.47706E+01 +1.56481E+01
 +2.37280E+00 +3.16979E+01 -9.90646E+00 +3.80703E+01 -1.92699E+01 +3.26401E+01 -2.38400E+01 +1.67090E+01
 -2.29138E+01 -5.29598E+00 -1.69395E+01 -2.70757E+01 -7.29721E+00 -4.22977E+01 +4.02005E+00 -4.64708E+01
 +1.47559E+01 -3.82847E+01 +2.27407E+01 -2.00059E+01 +2.62364E+01 +3.18885E+00 +2.42681E+01 +2.47384E+01
 +1.68989E+01 +3.86150E+01 +5.37096E+00 +4.10576E+01 -7.97898E+00 +3.16079E+01 -2.00928E+01 +1.31606E+01
 -2.78374E+01 -8.95756E+00 -2.88093E+01 -2.85757E+01 -2.20889E+01 -4.04422E+01 -8.70353E+00 -4.16447E+01
 +8.40245E+00 -3.22946E+01 +2.49642E+01 -1.53259E+01 +3.64618E+01 +4.47774E+00 +3.93881E+01 +2.18929E+01
 +3.23535E+01 +3.26749E+01 +1.66667E+01 +3.45881E+01 -3.83577E+00 +2.78061E+01 -2.37272E+01 +1.46376E+01
 -3.74667E+01 -1.26497E+00 -4.10007E+01 -1.59417E+01 -3.30099E+01 -2.61018E+01 -1.54036E+01 -2.98034E+01
 +7.12206E+00 -2.67203E+01 +2.83653E+01 -1.80086E+01 +4.23802E+01 -5.88268E+00 +4.52001E+01 +6.94541E+00
 +3.60062E+01 +1.78256E+01 +1.73819E+01 +2.46337E+01 -5.42818E+00 +2.60983E+01 -2.60396E+01 +2.19834E+01
 -3.87727E+01 +1.31269E+01 -4.02718E+01 +1.33011E+00 -3.04229E+01 -1.09169E+01 -1.23106E+01 -2.08741E+01
 +8.75016E+00 -2.61147E+01 +2.67983E+01 -2.51180E+01 +3.69410E+01 -1.77479E+01 +3.66951E+01 -5.45594E+00
 +2.65794E+01 +8.90696E+00 +9.82384E+00 +2.16937E+01 -8.67402E+00 +2.93732E+01 -2.38026E+01 +2.95269E+01
 -3.16579E+01 +2.16399E+01 -3.05335E+01 +7.42109E+00 -2.12329E+01 -9.50203E+00 -6.67286E+00 -2.44856E+01
 +9.04948E+00 -3.31503E+01 +2.18204E+01 -3.26823E+01 +2.85671E+01 -2.27576E+01 +2.79402E+01 -5.78148E+00
 +2.04909E+01 +1.36743E+01 +8.36146E+00 +3.01111E+01 -5.36578E+00 +3.86771E+01 -1.74556E+01 +3.66152E+01
 -2.52421E+01 +2.41409E+01 -2.71401E+01 +4.46901E+00 -2.28812E+01 -1.70438E+01 -1.34762E+01 -3.44042E+01
 -9.56991E-01 -4.26979E+01 +1.20338E+01 -3.95094E+01 +2.27379E+01 -2.56257E+01 +2.87970E+01 -4.81501E+00
 +2.87245E+01 +1.72491E+01 +2.22591E+01 +3.45990E+01 +1.05191E+01 +4.26416E+01 -4.11355E+00 +3.94047E+01
 -1.84073E+01 +2.60119E+01 -2.89554E+01 +6.27735E+00 -3.29871E+01 -1.44335E+01 -2.91252E+01 -3.07215E+01
 -1.78724E+01 -3.86057E+01 -1.65236E+00 -3.65091E+01 +1.56692E+01 -2.55313E+01 +2.97075E+01 -8.98483E+00
 +3.67092E+01 +8.62563E+00 +3.46195E+01 +2.28577E+01 +2.37455E+01 +3.04632E+01 +6.79045E+00 +3.01075E+01
 -1.17945E+01 +2.25314E+01 -2.69940E+01 +1.01723E+01 -3.46263E+01 -3.59396E+00 -3.25527E+01 -1.53563E+01
 -2.13337E+01 -2.24768E+01 -4.11798E+00 -2.36250E+01 +1.42251E+01 -1.89544E+01 +2.84902E+01 -9.93276E+00
 +3.46373E+01 +1.08755E+00 +3.09675E+01 +1.14380E+01 +1.86199E+01 +1.87165E+01 +1.23982E+00 +2.12789E+01
 -1.60865E+01 +1.85657E+01 -2.83153E+01 +1.12164E+01 -3.19077E+01 +9.52872E-01 -2.58434E+01 -9.75948E+00
 -1.18924E+01 -1.82289E+01 +5.92258E+00 -2.21494E+01 +2.25021E+01 -2.01864E+01 +3.31325E+01 -1.23950E+01
 +3.48078E+01 -3.40575E-01 +2.70390E+01 +1.31550E+01 +1.19385E+01 +2.46285E+01 -6.41702E+00 +3.08354E+01
 -2.31396E+01 +2.96487E+01 -3.38594E+01 +2.07465E+01 -3.58606E+01 +5.86937E+00 -2.87299E+01 -1.14755E+01
 -1.43760E+01 -2.68327E+01 +3.54674E+00 -3.59537E+01 +2.06195E+01 -3.59846E+01 +3.27706E+01 -2.63460E+01
 +3.72327E+01 -9.03102E+00 +3.31265E+01 +1.18011E+01 +2.15682E+01 +3.08599E+01 +5.31530E+00 +4.31200E+01
 -1.19260E+01 +4.51985E+01 -2.63542E+01 +3.63199E+01 -3.48929E+01 +1.85842E+01 -3.58149E+01 -3.55210E+00
 -2.90613E+01 -2.44504E+01 -1.62121E+01 -3.87945E+01 -1.29019E-01 -4.30087E+01 +1.56547E+01 -3.61933E+01
 +2.76800E+01 -2.03239E+01 +3.33012E+01 +3.30470E-01 +3.12721E+01 +2.03941E+01 +2.20480E+01 +3.48342E+01
 +7.72458E+00 +4.02694E+01 -8.39951E+00 +3.57852E+01 -2.25615E+01 +2.30562E+01 -3.14203E+01 +5.77449E+00
 -3.28827E+01 -1.14253E+01 -2.66565E+01 -2.42271E+01 -1.43711E+01 -2.97322E+01 +7.94907E-01 -2.71143E+01
 +1.49073E+01 -1.76886E+01 +2.42994E+01 -4.41826E+00 +2.65564E+01 +8.96833E+00 +2.11854E+01 +1.89907E+01
 +9.77387E+00 +2.32883E+01 -4.42844E+00 +2.11408E+01 -1.74016E+01 +1.35345E+01 -2.54813E+01 +2.79640E+00
 -2.64008E+01 -8.07826E+00 -1.99476E+01 -1.62167E+01 -8.03792E+00 -1.95791E+01 +5.82204E+00 -1.74271E+01
 +1.75391E+01 -1.04567E+01 +2.36155E+01 -5.84446E-01 +2.21681E+01 +9.54761E+00 +1.34888E+01 +1.72279E+01
 -2.07442E-02 +2.03408E+01 -1.45207E+01 +1.78928E+01 -2.58216E+01 +1.02800E+01 -3.05766E+01 -7.68848E-01
 -2.72366E+01 -1.25712E+01 -1.65007E+01 -2.21178E+01 -1.13589E+00 -2.68116E+01 +1.47766E+01 -2.51470E+01
 +2.69545E+01 -1.71574E+01 +3.20754E+01 -4.50269E+00 +2.86689E+01 +9.85405E+00 +1.75036E+01 +2.23270E+01
 +1.37569E+00 +2.95965E+01 -1.56304E+01 +2.94874E+01 -2.92042E+01 +2.16040E+01 -3.59099E+01 +7.53557E+00
 -3.40420E+01 -9.45030E+00 -2.40296E+01 -2.51763E+01 -8.29938E+00 -3.56044E+01 +9.34791E+00 -3.78972E+01
 +2.46819E+01 -3.12074E+01 +3.40678E+01 -1.69684E+01 +3.53267E+01 +1.40893E+00 +2.82304E+01 +1.93731E+01
 +1.45286E+01 +3.23908E+01 -2.48872E+00 +3.71257E+01 -1.87806E+01 +3.23203E+01 -3.05081E+01 +1.91415E+01
 -3.49307E+01 +8.92791E-01 -3.10412E+01 -1.78337E+01 -1.97943E+01 -3.23416E+01 -3.87793E+00 -3.90367E+01
 +1.29228E+01 -3.63371E+01 +2.66215E+01 -2.50529E+01 +3.39809E+01 -8.14252E+00 +3.32909E+01 +1.00781E+01
 +2.47867E+01 +2.50586E+01 +1.05997E+01 +3.31705E+01 -5.75608E+00 +3.25990E+01 -2.02440E+01 +2.37505E+01
 -2.93031E+01 +9.08598E+00 -3.07377E+01 -7.55717E+00 -2.42704E+01 -2.19678E+01 -1.16134E+01 -3.06240E+01
 +3.96794E+00 -3.15491E+01 +1.84919E+01 -2.47544E+01 +2.82847E+01 -1.21735E+01 +3.09256E+01 +2.87733E+00
 +2.58659E+01 +1.65654E+01 +1.45561E+01 +2.55098E+01 +4.92808E-02 +2.76112E+01 -1.38151E+01 +2.25443E+01
 -2.34278E+01 +1.17983E+01 -2.63560E+01 -1.73409E+00 -2.19684E+01 -1.45094E+01 -1.15746E+01 -2.32392E+01
 +1.94996E+00 -2.57207E+01 +1.49500E+01 -2.13871E+01 +2.39695E+01 -1.14410E+01 +2.66636E+01 +1.46468E+00
 +2.24011E+01 +1.39152E+01 +1.24049E+01 +2.26219E+01 -5.97216E-01 +2.52811E+01 -1.31129E+01 +2.11819E+01
 -2.18131E+01 +1.14036E+01 -2.44039E+01 -1.45634E+00 -2.02170E+01 -1.39575E+01 -1.03707E+01 -2.27227E+01
 +2.53276E+00 -2.53387E+01 +1.50889E+01 -2.10119E+01 +2.39747E+01 -1.07994E+01 +2.68060E+01 +2.65116E+00
 +2.27537E+01 +1.57900E+01 +1.27640E+01 +2.51029E+01 -6.71469E-01 +2.80483E+01 -1.41384E+01 +2.37436E+01
 -2.41605E+01 +1.32145E+01 -2.80859E+01 -8.61691E-01 -2.47753E+01 -1.48510E+01 -1.49191E+01 -2.51131E+01
 -8.96565E-01 -2.89527E+01 +1.37963E+01 -2.53236E+01 +2.54148E+01 -1.50988E+01 +3.09160E+01 -8.42894E-01
 +2.87530E+01 +1.38511E+01 +1.93051E+01 +2.52827E+01 +4.82363E+00 +3.05817E+01 -1.11051E+01 +2.84245E+01
 -2.44549E+01 +1.93514E+01 -3.17890E+01 +5.61274E+00 -3.11590E+01 -9.40641E+00 -2.26340E+01 -2.20322E+01
 -8.31324E+00 -2.92048E+01 +8.19291E+00 -2.92161E+01 +2.26851E+01 -2.21092E+01 +3.14633E+01 -9.64963E+00
 +3.22939E+01 +5.11665E+00 +2.49963E+01 +1.86055E+01 +1.14905E+01 +2.75595E+01 -4.71020E+00 +2.98285E+01
 -1.94261E+01 +2.48852E+01 -2.89092E+01 +1.39518E+01 -3.08180E+01 -2.90243E-01 -2.48088E+01 -1.43441E+01
 -1.25922E+01 -2.47446E+01 +2.55426E+00 -2.89091E+01 +1.66752E+01 -2.57862E+01 +2.61833E+01 -1.61381E+01
 +2.87812E+01 -2.37775E+00 +2.40183E+01 +1.20130E+01 +1.33491E+01 +2.33512E+01 -3.05529E-01 +2.86945E+01
 -1.33595E+01 +2.66175E+01 -2.25024E+01 +1.76141E+01 -2.55315E+01 +4.00602E+00 -2.18674E+01 -1.06334E+01
 -1.26383E+01 -2.24061E+01 -3.32686E-01 -2.81269E+01 +1.18698E+01 -2.61942E+01 +2.09081E+01 -1.70523E+01
 +2.45868E+01 -3.10544E+00 +2.20833E+01 +1.19061E+01 +1.41081E+01 +2.39095E+01 +2.69632E+00 +2.96109E+01
 -9.30532E+00 +2.74091E+01 -1.89290E+01 +1.78525E+01 -2.37912E+01 +3.50581E+00 -2.26567E+01 -1.17424E+01
