 Created: 19-Jan-2021
 $NMID
 ID='D:\BASISSIMULATI'
 FMTDAT='(8E13.5)'
 VOLUME=   1.00000E+00
 TRAMP=   1.00000E+00
 $END
 +1.20185E+02 +1.95899E+01 +1.01388E+02 +6.41056E+01 +6.44894E+01 +9.49661E+01 +1.79941E+01 +1.05362E+02
 -2.74195E+01 +9.33059E+01 -6.14469E+01 +6.20665E+01 -7.65958E+01 +1.93431E+01 -6.99261E+01 -2.46186E+01
 -4.36758E+01 -5.94970E+01 -4.63451E+00 -7.73483E+01 +3.75662E+01 -7.44459E+01 +7.28135E+01 -5.20721E+01
 +9.29402E+01 -1.60843E+01 +9.36262E+01 +2.46112E+01 +7.53222E+01 +6.02856E+01 +4.29928E+01 +8.27541E+01
 +4.77014E+00 +8.73010E+01 -3.01251E+01 +7.37029E+01 -5.36650E+01 +4.61228E+01 -6.09316E+01 +1.19320E+01
 -5.12079E+01 -2.02197E+01 -2.79950E+01 -4.25867E+01 +2.01605E+00 -5.02148E+01 +3.07334E+01 -4.20725E+01
 +5.07451E+01 -2.11659E+01 +5.71641E+01 +6.36216E+00 +4.87817E+01 +3.28935E+01 +2.82588E+01 +5.13200E+01
 +1.33362E+00 +5.68441E+01 -2.47306E+01 +4.81450E+01 -4.30456E+01 +2.76340E+01 -4.88593E+01 +7.54096E-01
 -4.07357E+01 -2.54760E+01 -2.08682E+01 -4.42904E+01 +5.53517E+00 -5.09076E+01 +3.16226E+01 -4.37301E+01
 +5.06655E+01 -2.47192E+01 +5.77716E+01 +1.13568E+00 +5.11131E+01 +2.71048E+01 +3.23720E+01 +4.64304E+01
 +6.29934E+00 +5.40285E+01 -2.04863E+01 +4.77566E+01 -4.11557E+01 +2.89387E+01 -5.03629E+01 +2.02693E+00
 -4.55590E+01 -2.65058E+01 -2.76078E+01 -4.97590E+01 -5.61297E-01 -6.20888E+01 +2.93388E+01 -6.04687E+01
 +5.51796E+01 -4.52024E+01 +7.10400E+01 -1.98252E+01 +7.33952E+01 +9.77195E+00 +6.19272E+01 +3.67689E+01
 +3.95587E+01 +5.50450E+01 +1.17138E+01 +6.06142E+01 -1.50011E+01 +5.25291E+01 -3.43728E+01 +3.30478E+01
 -4.20312E+01 +7.04000E+00 -3.64346E+01 -1.92102E+01 -1.91647E+01 -3.95077E+01 +5.51898E+00 -4.91930E+01
 +3.17440E+01 -4.61909E+01 +5.34406E+01 -3.14239E+01 +6.57641E+01 -8.51073E+00 +6.61886E+01 +1.71614E+01
 +5.50228E+01 +3.97512E+01 +3.52425E+01 +5.43440E+01 +1.17010E+01 +5.80700E+01 -1.00781E+01 +5.07034E+01
 -2.52243E+01 +3.46162E+01 -3.06449E+01 +1.41184E+01 -2.56865E+01 -5.63802E+00 -1.21936E+01 -1.99168E+01
 +6.03166E+00 -2.55107E+01 +2.42185E+01 -2.14486E+01 +3.78141E+01 -9.13998E+00 +4.35740E+01 +8.05989E+00
 +4.02984E+01 +2.57391E+01 +2.90452E+01 +3.95436E+01 +1.27865E+01 +4.62391E+01 -4.39128E+00 +4.44623E+01
 -1.83340E+01 +3.49888E+01 -2.58482E+01 +2.04648E+01 -2.54600E+01 +4.68647E+00 -1.77245E+01 -8.38443E+00
 -5.02094E+00 -1.56168E+01 +9.10146E+00 -1.54708E+01 +2.08527E+01 -8.33909E+00 +2.71681E+01 +3.60535E+00
 +2.64685E+01 +1.70067E+01 +1.90279E+01 +2.82090E+01 +6.86423E+00 +3.41961E+01 -6.80927E+00 +3.33510E+01
 -1.84278E+01 +2.58475E+01 -2.49940E+01 +1.35778E+01 -2.48387E+01 -3.54560E-01 -1.80333E+01 -1.24451E+01
 -6.35362E+00 -1.96908E+01 +7.19205E+00 -2.03553E+01 +1.91437E+01 -1.44028E+01 +2.64796E+01 -3.49477E+00
 +2.73880E+01 +9.44713E+00 +2.17238E+01 +2.09964E+01 +1.10386E+01 +2.81017E+01 -1.82310E+00 +2.88668E+01
 -1.34550E+01 +2.30321E+01 -2.07603E+01 +1.20383E+01 -2.17414E+01 -1.34354E+00 -1.60077E+01 -1.37185E+01
 -4.87365E+00 -2.19307E+01 +8.97506E+00 -2.38628E+01 +2.21624E+01 -1.89706E+01 +3.14747E+01 -8.41798E+00
 +3.46696E+01 +5.22076E+00 +3.10361E+01 +1.86123E+01 +2.15669E+01 +2.85047E+01 +8.69998E+00 +3.25426E+01
 -4.30229E+00 +2.98519E+01 -1.41766E+01 +2.12479E+01 -1.84768E+01 +9.01670E+00 -1.61798E+01 -3.67162E+00
 -7.92755E+00 -1.35671E+01 +4.15254E+00 -1.81561E+01 +1.69994E+01 -1.62839E+01 +2.73994E+01 -8.42674E+00
 +3.27968E+01 +3.45057E+00 +3.19275E+01 +1.64119E+01 +2.51168E+01 +2.73066E+01 +1.41699E+01 +3.35696E+01
 +1.88670E+00 +3.38620E+01 -8.66997E+00 +2.83887E+01 -1.49630E+01 +1.88157E+01 -1.56236E+01 +7.81378E+00
 -1.07825E+01 -1.65168E+00 -2.00968E+00 -7.09761E+00 +8.12147E+00 -7.16540E+00 +1.67263E+01 -1.96238E+00
 +2.13771E+01 +6.98447E+00 +2.07463E+01 +1.71486E+01 +1.49544E+01 +2.56862E+01 +5.53457E+00 +3.02017E+01
 -4.97969E+00 +2.93942E+01 -1.37343E+01 +2.34145E+01 -1.83250E+01 +1.38372E+01 -1.74542E+01 +3.25153E+00
 -1.13015E+01 -5.42336E+00 -1.50376E+00 -9.72265E+00 +9.25208E+00 -8.31269E+00 +1.79258E+01 -1.38099E+00
 +2.19295E+01 +9.36854E+00 +1.98350E+01 +2.11217E+01 +1.17936E+01 +3.06640E+01 -4.45334E-01 +3.52154E+01
 -1.39335E+01 +3.31774E+01 -2.52459E+01 +2.45953E+01 -3.13486E+01 +1.12102E+01 -3.03932E+01 -3.92280E+00
 -2.22328E+01 -1.71638E+01 -8.52091E+00 -2.51883E+01 +7.64108E+00 -2.58335E+01 +2.24303E+01 -1.86770E+01
 +3.22290E+01 -5.19590E+00 +3.45236E+01 +1.15428E+01 +2.85516E+01 +2.75929E+01 +1.55311E+01 +3.90723E+01
 -1.59168E+00 +4.31099E+01 -1.88230E+01 +3.85623E+01 -3.20687E+01 +2.63207E+01 -3.81202E+01 +9.12714E+00
 -3.54370E+01 -9.06147E+00 -2.45338E+01 -2.40098E+01 -7.87416E+00 -3.22162E+01 +1.07086E+01 -3.17545E+01
 +2.69226E+01 -2.27386E+01 +3.70417E+01 -7.29695E+00 +3.87947E+01 +1.09392E+01 +3.19018E+01 +2.77092E+01
 +1.81297E+01 +3.91458E+01 +8.51479E-01 +4.26985E+01 -1.57790E+01 +3.77324E+01 -2.78354E+01 +2.56586E+01
 -3.25636E+01 +9.56758E+00 -2.90317E+01 -6.54317E+00 -1.83287E+01 -1.87538E+01 -3.26698E+00 -2.41763E+01
 +1.23343E+01 -2.16442E+01 +2.46038E+01 -1.19706E+01 +3.05739E+01 +2.28624E+00 +2.88996E+01 +1.74848E+01
 +2.01666E+01 +2.98237E+01 +6.71371E+00 +3.62922E+01 -7.97971E+00 +3.54122E+01 -2.01850E+01 +2.75877E+01
 -2.68685E+01 +1.49772E+01 -2.64512E+01 +9.25401E-01 -1.91936E+01 -1.08991E+01 -7.11248E+00 -1.74419E+01
 +6.54806E+00 -1.70376E+01 +1.81543E+01 -9.82837E+00 +2.46160E+01 +2.28068E+00 +2.41782E+01 +1.61146E+01
 +1.68704E+01 +2.80449E+01 +4.50061E+00 +3.49213E+01 -9.80526E+00 +3.48813E+01 -2.24012E+01 +2.78322E+01
 -3.00536E+01 +1.54827E+01 -3.07710E+01 +9.14453E-01 -2.43213E+01 -1.21984E+01 -1.23018E+01 -2.05241E+01
 +2.25610E+00 -2.19260E+01 +1.56495E+01 -1.60161E+01 +2.44429E+01 -4.26666E+00 +2.63445E+01 +1.03506E+01
 +2.07986E+01 +2.41084E+01 +9.14049E+00 +3.34662E+01 -5.72665E+00 +3.59711E+01 -2.00563E+01 +3.08903E+01
 -3.02028E+01 +1.94129E+01 -3.35473E+01 +4.36488E+00 -2.91727E+01 -1.04927E+01 -1.81127E+01 -2.14093E+01
 -3.10883E+00 -2.55964E+01 +1.20670E+01 -2.19455E+01 +2.35587E+01 -1.13275E+01 +2.84028E+01 +3.60578E+00
 +2.52917E+01 +1.90723E+01 +1.49260E+01 +3.11053E+01 -1.35930E-01 +3.65562E+01 -1.60993E+01 +3.39045E+01
 -2.88757E+01 +2.36679E+01 -3.51123E+01 +8.30334E+00 -3.30517E+01 -8.38029E+00 -2.30032E+01 -2.21596E+01
 -7.30253E+00 -2.94518E+01 +1.02362E+01 -2.82271E+01 +2.52479E+01 -1.85462E+01 +3.38958E+01 -2.58619E+00
 +3.38366E+01 +1.58606E+01 +2.48316E+01 +3.22965E+01 +8.84486E+00 +4.26174E+01 -1.04000E+01 +4.41318E+01
 -2.83029E+01 +3.62467E+01 -4.04985E+01 +2.06485E+01 -4.39248E+01 +9.28152E-01 -3.75867E+01 -1.82637E+01
 -2.28253E+01 -3.23290E+01 -3.02246E+00 -3.78332E+01 +1.71915E+01 -3.33447E+01 +3.30379E+01 -1.97966E+01
 +4.07327E+01 -2.80360E-01 +3.83948E+01 +2.06804E+01 +2.65007E+01 +3.82026E+01 +7.77412E+00 +4.82035E+01
 -1.34622E+01 +4.83686E+01 -3.23152E+01 +3.86937E+01 -4.44827E+01 +2.14741E+01 -4.72653E+01 +7.42704E-01
 -4.01887E+01 -1.87001E+01 -2.50869E+01 -3.24313E+01 -5.63474E+00 -3.74460E+01 +1.35551E+01 -3.28446E+01
 +2.80439E+01 -2.00048E+01 +3.46189E+01 -2.20533E+00 +3.20298E+01 +1.62008E+01 +2.12376E+01 +3.08546E+01
 +5.12385E+00 +3.84372E+01 -1.22591E+01 +3.74399E+01 -2.67047E+01 +2.84746E+01 -3.48806E+01 +1.40588E+01
 -3.51165E+01 -2.06188E+00 -2.77605E+01 -1.58760E+01 -1.50274E+01 -2.41096E+01 -3.84605E-01 -2.50190E+01
 +1.23594E+01 -1.87806E+01 +2.00303E+01 -7.38714E+00 +2.08794E+01 +5.91366E+00 +1.49952E+01 +1.74877E+01
 +4.23604E+00 +2.42646E+01 -8.29098E+00 +2.45268E+01 -1.90662E+01 +1.83363E+01 -2.50904E+01 +7.49507E+00
 -2.46738E+01 -4.94648E+00 -1.78790E+01 -1.55046E+01 -6.50463E+00 -2.11877E+01 +6.38405E+00 -2.02941E+01
 +1.72586E+01 -1.28757E+01 +2.30562E+01 -7.46165E-01 +2.19966E+01 +1.29689E+01 +1.40751E+01 +2.46295E+01
 +1.10300E+00 +3.10224E+01 -1.37211E+01 +3.02082E+01 -2.66028E+01 +2.20557E+01 -3.41124E+01 +8.32359E+00
 -3.40699E+01 -7.73696E+00 -2.61333E+01 -2.21659E+01 -1.19344E+01 -3.12727E+01 +5.27595E+00 -3.25671E+01
 +2.13938E+01 -2.54095E+01 +3.24549E+01 -1.12157E+01 +3.56111E+01 +6.84255E+00 +2.98504E+01 +2.45726E+01
 +1.62805E+01 +3.77581E+01 -2.09941E+00 +4.31774E+01 -2.10885E+01 +3.93952E+01 -3.62732E+01 +2.71327E+01
 -4.40782E+01 +9.12274E+00 -4.26262E+01 -1.05196E+01 -3.21980E+01 -2.72618E+01 -1.51803E+01 -3.72250E+01
 +4.48944E+00 -3.81041E+01 +2.22489E+01 -2.97160E+01 +3.39866E+01 -1.40448E+01 +3.70113E+01 +5.22940E+00
 +3.06819E+01 +2.36023E+01 +1.65492E+01 +3.68116E+01 -2.02342E+00 +4.18410E+01 -2.06684E+01 +3.76224E+01
 -3.50558E+01 +2.52704E+01 -4.19176E+01 +7.79481E+00 -3.98103E+01 -1.06353E+01 -2.94338E+01 -2.56982E+01
 -1.34345E+01 -3.39510E+01 +4.25647E+00 -3.36397E+01 +1.93859E+01 -2.50922E+01 +2.84064E+01 -1.06058E+01
 +2.93209E+01 +6.14017E+00 +2.21401E+01 +2.09993E+01 +8.84569E+00 +3.03741E+01 -7.12638E+00 +3.20853E+01
 -2.17521E+01 +2.58821E+01 -3.14191E+01 +1.34735E+01 -3.38119E+01 -1.92445E+00 -2.84680E+01 -1.64075E+01
 -1.68665E+01 -2.63646E+01 -2.03511E+00 -2.93755E+01 +1.22269E+01 -2.48037E+01 +2.23115E+01 -1.39379E+01
 +2.57096E+01 +3.49908E-01 +2.16372E+01 +1.43429E+01 +1.12235E+01 +2.44259E+01 -2.78495E+00 +2.80034E+01
 -1.67274E+01 +2.41568E+01 -2.69636E+01 +1.38754E+01 -3.08018E+01 -1.95506E-01 -2.71877E+01 -1.44279E+01
 -1.69775E+01 -2.51347E+01 -2.72674E+00 -2.95109E+01 +1.19529E+01 -2.63539E+01 +2.33093E+01 -1.63801E+01
 +2.84052E+01 -2.05495E+00 +2.58721E+01 +1.30216E+01 +1.62708E+01 +2.50222E+01 +1.96504E+00 +3.08623E+01
 -1.34628E+01 +2.89889E+01 -2.61088E+01 +1.97877E+01 -3.27326E+01 +5.50207E+00 -3.15810E+01 -1.03176E+01
 -2.28437E+01 -2.36982E+01 -8.62021E+00 -3.12416E+01 +7.59213E+00 -3.09830E+01 +2.17667E+01 -2.28950E+01
 +3.03532E+01 -8.90798E+00 +3.11694E+01 +7.56174E+00 +2.39541E+01 +2.24573E+01 +1.04415E+01 +3.20913E+01
 -6.06389E+00 +3.40668E+01 -2.15053E+01 +2.78780E+01 -3.20820E+01 +1.50403E+01 -3.51942E+01 -1.28440E+00
 -3.00900E+01 -1.70728E+01 -1.80502E+01 -2.84401E+01 -2.06756E+00 -3.26041E+01 +1.39004E+01 -2.85730E+01
 +2.59164E+01 -1.73856E+01 +3.10406E+01 -1.84499E+00 +2.80549E+01 +1.41857E+01 +1.77554E+01 +2.67482E+01
