 Created: 19-Jan-2021
 $NMID
 ID='D:\BASISSIMULATI'
 FMTDAT='(8E13.5)'
 VOLUME=   1.00000E+00
 TRAMP=   1.00000E+00
 $END
 +8.59419E+01 +1.36107E+01 +8.04862E+01 -1.24967E+01 +5.81291E+01 -3.31790E+01 +2.43044E+01 -4.18116E+01
 -1.26710E+01 -3.52466E+01 -4.37957E+01 -1.47159E+01 -6.17544E+01 +1.44771E+01 -6.28231E+01 +4.43917E+01
 -4.77966E+01 +6.66217E+01 -2.16955E+01 +7.46110E+01 +7.66286E+00 +6.54811E+01 +3.18320E+01 +4.08698E+01
 +4.40519E+01 +6.55096E+00 +4.10802E+01 -2.90670E+01 +2.40434E+01 -5.71573E+01 -1.91819E+00 -7.08098E+01
 -2.91101E+01 -6.68534E+01 -4.94420E+01 -4.66766E+01 -5.66926E+01 -1.58281E+01 -4.82594E+01 +1.74907E+01
 -2.59136E+01 +4.46293E+01 +4.64502E+00 +5.87908E+01 +3.53142E+01 +5.68113E+01 +5.77790E+01 +3.99411E+01
 +6.57699E+01 +1.34237E+01 +5.67762E+01 -1.50020E+01 +3.27486E+01 -3.72618E+01 -3.98539E-01 -4.71736E+01
 -3.43488E+01 -4.21362E+01 -6.05864E+01 -2.38213E+01 -7.26447E+01 +2.31472E+00 -6.77946E+01 +2.85584E+01
 -4.77225E+01 +4.70857E+01 -1.80222E+01 +5.21365E+01 +1.33528E+01 +4.16237E+01 +3.82515E+01 +1.77382E+01
 +5.05115E+01 -1.36132E+01 +4.75802E+01 -4.43826E+01 +3.11357E+01 -6.65386E+01 +6.55146E+00 -7.42212E+01
 -1.86400E+01 -6.53105E+01 -3.68569E+01 -4.19888E+01 -4.25710E+01 -1.01471E+01 -3.38301E+01 +2.21955E+01
 -1.27896E+01 +4.70301E+01 +1.48869E+01 +5.84733E+01 +4.15873E+01 +5.42910E+01 +5.98403E+01 +3.64264E+01
 +6.43645E+01 +1.03999E+01 +5.35173E+01 -1.62441E+01 +2.97550E+01 -3.60152E+01 -1.01777E+00 -4.35097E+01
 -3.10285E+01 -3.68502E+01 -5.27127E+01 -1.81464E+01 -6.07250E+01 +7.13638E+00 -5.33415E+01 +3.17186E+01
 -3.28812E+01 +4.85294E+01 -5.04210E+00 +5.26560E+01 +2.26610E+01 +4.26898E+01 +4.29253E+01 +2.11064E+01
 +5.06062E+01 -6.41503E+00 +4.40559E+01 -3.25418E+01 +2.55023E+01 -5.02799E+01 +3.76271E-01 -5.48652E+01
 -2.42161E+01 -4.50414E+01 -4.14543E+01 -2.33845E+01 -4.66592E+01 +4.40613E+00 -3.85432E+01 +3.10521E+01
 -1.95223E+01 +4.96498E+01 +4.98446E+00 +5.55044E+01 +2.80665E+01 +4.73519E+01 +4.32248E+01 +2.76467E+01
 +4.61474E+01 +1.84750E+00 +3.58750E+01 -2.30922E+01 +1.50475E+01 -4.06144E+01 -1.08277E+01 -4.63109E+01
 -3.48774E+01 -3.90723E+01 -5.07216E+01 -2.13284E+01 -5.41842E+01 +1.67231E+00 -4.43940E+01 +2.33359E+01
 -2.39872E+01 +3.75411E+01 +1.63484E+00 +4.03040E+01 +2.57808E+01 +3.08418E+01 +4.22718E+01 +1.17539E+01
 +4.70813E+01 -1.17177E+01 +3.93744E+01 -3.31384E+01 +2.16735E+01 -4.66383E+01 -8.81457E-01 -4.85002E+01
 -2.19653E+01 -3.81488E+01 -3.57969E+01 -1.82817E+01 -3.86939E+01 +5.88421E+00 -3.00360E+01 +2.80358E+01
 -1.23851E+01 +4.24658E+01 +9.25889E+00 +4.55905E+01 +2.88517E+01 +3.68780E+01 +4.09630E+01 +1.89432E+01
 +4.22465E+01 -3.20251E+00 +3.23270E+01 -2.35336E+01 +1.38720E+01 -3.66440E+01 -8.16076E+00 -3.91875E+01
 -2.78849E+01 -3.07395E+01 -4.00817E+01 -1.38583E+01 -4.15966E+01 +6.65994E+00 -3.21612E+01 +2.51175E+01
 -1.44291E+01 +3.64741E+01 +6.77566E+00 +3.77028E+01 +2.57817E+01 +2.85815E+01 +3.76015E+01 +1.17126E+01
 +3.92552E+01 -8.22099E+00 +3.05339E+01 -2.57528E+01 +1.40061E+01 -3.61231E+01 -5.72334E+00 -3.65578E+01
 -2.32887E+01 -2.69943E+01 -3.40217E+01 -1.00648E+01 -3.51975E+01 +9.64547E+00 -2.67334E+01 +2.68565E+01
 -1.11644E+01 +3.70203E+01 +7.08946E+00 +3.75295E+01 +2.29525E+01 +2.83871E+01 +3.20802E+01 +1.21636E+01
 +3.20263E+01 -6.73425E+00 +2.28792E+01 -2.32752E+01 +7.20326E+00 -3.31626E+01 -1.06888E+01 -3.39718E+01
 -2.59239E+01 -2.57636E+01 -3.43919E+01 -1.10185E+01 -3.38429E+01 +6.08062E+00 -2.44687E+01 +2.08102E+01
 -8.81734E+00 +2.91939E+01 +8.92349E+00 +2.90646E+01 +2.40730E+01 +2.06196E+01 +3.27173E+01 +6.32667E+00
 +3.27424E+01 -9.78280E+00 +2.43658E+01 -2.32318E+01 +1.00339E+01 -3.03194E+01 -6.27896E+00 -2.91131E+01
 -2.01676E+01 -1.99497E+01 -2.79887E+01 -5.31458E+00 -2.78256E+01 +1.08556E+01 -1.99690E+01 +2.42516E+01
 -6.79300E+00 +3.13539E+01 +7.92884E+00 +3.03648E+01 +2.00743E+01 +2.16631E+01 +2.62984E+01 +7.66666E+00
 +2.49298E+01 -7.85007E+00 +1.63995E+01 -2.07902E+01 +3.09294E+00 -2.78365E+01 -1.13240E+01 -2.73234E+01
 -2.29155E+01 -1.96485E+01 -2.85439E+01 -7.12069E+00 -2.67068E+01 +6.70295E+00 -1.79199E+01 +1.80043E+01
 -4.55142E+00 +2.37426E+01 +9.84027E+00 +2.24634E+01 +2.14781E+01 +1.46631E+01 +2.73807E+01 +2.61871E+00
 +2.61454E+01 -1.02619E+01 +1.82939E+01 -2.03853E+01 +6.09410E+00 -2.49528E+01 -7.08321E+00 -2.27107E+01
 -1.76929E+01 -1.42704E+01 -2.29723E+01 -1.91900E+00 -2.16691E+01 +1.10196E+01 -1.43468E+01 +2.10948E+01
 -3.19389E+00 +2.56595E+01 +8.60275E+00 +2.35698E+01 +1.77443E+01 +1.54693E+01 +2.17203E+01 +3.58755E+00
 +1.94804E+01 -8.88426E+00 +1.16985E+01 -1.86652E+01 +5.64528E-01 -2.32651E+01 -1.08317E+01 -2.16357E+01
 -1.93516E+01 -1.44215E+01 -2.26606E+01 -3.74893E+00 -1.98510E+01 +7.38022E+00 -1.16702E+01 +1.59205E+01
 -2.99473E-01 +1.96107E+01 +1.12512E+01 +1.75736E+01 +1.99619E+01 +1.05295E+01 +2.36115E+01 +5.71566E-01
 +2.13581E+01 -9.42906E+00 +1.39379E+01 -1.66203E+01 +3.43655E+00 -1.89499E+01 -7.29936E+00 -1.57183E+01
 -1.54444E+01 -7.75606E+00 -1.89556E+01 +2.81548E+00 -1.71073E+01 +1.31710E+01 -1.06582E+01 +2.05506E+01
 -1.61252E+00 +2.30018E+01 +7.35479E+00 +1.98937E+01 +1.36449E+01 +1.20682E+01 +1.54501E+01 +1.59229E+00
 +1.22421E+01 -8.81454E+00 +4.90345E+00 -1.65186E+01 -4.52725E+00 -1.96736E+01 -1.34239E+01 -1.76970E+01
 -1.92952E+01 -1.13952E+01 -2.04628E+01 -2.71100E+00 -1.65129E+01 +5.83241E+00 -8.40000E+00 +1.18344E+01
 +1.81924E+00 +1.36733E+01 +1.15467E+01 +1.09380E+01 +1.83417E+01 +4.52030E+00 +2.05675E+01 -3.65129E+00
 +1.78123E+01 -1.11600E+01 +1.09742E+01 -1.57767E+01 +1.99217E+00 -1.60784E+01 -6.69713E+00 -1.18388E+01
 -1.28264E+01 -4.09032E+00 -1.49048E+01 +5.16045E+00 -1.26015E+01 +1.34788E+01 -6.80566E+00 +1.86616E+01
 +6.49093E-01 +1.93289E+01 +7.51347E+00 +1.52882E+01 +1.17575E+01 +7.57692E+00 +1.21354E+01 -1.82726E+00
 +8.52594E+00 -1.05429E+01 +1.95886E+00 -1.64220E+01 -5.67851E+00 -1.81130E+01 -1.21691E+01 -1.54002E+01
 -1.55827E+01 -9.23080E+00 -1.48116E+01 -1.42706E+00 -9.87899E+00 +5.83110E+00 -1.93842E+00 +1.06101E+01
 +7.03405E+00 +1.17461E+01 +1.47688E+01 +9.14626E+00 +1.93076E+01 +3.78906E+00 +1.95206E+01 -2.57205E+00
 +1.53965E+01 -7.91630E+00 +8.03068E+00 -1.05318E+01 -6.82477E-01 -9.50097E+00 -8.56452E+00 -4.96139E+00
 -1.37346E+01 +1.92721E+00 -1.50991E+01 +9.29992E+00 -1.26179E+01 +1.50986E+01 -7.28043E+00 +1.76375E+01
 -8.01749E-01 +1.60679E+01 +4.87253E+00 +1.06158E+01 +8.11380E+00 +2.52798E+00 +8.05947E+00 -6.25556E+00
 +4.84100E+00 -1.36139E+01 -4.69009E-01 -1.78020E+01 -6.17282E+00 -1.79017E+01 -1.04367E+01 -1.40472E+01
 -1.18162E+01 -7.36696E+00 -9.67207E+00 +3.37789E-01 -4.36239E+00 +7.08759E+00 +2.84227E+00 +1.12553E+01
 +1.00957E+01 +1.19889E+01 +1.54728E+01 +9.41340E+00 +1.74907E+01 +4.56148E+00 +1.55110E+01 -9.44228E-01
 +9.91603E+00 -5.36468E+00 +2.01145E+00 -7.34145E+00 -6.31671E+00 -6.27924E+00 -1.30965E+01 -2.50905E+00
 -1.67821E+01 +2.81099E+00 -1.66452E+01 +8.02782E+00 -1.29439E+01 +1.14651E+01 -6.82550E+00 +1.19028E+01
 +4.80967E-03 +8.93231E+00 +5.75660E+00 +3.08815E+00 +9.03714E+00 -4.27884E+00 +9.21344E+00 -1.13535E+01
 +6.55700E+00 -1.63369E+01 +2.13550E+00 -1.79253E+01 -2.51431E+00 -1.56573E+01 -5.83865E+00 -1.00380E+01
 -6.71669E+00 -2.40479E+00 -4.78327E+00 +5.42376E+00 -5.35567E-01 +1.16227E+01 +4.80478E+00 +1.48296E+01
 +9.63487E+00 +1.44821E+01 +1.24234E+01 +1.09373E+01 +1.21475E+01 +5.34328E+00 +8.59336E+00 -6.96573E-01
 +2.43707E+00 -5.57211E+00 -4.91694E+00 -8.10340E+00 -1.16960E+01 -7.84742E+00 -1.62211E+01 -5.19270E+00
 -1.73457E+01 -1.21987E+00 -1.47538E+01 +2.62959E+00 -9.03926E+00 +4.98162E+00 -1.54495E+00 +4.93437E+00
 +5.99064E+00 +2.32674E+00 +1.18845E+01 -2.20391E+00 +1.49358E+01 -7.39042E+00 +1.47144E+01 -1.16842E+01
 +1.16384E+01 -1.36869E+01 +6.82219E+00 -1.25472E+01 +1.74371E+00 -8.21210E+00 -2.17656E+00 -1.46604E+00
 -3.96693E+00 +6.25620E+00 -3.35986E+00 +1.32308E+01 -8.43312E-01 +1.78844E+01 +2.50275E+00 +1.91940E+01
 +5.33599E+00 +1.69416E+01 +6.45376E+00 +1.17569E+01 +5.15440E+00 +4.93949E+00 +1.45696E+00 -1.88838E+00
 -3.88215E+00 -7.20463E+00 -9.56048E+00 -9.97089E+00 -1.40767E+01 -9.87593E+00 -1.61390E+01 -7.37715E+00
 -1.50226E+01 -3.53399E+00 -1.07803E+01 +3.16266E-01 -4.24708E+00 +2.94784E+00 +3.16149E+00 +3.59255E+00
 +9.80353E+00 +2.14779E+00 +1.42234E+01 -8.09100E-01 +1.55125E+01 -4.20127E+00 +1.35249E+01 -6.77513E+00
 +8.89153E+00 -7.47420E+00 +2.83436E+00 -5.75911E+00 -3.16708E+00 -1.78444E+00 -7.76483E+00 +3.61715E+00
 -1.00824E+01 +9.14020E+00 -9.91574E+00 +1.33457E+01 -7.74541E+00 +1.50426E+01 -4.56136E+00 +1.36090E+01
 -1.55359E+00 +9.16622E+00 +2.42953E-01 +2.55916E+00 +2.49975E-01 -4.85054E+00 -1.48935E+00 -1.15236E+01
 -4.32649E+00 -1.61236E+01 -7.19837E+00 -1.78389E+01 -8.93852E+00 -1.65623E+01 -8.62126E+00 -1.28844E+01
 -5.84310E+00 -7.90747E+00 -8.63225E-01 -2.93315E+00 +5.43652E+00 +8.88823E-01 +1.17620E+01 +2.85574E+00
 +1.67315E+01 +2.87312E+00 +1.92277E+01 +1.44191E+00 +1.86837E+01 -5.19948E-01 +1.52265E+01 -1.96826E+00
 +9.64168E+00 -2.05240E+00 +3.17098E+00 -3.74568E-01 -2.80382E+00 +2.88351E+00 -7.10411E+00 +7.00068E+00
 -9.03540E+00 +1.09114E+01 -8.53367E+00 +1.35015E+01 -6.14219E+00 +1.39218E+01 -2.83007E+00 +1.18354E+01
 +2.94102E-01 +7.52789E+00 +2.29347E+00 +1.85307E+00 +2.65373E+00 -3.97380E+00 +1.40712E+00 -8.67863E+00
 -9.01239E-01 -1.12470E+01 -3.39152E+00 -1.11742E+01 -5.11948E+00 -8.58223E+00 -5.36191E+00 -4.17455E+00
 -3.83754E+00 +9.56614E-01 -8.01941E-01 +5.61654E+00 +3.00921E+00 +8.81083E+00 +6.57268E+00 +9.98455E+00
 +8.85292E+00 +9.13650E+00 +9.08490E+00 +6.78212E+00 +6.98753E+00 +3.77984E+00 +2.85029E+00 +1.07220E+00
 -2.53005E+00 -5.85330E-01 -8.04498E+00 -8.33174E-01 -1.25496E+01 +2.01829E-01 -1.51443E+01 +1.95663E+00
 -1.53891E+01 +3.60634E+00 -1.33953E+01 +4.31226E+00 -9.77371E+00 +3.47385E+00 -5.45664E+00 +9.14311E-01
 -1.44350E+00 -3.05120E+00 +1.45953E+00 -7.68323E+00 +2.83689E+00 -1.20029E+01 +2.74704E+00 -1.50438E+01
 +1.67325E+00 -1.61018E+01 +3.59160E-01 -1.49179E+01 -4.22217E-01 -1.17434E+01 -1.00865E-01 -7.27373E+00
