 Created: 19-Jan-2021
 $NMID
 ID='D:\BASISSIMULATI'
 FMTDAT='(8E13.5)'
 VOLUME=   1.00000E+00
 TRAMP=   1.00000E+00
 $END
 +1.47366E+02 +2.25616E+01 +1.36911E+02 +5.73165E+01 +1.17795E+02 +8.80545E+01 +9.14271E+01 +1.12613E+02
 +5.97446E+01 +1.29293E+02 +2.50692E+01 +1.36988E+02 -1.00706E+01 +1.35264E+02 -4.31297E+01 +1.24388E+02
 -7.17392E+01 +1.05306E+02 -9.38833E+01 +7.95674E+01 -1.08050E+02 +4.92044E+01 -1.13341E+02 +1.65748E+01
 -1.09539E+02 -1.58187E+01 -9.71127E+01 -4.55192E+01 -7.71834E+01 -7.03028E+01 -5.14292E+01 -8.83456E+01
 -2.19544E+01 -9.83600E+01 +8.87521E+00 -9.96889E+01 +3.86158E+01 -9.23507E+01 +6.49342E+01 -7.70325E+01
 +8.57863E+01 -5.50316E+01 +9.95725E+01 -2.81505E+01 +1.05257E+02 +1.44648E+00 +1.02446E+02 +3.14035E+01
 +9.14089E+01 +5.93575E+01 +7.30566E+01 +8.31215E+01 +4.88635E+01 +1.00854E+02 +2.07497E+01 +1.11199E+02
 -9.07250E+00 +1.13389E+02 -3.82730E+01 +1.07302E+02 -6.45869E+01 +9.34651E+01 -8.59916E+01 +7.30107E+01
 -1.00864E+02 +4.75837E+01 -1.08106E+02 +1.92096E+01 -1.07227E+02 -9.86638E+00 -9.83826E+01 -3.73572E+01
 -8.23548E+01 -6.11142E+01 -6.04925E+01 -7.92959E+01 -3.46008E+01 -9.05122E+01 -6.79767E+00 -9.39331E+01
 +2.06544E+01 -8.93524E+01 +4.55273E+01 -7.72031E+01 +6.58036E+01 -5.85219E+01 +7.98356E+01 -3.48670E+01
 +8.64760E+01 -8.19418E+00 +8.51682E+01 +1.92974E+01 +7.59912E+01 +4.53393E+01 +5.96534E+01 +6.77728E+01
 +3.74382E+01 +8.47195E+01 +1.11037E+01 +9.47302E+01 -1.72544E+01 +9.69002E+01 -4.53672E+01 +9.09418E+01
 -7.09700E+01 +7.72092E+01 -9.19800E+01 +5.66728E+01 -1.06660E+02 +3.08456E+01 -1.13757E+02 +1.66682E+00
 -1.12599E+02 -2.86475E+01 -1.03153E+02 -5.77762E+01 -8.60270E+01 -8.34729E+01 -6.24284E+01 -1.03741E+02
 -3.40706E+01 -1.16988E+02 -3.04332E+00 -1.22152E+02 +2.83476E+01 -1.18784E+02 +5.77571E+01 -1.07087E+02
 +8.29814E+01 -8.78966E+01 +1.02128E+02 -6.26259E+01 +1.13760E+02 -3.31528E+01 +1.17010E+02 -1.67947E+00
 +1.11645E+02 +2.94365E+01 +9.80868E+01 +5.78624E+01 +7.73787E+01 +8.14685E+01 +5.11072E+01 +9.84914E+01
 +2.12807E+01 +1.07669E+02 -9.82425E+00 +1.08335E+02 -3.98367E+01 +1.00474E+02 -6.64725E+01 +8.47159E+01
 -8.77090E+01 +6.22935E+01 -1.01939E+02 +3.49429E+01 -1.08092E+02 +4.77233E+00 -1.05717E+02 -2.59003E+01
 -9.50137E+01 -5.47248E+01 -7.68172E+01 -7.94982E+01 -5.25316E+01 -9.83332E+01 -2.40215E+01 -1.09802E+02
 +6.53171E+00 -1.13042E+02 +3.67984E+01 -1.07824E+02 +6.44790E+01 -9.45644E+01 +8.74803E+01 -7.42923E+01
 +1.04075E+02 -4.85684E+01 +1.13033E+02 -1.93635E+01 +1.13714E+02 +1.10946E+01 +1.06113E+02 +4.04930E+01
 +9.08609E+01 +6.66116E+01 +6.91689E+01 +8.74936E+01 +4.27375E+01 +1.01594E+02 +1.36202E+01 +1.07900E+02
 -1.59347E+01 +1.05999E+02 -4.36591E+01 +9.61190E+01 -6.74401E+01 +7.90969E+01 -8.54823E+01 +5.63183E+01
 -9.64452E+01 +2.96053E+01 -9.95453E+01 +1.07338E+00 -9.46138E+01 -2.70330E+01 -8.21075E+01 -5.25154E+01
 -6.30704E+01 -7.33919E+01 -3.90504E+01 -8.80498E+01 -1.19769E+01 -9.53698E+01 +1.59905E+01 -9.48114E+01
 +4.26308E+01 -8.64524E+01 +6.58352E+01 -7.09813E+01 +8.37706E+01 -4.96417E+01 +9.50220E+01 -2.41336E+01
 +9.87014E+01 +3.51995E+00 +9.45162E+01 +3.11318E+01 +8.27904E+01 +5.65212E+01 +6.44383E+01 +7.76841E+01
 +4.08922E+01 +9.29492E+01 +1.39900E+01 +1.01107E+02 -1.41690E+01 +1.01505E+02 -4.13874E+01 +9.40967E+01
 -6.55416E+01 +7.94436E+01 -8.47464E+01 +5.86735E+01 -9.75024E+01 +3.33901E+01 -1.02811E+02 +5.54896E+00
 -1.00255E+02 -2.26955E+01 -9.00242E+01 -4.91571E+01 -7.29082E+01 -7.17882E+01 -5.02288E+01 -8.88384E+01
 -2.37397E+01 -9.89904E+01 +4.51054E+00 -1.01462E+02 +3.23377E+01 -9.60654E+01 +5.75910E+01 -8.32240E+01
 +7.83205E+01 -6.39364E+01 +9.29272E+01 -3.96998E+01 +1.00288E+02 -1.23935E+01 +9.98398E+01 +1.58669E+01
 +9.16267E+01 +4.28940E+01 +7.62924E+01 +6.65979E+01 +5.50313E+01 +8.51478E+01 +2.94953E+01 +9.71138E+01
 +1.66570E+00 +1.01577E+02 -2.63011E+01 +9.82010E+01 -5.22404E+01 +8.72555E+01 -7.41469E+01 +6.95969E+01
 -9.03299E+01 +4.66000E+01 -9.95439E+01 +2.00514E+01 -1.01085E+02 -7.98927E+00 -9.48423E+01 -3.53493E+01
 -8.13109E+01 -5.99110E+01 -6.15478E+01 -7.97759E+01 -3.70922E+01 -9.34116E+01 -9.84497E+00 -9.97697E+01
 +1.80788E+01 -9.83668E+01 +4.45137E+01 -8.93212E+01 +6.74119E+01 -7.33432E+01 +8.50017E+01 -5.16794E+01
 +9.59242E+01 -2.60158E+01 +9.93384E+01 +1.65345E+00 +9.49856E+01 +2.91804E+01 +8.32091E+01 +5.44301E+01
 +6.49268E+01 +7.54456E+01 +4.15600E+01 +9.05997E+01 +1.49228E+01 +9.87200E+01 -1.29189E+01 +9.91801E+01
 -3.98073E+01 +9.19468E+01 -6.36595E+01 +7.75830E+01 -8.26292E+01 +5.72031E+01 -9.52489E+01 +3.23865E+01
 -1.00543E+02 +5.05550E+00 -9.81051E+01 -2.26742E+01 -8.81243E+01 -4.86570E+01 -7.13751E+01 -7.08832E+01
 -4.91549E+01 -8.76343E+01 -2.31833E+01 -9.76159E+01 +4.53040E+00 -1.00057E+02 +3.18428E+01 -9.47699E+01
 +5.66422E+01 -8.21634E+01 +7.70110E+01 -6.32118E+01 +9.13744E+01 -3.93787E+01 +9.86209E+01 -1.25041E+01
 +9.81881E+01 +1.53379E+01 +9.01053E+01 +4.19989E+01 +7.49911E+01 +6.54222E+01 +5.40052E+01 +8.38009E+01
 +2.87583E+01 +9.57167E+01 +1.18796E+00 +1.00249E+02 -2.65911E+01 +9.70438E+01 -5.24497E+01 +8.63429E+01
 -7.44077E+01 +6.89616E+01 -9.07864E+01 +4.62266E+01 -1.00337E+02 +1.98732E+01 -1.02334E+02 -8.08939E+00
 -9.66344E+01 -3.55325E+01 -8.36808E+01 -6.03718E+01 -6.44713E+01 -8.07273E+01 -4.04792E+01 -9.50672E+01
 -1.35387E+01 -1.02324E+02 +1.42970E+01 -1.01977E+02 +4.09140E+01 -9.40869E+01 +6.43007E+01 -7.92930E+01
 +8.27015E+01 -5.87594E+01 +9.47515E+01 -3.40848E+01 +9.95797E+01 -7.17708E+00 +9.68738E+01 +1.98948E+01
 +8.69023E+01 +4.50605E+01 +7.04911E+01 +6.64084E+01 +4.89573E+01 +8.23323E+01 +2.40052E+01 +9.16537E+01
 -2.40699E+00 +9.37117E+01 -2.82201E+01 +8.84112E+01 -5.14338E+01 +7.62277E+01 -7.02613E+01 +5.81684E+01
 -8.32673E+01 +3.56910E+01 -8.94777E+01 +1.05888E+01 -8.84533E+01 -1.51501E+01 -8.03220E+01 -3.94984E+01
 -6.57664E+01 -6.05477E+01 -4.59684E+01 -7.66566E+01 -2.25152E+01 -8.65782E+01 +2.72596E+00 -8.95554E+01
 +2.77548E+01 -8.53790E+01 +5.05945E+01 -7.44023E+01 +6.94466E+01 -5.75118E+01 +8.28310E+01 -3.60562E+01
 +8.97013E+01 -1.17403E+01 +8.95259E+01 +1.35098E+01 +8.23287E+01 +3.76975E+01 +6.86866E+01 +5.89130E+01
 +4.96833E+01 +7.54823E+01 +2.68242E+01 +8.60983E+01 +1.91794E+00 +8.99235E+01 -2.30654E+01 +8.66551E+01
 -4.61487E+01 +7.65491E+01 -6.55031E+01 +6.04000E+01 -7.95907E+01 +3.94792E+01 -8.72861E+01 +1.54355E+01
 -8.79642E+01 -9.83311E+00 -8.15503E+01 -3.43281E+01 -6.85267E+01 -5.61063E+01 -4.98957E+01 -7.34316E+01
 -2.71030E+01 -8.49113E+01 -1.92556E+00 -8.96052E+01 +2.36661E+01 -8.71001E+01 +4.76605E+01 -7.75433E+01
 +6.81620E+01 -6.16326E+01 +8.35375E+01 -4.05634E+01 +9.25447E+01 -1.59380E+01 +9.44288E+01 +1.03583E+01
 +8.89828E+01 +3.63011E+01 +7.65643E+01 +5.98841E+01 +5.80703E+01 +7.92728E+01 +3.48686E+01 +9.29472E+01
 +8.69443E+00 +9.98189E+01 -1.84823E+01 +9.93159E+01 -4.46077E+01 +9.14276E+01 -6.77012E+01 +7.67066E+01
 -8.60070E+01 +5.62274E+01 -9.81289E+01 +3.15047E+01 -1.03137E+02 +4.37808E+00 -1.00639E+02 -2.31277E+01
 -9.08117E+01 -4.89574E+01 -7.43837E+01 -7.11818E+01 -5.25838E+01 -8.81447E+01 -2.70451E+01 -9.85881E+01
 +3.19685E-01 -1.01748E+02 +2.74637E+01 -9.74117E+01 +5.23622E+01 -8.59318E+01 +7.31662E+01 -6.81996E+01
 +8.83423E+01 -4.55744E+01 +9.67890E+01 -1.97793E+01 +9.79180E+01 +7.23124E+00 +9.16975E+01 +3.34212E+01
 +7.86520E+01 +5.68284E+01 +5.98196E+01 +7.57134E+01 +3.66705E+01 +8.86911E+01 +1.09923E+01 +9.48348E+01
 -1.52482E+01 +9.37437E+01 -4.00564E+01 +8.55714E+01 -6.15630E+01 +7.10098E+01 -7.81660E+01 +5.12333E+01
 -8.86524E+01 +2.78053E+01 -9.22881E+01 +2.55551E+00 -8.88720E+01 -2.25626E+01 -7.87471E+01 -4.56234E+01
 -6.27707E+01 -6.48769E+01 -4.22441E+01 -7.88837E+01 -1.88093E+01 -8.66233E+01 +5.68091E+00 -8.75711E+01
 +2.93085E+01 -8.17352E+01 +5.02395E+01 -6.96526E+01 +6.68666E+01 -5.23435E+01 +7.79329E+01 -3.12291E+01
 +8.26281E+01 -8.01755E+00 +8.06496E+01 +1.54312E+01 +7.22228E+01 +3.72521E+01 +5.80812E+01 +5.57214E+01
 +3.94061E+01 +6.93915E+01 +1.77314E+01 +7.72039E+01 -5.17838E+00 +7.85704E+01 -2.74682E+01 +7.34187E+01
 -4.73392E+01 +6.21959E+01 -6.31909E+01 +4.58321E+01 -7.37471E+01 +2.56656E+01 -7.81562E+01 +3.33679E+00
 -7.60585E+01 -1.93420E+01 -6.76140E+01 -4.05302E+01 -5.34903E+01 -5.85043E+01 -3.48096E+01 -7.17945E+01
 -1.30607E+01 -7.93010E+01 +1.00181E+01 -8.03816E+01 +3.25756E+01 -7.49031E+01 +5.27936E+01 -6.32534E+01
 +6.90302E+01 -4.63122E+01 +7.99496E+01 -2.53836E+01 +8.46281E+01 -2.09485E+00 +8.26284E+01 +2.17300E+01
 +7.40355E+01 +4.42120E+01 +5.94529E+01 +6.35643E+01 +3.99572E+01 +7.82320E+01 +1.70168E+01 +8.70145E+01
 -7.62078E+00 +8.91604E+01 -3.20631E+01 +8.44281E+01 -5.44190E+01 +7.31069E+01 -7.29447E+01 +5.59971E+01
 -8.61793E+01 +3.43505E+01 -9.30585E+01 +9.77580E+00 -9.29982E+01 -1.58836E+01 -8.59413E+01 -4.06904E+01
 -7.23638E+01 -6.27613E+01 -5.32405E+01 -8.04117E+01 -2.99715E+01 -9.22848E+01 -4.27700E+00 -9.74560E+01
 +2.19334E+01 -9.55048E+01 +4.67057E+01 -8.65471E+01 +6.81899E+01 -7.12274E+01 +8.47805E+01 -5.06708E+01
 +9.52390E+01 -2.63972E+01 +9.87871E+01 -2.06435E-01 +9.51663E+01 +2.59583E+01 +8.46562E+01 +5.01578E+01
 +6.80533E+01 +7.06036E+01 +4.66094E+01 +8.57934E+01 +2.19356E+01 +9.46238E+01 -4.12009E+00 +9.64726E+01
 -2.96142E+01 +9.12450E+01 -5.26548E+01 +7.93779E+01 -7.15449E+01 +6.18054E+01 -8.49101E+01 +3.98851E+01
 -9.18014E+01 +1.52933E+01 -9.17649E+01 -1.01043E+01 -8.48731E+01 -3.43952E+01 -7.17169E+01 -5.57660E+01
 -5.33562E+01 -7.26402E+01 -3.12370E+01 -8.37962E+01 -7.07722E+00 -8.84588E+01 +1.72659E+01 -8.63547E+01
 +3.99397E+01 -7.77299E+01 +5.92379E+01 -6.33270E+01 +7.37305E+01 -4.43237E+01 +8.23721E+01 -2.22393E+01
 +8.45791E+01 +1.18563E+00 +8.02716E+01 +2.41254E+01 +6.98748E+01 +4.48112E+01 +5.42828E+01 +6.16680E+01
 +3.47851E+01 +7.34356E+01 +1.29630E+01 +7.92641E+01 -9.43548E+00 +7.87773E+01 -3.06341E+01 +7.20989E+01
 -4.89670E+01 +5.98392E+01 -6.30096E+01 +4.30442E+01 -7.16883E+01 +2.31107E+01 -7.43633E+01 +1.67435E+00
 -7.08773E+01 -1.95207E+01 -6.15648E+01 -3.87599E+01 -4.72244E+01 -5.44935E+01 -2.90535E+01 -6.54589E+01
