 Created: 19-Jan-2021
 $NMID
 ID='D:\BASISSIMULATI'
 FMTDAT='(8E13.5)'
 VOLUME=   1.00000E+00
 TRAMP=   1.00000E+00
 $END
 +8.69301E+01 +1.33131E+01 +8.16881E+01 +1.70698E+01 +6.80286E+01 +2.05267E+01 +4.78535E+01 +2.45896E+01
 +2.40453E+01 +2.96595E+01 -6.40614E-02 +3.54625E+01 -2.12952E+01 +4.10823E+01 -3.71665E+01 +4.51880E+01
 -4.62715E+01 +4.63975E+01 -4.84189E+01 +4.36826E+01 -4.45225E+01 +3.67071E+01 -3.62848E+01 +2.60062E+01
 -2.57621E+01 +1.29561E+01 -1.49217E+01 -4.67584E-01 -5.29269E+00 -1.20868E+01 +2.22046E+00 -1.99820E+01
 +7.33611E+00 -2.29062E+01 +1.02348E+01 -2.05541E+01 +1.13068E+01 -1.36226E+01 +1.08953E+01 -3.65164E+00
 +9.11831E+00 +7.31492E+00 +5.82366E+00 +1.71637E+01 +6.88773E-01 +2.41376E+01 -6.56859E+00 +2.71550E+01
 -1.59381E+01 +2.59526E+01 -2.69085E+01 +2.10308E+01 -3.83806E+01 +1.34299E+01 -4.87473E+01 +4.40695E+00
 -5.61410E+01 -4.89360E+00 -5.88028E+01 -1.36874E+01 -5.54879E+01 -2.16522E+01 -4.58063E+01 -2.88663E+01
 -3.04095E+01 -3.56099E+01 -1.09623E+01 -4.20985E+01 +1.01063E+01 -4.82356E+01 +3.00283E+01 -5.34687E+01
 +4.62083E+01 -5.68044E+01 +5.67097E+01 -5.69934E+01 +6.06049E+01 -5.28488E+01 +5.81129E+01 -4.36181E+01
 +5.04947E+01 -2.93096E+01 +3.97341E+01 -1.08772E+01 +2.80828E+01 +9.80041E+00 +1.75758E+01 +3.01639E+01
 +9.63261E+00 +4.74017E+01 +4.83059E+00 +5.89776E+01 +2.89583E+00 +6.31403E+01 +2.90153E+00 +5.93026E+01
 +3.61185E+00 +4.81983E+01 +3.87602E+00 +3.17759E+01 +2.96728E+00 +1.28501E+01 +7.78944E-01 -5.42021E+00
 -2.17029E+00 -2.01121E+01 -4.91869E+00 -2.90567E+01 -6.37824E+00 -3.11874E+01 -5.69721E+00 -2.66526E+01
 -2.56796E+00 -1.66841E+01 +2.60637E+00 -3.26391E+00 +8.73581E+00 +1.13209E+01 +1.42579E+01 +2.49286E+01
 +1.74920E+01 +3.59188E+01 +1.70472E+01 +4.33431E+01 +1.21801E+01 +4.69489E+01 +3.01434E+00 +4.70222E+01
 -9.43813E+00 +4.41346E+01 -2.34583E+01 +3.88800E+01 -3.69641E+01 +3.16822E+01 -4.79330E+01 +2.27268E+01
 -5.48038E+01 +1.20314E+01 -5.67635E+01 -3.77770E-01 -5.38548E+01 -1.42460E+01 -4.68885E+01 -2.89089E+01
 -3.71900E+01 -4.32205E+01 -2.62542E+01 -5.56356E+01 -1.53987E+01 -6.44447E+01 -5.50651E+00 -6.81159E+01
 +3.08194E+00 -6.56655E+01 +1.05069E+01 -5.69599E+01 +1.71862E+01 -4.28648E+01 +2.35382E+01 -2.51880E+01
 +2.97163E+01 -6.41208E+00 +3.54416E+01 +1.07358E+01 +3.99866E+01 +2.37891E+01 +4.23281E+01 +3.10114E+01
 +4.14307E+01 +3.17242E+01 +3.65914E+01 +2.64200E+01 +2.77463E+01 +1.66330E+01 +1.56517E+01 +4.59943E+00
 +1.87424E+00 -7.21680E+00 -1.14269E+01 -1.66223E+01 -2.18884E+01 -2.21065E+01 -2.74226E+01 -2.30787E+01
 -2.66802E+01 -1.98854E+01 -1.93864E+01 -1.36163E+01 -6.46781E+00 -5.75993E+00 +1.00675E+01 +2.19916E+00
 +2.74772E+01 +9.13778E+00 +4.27885E+01 +1.45180E+01 +5.33500E+01 +1.84291E+01 +5.73151E+01 +2.14458E+01
 +5.39555E+01 +2.43530E+01 +4.37438E+01 +2.78175E+01 +2.81981E+01 +3.21021E+01 +9.53513E+00 +3.69051E+01
 -9.78230E+00 +4.13711E+01 -2.74970E+01 +4.42755E+01 -4.19109E+01 +4.43349E+01 -5.20721E+01 +4.05640E+01
 -5.77755E+01 +3.25832E+01 -5.94002E+01 +2.07941E+01 -5.76506E+01 +6.37214E+00 -5.32837E+01 -8.92789E+00
 -4.69022E+01 -2.31104E+01 -3.88677E+01 -3.43415E+01 -2.93477E+01 -4.13185E+01 -1.84690E+01 -4.35193E+01
 -6.51673E+00 -4.12721E+01 +5.89838E+00 -3.56340E+01 +1.77716E+01 -2.81115E+01 +2.77772E+01 -2.02977E+01
 +3.44813E+01 -1.35172E+01 +3.66535E+01 -8.56728E+00 +3.35991E+01 -5.61570E+00 +2.54242E+01 -4.27245E+00
 +1.31530E+01 -3.80794E+00 -1.35157E+00 -3.44970E+00 -1.56630E+01 -2.67088E+00 -2.72177E+01 -1.38634E+00
 -3.38025E+01 +1.42363E-03 -3.39992E+01 +7.22757E-01 -2.74828E+01 -1.03028E-01 -1.51045E+01 -3.14557E+00
 +1.26296E+00 -8.56650E+00 +1.90871E+01 -1.58358E+01 +3.56639E+01 -2.37231E+01 +4.86263E+01 -3.04827E+01
 +5.63620E+01 -3.41992E+01 +5.82540E+01 -3.32196E+01 +5.46980E+01 -2.65696E+01 +4.69073E+01 -1.42518E+01
 +3.65628E+01 +2.65088E+00 +2.53992E+01 +2.21027E+01 +1.48308E+01 +4.14522E+01 +5.70290E+00 +5.79110E+01
 -1.77898E+00 +6.90710E+01 -7.94067E+00 +7.33491E+01 -1.33938E+01 +7.02637E+01 -1.87314E+01 +6.04875E+01
 -2.42547E+01 +4.56729E+01 -2.98098E+01 +2.80956E+01 -3.47803E+01 +1.02039E+01 -3.82390E+01 -5.82408E+00
 -3.92156E+01 -1.84209E+01 -3.70069E+01 -2.68025E+01 -3.14408E+01 -3.09541E+01 -2.30180E+01 -3.14549E+01
 -1.28853E+01 -2.92068E+01 -2.63984E+00 -2.51488E+01 +5.99419E+00 -2.00368E+01 +1.15380E+01 -1.43415E+01
 +1.30891E+01 -8.27937E+00 +1.05277E+01 -1.95219E+00 +4.54635E+00 +4.46461E+00 -3.50470E+00 +1.05570E+01
 -1.19205E+01 +1.55975E+01 -1.90171E+01 +1.86003E+01 -2.34887E+01 +1.85072E+01 -2.46608E+01 +1.44645E+01
 -2.25796E+01 +6.11851E+00 -1.79230E+01 -6.15329E+00 -1.17624E+01 -2.11518E+01 -5.24250E+00 -3.69495E+01
 +7.32213E-01 -5.11677E+01 +5.72015E+00 -6.13895E+01 +9.81599E+00 -6.56258E+01 +1.35560E+01 -6.27286E+01
 +1.76835E+01 -5.26587E+01 +2.28406E+01 -3.65395E+01 +2.92750E+01 -1.64792E+01 +3.66464E+01 +4.80577E+00
 +4.39958E+01 +2.44862E+01 +4.98954E+01 +4.01297E+01 +5.27535E+01 +5.01144E+01 +5.12018E+01 +5.38632E+01
 +4.44725E+01 +5.18544E+01 +3.26676E+01 +4.54189E+01 +1.68477E+01 +3.63816E+01 -1.09218E+00 +2.66368E+01
 -1.87393E+01 +1.77595E+01 -3.36089E+01 +1.07402E+01 -4.36195E+01 +5.89238E+00 -4.74946E+01 +2.94015E+00
 -4.50005E+01 +1.24511E+00 -3.69707E+01 +9.84863E-02 -2.51146E+01 -1.00739E+00 -1.16593E+01 -2.20494E+00
 +1.09205E+00 -3.22029E+00 +1.11853E+01 -3.48988E+00 +1.73328E+01 -2.38676E+00 +1.90625E+01 +5.12247E-01
 +1.66810E+01 +5.19978E+00 +1.10790E+01 +1.11224E+01 +3.44373E+00 +1.72178E+01 -5.04009E+00 +2.21045E+01
 -1.34232E+01 +2.43825E+01 -2.11047E+01 +2.29708E+01 -2.78106E+01 +1.73967E+01 -3.34614E+01 +7.95856E+00
 -3.79859E+01 -4.28243E+00 -4.11524E+01 -1.76872E+01 -4.24811E+01 -3.03596E+01 -4.12789E+01 -4.05287E+01
 -3.67974E+01 -4.69017E+01 -2.84781E+01 -4.89050E+01 -1.62163E+01 -4.67557E+01 -5.65797E-01 -4.13521E+01
 +1.71883E+01 -3.40131E+01 +3.51280E+01 -2.61364E+01 +5.09715E+01 -1.88633E+01 +6.24672E+01 -1.28349E+01
 +6.78301E+01 -8.09937E+00 +6.61241E+01 -4.19034E+00 +5.74978E+01 -3.49867E-01 +4.32132E+01 +4.16768E+00
 +2.54508E+01 +9.79669E+00 +6.92668E+00 +1.64510E+01 -9.60003E+00 +2.34657E+01 -2.18266E+01 +2.97128E+01
 -2.83058E+01 +3.38646E+01 -2.86641E+01 +3.47431E+01 -2.35966E+01 +3.16640E+01 -1.46511E+01 +2.46858E+01
 -3.85730E+00 +1.46939E+01 +6.70844E+00 +3.28938E+00 +1.53224E+01 -7.49909E+00 +2.08915E+01 -1.56202E+01
 +2.30583E+01 -1.94287E+01 +2.21261E+01 -1.80413E+01 +1.88409E+01 -1.15348E+01 +1.41039E+01 -9.44449E-01
 +8.69411E+00 +1.19403E+01 +3.07977E+00 +2.49309E+01 -2.63865E+00 +3.58664E+01 -8.64531E+00 +4.30146E+01
 -1.52205E+01 +4.53603E+01 -2.25105E+01 +4.27265E+01 -3.03306E+01 +3.57115E+01 -3.80683E+01 +2.54741E+01
 -4.47241E+01 +1.34309E+01 -4.90894E+01 +9.46738E-01 -5.00211E+01 -1.09044E+01 -4.67439E+01 -2.14568E+01
 -3.90984E+01 -3.04321E+01 -2.76662E+01 -3.78067E+01 -1.37289E+01 -4.36200E+01 +9.37598E-01 -4.77956E+01
 +1.43936E+01 -5.00385E+01 +2.49147E+01 -4.98485E+01 +3.13319E+01 -4.66535E+01 +3.32526E+01 -4.00285E+01
 +3.11090E+01 -2.99367E+01 +2.60242E+01 -1.69172E+01 +1.95293E+01 -2.15196E+00 +1.32011E+01 +1.26271E+01
 +8.31015E+00 +2.53897E+01 +5.56254E+00 +3.41726E+01 +4.99673E+00 +3.74832E+01 +6.05473E+00 +3.46463E+01
 +7.80340E+00 +2.60092E+01 +9.24323E+00 +1.29483E+01 +9.62027E+00 -2.33723E+00 +8.65712E+00 -1.72070E+01
 +6.64081E+00 -2.90618E+01 +4.34327E+00 -3.58232E+01 +2.79490E+00 -3.63110E+01 +2.97048E+00 -3.04373E+01
 +5.47143E+00 -1.91824E+01 +1.02904E+01 -4.36158E+00 +1.67251E+01 +1.17568E+01 +2.34706E+01 +2.68954E+01
 +2.88751E+01 +3.91736E+01 +3.13011E+01 +4.73916E+01 +2.95083E+01 +5.11413E+01 +2.29640E+01 +5.07359E+01
 +1.20081E+01 +4.69962E+01 -2.17175E+00 +4.09609E+01 -1.77489E+01 +3.36026E+01 -3.26044E+01 +2.56236E+01
 -4.47314E+01 +1.73776E+01 -5.26068E+01 +8.92488E+00 -5.54472E+01 +1.90886E-01 -5.32989E+01 -8.83009E+00
 -4.69498E+01 -1.78984E+01 -3.76967E+01 -2.64409E+01 -2.70321E+01 -3.35874E+01 -1.63314E+01 -3.83304E+01
 -6.61569E+00 -3.97717E+01 +1.55938E+00 -3.73877E+01 +8.07516E+00 -3.12418E+01 +1.31059E+01 -2.20754E+01
 +1.69145E+01 -1.12435E+01 +1.96578E+01 -4.95839E-01 +2.12647E+01 +8.35174E+00 +2.14286E+01 +1.37847E+01
 +1.97183E+01 +1.49085E+01 +1.57765E+01 +1.16423E+01 +9.54508E+00 +4.73942E+00 +1.44512E+00 -4.37347E+00
 -7.55356E+00 -1.39021E+01 -1.60110E+01 -2.20646E+01 -2.22436E+01 -2.74568E+01 -2.46571E+01 -2.93184E+01
 -2.21131E+01 -2.76408E+01 -1.42413E+01 -2.30958E+01 -1.61592E+00 -1.68101E+01 +1.42558E+01 -1.00466E+01
 +3.11451E+01 -3.87622E+00 +4.64769E+01 +1.07539E+00 +5.77938E+01 +4.74428E+00 +6.32120E+01 +7.58059E+00
 +6.17713E+01 +1.03541E+01 +5.36046E+01 +1.38684E+01 +3.98927E+01 +1.86619E+01 +2.26181E+01 +2.47797E+01
 +4.17495E+00 +3.16796E+01 -1.30765E+01 +3.83016E+01 -2.72140E+01 +4.32899E+01 -3.70349E+01 +4.53118E+01
 -4.21633E+01 +4.33974E+01 -4.29774E+01 +3.72125E+01 -4.03921E+01 +2.71953E+01 -3.55644E+01 +1.45195E+01
 -2.96011E+01 +8.88713E-01 -2.33414E+01 -1.17922E+01 -1.72617E+01 -2.17920E+01 -1.15109E+01 -2.78888E+01
 -6.04907E+00 -2.95890E+01 -8.34343E-01 -2.71847E+01 +4.00946E+00 -2.16401E+01 +8.10394E+00 -1.43438E+01
 +1.08402E+01 -6.79004E+00 +1.15155E+01 -2.68591E-01 +9.54813E+00 +4.36244E+00 +4.70786E+00 +6.77424E+00
 -2.70650E+00 +7.12218E+00 -1.18034E+01 +5.88413E+00 -2.11811E+01 +3.63773E+00 -2.91505E+01 +8.46214E-01
 -3.40573E+01 -2.28317E+00 -3.46298E+01 -5.82707E+00 -3.02719E+01 -1.00537E+01 -2.12267E+01 -1.52399E+01
 -8.56812E+00 -2.14549E+01 +5.98519E+00 -2.83825E+01 +2.03952E+01 -3.52421E+01 +3.26973E+01 -4.08486E+01
 +4.13729E+01 -4.38120E+01 +4.56170E+01 -4.28366E+01 +4.54445E+01 -3.70536E+01 +4.16132E+01 -2.63028E+01
 +3.53902E+01 -1.12868E+01 +2.82213E+01 +6.45098E+00 +2.13879E+01 +2.47349E+01 +1.57336E+01 +4.11177E+01
 +1.15252E+01 +5.33197E+01 +8.47616E+00 +5.96554E+01 +5.91737E+00 +5.93534E+01 +3.06521E+00 +5.27000E+01
 -6.89961E-01 +4.09758E+01 -5.55381E+00 +2.61995E+01 -1.12198E+01 +1.07378E+01 -1.69130E+01 -3.13386E+00
 -2.15754E+01 -1.36248E+01 -2.41456E+01 -1.96974E+01 -2.38582E+01 -2.11624E+01 -2.04857E+01 -1.85949E+01
