 Created: 19-Jan-2021
 $NMID
 ID='D:\BASISSIMULATI'
 FMTDAT='(8E13.5)'
 VOLUME=   1.00000E+00
 TRAMP=   1.00000E+00
 $END
 +3.52239E+01 +5.39469E+00 +3.30689E+01 +1.22946E+01 +2.94313E+01 +1.84490E+01 +2.45567E+01 +2.35236E+01
 +1.87668E+01 +2.72619E+01 +1.24348E+01 +2.95029E+01 +5.95845E+00 +3.01901E+01 -2.69841E-01 +2.93730E+01
 -5.89056E+00 +2.72011E+01 -1.06024E+01 +2.39099E+01 -1.41823E+01 +1.98011E+01 -1.64995E+01 +1.52185E+01
 -1.75223E+01 +1.05205E+01 -1.73164E+01 +6.05330E+00 -1.60371E+01 +2.12440E+00 -1.39137E+01 -1.01938E+00
 -1.12295E+01 -3.20909E+00 -8.29694E+00 -4.36430E+00 -5.43221E+00 -4.49658E+00 -2.92942E+00 -3.70576E+00
 -1.03728E+00 -2.16919E+00 +6.02280E-02 -1.25235E-01 +2.57579E-01 +2.14789E+00 -4.64953E-01 +4.35604E+00
 -2.04098E+00 +6.21394E+00 -4.32452E+00 +7.46896E+00 -7.10288E+00 +7.92191E+00 -1.01146E+01 +7.44344E+00
 -1.30711E+01 +5.98461E+00 -1.56807E+01 +3.58101E+00 -1.76719E+01 +3.50187E-01 -1.88157E+01 -3.51746E+00
 -1.89440E+01 -7.77339E+00 -1.79635E+01 -1.21301E+01 -1.58630E+01 -1.62834E+01 -1.27155E+01 -1.99353E+01
 -8.67238E+00 -2.28176E+01 -3.95286E+00 -2.47110E+01 +1.17239E+00 -2.54628E+01 +6.40115E+00 -2.49971E+01
 +1.14218E+01 -2.33210E+01 +1.59358E+01 -2.05235E+01 +1.96796E+01 -1.67682E+01 +2.24425E+01 -1.22812E+01
 +2.40816E+01 -7.33429E+00 +2.45307E+01 -2.22441E+00 +2.38037E+01 +2.74756E+00 +2.19916E+01 +7.29845E+00
 +1.92547E+01 +1.11825E+01 +1.58087E+01 +1.42080E+01 +1.19079E+01 +1.62492E+01 +7.82546E+00 +1.72536E+01
 +3.83317E+00 +1.72432E+01 +1.81228E-01 +1.63097E+01 -2.91916E+00 +1.46058E+01 -5.31009E+00 +1.23309E+01
 -6.89670E+00 +9.71421E+00 -7.65177E+00 +6.99629E+00 -7.61507E+00 +4.40981E+00 -6.88748E+00 +2.16176E+00
 -5.62057E+00 +4.18198E-01 -4.00251E+00 -7.07469E-01 -2.24155E+00 -1.16165E+00 -5.48331E-01 -9.52862E-01
 +8.81475E-01 -1.48982E-01 +1.88291E+00 +1.13007E+00 +2.33462E+00 +2.72368E+00 +2.16796E+00 +4.44483E+00
 +1.37172E+00 +6.09623E+00 -7.92558E-03 +7.48688E+00 -1.87195E+00 +8.44788E+00 -4.07724E+00 +8.84610E+00
 -6.44864E+00 +8.59485E+00 -8.79346E+00 +7.66065E+00 -1.09170E+01 +6.06565E+00 -1.26382E+01 +3.88573E+00
 -1.38037E+01 +1.24427E+00 -1.42999E+01 -1.69758E+00 -1.40617E+01 -4.75350E+00 -1.30767E+01 -7.72637E+00
 -1.13865E+01 -1.04232E+01 -9.08266E+00 -1.26695E+01 -6.29974E+00 -1.43222E+01 -3.20467E+00 -1.52796E+01
 +1.58020E-02 -1.54883E+01 +3.16907E+00 -1.49464E+01 +6.07068E+00 -1.37024E+01 +8.55747E+00 -1.18504E+01
 +1.04987E+01 -9.52277E+00 +1.18047E+01 -6.87894E+00 +1.24318E+01 -4.09339E+00 +1.23839E+01 -1.34249E+00
 +1.17107E+01 +1.20833E+00 +1.05021E+01 +3.41607E+00 +8.87980E+00 +5.16972E+00 +6.98717E+00 +6.39697E+00
 +4.97758E+00 +7.06770E+00 +3.00243E+00 +7.19425E+00 +1.19990E+00 +6.82833E+00 -3.14932E-01 +6.05506E+00
 -1.45769E+00 +4.98470E+00 -2.17967E+00 +3.74278E+00 -2.46973E+00 +2.45938E+00 -2.35328E+00 +1.25859E+00
 -1.88830E+00 +2.48889E-01 -1.15899E+00 -4.84927E-01 -2.67645E-01 -8.87467E-01 +6.74668E-01 -9.35955E-01
 +1.55772E+00 -6.40651E-01 +2.28127E+00 -4.25952E-02 +2.76308E+00 +7.91056E-01 +2.94511E+00 +1.77364E+00
 +2.79759E+00 +2.80693E+00 +2.32054E+00 +3.78973E+00 +1.54292E+00 +4.62644E+00 +5.19374E-01 +5.23480E+00
 -6.74980E-01 +5.55233E+00 -1.95123E+00 +5.54095E+00 -3.21426E+00 +5.18944E+00 -4.37057E+00 +4.51366E+00
 -5.33573E+00 +3.55462E+00 -6.04082E+00 +2.37449E+00 -6.43742E+00 +1.05118E+00 -6.50077E+00 -3.28238E-01
 -6.23097E+00 -1.67453E+00 -5.65212E+00 -2.90326E+00 -4.80959E+00 -3.94110E+00 -3.76575E+00 -4.73092E+00
 -2.59451E+00 -5.23551E+00 -1.37518E+00 -5.43944E+00 -1.86252E-01 -5.34922E+00 +9.00565E-01 -4.99161E+00
 +1.82536E+00 -4.41050E+00 +2.54391E+00 -3.66252E+00 +3.03004E+00 -2.81195E+00 +3.27648E+00 -1.92522E+00
 +3.29405E+00 -1.06565E+00 +3.10950E+00 -2.88680E-01 +2.76218E+00 +3.61844E-01 +2.29982E+00 +8.56280E-01
 +1.77402E+00 +1.18038E+00 +1.23560E+00 +1.33511E+00 +7.30465E-01 +1.33521E+00 +2.96138E-01 +1.20663E+00
 -4.07045E-02 +9.83204E-01 -2.65523E-01 +7.02889E-01 -3.76030E-01 +4.03899E-01 -3.81155E-01 +1.21127E-01
 -2.99057E-01 -1.16839E-01 -1.54400E-01 -2.89872E-01 +2.47819E-02 -3.87468E-01 +2.10326E-01 -4.08877E-01
 +3.76950E-01 -3.62232E-01 +5.04752E-01 -2.62829E-01 +5.80984E-01 -1.30765E-01 +6.00941E-01 +1.17814E-02
 +5.67928E-01 +1.43346E-01 +4.92338E-01 +2.45753E-01 +3.89980E-01 +3.06199E-01 +2.79843E-01 +3.18654E-01
 +1.81571E-01 +2.84434E-01 +1.12908E-01 +2.11922E-01 +8.73977E-02 +1.15452E-01 +1.12590E-01 +1.35244E-02
 +1.88934E-01 -7.34893E-02 +3.09482E-01 -1.25872E-01 +4.60452E-01 -1.27062E-01 +6.22578E-01 -6.58552E-02
 +7.73127E-01 +6.19413E-02 +8.88374E-01 +2.52577E-01 +9.46292E-01 +4.94274E-01 +9.29154E-01 +7.68022E-01
 +8.25809E-01 +1.04918E+00 +6.33343E-01 +1.30978E+00 +3.57974E-01 +1.52126E+00 +1.50259E-02 +1.65743E+00
 -3.72026E-01 +1.69730E+00 -7.73389E-01 +1.62761E+00 -1.15552E+00 +1.44463E+00 -1.48418E+00 +1.15513E+00
 -1.72778E+00 +7.76403E-01 -1.86053E+00 +3.35237E-01 -1.86531E+00 -1.34101E-01 -1.73578E+00 -5.92667E-01
 -1.47762E+00 -1.00025E+00 -1.10866E+00 -1.31907E+00 -6.57893E-01 -1.51746E+00 -1.63423E-01 -1.57308E+00
 +3.30566E-01 -1.47556E+00 +7.77537E-01 -1.22809E+00 +1.13273E+00 -8.47822E-01 +1.35731E+00 -3.65119E-01
 +1.42226E+00 +1.78501E-01 +1.31145E+00 +7.33493E-01 +1.02385E+00 +1.24629E+00 +5.74408E-01 +1.66385E+00
 -6.37539E-03 +1.93838E+00 -6.74319E-01 +2.03183E+00 -1.37465E+00 +1.91974E+00 -2.04621E+00 +1.59406E+00
 -2.62635E+00 +1.06479E+00 -3.05620E+00 +3.60001E-01 -3.28591E+00 -4.75574E-01 -3.27924E+00 -1.38345E+00
 -3.01727E+00 -2.29560E+00 -2.50086E+00 -3.13961E+00 -1.75146E+00 -3.84447E+00 -8.10337E-01 -4.34638E+00
 +2.63937E-01 -4.59430E+00 +1.39944E+00 -4.55460E+00 +2.51613E+00 -4.21442E+00 +3.53194E+00 -3.58360E+00
 +4.36920E+00 -2.69464E+00 +4.96095E+00 -1.60101E+00 +5.25658E+00 -3.73593E-01 +5.22629E+00 +9.04332E-01
 +4.86412E+00 +2.14324E+00 +4.18903E+00 +3.25420E+00 +3.24409E+00 +4.15584E+00 +2.09373E+00 +4.78093E+00
 +8.19185E-01 +5.08190E+00 -4.87481E-01 +5.03507E+00 -1.73035E+00 +4.64294E+00 -2.81711E+00 +3.93452E+00
 -3.66633E+00 +2.96357E+00 -4.21409E+00 +1.80476E+00 -4.41927E+00 +5.48186E-01 -4.26722E+00 -7.07497E-01
 -3.77129E+00 -1.86277E+00 -2.97222E+00 -2.82511E+00 -1.93534E+00 -3.51646E+00 -7.45687E-01 -3.87964E+00
 +4.98411E-01 -3.88328E+00 +1.69305E+00 -3.52467E+00 +2.73695E+00 -2.83044E+00 +3.53965E+00 -1.85492E+00
 +4.02889E+00 -6.76180E-01 +4.15677E+00 +6.09803E-01 +3.90395E+00 +1.89658E+00 +3.28177E+00 +3.07556E+00
 +2.33181E+00 +4.04472E+00 +1.12315E+00 +4.71689E+00 -2.52675E-01 +5.02698E+00 -1.68858E+00 +4.93763E+00
 -3.07018E+00 +4.44268E+00 -4.28474E+00 +3.56828E+00 -5.23021E+00 +2.37137E+00 -5.82347E+00 +9.35792E-01
 -6.00730E+00 -6.33857E-01 -5.75532E+00 -2.22011E+00 -5.07468E+00 -3.70162E+00 -4.00604E+00 -4.96265E+00
 -2.62103E+00 -5.90220E+00 -1.01710E+00 -6.44218E+00 +6.89614E-01 -6.53385E+00 +2.37304E+00 -6.16209E+00
 +3.90684E+00 -5.34709E+00 +5.17417E+00 -4.14329E+00 +6.07690E+00 -2.63563E+00 +6.54341E+00 -9.33391E-01
 +6.53452E+00 +8.37949E-01 +6.04683E+00 +2.54620E+00 +5.11344E+00 +4.06259E+00 +3.80177E+00 +5.27172E+00
 +2.20870E+00 +6.08063E+00 +4.53394E-01 +6.42611E+00 -1.33170E+00 +6.27989E+00 -3.01092E+00 +5.65108E+00
 -4.45582E+00 +4.58578E+00 -5.55514E+00 +3.16377E+00 -6.22349E+00 +1.49261E+00 -6.40809E+00 -3.00477E-01
 -6.09306E+00 -2.07831E+00 -5.30080E+00 -3.70428E+00 -4.09054E+00 -5.05288E+00 -2.55388E+00 -6.01951E+00
 -8.07858E-01 -6.52860E+00 +1.01396E+00 -6.53962E+00 +2.77179E+00 -6.05033E+00 +4.33042E+00 -5.09712E+00
 +5.56972E+00 -3.75230E+00 +6.39400E+00 -2.11864E+00 +6.73955E+00 -3.21443E-01 +6.57964E+00 +1.50111E+00
 +5.92675E+00 +3.20867E+00 +4.83170E+00 +4.66964E+00 +3.37975E+00 +5.77148E+00 +1.68412E+00 +6.42952E+00
 -1.22858E-01 +6.59365E+00 -1.89996E+00 +6.25235E+00 -3.50812E+00 +5.43368E+00 -4.82134E+00 +4.20322E+00
 -5.73656E+00 +2.65905E+00 -6.18185E+00 +9.24179E-01 -6.12213E+00 -8.63009E-01 -5.56208E+00 -2.55955E+00
 -4.54596E+00 -4.02908E+00 -3.15427E+00 -5.15257E+00 -1.49766E+00 -5.83774E+00 +2.91626E-01 -6.02638E+00
 +2.06996E+00 -5.69915E+00 +3.69350E+00 -4.87726E+00 +5.02943E+00 -3.62106E+00 +5.96639E+00 -2.02557E+00
 +6.42324E+00 -2.13299E-01 +6.35560E+00 +1.67514E+00 +5.75946E+00 +3.49179E+00 +4.67176E+00 +5.09276E+00
 +3.16779E+00 +6.34936E+00 +1.35558E+00 +7.15813E+00 -6.32220E-01 +7.44885E+00 -2.64839E+00 +7.19015E+00
 -4.54232E+00 +6.39206E+00 -6.17152E+00 +5.10537E+00 -7.41247E+00 +3.41794E+00 -8.17005E+00 +1.44808E+00
 -8.38482E+00 -6.64382E-01 -8.03757E+00 -2.76864E+00 -7.15072E+00 -4.71436E+00 -5.78664E+00 -6.36303E+00
 -4.04280E+00 -7.59844E+00 -2.04436E+00 -8.33535E+00 +6.54369E-02 -8.52585E+00 +2.13616E+00 -8.16282E+00
 +4.02167E+00 -7.28022E+00 +5.59112E+00 -5.95027E+00 +6.73887E+00 -4.27767E+00 +7.39228E+00 -2.39140E+00
 +7.51702E+00 -4.34603E-01 +7.11934E+00 +1.44644E+00 +6.24525E+00 +3.11366E+00 +4.97657E+00 +4.44770E+00
 +3.42427E+00 +5.35705E+00 +1.71958E+00 +5.78487E+00 +3.57833E-03 +5.71311E+00 -1.58397E+00 +5.16359E+00
 -2.91554E+00 +4.19598E+00 -3.88581E+00 +2.90280E+00 -4.41986E+00 +1.40191E+00 -4.47889E+00 -1.72961E-01
 -4.06317E+00 -1.68289E+00 -3.21184E+00 -2.99481E+00 -1.99974E+00 -3.99206E+00 -5.31396E-01 -4.58362E+00
 +1.06726E+00 -4.71133E+00 +2.65887E+00 -4.35452E+00 +4.10547E+00 -3.53169E+00 +5.27937E+00 -2.29918E+00
 +6.07322E+00 -7.46823E-01 +6.40848E+00 +1.00894E+00 +6.24164E+00 +2.83404E+00 +5.56777E+00 +4.58709E+00
 +4.42103E+00 +6.13030E+00 +2.87221E+00 +7.34008E+00 +1.02343E+00 +8.11648E+00 -9.99560E-01 +8.39096E+00
 -3.05681E+00 +8.13154E+00 -5.00476E+00 +7.34531E+00 -6.70700E+00 +6.07791E+00 -8.04447E+00 +4.40999E+00
 -8.92430E+00 +2.45118E+00 -9.28661E+00 +3.31768E-01 -9.10879E+00 -1.80708E+00 -8.40687E+00 -3.82387E+00
 -7.23407E+00 -5.58725E+00 -5.67639E+00 -6.98568E+00 -3.84590E+00 -7.93544E+00 -1.87207E+00 -8.38650E+00
 +1.08188E-01 -8.32574E+00 +1.96079E+00 -7.77736E+00 +3.56453E+00 -6.80040E+00 +4.81997E+00 -5.48367E+00
 +5.65652E+00 -3.93845E+00 +6.03726E+00 -2.28961E+00 +5.96109E+00 -6.65747E-01 +5.46204E+00 +8.10774E-01
