 Created: 19-Jan-2021
 $NMID
 ID='D:\BASISSIMULATI'
 FMTDAT='(8E13.5)'
 VOLUME=   1.00000E+00
 TRAMP=   1.00000E+00
 $END
 +4.81414E+01 +7.37032E+00 +4.47744E+01 +1.92937E+01 +3.84901E+01 +2.99843E+01 +2.96967E+01 +3.87385E+01
 +1.89692E+01 +4.49803E+01 +7.01072E+00 +4.82999E+01 -5.39394E+00 +4.84807E+01 -1.74312E+01 +4.55143E+01
 -2.83129E+01 +3.96004E+01 -3.73288E+01 +3.11335E+01 -4.38942E+01 +2.06755E+01 -4.75879E+01 +8.91824E+00
 -4.81805E+01 -3.36317E+00 -4.56482E+01 -1.53626E+01 -4.01738E+01 -2.62968E+01 -3.21334E+01 -3.54571E+01
 -2.20700E+01 -4.22566E+01 -1.06564E+01 -4.62684E+01 +1.35074E+00 -4.72527E+01 +1.31618E+01 -4.51714E+01
 +2.40071E+01 -4.01890E+01 +3.31881E+01 -3.26598E+01 +4.01228E+01 -2.31024E+01 +4.43839E+01 -1.21634E+01
 +4.57251E+01 -5.73175E-01 +4.40955E+01 +1.09037E+01 +3.96405E+01 +2.15200E+01 +3.26900E+01 +3.05951E+01
 +2.37336E+01 +3.75595E+01 +1.33858E+01 +4.19910E+01 +2.34343E+00 +4.36410E+01 -8.66210E+00 +4.24478E+01
 -1.89140E+01 +3.85382E+01 -2.77574E+01 +3.22157E+01 -3.46423E+01 +2.39374E+01 -3.91577E+01 +1.42806E+01
 -4.10569E+01 +3.90214E+00 -4.02704E+01 -6.50666E+00 -3.69071E+01 -1.62669E+01 -3.12434E+01 -2.47571E+01
 -2.37012E+01 -3.14531E+01 -1.48163E+01 -3.59612E+01 -5.20064E+00 -3.80412E+01 +4.50091E+00 -3.76188E+01
 +1.36539E+01 -3.47867E+01 +2.16766E+01 -2.97941E+01 +2.80773E+01 -2.30260E+01 +3.24851E+01 -1.49742E+01
 +3.46710E+01 -6.20091E+00 +3.45594E+01 +2.70003E+00 +3.22289E+01 +1.11443E+01 +2.79021E+01 +1.85958E+01
 +2.19267E+01 +2.46010E+01 +1.47482E+01 +2.88169E+01 +6.87669E+00 +3.10301E+01 -1.14934E+00 +3.11677E+01
 -8.80010E+00 +2.92964E+01 -1.55899E+01 +2.56139E+01 -2.11082E+01 +2.04308E+01 -2.50446E+01 +1.41455E+01
 -2.72060E+01 +7.21400E+00 -2.75251E+01 +1.16965E-01 -2.60603E+01 -6.67369E+00 -2.29862E+01 -1.27265E+01
 -1.85773E+01 -1.76779E+01 -1.31852E+01 -2.12543E+01 -7.21114E+00 -2.32865E+01 -1.07646E+00 -2.37168E+01
 +4.80692E+00 -2.25979E+01 +1.00644E+01 -2.00839E+01 +1.43825E+01 -1.64153E+01 +1.75276E+01 -1.18978E+01
 +1.93578E+01 -6.87834E+00 +1.98285E+01 -1.71871E+00 +1.89896E+01 +3.23010E+00 +1.69778E+01 +7.65186E+00
 +1.40017E+01 +1.12852E+01 +1.03234E+01 +1.39391E+01 +6.23679E+00 +1.55016E+01 +2.04500E+00 +1.59438E+01
 -1.96169E+00 +1.53166E+01 -5.52586E+00 +1.37418E+01 -8.43924E+00 +1.13993E+01 -1.05547E+01 +8.51012E+00
 -1.17926E+01 +5.31746E+00 -1.21424E+01 +2.06764E+00 -1.16584E+01 -1.00845E+00 -1.04510E+01 -3.71146E+00
 -8.67458E+00 -5.88617E+00 -6.51217E+00 -7.43005E+00 -4.15955E+00 -8.29712E+00 -1.80891E+00 -8.49713E+00
 +3.65930E-01 -8.09039E+00 +2.22193E+00 -7.17900E+00 +3.65589E+00 -5.89512E+00 +4.60969E+00 -4.38772E+00
 +5.07142E+00 -2.80867E+00 +5.07258E+00 -1.29964E+00 +4.68179E+00 +1.94198E-02 +3.99565E+00 +1.05914E+00
 +3.12774E+00 +1.76635E+00 +2.19678E+00 +2.12617E+00 +1.31499E+00 +2.16059E+00 +5.77648E-01 +1.92363E+00
 +5.47960E-02 +1.49395E+00 -2.14355E-01 +9.65316E-01 -2.23845E-01 +4.36189E-01 -1.10765E-04 -8.68766E-04
 +4.01964E-01 -2.68832E-01 +9.05672E-01 -3.14118E-01 +1.42111E+00 -1.12042E-01 +1.85498E+00 +3.30621E-01
 +2.12069E+00 +9.76181E-01 +2.14772E+00 +1.75960E+00 +1.88959E+00 +2.59474E+00 +1.32941E+00 +3.38274E+00
 +4.82849E-01 +4.02171E+00 -6.02066E-01 +4.41693E+00 -1.84817E+00 +4.49062E+00 -3.15517E+00 +4.19036E+00
 -4.40798E+00 +3.49546E+00 -5.48668E+00 +2.42061E+00 -6.27722E+00 +1.01649E+00 -6.68198E+00 -6.32748E-01
 -6.62931E+00 -2.41512E+00 -6.08109E+00 -4.19896E+00 -5.03784E+00 -5.84309E+00 -3.54060E+00 -7.20818E+00
 -1.66964E+00 -8.16834E+00 +4.60204E-01 -8.62206E+00 +2.70709E+00 -8.50147E+00 +4.91227E+00 -7.77933E+00
 +6.91177E+00 -6.47292E+00 +8.54900E+00 -4.64454E+00 +9.68703E+00 -2.39855E+00 +1.02199E+01 +1.24958E-01
 +1.00816E+01 +2.75953E+00 +9.25269E+00 +5.32387E+00 +7.76307E+00 +7.63488E+00 +5.69142E+00 +9.52118E+00
 +3.16089E+00 +1.08361E+01 +3.31275E-01 +1.14689E+01 -2.61153E+00 +1.13543E+01 -5.46841E+00 +1.04777E+01
 -8.04098E+00 +8.87795E+00 -1.01459E+01 +6.64552E+00 -1.16283E+01 +3.91721E+00 -1.23731E+01 +8.67308E-01
 -1.23143E+01 -2.30407E+00 -1.14403E+01 -5.38466E+00 -9.79527E+00 -8.16480E+00 -7.47743E+00 -1.04521E+01
 -4.63245E+00 -1.20854E+01 -1.44408E+00 -1.29458E+01 +1.87828E+00 -1.29662E+01 +5.11382E+00 -1.21356E+01
 +8.04549E+00 -1.05012E+01 +1.04750E+01 -8.16491E+00 +1.22368E+01 -5.27699E+00 +1.32092E+01 -2.02605E+00
 +1.33234E+01 +1.37385E+00 +1.25681E+01 +4.69769E+00 +1.09905E+01 +7.72488E+00 +8.69330E+00 +1.02543E+01
 +5.82752E+00 +1.21179E+01 +2.58240E+00 +1.31925E+01 -8.27548E-01 +1.34075E+01 -4.17713E+00 +1.27502E+01
 -7.24573E+00 +1.12661E+01 -9.83223E+00 +9.05568E+00 -1.17685E+01 +6.26751E+00 -1.29306E+01 +3.08785E+00
 -1.32468E+01 -2.72085E-01 -1.27020E+01 -3.59050E+00 -1.13385E+01 -6.65001E+00 -9.25253E+00 -9.25222E+00
 -6.58738E+00 -1.12308E+01 -3.52325E+00 -1.24625E+01 -2.64871E-01 -1.28745E+01 +2.97247E+00 -1.24493E+01
 +5.97746E+00 -1.12248E+01 +8.55681E+00 -9.29120E+00 +1.05479E+01 -6.78430E+00 +1.18291E+01 -3.87579E+00
 +1.23275E+01 -7.61288E-01 +1.20227E+01 +2.35302E+00 +1.09476E+01 +5.26427E+00 +9.18501E+00 +7.78631E+00
 +6.86171E+00 +9.76179E+00 +4.13890E+00 +1.10721E+01 +1.20107E+00 +1.16444E+01 -1.75675E+00 +1.14557E+01
 -4.54202E+00 +1.05333E+01 -6.97741E+00 +8.95209E+00 -8.91220E+00 +6.82846E+00 -1.02316E+01 +4.31182E+00
 -1.08637E+01 +1.57401E+00 -1.07829E+01 -1.20253E+00 -1.00110E+01 -3.83703E+00 -8.61415E+00 -6.16222E+00
 -6.69788E+00 -8.03503E+00 -4.39891E+00 -9.34538E+00 -1.87550E+00 -1.00226E+01 +7.03487E-01 -1.00390E+01
 +3.16995E+00 -9.41061E+00 +5.36751E+00 -8.19507E+00 +7.16149E+00 -6.48657E+00 +8.44704E+00 -4.40876E+00
 +9.15525E+00 -2.10589E+00 +9.25658E+00 +2.67240E-01 +8.76169E+00 +2.55566E+00 +7.71955E+00 +4.61435E+00
 +6.21319E+00 +6.31737E+00 +4.35319E+00 +7.56551E+00 +2.26974E+00 +8.29195E+00 +1.03570E-01 +8.46559E+00
 -2.00356E+00 +8.09197E+00 -3.91801E+00 +7.21180E+00 -5.52273E+00 +5.89722E+00 -6.72429E+00 +4.24608E+00
 -7.45813E+00 +2.37488E+00 -7.69188E+00 +4.10566E-01 -7.42634E+00 -1.51796E+00 -6.69440E+00 -3.28823E+00
 -5.55782E+00 -4.79189E+00 -4.10235E+00 -5.94118E+00 -2.43139E+00 -6.67394E+00 -6.58774E-01 -6.95673E+00
 +1.09886E+00 -6.78599E+00 +2.72968E+00 -6.18732E+00 +4.13361E+00 -5.21280E+00 +5.22836E+00 -3.93683E+00
 +5.95408E+00 -2.45060E+00 +6.27642E+00 -8.55691E-01 +6.18785E+00 +7.42697E-01 +5.70724E+00 +2.24261E+00
 +4.87778E+00 +3.55167E+00 +3.76343E+00 +4.59266E+00 +2.44415E+00 +5.30788E+00 +1.01034E+00 +5.66213E+00
 -4.43270E-01 +5.64428E+00 -1.82370E+00 +5.26706E+00 -3.04555E+00 +4.56558E+00 -4.03613E+00 +3.59433E+00
 -4.73963E+00 +2.42316E+00 -5.12010E+00 +1.13236E+00 -5.16303E+00 -1.92653E-01 -4.87564E+00 -1.46691E+00
 -4.28576E+00 -2.61116E+00 -3.43942E+00 -3.55668E+00 -2.39744E+00 -4.24922E+00 -1.23122E+00 -4.65200E+00
 -1.79396E-02 -4.74747E+00 +1.16439E+00 -4.53786E+00 +2.24181E+00 -4.04450E+00 +3.14893E+00 -3.30592E+00
 +3.83273E+00 -2.37505E+00 +4.25553E+00 -1.31549E+00 +4.39697E+00 -1.97356E-01 +4.25478E+00 +9.07313E-01
 +3.84452E+00 +1.92902E+00 +3.19819E+00 +2.80506E+00 +2.36182E+00 +3.48329E+00 +1.39235E+00 +3.92507E+00
 +3.53830E-01 +4.10740E+00 -6.86690E-01 +4.02400E+00 -1.66337E+00 +3.68535E+00 -2.51565E+00 +3.11773E+00
 -3.19190E+00 +2.36125E+00 -3.65245E+00 +1.46717E+00 -3.87185E+00 +4.94444E-01 -3.84023E+00 -4.94006E-01
 -3.56361E+00 -1.43530E+00 -3.06331E+00 -2.27050E+00 -2.37440E+00 -2.94822E+00 -1.54330E+00 -3.42772E+00
 -6.24732E-01 -3.68129E+00 +3.21784E-01 -3.69584E+00 +1.23573E+00 -3.47349E+00 +2.05939E+00 -3.03131E+00
 +2.74141E+00 -2.40003E+00 +3.23998E+00 -1.62202E+00 +3.52533E+00 -7.48444E-01 +3.58153E+00 +1.63974E-01
 +3.40733E+00 +1.05662E+00 +3.01609E+00 +1.87271E+00 +2.43489E+00 +2.56081E+00 +1.70261E+00 +3.07810E+00
 +8.67462E-01 +3.39300E+00 -1.62069E-02 +3.48710E+00 -8.91372E-01 +3.35621E+00 -1.70199E+00 +3.01056E+00
 -2.39657E+00 +2.47405E+00 -2.93143E+00 +1.78262E+00 -3.27344E+00 +9.81864E-01 -3.40208E+00 +1.24103E-01
 -3.31067E+00 -7.35064E-01 -3.00674E+00 -1.54033E+00 -2.51146E+00 -2.24022E+00 -1.85815E+00 -2.79044E+00
 -1.09013E+00 -3.15661E+00 -2.57804E-01 -3.31650E+00 +5.84606E-01 -3.26136E+00 +1.38262E+00 -2.99641E+00
 +2.08502E+00 -2.54041E+00 +2.64717E+00 -1.92438E+00 +3.03386E+00 -1.18946E+00 +3.22153E+00 -3.84195E-01
 +3.19975E+00 +4.38677E-01 +2.97178E+00 +1.22571E+00 +2.55428E+00 +1.92626E+00 +1.97608E+00 +2.49573E+00
 +1.27623E+00 +2.89848E+00 +5.01330E-01 +3.11007E+00 -2.97567E-01 +3.11876E+00 -1.06837E+00 +2.92618E+00
 -1.76136E+00 +2.54708E+00 -2.33246E+00 +2.00822E+00 -2.74605E+00 +1.34651E+00 -2.97723E+00 +6.06451E-01
 -3.01333E+00 -1.62871E-01 -2.85463E+00 -9.11088E-01 -2.51413E+00 -1.58988E+00 -2.01657E+00 -2.15613E+00
 -1.39663E+00 -2.57473E+00 -6.96486E-01 -2.82073E+00 +3.70780E-02 -2.88091E+00 +7.55829E-01 -2.75442E+00
 +1.41330E+00 -2.45267E+00 +1.96784E+00 -1.99836E+00 +2.38528E+00 -1.42381E+00 +2.64107E+00 -7.68623E-01
 +2.72173E+00 -7.69358E-02 +2.62551E+00 +6.05571E-01 +2.36231E+00 +1.23474E+00 +1.95278E+00 +1.77083E+00
 +1.42672E+00 +2.18106E+00 +8.20885E-01 +2.44161E+00 +1.76465E-01 +2.53901E+00 -4.63806E-01 +2.47081E+00
 -1.05848E+00 +2.24545E+00 -1.57013E+00 +1.88146E+00 -1.96769E+00 +1.40596E+00 -2.22836E+00 +8.52692E-01
 -2.33891E+00 +2.59554E-01 -2.29626E+00 -3.33960E-01 -2.10742E+00 -8.89435E-01 -1.78874E+00 -1.37202E+00
 -1.36456E+00 -1.75263E+00 -8.65344E-01 -2.00968E+00 -3.25551E-01 -2.13024E+00 +2.18799E-01 -2.11067E+00
 +7.32504E-01 -1.95651E+00 +1.18346E+00 -1.68185E+00 +1.54465E+00 -1.30810E+00 +1.79572E+00 -8.62397E-01
 +1.92408E+00 -3.75586E-01 +1.92542E+00 +1.19851E-01 +1.80375E+00 +5.91967E-01 +1.57078E+00 +1.01138E+00
 +1.24492E+00 +1.35307E+00 +8.49886E-01 +1.59780E+00 +4.12942E-01 +1.73312E+00 -3.69120E-02 +1.75393E+00
 -4.70843E-01 +1.66249E+00 -8.61985E-01 +1.46803E+00 -1.18703E+00 +1.18589E+00 -1.42755E+00 +8.36364E-01
 -1.57091E+00 +4.43268E-01 -1.61089E+00 +3.23421E-02 -1.54777E+00 -3.70365E-01 -1.38810E+00 -7.40076E-01
 -1.14410E+00 -1.05472E+00 -8.32747E-01 -1.29612E+00 -4.74618E-01 -1.45099E+00 -9.25883E-02 -1.51149E+00
