 Created: 19-Jan-2021
 $NMID
 ID='D:\BASISSIMULATI'
 FMTDAT='(8E13.5)'
 VOLUME=   1.00000E+00
 TRAMP=   1.00000E+00
 $END
 +5.26398E+01 +7.86024E+00 +4.18946E+01 +2.98158E+01 +2.12029E+01 +4.16911E+01 -1.53015E+00 +3.97238E+01
 -1.77730E+01 +2.56258E+01 -2.17738E+01 +5.84359E+00 -1.28299E+01 -1.10759E+01 +4.48590E+00 -1.79440E+01
 +2.22215E+01 -1.18208E+01 +3.22911E+01 +4.82220E+00 +2.97589E+01 +2.51260E+01 +1.48389E+01 +4.06322E+01
 -7.18648E+00 +4.47063E+01 -2.80878E+01 +3.52173E+01 -3.99888E+01 +1.53988E+01 -3.85143E+01 -7.44506E+00
 -2.45229E+01 -2.48604E+01 -3.73543E+00 -3.06110E+01 +1.55804E+01 -2.31379E+01 +2.59295E+01 -6.13132E+00
 +2.35747E+01 +1.30063E+01 +9.99278E+00 +2.61735E+01 -8.77551E+00 +2.78423E+01 -2.46070E+01 +1.72724E+01
 -3.06008E+01 -1.21586E+00 -2.38728E+01 -2.00087E+01 -6.72097E+00 -3.12852E+01 +1.43011E+01 -3.01745E+01
 +3.10170E+01 -1.67162E+01 +3.69026E+01 +4.15870E+00 +2.96834E+01 +2.46074E+01 +1.22171E+01 +3.70103E+01
 -8.68258E+00 +3.69971E+01 -2.49976E+01 +2.51512E+01 -3.07163E+01 +6.71722E+00 -2.42144E+01 -1.05567E+01
 -8.85494E+00 -1.95638E+01 +8.42113E+00 -1.67007E+01 +1.99333E+01 -3.29819E+00 +2.03798E+01 +1.49426E+01
 +8.98015E+00 +3.02725E+01 -1.02121E+01 +3.60285E+01 -2.99423E+01 +2.93175E+01 -4.26653E+01 +1.21739E+01
 -4.35579E+01 -9.26384E+00 -3.24235E+01 -2.72155E+01 -1.37345E+01 -3.53607E+01 +5.19392E+00 -3.13337E+01
 +1.71509E+01 -1.76143E+01 +1.79088E+01 -4.70048E-01 +7.87893E+00 +1.26094E+01 -8.11020E+00 +1.59469E+01
 -2.28094E+01 +7.95667E+00 -2.95038E+01 -8.23991E+00 -2.47331E+01 -2.60984E+01 -9.68545E+00 -3.83048E+01
 +1.02851E+01 -3.97245E+01 +2.78117E+01 -2.94591E+01 +3.64616E+01 -1.11943E+01 +3.32911E+01 +8.29083E+00
 +1.99854E+01 +2.18396E+01 +2.13936E+00 +2.47627E+01 -1.30188E+01 +1.66699E+01 -1.95344E+01 +1.56290E+00
 -1.50936E+01 -1.38314E+01 -1.90531E+00 -2.28047E+01 +1.42417E+01 -2.13771E+01 +2.63536E+01 -9.88498E+00
 +2.90714E+01 +7.18000E+00 +2.08332E+01 +2.30029E+01 +4.49513E+00 +3.11991E+01 -1.38257E+01 +2.83771E+01
 -2.72079E+01 +1.54848E+01 -3.06864E+01 -2.59214E+00 -2.32095E+01 -1.90024E+01 -8.01290E+00 -2.76694E+01
 +8.72189E+00 -2.56946E+01 +2.03734E+01 -1.44640E+01 +2.25332E+01 +9.72370E-01 +1.47430E+01 +1.39824E+01
 +6.26223E-01 +1.90459E+01 -1.36206E+01 +1.39743E+01 -2.17577E+01 +7.69364E-01 -2.00269E+01 -1.52102E+01
 -8.65905E+00 -2.74254E+01 +8.23149E+00 -3.07904E+01 +2.43094E+01 -2.37038E+01 +3.35563E+01 -8.66730E+00
 +3.26594E+01 +8.74016E+00 +2.22958E+01 +2.21089E+01 +6.81035E+00 +2.67515E+01 -7.56888E+00 +2.15383E+01
 -1.52453E+01 +9.28791E+00 -1.34849E+01 -4.42755E+00 -3.47144E+00 -1.35669E+01 +1.02226E+01 -1.40655E+01
 +2.15217E+01 -5.45950E+00 +2.53178E+01 +8.95349E+00 +1.95291E+01 +2.34670E+01 +5.92438E+00 +3.22733E+01
 -1.06022E+01 +3.17917E+01 -2.40025E+01 +2.20831E+01 -2.94868E+01 +6.79610E+00 -2.54079E+01 -8.32002E+00
 -1.38696E+01 -1.77224E+01 +1.70891E-01 -1.82706E+01 +1.09274E+01 -1.04325E+01 +1.41132E+01 +1.96839E+00
 +8.63616E+00 +1.33469E+01 -3.00911E+00 +1.86354E+01 -1.57951E+01 +1.53256E+01 -2.42196E+01 +4.45879E+00
 -2.45325E+01 -9.82092E+00 -1.62355E+01 -2.19544E+01 -2.26266E+00 -2.72048E+01 +1.22138E+01 -2.35428E+01
 +2.18607E+01 -1.24290E+01 +2.32991E+01 +1.80684E+00 +1.64141E+01 +1.37223E+01 +4.34325E+00 +1.89384E+01
 -7.83229E+00 +1.58590E+01 -1.51527E+01 +6.25247E+00 -1.47643E+01 -5.52187E+00 -7.03078E+00 -1.43131E+01
 +4.66286E+00 -1.62697E+01 +1.53155E+01 -1.03798E+01 +2.03464E+01 +1.14823E+00 +1.74373E+01 +1.38016E+01
 +7.44664E+00 +2.25926E+01 -5.95988E+00 +2.40552E+01 -1.77949E+01 +1.76093E+01 -2.37435E+01 +5.75508E+00
 -2.18601E+01 -6.96376E+00 -1.32955E+01 -1.57947E+01 -1.77773E+00 -1.76648E+01 +7.92685E+00 -1.23668E+01
 +1.19399E+01 -2.57975E+00 +8.80992E+00 +7.26488E+00 +5.22778E-02 +1.28007E+01 -1.05082E+01 +1.14885E+01
 -1.83120E+01 +3.61841E+00 -1.99107E+01 -7.83655E+00 -1.43426E+01 -1.84406E+01 -3.49360E+00 -2.40832E+01
 +8.68464E+00 -2.26119E+01 +1.77686E+01 -1.46594E+01 +2.06197E+01 -3.34825E+00 +1.65990E+01 +6.99117E+00
 +7.76501E+00 +1.25602E+01 -2.00704E+00 +1.15862E+01 -8.61376E+00 +4.98035E+00 -9.37196E+00 -4.09077E+00
 -4.06707E+00 -1.15266E+01 +5.00659E+00 -1.39642E+01 +1.40120E+01 -1.01239E+01 +1.91371E+01 -1.29777E+00
 +1.81272E+01 +9.20068E+00 +1.11686E+01 +1.73859E+01 +7.83532E-01 +2.01956E+01 -9.20432E+00 +1.66914E+01
 -1.52043E+01 +8.39075E+00 -1.52704E+01 -1.38302E+00 -9.82982E+00 -8.85654E+00 -1.45215E+00 -1.13116E+01
 +6.23021E+00 -8.13689E+00 +1.00008E+01 -1.01564E+00 +8.33899E+00 +6.80736E+00 +1.99317E+00 +1.18673E+01
 -6.36575E+00 +1.18805E+01 -1.32540E+01 +6.64469E+00 -1.57878E+01 -1.91216E+00 -1.28291E+01 -1.05348E+01
 -5.41176E+00 -1.59578E+01 +3.70546E+00 -1.62007E+01 +1.11633E+01 -1.13240E+01 +1.43396E+01 -3.35761E+00
 +1.23629E+01 +4.55067E+00 +6.40514E+00 +9.41034E+00 -8.44751E-01 +9.56770E+00 -6.29794E+00 +5.32251E+00
 -7.71251E+00 -1.25027E+00 -4.57002E+00 -7.18280E+00 +1.75906E+00 -9.83123E+00 +8.60910E+00 -7.93306E+00
 +1.31167E+01 -2.08699E+00 +1.33711E+01 +5.52184E+00 +9.15746E+00 +1.20228E+01 +2.00743E+00 +1.50116E+01
 -5.44593E+00 +1.34886E+01 -1.05330E+01 +8.21416E+00 -1.15974E+01 +1.35726E+00 -8.61396E+00 -4.40450E+00
 -3.14044E+00 -6.95921E+00 +2.35737E+00 -5.57695E+00 +5.52069E+00 -1.15068E+00 +5.03812E+00 +4.21686E+00
 +1.13910E+00 +8.09602E+00 -4.54264E+00 +8.71674E+00 -9.66219E+00 +5.66227E+00 -1.21198E+01 +2.83068E-03
 -1.08913E+01 -6.16702E+00 -6.40655E+00 -1.05843E+01 -3.38548E-01 -1.17141E+01 +5.09220E+00 -9.32842E+00
 +8.00696E+00 -4.54914E+00 +7.59107E+00 +6.45162E-01 +4.36855E+00 +4.23244E+00 -6.38665E-02 +4.94658E+00
 -3.71771E+00 +2.74570E+00 -5.02244E+00 -1.22435E+00 -3.43693E+00 -5.13756E+00 +3.72870E-01 -7.24640E+00
 +4.84396E+00 -6.57990E+00 +8.17160E+00 -3.30580E+00 +9.03560E+00 +1.37394E+00 +7.10595E+00 +5.73399E+00
 +3.13614E+00 +8.22329E+00 -1.37560E+00 +8.06470E+00 -4.80414E+00 +5.52301E+00 -6.03685E+00 +1.74998E+00
 -4.88018E+00 -1.71289E+00 -2.08336E+00 -3.56040E+00 +1.01170E+00 -3.22395E+00 +3.03659E+00 -1.05408E+00
 +3.14292E+00 +1.87129E+00 +1.31328E+00 +4.21715E+00 -1.67479E+00 +4.93867E+00 -4.59861E+00 +3.68390E+00
 -6.29795E+00 +8.99712E-01 -6.12987E+00 -2.38459E+00 -4.19325E+00 -4.99138E+00 -1.24770E+00 -6.06163E+00
 +1.62252E+00 -5.36744E+00 +3.44993E+00 -3.35606E+00 +3.74891E+00 -9.25832E-01 +2.66483E+00 +9.58860E-01
 +8.63628E-01 +1.64941E+00 -7.75486E-01 +1.04018E+00 -1.52664E+00 -4.37574E-01 -1.09280E+00 -2.03407E+00
 +3.12466E-01 -3.00759E+00 +2.09340E+00 -2.91952E+00 +3.54096E+00 -1.78275E+00 +4.12214E+00 -1.70644E-02
 +3.67161E+00 +1.75248E+00 +2.41851E+00 +2.95794E+00 +8.54490E-01 +3.29998E+00 -4.86697E-01 +2.82873E+00
 -1.23879E+00 +1.87634E+00 -1.31794E+00 +8.86389E-01 -9.08064E-01 +2.23417E-01 -3.40258E-01 +4.37012E-02
 +6.82174E-02 +2.72611E-01 +1.41007E-01 +6.82005E-01 -1.13657E-01 +1.01842E+00 -5.48109E-01 +1.11702E+00
 -9.73385E-01 +9.52064E-01 -1.25482E+00 +6.11525E-01 -1.35870E+00 +2.21880E-01 -1.33437E+00 -1.29108E-01
 -1.25236E+00 -4.28773E-01 -1.14081E+00 -7.18911E-01 -9.61030E-01 -1.03594E+00 -6.38137E-01 -1.35258E+00
 -1.29492E-01 -1.56168E+00 +5.10936E-01 -1.51934E+00 +1.11608E+00 -1.13008E+00 +1.45806E+00 -4.28889E-01
 +1.35329E+00 +3.89718E-01 +7.71843E-01 +1.02420E+00 -1.07809E-01 +1.18828E+00 -9.38174E-01 +7.52494E-01
 -1.33355E+00 -1.63435E-01 -1.04305E+00 -1.20175E+00 -8.87104E-02 -1.89242E+00 +1.20240E+00 -1.85081E+00
 +2.30188E+00 -9.64613E-01 +2.68973E+00 +5.17715E-01 +2.08728E+00 +2.05007E+00 +6.10675E-01 +2.99263E+00
 -1.23301E+00 +2.88098E+00 -2.72216E+00 +1.64776E+00 -3.20928E+00 -3.06227E-01 -2.40603E+00 -2.23715E+00
 -5.40005E-01 -3.34329E+00 +1.69640E+00 -3.10054E+00 +3.40033E+00 -1.50752E+00 +3.82329E+00 +8.72489E-01
 +2.69832E+00 +3.10657E+00 +3.87125E-01 +4.25852E+00 -2.22869E+00 +3.78250E+00 -4.08362E+00 +1.77870E+00
 -4.36414E+00 -1.00694E+00 -2.86628E+00 -3.45508E+00 -1.19087E-01 -4.51958E+00 +2.79253E+00 -3.67049E+00
 +4.64867E+00 -1.14671E+00 +4.59607E+00 +2.09878E+00 +2.52472E+00 +4.75517E+00 -8.45070E-01 +5.67898E+00
 -4.21694E+00 +4.37711E+00 -6.22512E+00 +1.24433E+00 -5.99497E+00 -2.55622E+00 -3.52658E+00 -5.53678E+00
 +2.66366E-01 -6.48365E+00 +3.89424E+00 -4.96911E+00 +5.88214E+00 -1.56019E+00 +5.37948E+00 +2.37536E+00
 +2.53648E+00 +5.20248E+00 -1.51797E+00 +5.68456E+00 -5.10403E+00 +3.51132E+00 -6.66354E+00 -5.35220E-01
 -5.40874E+00 -4.85928E+00 -1.67840E+00 -7.67644E+00 +3.15670E+00 -7.74027E+00 +7.21661E+00 -4.87448E+00
 +8.86310E+00 -8.44563E-02 +7.37754E+00 +4.81260E+00 +3.28433E+00 +7.90307E+00 -1.82497E+00 +7.95522E+00
 -5.91072E+00 +4.94243E+00 -7.30714E+00 +8.83283E-02 -5.41584E+00 -4.59973E+00 -9.81991E-01 -7.13289E+00
 +4.17289E+00 -6.35934E+00 +7.86800E+00 -2.46361E+00 +8.44910E+00 +3.06775E+00 +5.48477E+00 +8.01559E+00
 -1.81802E-02 +1.03146E+01 -5.98168E+00 +8.90224E+00 -1.00719E+01 +4.18186E+00 -1.06416E+01 -2.10057E+00
 -7.41671E+00 -7.53086E+00 -1.64101E+00 -9.99080E+00 +4.39577E+00 -8.52531E+00 +8.26727E+00 -3.75574E+00
 +8.39705E+00 +2.34086E+00 +4.72078E+00 +7.21121E+00 -1.25428E+00 +8.75887E+00 -7.03103E+00 +6.21454E+00
 -1.01226E+01 +4.84167E-01 -9.07178E+00 -6.17958E+00 -4.07436E+00 -1.10636E+01 +3.05810E+00 -1.20896E+01
 +9.59445E+00 -8.67519E+00 +1.29706E+01 -2.00615E+00 +1.18313E+01 +5.40588E+00 +6.60252E+00 +1.07133E+01
 -6.49808E-01 +1.18789E+01 -7.02965E+00 +8.51454E+00 -9.97409E+00 +2.06467E+00 -8.30213E+00 -4.75303E+00
 -2.71972E+00 -9.03585E+00 +4.43508E+00 -8.88011E+00 +1.01173E+01 -4.18006E+00 +1.18066E+01 +3.29089E+00
 +8.54832E+00 +1.05633E+01 +1.37844E+00 +1.46553E+01 -7.05444E+00 +1.37842E+01 -1.35287E+01 +8.11319E+00
 -1.55410E+01 -2.77630E-01 -1.23287E+01 -8.19933E+00 -5.20304E+00 -1.26245E+01 +2.95386E+00 -1.19125E+01
 +8.83665E+00 -6.49008E+00 +1.00536E+01 +1.29691E+00 +6.11214E+00 +8.11451E+00 -1.35391E+00 +1.09874E+01
 -9.21815E+00 +8.52050E+00 -1.41137E+01 +1.49707E+00 -1.38035E+01 -7.40035E+00 -8.11324E+00 -1.46456E+01
 +9.57714E-01 -1.72850E+01 +1.00062E+01 -1.41433E+01 +1.55763E+01 -6.32818E+00 +1.55508E+01 +3.18306E+00
