 Created: 19-Jan-2021
 $NMID
 ID='D:\BASISSIMULATI'
 FMTDAT='(8E13.5)'
 VOLUME=   1.00000E+00
 TRAMP=   1.00000E+00
 $END
 +7.82372E+01 +1.26738E+01 +7.33786E+01 -1.12944E+01 +5.33173E+01 -3.00242E+01 +2.31487E+01 -3.72894E+01
 -9.38472E+00 -3.02961E+01 -3.60789E+01 -1.05019E+01 -5.05601E+01 +1.68102E+01 -5.00208E+01 +4.40669E+01
 -3.59057E+01 +6.35905E+01 -1.33688E+01 +6.97914E+01 +1.03126E+01 +6.07326E+01 +2.78859E+01 +3.86261E+01
 +3.41953E+01 +9.14358E+00 +2.75855E+01 -2.02310E+01 +1.02520E+01 -4.23064E+01 -1.25223E+01 -5.21316E+01
 -3.39856E+01 -4.82405E+01 -4.78901E+01 -3.28690E+01 -5.02409E+01 -1.11333E+01 -4.03333E+01 +1.05464E+01
 -2.08182E+01 +2.62894E+01 +3.17064E+00 +3.23313E+01 +2.55288E+01 +2.79059E+01 +4.08702E+01 +1.52314E+01
 +4.59108E+01 -1.33094E+00 +4.01841E+01 -1.66504E+01 +2.59436E+01 -2.63043E+01 +7.34471E+00 -2.77411E+01
 -1.08042E+01 -2.08316E+01 -2.43416E+01 -7.71348E+00 -3.07448E+01 +7.96234E+00 -2.95793E+01 +2.21158E+01
 -2.23487E+01 +3.13236E+01 -1.18584E+01 +3.36165E+01 -1.32790E+00 +2.88111E+01 +6.47831E+00 +1.83521E+01
 +9.87686E+00 +4.77605E+00 +8.52365E+00 -9.00876E+00 +3.30137E+00 -2.04144E+01 -4.06790E+00 -2.76734E+01
 -1.15358E+01 -3.00657E+01 -1.72179E+01 -2.78806E+01 -1.97552E+01 -2.21856E+01 -1.85018E+01 -1.45024E+01
 -1.35519E+01 -6.47765E+00 -5.64694E+00 +3.93454E-01 +3.98389E+00 +4.97344E+00 +1.38198E+01 +6.62167E+00
 +2.22646E+01 +5.27502E+00 +2.78814E+01 +1.46684E+00 +2.96357E+01 -3.73343E+00 +2.71178E+01 -8.88099E+00
 +2.06936E+01 -1.24219E+01 +1.15238E+01 -1.30370E+01 +1.40513E+00 -9.99513E+00 -7.56768E+00 -3.42096E+00
 -1.34682E+01 +5.61853E+00 -1.50255E+01 +1.52702E+01 -1.19966E+01 +2.32898E+01 -5.30346E+00 +2.75981E+01
 +3.13803E+00 +2.68554E+01 +1.08775E+01 +2.08908E+01 +1.55745E+01 +1.08442E+01 +1.56553E+01 -1.04626E+00
 +1.07915E+01 -1.19788E+01 +2.04991E+00 -1.93113E+01 -8.34849E+00 -2.12777E+01 -1.76098E+01 -1.74890E+01
 -2.31339E+01 -9.06768E+00 -2.32513E+01 +1.63639E+00 -1.77161E+01 +1.16775E+01 -7.80814E+00 +1.83204E+01
 +3.99346E+00 +1.97927E+01 +1.46760E+01 +1.57696E+01 +2.15113E+01 +7.45176E+00 +2.27951E+01 -2.78388E+00
 +1.82981E+01 -1.20584E+01 +9.30669E+00 -1.77954E+01 -1.75365E+00 -1.84275E+01 -1.19963E+01 -1.38077E+01
 -1.88583E+01 -5.21896E+00 -2.07702E+01 +5.00922E+00 -1.75323E+01 +1.41571E+01 -1.03051E+01 +1.98531E+01
 -1.23504E+00 +2.06887E+01 +7.16320E+00 +1.65487E+01 +1.26895E+01 +8.58312E+00 +1.40172E+01 -1.15084E+00
 +1.09895E+01 -1.02613E+01 +4.59111E+00 -1.66440E+01 -3.37144E+00 -1.89880E+01 -1.07768E+01 -1.70463E+01
 -1.57387E+01 -1.16203E+01 -1.70556E+01 -4.28788E+00 -1.44604E+01 +3.03369E+00 -8.62541E+00 +8.56951E+00
 -9.47144E-01 +1.10943E+01 +6.81843E+00 +1.01781E+01 +1.29736E+01 +6.23182E+00 +1.62522E+01 +3.61542E-01
 +1.60736E+01 -5.91825E+00 +1.26353E+01 -1.10409E+01 +6.83896E+00 -1.37358E+01 +7.34650E-02 -1.33009E+01
 -6.09420E+00 -9.75022E+00 -1.02606E+01 -3.81076E+00 -1.14931E+01 +3.22941E+00 -9.54202E+00 +9.79576E+00
 -4.91095E+00 +1.43738E+01 +1.23817E+00 +1.58585E+01 +7.33597E+00 +1.38312E+01 +1.17686E+01 +8.69243E+00
 +1.32762E+01 +1.60878E+00 +1.12928E+01 -5.73406E+00 +6.13431E+00 -1.15265E+01 -1.02724E+00 -1.42914E+01
 -8.41840E+00 -1.32861E+01 -1.40994E+01 -8.73705E+00 -1.64764E+01 -1.82856E+00 -1.47549E+01 +5.57236E+00
 -9.20322E+00 +1.13972E+01 -1.13517E+00 +1.39427E+01 +7.40058E+00 +1.23672E+01 +1.41566E+01 +6.96879E+00
 +1.73067E+01 -8.48909E-01 +1.59748E+01 -8.93005E+00 +1.05148E+01 -1.49544E+01 +2.44657E+00 -1.70985E+01
 -5.94707E+00 -1.45790E+01 -1.22591E+01 -7.91469E+00 -1.46525E+01 +1.18278E+00 -1.24068E+01 +1.02690E+01
 -6.15117E+00 +1.68539E+01 +2.29402E+00 +1.91186E+01 +1.04306E+01 +1.64515E+01 +1.58057E+01 +9.63984E+00
 +1.67339E+01 +6.53876E-01 +1.28038E+01 -7.91855E+00 +5.01574E+00 -1.36248E+01 -4.49678E+00 -1.48654E+01
 -1.30812E+01 -1.13629E+01 -1.83372E+01 -4.24258E+00 -1.88153E+01 +4.30340E+00 -1.44372E+01 +1.16663E+01
 -6.51117E+00 +1.55938E+01 +2.65991E+00 +1.48549E+01 +1.04597E+01 +9.59916E+00 +1.47251E+01 +1.30589E+00
 +1.43697E+01 -7.65900E+00 +9.68260E+00 -1.47424E+01 +2.21629E+00 -1.79503E+01 -5.69449E+00 -1.64188E+01
 -1.16357E+01 -1.06455E+01 -1.38260E+01 -2.31819E+00 -1.16274E+01 +6.19953E+00 -5.70958E+00 +1.25665E+01
 +2.17390E+00 +1.51369E+01 +9.71940E+00 +1.34109E+01 +1.47535E+01 +8.13866E+00 +1.58558E+01 +1.05771E+00
 +1.27450E+01 -5.64687E+00 +6.32393E+00 -9.99195E+00 -1.61656E+00 -1.07631E+01 -8.93572E+00 -7.83726E+00
 -1.37584E+01 -2.17801E+00 -1.49877E+01 +4.48060E+00 -1.25721E+01 +1.01574E+01 -7.46498E+00 +1.31949E+01
 -1.30168E+00 +1.27128E+01 +4.09695E+00 +8.82155E+00 +7.24573E+00 +2.54980E+00 +7.39248E+00 -4.47926E+00
 +4.68776E+00 -1.05162E+01 +9.38723E-02 -1.41607E+01 -4.92497E+00 -1.47118E+01 -8.83168E+00 -1.23075E+01
 -1.04395E+01 -7.82884E+00 -9.21491E+00 -2.61407E+00 -5.38840E+00 +1.92818E+00 +1.43114E-01 +4.69444E+00
 +6.07991E+00 +5.15355E+00 +1.10685E+01 +3.44411E+00 +1.40398E+01 +2.91191E-01 +1.44525E+01 -3.22153E+00
 +1.23881E+01 -5.95482E+00 +8.48884E+00 -7.01060E+00 +3.76443E+00 -5.95007E+00 -6.72928E-01 -2.88684E+00
 -3.87868E+00 +1.55797E+00 -5.28741E+00 +6.41839E+00 -4.82173E+00 +1.06194E+01 -2.88097E+00 +1.32283E+01
 -2.19121E-01 +1.36652E+01 +2.25500E+00 +1.18282E+01 +3.70771E+00 +8.10846E+00 +3.58828E+00 +3.29485E+00
 +1.76809E+00 -1.60857E+00 -1.42042E+00 -5.61239E+00 -5.25519E+00 -7.96692E+00 -8.79185E+00 -8.33148E+00
 -1.10906E+01 -6.84778E+00 -1.14505E+01 -4.09789E+00 -9.59431E+00 -9.53959E-01 -5.75725E+00 +1.64673E+00
 -6.51511E-01 +2.94708E+00 +4.68880E+00 +2.57395E+00 +9.14924E+00 +6.45616E-01 +1.18045E+01 -2.24912E+00
 +1.21472E+01 -5.19977E+00 +1.02154E+01 -7.21609E+00 +6.58160E+00 -7.50109E+00 +2.20316E+00 -5.68216E+00
 -1.82851E+00 -1.93564E+00 -4.57522E+00 +3.03277E+00 -5.49764E+00 +8.15082E+00 -4.59228E+00 +1.22454E+01
 -2.38143E+00 +1.43414E+01 +2.41812E-01 +1.39136E+01 +2.27129E+00 +1.10229E+01 +2.87692E+00 +6.30112E+00
 +1.64532E+00 +7.86832E-01 -1.29460E+00 -4.34150E+00 -5.29543E+00 -8.06318E+00 -9.35730E+00 -9.76405E+00
 -1.23902E+01 -9.37143E+00 -1.35012E+01 -7.34272E+00 -1.22291E+01 -4.51542E+00 -8.66680E+00 -1.86338E+00
 -3.44027E+00 -2.27121E-01 +2.44504E+00 -9.06514E-02 +7.84840E+00 -1.46131E+00 +1.17634E+01 -3.88004E+00
 +1.35453E+01 -6.55411E+00 +1.30423E+01 -8.57360E+00 +1.06040E+01 -9.15366E+00 +6.97122E+00 -7.84128E+00
 +3.08035E+00 -4.63725E+00 -1.67908E-01 -6.70368E-03 -2.11877E+00 +5.22081E+00 -2.50572E+00 +1.00356E+01
 -1.49536E+00 +1.34729E+01 +3.71897E-01 +1.48275E+01 +2.32856E+00 +1.38118E+01 +3.57973E+00 +1.06221E+01
 +3.50994E+00 +5.89993E+00 +1.85031E+00 +5.95887E-01 -1.23333E+00 -4.23719E+00 -5.15464E+00 -7.67665E+00
 -9.02525E+00 -9.13783E+00 -1.18557E+01 -8.50866E+00 -1.27963E+01 -6.17626E+00 -1.13634E+01 -2.93348E+00
 -7.59138E+00 +2.18639E-01 -2.06919E+00 +2.32956E+00 +4.16072E+00 +2.75651E+00 +9.82555E+00 +1.35280E+00
 +1.37202E+01 -1.46809E+00 +1.50082E+01 -4.81940E+00 +1.34459E+01 -7.56640E+00 +9.46439E+00 -8.63782E+00
 +4.07828E+00 -7.34247E+00 -1.36572E+00 -3.60187E+00 -5.53921E+00 +1.97350E+00 -7.48984E+00 +8.19745E+00
 -6.90602E+00 +1.35915E+01 -4.20940E+00 +1.67693E+01 -4.41237E-01 +1.68177E+01 +3.03312E+00 +1.35674E+01
 +4.92284E+00 +7.66931E+00 +4.40111E+00 +4.47452E-01 +1.37081E+00 -6.43935E+00 -3.47577E+00 -1.14357E+01
 -8.82797E+00 -1.35062E+01 -1.31154E+01 -1.24111E+01 -1.49551E+01 -8.75909E+00 -1.35573E+01 -3.82045E+00
 -8.97322E+00 +8.47721E-01 -2.10628E+00 +3.85552E+00 +5.51653E+00 +4.38155E+00 +1.21517E+01 +2.40418E+00
 +1.63071E+01 -1.30432E+00 +1.71376E+01 -5.41755E+00 +1.46551E+01 -8.45621E+00 +9.69642E+00 -9.23102E+00
 +3.66329E+00 -7.19705E+00 -1.88508E+00 -2.61669E+00 -5.66548E+00 +3.51241E+00 -7.00492E+00 +9.73853E+00
 -5.98396E+00 +1.45592E+01 -3.35727E+00 +1.68275E+01 -2.85969E-01 +1.60447E+01 +2.02986E+00 +1.24629E+01
 +2.70602E+00 +6.97853E+00 +1.41444E+00 +8.59734E-01 -1.55268E+00 -4.60323E+00 -5.40010E+00 -8.42204E+00
 -9.08008E+00 -1.01208E+01 -1.15932E+01 -9.78708E+00 -1.22498E+01 -7.96755E+00 -1.08237E+01 -5.45797E+00
 -7.56828E+00 -3.05998E+00 -3.11013E+00 -1.37740E+00 +1.73378E+00 -7.01239E-01 +6.15271E+00 -9.97977E-01
 +9.50003E+00 -1.98206E+00 +1.13817E+01 -3.23266E+00 +1.16735E+01 -4.31129E+00 +1.04866E+01 -4.84953E+00
 +8.11155E+00 -4.59677E+00 +4.96232E+00 -3.43711E+00 +1.53066E+00 -1.39336E+00 -1.65755E+00 +1.36739E+00
 -4.09802E+00 +4.52556E+00 -5.38554E+00 +7.61277E+00 -5.30781E+00 +1.00493E+01 -3.93086E+00 +1.12324E+01
 -1.63902E+00 +1.06744E+01 +9.05105E-01 +8.16145E+00 +2.89570E+00 +3.88608E+00 +3.59596E+00 -1.50445E+00
 +2.57520E+00 -6.98456E+00 -1.03621E-01 -1.13584E+01 -3.81951E+00 -1.35608E+01 -7.49717E+00 -1.29719E+01
 -9.87417E+00 -9.64724E+00 -9.87011E+00 -4.37555E+00 -6.95284E+00 +1.47692E+00 -1.38263E+00 +6.31548E+00
 +5.75997E+00 +8.77126E+00 +1.27979E+01 +8.12903E+00 +1.78899E+01 +4.59143E+00 +1.95577E+01 -7.18836E-01
 +1.71509E+01 -6.04218E+00 +1.11009E+01 -9.48511E+00 +2.86656E+00 -9.60189E+00 -5.43269E+00 -5.87839E+00
 -1.16057E+01 +1.04018E+00 -1.40314E+01 +9.46515E+00 -1.21598E+01 +1.71091E+01 -6.71036E+00 +2.17404E+01
 +5.06610E-01 +2.18558E+01 +7.10780E+00 +1.71651E+01 +1.08474E+01 +8.73124E+00 +1.03089E+01 -1.29346E+00
 +5.36497E+00 -1.02664E+01 -2.74352E+00 -1.58193E+01 -1.17447E+01 -1.65590E+01 -1.89962E+01 -1.24897E+01
 -2.22744E+01 -5.02317E+00 -2.04541E+01 +3.43469E+00 -1.38683E+01 +1.02009E+01 -4.23342E+00 +1.31210E+01
 +5.84135E+00 +1.12199E+01 +1.36180E+01 +4.99760E+00 +1.70349E+01 -3.72022E+00 +1.53107E+01 -1.23339E+01
 +9.16362E+00 -1.82548E+01 +5.81451E-01 -1.96849E+01 -7.78611E+00 -1.61540E+01 -1.34253E+01 -8.65373E+00
 -1.47030E+01 +6.69920E-01 -1.13344E+01 +9.16570E+00 -4.43579E+00 +1.44679E+01 +3.84441E+00 +1.51869E+01
 +1.09965E+01 +1.12935E+01 +1.49119E+01 +4.08786E+00 +1.45035E+01 -4.22647E+00 +1.00013E+01 -1.12234E+01
 +2.84307E+00 -1.49770E+01 -4.79262E+00 -1.46067E+01 -1.06580E+01 -1.04871E+01 -1.31011E+01 -4.07373E+00
 -1.15239E+01 +2.58718E+00 -6.50612E+00 +7.50031E+00 +4.27807E-01 +9.31440E+00 +7.30790E+00 +7.68937E+00
