 Created: 19-Jan-2021
 $NMID
 ID='D:\BASISSIMULATI'
 FMTDAT='(8E13.5)'
 VOLUME=   1.00000E+00
 TRAMP=   1.00000E+00
 $END
 +7.28133E+01 +1.10624E+01 +6.91302E+01 -3.27677E+00 +5.45141E+01 -1.55988E+01 +3.15559E+01 -2.24772E+01
 +4.45266E+00 -2.18070E+01 -2.18406E+01 -1.33029E+01 -4.26148E+01 +1.41561E+00 -5.43522E+01 +1.91706E+01
 -5.54119E+01 +3.59289E+01 -4.63152E+01 +4.77049E+01 -2.95726E+01 +5.14617E+01 -9.09942E+00 +4.58117E+01
 +1.06487E+01 +3.13583E+01 +2.56287E+01 +1.06051E+01 +3.30451E+01 -1.25504E+01 +3.18895E+01 -3.36268E+01
 +2.30755E+01 -4.84964E+01 +9.15260E+00 -5.42470E+01 -6.32790E+00 -4.97839E+01 -1.96448E+01 -3.60442E+01
 -2.77476E+01 -1.57844E+01 -2.89200E+01 +7.00793E+00 -2.31240E+01 +2.79462E+01 -1.19574E+01 +4.31388E+01
 +1.75507E+00 +4.99540E+01 +1.46359E+01 +4.75001E+01 +2.35367E+01 +3.67265E+01 +2.62506E+01 +2.01408E+01
 +2.19981E+01 +1.21558E+00 +1.15847E+01 -1.63736E+01 -2.79680E+00 -2.95108E+01 -1.80656E+01 -3.62383E+01
 -3.09353E+01 -3.60729E+01 -3.86246E+01 -2.99862E+01 -3.94399E+01 -2.00741E+01 -3.31067E+01 -9.00577E+00
 -2.07877E+01 +6.12464E-01 -4.79589E+00 +6.81231E+00 +1.19229E+01 +8.65248E+00 +2.64147E+01 +6.34644E+00
 +3.63108E+01 +1.11650E+00 +4.02626E+01 -5.17488E+00 +3.81359E+01 -1.05177E+01 +3.09362E+01 -1.32496E+01
 +2.05027E+01 -1.24381E+01 +9.05294E+00 -8.06784E+00 -1.30919E+00 -1.00131E+00 -9.01052E+00 +7.26547E+00
 -1.32647E+01 +1.49817E+01 -1.41249E+01 +2.05584E+01 -1.23405E+01 +2.29233E+01 -9.07243E+00 +2.17326E+01
 -5.54835E+00 +1.74014E+01 -2.74827E+00 +1.09561E+01 -1.19535E+00 +3.75641E+00 -8.94069E-01 -2.83554E+00
 -1.41734E+00 -7.75720E+00 -2.10517E+00 -1.04464E+01 -2.31129E+00 -1.09004E+01 -1.62489E+00 -9.59094E+00
 -6.18943E-03 -7.26902E+00 +2.19942E+00 -4.72102E+00 +4.36839E+00 -2.54510E+00 +5.79331E+00 -1.00832E+00
 +5.90668E+00 -1.94102E-02 +4.46884E+00 +7.81712E-01 +1.66470E+00 +1.84939E+00 -1.92034E+00 +3.52810E+00
 -5.44198E+00 +5.88228E+00 -8.01961E+00 +8.61390E+00 -8.98050E+00 +1.10972E+01 -8.05836E+00 +1.25268E+01
 -5.48952E+00 +1.21425E+01 -1.97573E+00 +9.47172E+00 +1.48276E+00 +4.51935E+00 +3.84520E+00 -2.15029E+00
 +4.31507E+00 -9.47341E+00 +2.57737E+00 -1.60841E+01 -1.07684E+00 -2.06092E+01 -5.77773E+00 -2.19924E+01
 -1.02577E+01 -1.97690E+01 -1.31485E+01 -1.42193E+01 -1.33268E+01 -6.35471E+00 -1.02226E+01 +2.26882E+00
 -4.01370E+00 +9.87583E+00 +4.35101E+00 +1.48640E+01 +1.33123E+01 +1.61747E+01 +2.10186E+01 +1.35536E+01
 +2.57327E+01 +7.63487E+00 +2.62358E+01 -1.76089E-01 +2.21340E+01 -8.00230E+00 +1.39915E+01 -1.39134E+01
 +3.25256E+00 -1.63694E+01 -8.03659E+00 -1.45882E+01 -1.76515E+01 -8.75045E+00 -2.36659E+01 +9.79080E-03
 -2.48748E+01 +9.83271E+00 -2.10694E+01 +1.85312E+01 -1.30974E+01 +2.40747E+01 -2.69209E+00 +2.50499E+01
 +7.89542E+00 +2.09948E+01 +1.63821E+01 +1.25281E+01 +2.09500E+01 +1.24192E+00 +2.06449E+01 -1.06227E+01
 +1.55865E+01 -2.06480E+01 +6.94294E+00 -2.67566E+01 -3.32560E+00 -2.76606E+01 -1.28989E+01 -2.31433E+01
 -1.96085E+01 -1.41109E+01 -2.19174E+01 -2.40261E+00 -1.92598E+01 +9.59968E+00 -1.21678E+01 +1.94769E+01
 -2.15737E+00 +2.52829E+01 +8.60236E+00 +2.59492E+01 +1.77614E+01 +2.14966E+01 +2.32995E+01 +1.30109E+01
 +2.39638E+01 +2.39072E+00 +1.95376E+01 -8.07513E+00 +1.08842E+01 -1.62054E+01 -2.41508E-01 -2.03905E+01
 -1.15711E+01 -1.99229E+01 -2.08052E+01 -1.51246E+01 -2.60958E+01 -7.24841E+00 -2.64250E+01 +1.82075E+00
 -2.18013E+01 +9.99412E+00 -1.32341E+01 +1.54413E+01 -2.49998E+00 +1.69844E+01 +8.24712E+00 +1.43405E+01
 +1.69315E+01 +8.16240E+00 +2.19802E+01 -1.24906E-01 +2.26259E+01 -8.65141E+00 +1.90288E+01 -1.55180E+01
 +1.21985E+01 -1.92077E+01 +3.73988E+00 -1.89046E+01 -4.51379E+00 -1.46527E+01 -1.08989E+01 -7.32786E+00
 -1.42624E+01 +1.56767E+00 -1.41761E+01 +1.02358E+01 -1.09837E+01 +1.69653E+01 -5.67876E+00 +2.04812E+01
 +3.50847E-01 +2.01911E+01 +5.65044E+00 +1.62773E+01 +9.02279E+00 +9.62528E+00 +9.77851E+00 +1.61009E+00
 +7.86196E+00 -6.20703E+00 +3.83149E+00 -1.24029E+01 -1.29409E+00 -1.59686E+01 -6.28233E+00 -1.64823E+01
 -9.96864E+00 -1.41493E+01 -1.15092E+01 -9.70955E+00 -1.05519E+01 -4.24204E+00 -7.29278E+00 +1.08625E+00
 -2.41141E+00 +5.26814E+00 +3.09314E+00 +7.64910E+00 +8.12586E+00 +8.02808E+00 +1.17270E+01 +6.65245E+00
 +1.32616E+01 +4.11688E+00 +1.25294E+01 +1.19664E+00 +9.77867E+00 -1.34290E+00 +5.62567E+00 -2.91638E+00
 +9.06142E-01 -3.23267E+00 -3.50666E+00 -2.33268E+00 -6.87571E+00 -5.49116E-01 -8.73074E+00 +1.59611E+00
 -8.93228E+00 +3.52846E+00 -7.66240E+00 +4.75778E+00 -5.35161E+00 +4.98515E+00 -2.56403E+00 +4.15813E+00
 +1.30592E-01 +2.46657E+00 +2.26951E+00 +2.84808E-01 +3.57251E+00 -1.92218E+00 +3.96902E+00 -3.70505E+00
 +3.57760E+00 -4.72439E+00 +2.64861E+00 -4.81371E+00 +1.48790E+00 -4.00053E+00 +3.81006E-01 -2.48522E+00
 -4.65376E-01 -5.86319E-01 -9.54216E-01 +1.33242E+00 -1.09848E+00 +2.93614E+00 -9.95749E-01 +3.97867E+00
 -7.87125E-01 +4.33758E+00 -6.12553E-01 +4.02086E+00 -5.73795E-01 +3.14789E+00 -7.12710E-01 +1.91250E+00
 -1.00769E+00 +5.38240E-01 -1.38634E+00 -7.63973E-01 -1.74888E+00 -1.82829E+00 -1.99516E+00 -2.55226E+00
 -2.04838E+00 -2.90074E+00 -1.87069E+00 -2.89806E+00 -1.46853E+00 -2.61271E+00 -8.88265E-01 -2.13910E+00
 -2.04849E-01 -1.58014E+00 +4.92975E-01 -1.03264E+00 +1.11759E+00 -5.76490E-01 +1.59511E+00 -2.67233E-01
 +1.87443E+00 -1.31643E-01 +1.93278E+00 -1.65995E-01 +1.77791E+00 -3.37296E-01 +1.44763E+00 -5.87991E-01
 +1.00638E+00 -8.44561E-01 +5.38706E-01 -1.02968E+00 +1.39098E-01 -1.07655E+00 -1.01755E-01 -9.42856E-01
 -1.13125E-01 -6.21237E-01 +1.39509E-01 -1.43191E-01 +6.41577E-01 +4.25449E-01 +1.32367E+00 +9.97479E-01
 +2.06602E+00 +1.48344E+00 +2.71450E+00 +1.81266E+00 +3.10692E+00 +1.95090E+00 +3.10535E+00 +1.90957E+00
 +2.62830E+00 +1.74332E+00 +1.67524E+00 +1.53555E+00 +3.36949E-01 +1.37468E+00 -1.21248E+00 +1.32705E+00
 -2.74214E+00 +1.41350E+00 -4.00530E+00 +1.59692E+00 -4.78693E+00 +1.78528E+00 -4.94777E+00 +1.85126E+00
 -4.45485E+00 +1.66499E+00 -3.39113E+00 +1.13267E+00 -1.94099E+00 +2.31285E-01 -3.54134E-01 -9.70187E-01
 +1.10465E+00 -2.31033E+00 +2.20885E+00 -3.55808E+00 +2.81456E+00 -4.45585E+00 +2.88575E+00 -4.77443E+00
 +2.49461E+00 -4.36779E+00 +1.79717E+00 -3.21480E+00 +9.90320E-01 -1.43705E+00 +2.61028E-01 +7.12994E-01
 -2.59591E-01 +2.89278E+00 -5.25765E-01 +4.73191E+00 -5.82691E-01 +5.90307E+00 -5.46920E-01 +6.18651E+00
 -5.66655E-01 +5.51393E+00 -7.72438E-01 +3.98211E+00 -1.23143E+00 +1.83317E+00 -1.91787E+00 -5.93862E-01
 -2.70845E+00 -2.92938E+00 -3.40495E+00 -4.84252E+00 -3.77973E+00 -6.09835E+00 -3.63320E+00 -6.59113E+00
 -2.84917E+00 -6.34770E+00 -1.43400E+00 -5.50277E+00 +4.71271E-01 -4.25404E+00 +2.60968E+00 -2.81012E+00
 +4.65487E+00 -1.34489E+00 +6.27498E+00 +3.04542E-02 +7.19925E+00 +1.27194E+00 +7.27191E+00 +2.38489E+00
 +6.48087E+00 +3.39121E+00 +4.95515E+00 +4.29353E+00 +2.93236E+00 +5.04872E+00 +7.05221E-01 +5.56088E+00
 -1.43907E+00 +5.69741E+00 -3.27154E+00 +5.32544E+00 -4.65362E+00 +4.35879E+00 -5.54223E+00 +2.80162E+00
 -5.96906E+00 +7.74826E-01 -6.00230E+00 -1.48551E+00 -5.70440E+00 -3.66080E+00 -5.10030E+00 -5.40903E+00
 -4.16745E+00 -6.43728E+00 -2.85225E+00 -6.57016E+00 -1.10928E+00 -5.79597E+00 +1.04842E+00 -4.27706E+00
 +3.50460E+00 -2.31887E+00 +6.01764E+00 -3.02944E-01 +8.23341E+00 +1.40134E+00 +9.73708E+00 +2.52482E+00
 +1.01367E+01 +2.96366E+00 +9.16118E+00 +2.80329E+00 +6.74951E+00 +2.29263E+00 +3.10521E+00 +1.77262E+00
 -1.30211E+00 +1.57546E+00 -5.79688E+00 +1.91986E+00 -9.61283E+00 +2.83064E+00 -1.20428E+01 +4.10687E+00
 -1.25914E+01 +5.35152E+00 -1.10961E+01 +6.06098E+00 -7.78499E+00 +5.75636E+00 -3.25339E+00 +4.12623E+00
 +1.64222E+00 +1.14456E+00 +5.95394E+00 -2.86992E+00 +8.84172E+00 -7.27452E+00 +9.75839E+00 -1.12076E+01
 +8.57721E+00 -1.37615E+01 +5.62984E+00 -1.41875E+01 +1.64159E+00 -1.20887E+01 -2.42590E+00 -7.55232E+00
 -5.59221E+00 -1.18539E+00 -7.08791E+00 +5.96292E+00 -6.54338E+00 +1.25845E+01 -4.09037E+00 +1.73677E+01
 -3.48566E-01 +1.92732E+01 +3.70513E+00 +1.77701E+01 +6.95916E+00 +1.29768E+01 +8.43356E+00 +5.67169E+00
 +7.52923E+00 -2.83782E+00 +4.20026E+00 -1.09644E+01 -9.95252E-01 -1.71599E+01 -6.98435E+00 -2.02368E+01
 -1.23953E+01 -1.96234E+01 -1.58571E+01 -1.54932E+01 -1.63176E+01 -8.73798E+00 -1.33089E+01 -7.85411E-01
 -7.09489E+00 +6.70151E+00 +1.33629E+00 +1.21806E+01 +1.04428E+01 +1.45644E+01 +1.84312E+01 +1.34574E+01
 +2.36286E+01 +9.24344E+00 +2.48464E+01 +3.00012E+00 +2.16541E+01 -3.74150E+00 +1.45007E+01 -9.34163E+00
 +4.65246E+00 -1.24241E+01 -6.04597E+00 -1.21937E+01 -1.55390E+01 -8.62478E+00 -2.19807E+01 -2.47904E+00
 -2.41184E+01 +4.85704E+00 -2.15571E+01 +1.16787E+01 -1.48463E+01 +1.63480E+01 -5.36873E+00 +1.76707E+01
 +4.94692E+00 +1.51806E+01 +1.40273E+01 +9.26530E+00 +2.00849E+01 +1.10252E+00 +2.19853E+01 -7.58212E+00
 +1.94720E+01 -1.48844E+01 +1.32023E+01 -1.91380E+01 +4.58738E+00 -1.92864E+01 -4.52580E+00 -1.51277E+01
 -1.22597E+01 -7.37745E+00 -1.71096E+01 +2.46717E+00 -1.82557E+01 +1.24325E+01 -1.57192E+01 +2.04786E+01
 -1.03277E+01 +2.49253E+01 -3.50470E+00 +2.48040E+01 +3.06957E+00 +2.00577E+01 +7.84570E+00 +1.15495E+01
 +9.75456E+00 +8.78404E-01 +8.44037E+00 -9.95568E+00 +4.32715E+00 -1.89639E+01 -1.49355E+00 -2.45690E+01
 -7.52505E+00 -2.59085E+01 -1.22165E+01 -2.29809E+01 -1.43212E+01 -1.66068E+01 -1.31823E+01 -8.22121E+00
 -8.88064E+00 +4.52724E-01 -2.21626E+00 +7.77279E+00 +5.47199E+00 +1.25090E+01 +1.26039E+01 +1.40666E+01
 +1.77048E+01 +1.25586E+01 +1.97233E+01 +8.71999E+00 +1.82511E+01 +3.69250E+00 +1.35983E+01 -1.26430E+00
 +6.71186E+00 -5.06551E+00 -1.03852E+00 -7.03001E+00 -8.15752E+00 -6.99759E+00 -1.33344E+01 -5.31386E+00
 -1.56990E+01 -2.69521E+00 -1.49711E+01 -1.37350E-02 -1.14757E+01 +1.94095E+00 -6.03084E+00 +2.66322E+00
 +2.59449E-01 +2.04856E+00 +6.25360E+00 +4.01137E-01 +1.10034E+01 -1.66473E+00 +1.39170E+01 -3.40015E+00
 +1.48238E+01 -4.12664E+00 +1.39358E+01 -3.41761E+00 +1.17264E+01 -1.21119E+00 +8.76722E+00 +2.17235E+00
 +5.56864E+00 +6.10986E+00 +2.46658E+00 +9.82849E+00 -4.17522E-01 +1.25919E+01 -3.13991E+00 +1.38714E+01
