 Created: 19-Jan-2021
 $NMID
 ID='D:\BASISSIMULATI'
 FMTDAT='(8E13.5)'
 VOLUME=   1.00000E+00
 TRAMP=   1.00000E+00
 $END
 +8.51025E+01 +1.10320E+01 +6.25776E+01 +5.72648E+01 +1.69121E+01 +7.94792E+01 -3.14053E+01 +6.87658E+01
 -6.10944E+01 +3.13674E+01 -5.99731E+01 -1.44494E+01 -3.04541E+01 -4.71216E+01 +1.18952E+01 -5.19368E+01
 +4.59638E+01 -2.77880E+01 +5.51937E+01 +1.26151E+01 +3.53399E+01 +4.90854E+01 -3.75918E+00 +6.37412E+01
 -4.31604E+01 +4.95258E+01 -6.40731E+01 +1.34125E+01 -5.69120E+01 -2.71695E+01 -2.58059E+01 -5.28962E+01
 +1.35538E+01 -5.19317E+01 +4.16323E+01 -2.56147E+01 +4.45805E+01 +1.22623E+01 +2.09752E+01 +4.21952E+01
 -1.74610E+01 +4.84608E+01 -5.14880E+01 +2.67843E+01 -6.36061E+01 -1.34959E+01 -4.65010E+01 -5.37946E+01
 -6.63777E+00 -7.50799E+01 +3.87005E+01 -6.69010E+01 +6.95045E+01 -3.23489E+01 +7.24024E+01 +1.33870E+01
 +4.68561E+01 +5.01502E+01 +5.28761E+00 +6.22281E+01 -3.28737E+01 +4.55818E+01 -5.03491E+01 +9.51162E+00
 -4.00200E+01 -2.79583E+01 -8.02796E+00 -4.87129E+01 +2.94227E+01 -4.30609E+01 +5.39477E+01 -1.41102E+01
 +5.37399E+01 +2.39980E+01 +2.90336E+01 +5.30539E+01 -8.26577E+00 +5.95444E+01 -4.05121E+01 +4.10140E+01
 -5.28907E+01 +7.02430E+00 -4.04923E+01 -2.56649E+01 -1.05227E+01 -4.13042E+01 +2.13515E+01 -3.27725E+01
 +3.86992E+01 -4.95405E+00 +3.23286E+01 +2.77061E+01 +4.75126E+00 +4.82460E+01 -3.10095E+01 +4.54161E+01
 -5.76608E+01 +1.91435E+01 -6.19174E+01 -1.93662E+01 -4.08537E+01 -5.29101E+01 -3.31715E+00 -6.64057E+01
 +3.42346E+01 -5.39720E+01 +5.54591E+01 -2.16295E+01 +5.17332E+01 +1.56180E+01 +2.60498E+01 +4.08825E+01
 -8.58238E+00 +4.32746E+01 -3.54048E+01 +2.28483E+01 -4.18185E+01 -9.67418E+00 -2.51841E+01 -3.81782E+01
 +6.18127E+00 -4.88560E+01 +3.71889E+01 -3.66514E+01 +5.32646E+01 -7.42923E+00 +4.72263E+01 +2.50689E+01
 +2.25011E+01 +4.59336E+01 -8.77194E+00 +4.62020E+01 -3.17488E+01 +2.69828E+01 -3.60555E+01 -1.31563E+00
 -2.06845E+01 -2.41981E+01 +5.69176E+00 -3.01671E+01 +2.90669E+01 -1.62600E+01 +3.69598E+01 +1.05925E+01
 +2.44698E+01 +3.69820E+01 -3.36155E+00 +4.95226E+01 -3.39699E+01 +4.12960E+01 -5.32657E+01 +1.51655E+01
 -5.23191E+01 -1.75843E+01 -3.15498E+01 -4.25893E+01 -4.64956E-01 -4.91523E+01 +2.68755E+01 -3.51891E+01
 +3.84694E+01 -8.06530E+00 +2.99140E+01 +1.90081E+01 +6.29004E+00 +3.32501E+01 -2.04310E+01 +2.82590E+01
 -3.71495E+01 +6.84541E+00 -3.57967E+01 -2.05168E+01 -1.69847E+01 -4.07960E+01 +1.05120E+01 -4.45815E+01
 +3.40995E+01 -3.03984E+01 +4.33910E+01 -5.16938E+00 +3.50280E+01 +1.92990E+01 +1.40449E+01 +3.20452E+01
 -8.78478E+00 +2.81262E+01 -2.22634E+01 +1.07925E+01 -2.01559E+01 -1.03013E+01 -4.07949E+00 -2.39086E+01
 +1.74296E+01 -2.26677E+01 +3.31509E+01 -6.61716E+00 +3.46362E+01 +1.68921E+01 +2.02631E+01 +3.67848E+01
 -4.02069E+00 +4.35811E+01 -2.75644E+01 +3.38935E+01 -4.00736E+01 +1.19789E+01 -3.64320E+01 -1.23400E+01
 -1.90123E+01 -2.83405E+01 +3.56729E+00 -2.94071E+01 +2.05876E+01 -1.60179E+01 +2.42672E+01 +4.64979E+00
 +1.33117E+01 +2.22367E+01 -6.65557E+00 +2.81177E+01 -2.59058E+01 +1.93803E+01 -3.52580E+01 +2.46796E-02
 -3.03430E+01 -2.11003E+01 -1.34907E+01 -3.45661E+01 +7.57525E+00 -3.47712E+01 +2.35262E+01 -2.24131E+01
 +2.78444E+01 -3.92233E+00 +1.97663E+01 +1.17805E+01 +4.41230E+00 +1.75926E+01 -9.87336E+00 +1.15329E+01
 -1.56282E+01 -2.49083E+00 -9.83524E+00 -1.67416E+01 +4.73147E+00 -2.34828E+01 +2.09590E+01 -1.87128E+01
 +3.08841E+01 -4.03193E+00 +2.95126E+01 +1.41952E+01 +1.71526E+01 +2.79225E+01 -8.07698E-01 +3.12373E+01
 -1.65105E+01 +2.30904E+01 -2.33413E+01 +7.68132E+00 -1.89702E+01 -7.62354E+00 -6.31367E+00 -1.57992E+01
 +7.97790E+00 -1.34149E+01 +1.67288E+01 -2.11839E+00 +1.55943E+01 +1.22893E+01 +4.99469E+00 +2.26824E+01
 -1.02289E+01 +2.39617E+01 -2.32001E+01 +1.53516E+01 -2.82515E+01 +6.08387E-01 -2.34870E+01 -1.38802E+01
 -1.14945E+01 -2.21403E+01 +2.05198E+00 -2.13394E+01 +1.11639E+01 -1.29356E+01 +1.23344E+01 -1.77795E+00
 +6.04965E+00 +6.34059E+00 -3.63956E+00 +7.46489E+00 -1.12080E+01 +1.27660E+00 -1.23579E+01 -8.89710E+00
 -6.03880E+00 -1.77997E+01 +5.14090E+00 -2.08139E+01 +1.62444E+01 -1.61418E+01 +2.23912E+01 -5.58664E+00
 +2.10391E+01 +6.38167E+00 +1.30981E+01 +1.47779E+01 +2.39717E+00 +1.64207E+01 -6.18659E+00 +1.13308E+01
 -9.01527E+00 +2.59384E+00 -5.31599E+00 -5.19168E+00 +2.58281E+00 -8.10275E+00 +1.04566E+01 -4.67951E+00
 +1.42138E+01 +3.49774E+00 +1.17768E+01 +1.26551E+01 +3.95529E+00 +1.86412E+01 -6.04251E+00 +1.88323E+01
 -1.41695E+01 +1.32482E+01 -1.74019E+01 +4.40539E+00 -1.50334E+01 -3.95643E+00 -8.84086E+00 -8.63179E+00
 -2.10779E+00 -8.35686E+00 +1.97991E+00 -4.24190E+00 +1.79232E+00 +9.12900E-01 -2.09421E+00 +4.03736E+00
 -7.30654E+00 +3.24939E+00 -1.08929E+01 -1.32320E+00 -1.07408E+01 -7.69920E+00 -6.52927E+00 -1.30501E+01
 +1.95500E-01 -1.50440E+01 +6.80657E+00 -1.28906E+01 +1.08340E+01 -7.62623E+00 +1.10632E+01 -1.55242E+00
 +8.00169E+00 +2.86521E+00 +3.54161E+00 +4.10651E+00 +2.06013E-02 +2.21217E+00 -8.57882E-01 -1.34032E+00
 +1.24944E+00 -4.39616E+00 +5.25416E+00 -5.13585E+00 +9.20600E+00 -2.87241E+00 +1.12059E+01 +1.70496E+00
 +1.02344E+01 +6.90790E+00 +6.53883E+00 +1.08343E+01 +1.44406E+00 +1.21870E+01 -3.28282E+00 +1.07688E+01
 -6.20203E+00 +7.46599E+00 -6.76212E+00 +3.77548E+00 -5.43167E+00 +1.11792E+00 -3.38670E+00 +2.51752E-01
 -1.93010E+00 +1.02650E+00 -1.91559E+00 +2.54626E+00 -3.41885E+00 +3.63343E+00 -5.76899E+00 +3.36796E+00
 -7.89177E+00 +1.46991E+00 -8.79203E+00 -1.61757E+00 -7.96483E+00 -4.94993E+00 -5.57568E+00 -7.48955E+00
 -2.35933E+00 -8.52055E+00 +6.98143E-01 -7.90672E+00 +2.75228E+00 -6.10581E+00 +3.41199E+00 -3.95450E+00
 +2.85839E+00 -2.32210E+00 +1.73896E+00 -1.77111E+00 +8.88720E-01 -2.35032E+00 +9.88909E-01 -3.59114E+00
 +2.29121E+00 -4.70290E+00 +4.50887E+00 -4.89167E+00 +6.91569E+00 -3.68383E+00 +8.61868E+00 -1.13217E+00
 +8.90514E+00 +2.17744E+00 +7.53253E+00 +5.32911E+00 +4.84438E+00 +7.41979E+00 +1.65685E+00 +7.91194E+00
 -1.05085E+00 +6.85361E+00 -2.52563E+00 +4.86706E+00 -2.55052E+00 +2.89743E+00 -1.53856E+00 +1.81448E+00
 -3.57271E-01 +2.03157E+00 +5.49757E-02 +3.31047E+00 -8.78127E-01 +4.85023E+00 -3.08120E+00 +5.63684E+00
 -5.82161E+00 +4.91027E+00 -8.00788E+00 +2.54115E+00 -8.67270E+00 -8.62730E-01 -7.42723E+00 -4.18584E+00
 -4.67308E+00 -6.28343E+00 -1.45892E+00 -6.49975E+00 +9.70940E-01 -4.98528E+00 +1.74044E+00 -2.65336E+00
 +7.58490E-01 -7.78112E-01 -1.21510E+00 -4.05681E-01 -2.90226E+00 -1.84807E+00 -3.09858E+00 -4.50269E+00
 -1.25588E+00 -7.09735E+00 +2.22085E+00 -8.26262E+00 +6.11393E+00 -7.17389E+00 +8.92099E+00 -3.96249E+00
 +9.53459E+00 +3.06314E-01 +7.75805E+00 +4.09144E+00 +4.40978E+00 +6.06655E+00 +9.57107E-01 +5.72341E+00
 -1.15747E+00 +3.60154E+00 -1.18492E+00 +1.02914E+00 +5.83698E-01 -5.09780E-01 +2.96185E+00 -8.66552E-02
 +4.44091E+00 +2.22005E+00 +3.92388E+00 +5.35211E+00 +1.26988E+00 +7.77090E+00 -2.61454E+00 +8.19546E+00
 -6.18728E+00 +6.22785E+00 -7.99474E+00 +2.56350E+00 -7.36407E+00 -1.32005E+00 -4.73065E+00 -3.85327E+00
 -1.43901E+00 -4.11693E+00 +8.93364E-01 -2.28062E+00 +1.14864E+00 +4.75807E-01 -7.51347E-01 +2.52556E+00
 -3.79845E+00 +2.57717E+00 -6.37118E+00 +3.03265E-01 -7.00491E+00 -3.48568E+00 -5.09340E+00 -7.20789E+00
 -1.18781E+00 -9.24470E+00 +3.24953E+00 -8.69441E+00 +6.51891E+00 -5.78845E+00 +7.46401E+00 -1.77441E+00
 +5.98970E+00 +1.67461E+00 +3.07491E+00 +3.24008E+00 +2.81425E-01 +2.55583E+00 -1.00045E+00 +3.42963E-01
 -2.06168E-01 -1.97375E+00 +2.15894E+00 -2.97539E+00 +4.79426E+00 -1.93859E+00 +6.25542E+00 +8.25120E-01
 +5.66200E+00 +4.13654E+00 +3.11936E+00 +6.53256E+00 -3.43539E-01 +6.97689E+00 -3.28162E+00 +5.35246E+00
 -4.53319E+00 +2.50123E+00 -3.77003E+00 -1.99308E-01 -1.63504E+00 -1.51004E+00 +5.91150E-01 -9.24412E-01
 +1.62478E+00 +1.10230E+00 +8.02792E-01 +3.39175E+00 -1.60398E+00 +4.62463E+00 -4.53187E+00 +3.97887E+00
 -6.64092E+00 +1.51683E+00 -6.95020E+00 -1.85689E+00 -5.28546E+00 -4.83388E+00 -2.33281E+00 -6.31496E+00
 +7.12045E-01 -5.90005E+00 +2.71525E+00 -4.02812E+00 +3.11523E+00 -1.71747E+00 +2.13273E+00 -5.08603E-02
 +5.97354E-01 +3.34143E-01 -5.02889E-01 -4.94243E-01 -5.14067E-01 -1.86044E+00 +5.91160E-01 -2.86752E+00
 +2.25080E+00 -2.86256E+00 +3.64003E+00 -1.74664E+00 +4.10520E+00 +1.43338E-02 +3.48122E+00 +1.66335E+00
 +2.13981E+00 +2.55408E+00 +7.61799E-01 +2.46880E+00 -3.31547E-02 +1.69555E+00 -3.08064E-04 +8.39991E-01
 +6.31149E-01 +4.85359E-01 +1.31224E+00 +8.85923E-01 +1.48604E+00 +1.85181E+00 +8.84430E-01 +2.87402E+00
 -3.45293E-01 +3.40943E+00 -1.74070E+00 +3.16534E+00 -2.78358E+00 +2.23189E+00 -3.16870E+00 +1.00125E+00
 -2.93513E+00 -6.82674E-02 -2.39675E+00 -7.02376E-01 -1.92392E+00 -9.32931E-01 -1.71163E+00 -1.02850E+00
 -1.67278E+00 -1.28319E+00 -1.51925E+00 -1.79666E+00 -9.80269E-01 -2.38374E+00 -2.26990E-02 -2.67582E+00
 +1.06880E+00 -2.36064E+00 +1.81586E+00 -1.41860E+00 +1.81826E+00 -2.04869E-01 +1.02191E+00 +6.92976E-01
 -1.81586E-01 +7.64002E-01 -1.10592E+00 -1.13596E-01 -1.11565E+00 -1.53959E+00 +7.94775E-03 -2.73797E+00
 +1.88565E+00 -2.93388E+00 +3.66692E+00 -1.77750E+00 +4.42905E+00 +4.13621E-01 +3.65982E+00 +2.74600E+00
 +1.57086E+00 +4.15977E+00 -9.43650E-01 +3.96714E+00 -2.71373E+00 +2.24363E+00 -2.88222E+00 -1.49600E-01
 -1.37845E+00 -1.95633E+00 +9.83693E-01 -2.15727E+00 +2.86678E+00 -5.29574E-01 +3.07764E+00 +2.16715E+00
 +1.21613E+00 +4.50736E+00 -2.03727E+00 +5.09402E+00 -5.17538E+00 +3.29896E+00 -6.57186E+00 -3.32848E-01
 -5.31219E+00 -4.25244E+00 -1.72878E+00 -6.60782E+00 +2.65827E+00 -6.15834E+00 +5.80979E+00 -2.95076E+00
 +6.15028E+00 +1.60511E+00 +3.38844E+00 +5.34265E+00 -1.25052E+00 +6.36722E+00 -5.53720E+00 +4.01705E+00
 -7.28512E+00 -7.31200E-01 -5.44063E+00 -5.65016E+00 -6.72219E-01 -8.29597E+00 +4.86429E+00 -7.20947E+00
 +8.51382E+00 -2.69368E+00 +8.41138E+00 +3.24320E+00 +4.44617E+00 +7.79552E+00 -1.59693E+00 +8.71034E+00
 -6.83071E+00 +5.43045E+00 -8.64568E+00 -5.49083E-01 -6.01920E+00 -6.32702E+00 -9.90315E-02 -8.97215E+00
 +6.26369E+00 -6.98064E+00 +9.85028E+00 -1.09444E+00 +8.65712E+00 +5.95597E+00 +2.95177E+00 +1.07073E+01
