 Created: 16-Jan-2021
 $NMID
 ID='D:\BASISSIMULATI'
 FMTDAT='(8E13.5)'
 VOLUME=   1.00000E+00
 TRAMP=   1.00000E+00
 $END
 +2.38426E+01 +1.56231E+00 +1.72066E+01 +1.50167E+01 +3.44384E+00 +1.97725E+01 -8.82155E+00 +1.35146E+01
 -1.21198E+01 +1.04780E+00 -5.02139E+00 -8.94748E+00 +7.04547E+00 -9.68397E+00 +1.55244E+01 -6.66756E-01
 +1.44152E+01 +1.21710E+01 +4.08513E+00 +2.05494E+01 -9.23134E+00 +1.92828E+01 -1.77157E+01 +9.44407E+00
 -1.70237E+01 -2.69339E+00 -8.77755E+00 -9.98210E+00 +9.42089E-01 -8.96203E+00 +5.81660E+00 -1.69293E+00
 +3.27272E+00 +6.08347E+00 -4.30049E+00 +8.92440E+00 -1.15900E+01 +5.04771E+00 -1.39898E+01 -2.99157E+00
 -1.03343E+01 -1.04089E+01 -3.13196E+00 -1.33866E+01 +3.48607E+00 -1.12024E+01 +6.47082E+00 -6.13131E+00
 +5.42784E+00 -1.55819E+00 +2.29801E+00 +2.06993E-01 -2.78730E-01 -9.84823E-01 -6.32999E-01 -3.55528E+00
 +1.24891E+00 -5.52479E+00 +4.17499E+00 -5.69838E+00 +6.72894E+00 -4.04552E+00 +8.02444E+00 -1.31865E+00
 +7.87579E+00 +1.57151E+00 +6.55126E+00 +3.94361E+00 +4.49547E+00 +5.39517E+00 +2.23555E+00 +5.73443E+00
 +3.77331E-01 +5.01878E+00 -5.25170E-01 +3.67806E+00 -2.76588E-01 +2.49445E+00 +6.96306E-01 +2.27247E+00
 +1.42866E+00 +3.32148E+00 +9.33117E-01 +5.12256E+00 -1.13242E+00 +6.50830E+00 -4.12063E+00 +6.33774E+00
 -6.68390E+00 +4.25572E+00 -7.57187E+00 +1.00435E+00 -6.42703E+00 -1.97228E+00 -4.03352E+00 -3.40331E+00
 -1.83158E+00 -2.97319E+00 -1.01172E+00 -1.48912E+00 -1.78790E+00 -3.28697E-01 -3.31875E+00 -5.47022E-01
 -4.29928E+00 -2.23502E+00 -3.80382E+00 -4.52517E+00 -1.82567E+00 -6.19188E+00 +7.98256E-01 -6.41426E+00
 +2.96423E+00 -5.20813E+00 +3.96061E+00 -3.30240E+00 +3.79407E+00 -1.61646E+00 +3.04124E+00 -7.21587E-01
 +2.40496E+00 -6.12653E-01 +2.30333E+00 -8.59125E-01 +2.72610E+00 -9.52781E-01 +3.36736E+00 -5.93258E-01
 +3.86763E+00 +2.34329E-01 +3.98352E+00 +1.35480E+00 +3.62020E+00 +2.53507E+00 +2.78932E+00 +3.55097E+00
 +1.58658E+00 +4.19414E+00 +2.13232E-01 +4.29395E+00 -1.02097E+00 +3.79925E+00 -1.78754E+00 +2.87277E+00
 -1.91453E+00 +1.89180E+00 -1.53688E+00 +1.29226E+00 -1.08559E+00 +1.31454E+00 -1.07044E+00 +1.81360E+00
 -1.76196E+00 +2.28823E+00 -2.97572E+00 +2.15330E+00 -4.12350E+00 +1.10855E+00 -4.53280E+00 -6.29571E-01
 -3.85483E+00 -2.40024E+00 -2.30648E+00 -3.45521E+00 -5.81208E-01 -3.39531E+00 +5.34660E-01 -2.41896E+00
 +6.17252E-01 -1.22141E+00 -1.42425E-01 -5.94051E-01 -1.04644E+00 -9.57609E-01 -1.30079E+00 -2.10719E+00
 -4.89465E-01 -3.32398E+00 +1.16766E+00 -3.79186E+00 +2.92663E+00 -3.07713E+00 +3.93856E+00 -1.39150E+00
 +3.73469E+00 +5.15975E-01 +2.49676E+00 +1.77808E+00 +9.55186E-01 +1.89936E+00 -2.85522E-02 +1.03450E+00
 +4.39746E-02 -1.07038E-01 +1.02302E+00 -6.77199E-01 +2.20124E+00 -1.87078E-01 +2.72995E+00 +1.20279E+00
 +2.12082E+00 +2.77068E+00 +5.39726E-01 +3.65207E+00 -1.28157E+00 +3.34509E+00 -2.46694E+00 +2.00590E+00
 -2.50344E+00 +3.57990E-01 -1.53447E+00 -7.32095E-01 -2.64360E-01 -7.60610E-01 +4.67316E-01 +1.27258E-01
 +1.85324E-01 +1.24002E+00 -9.47123E-01 +1.76540E+00 -2.24018E+00 +1.25896E+00 -2.90024E+00 -9.78839E-02
 -2.50291E+00 -1.61904E+00 -1.23211E+00 -2.52960E+00 +2.47863E-01 -2.41793E+00 +1.19489E+00 -1.45478E+00
 +1.21495E+00 -2.63127E-01 +4.61516E-01 +4.63751E-01 -4.90897E-01 +3.57670E-01 -1.00105E+00 -4.42722E-01
 -7.23490E-01 -1.40765E+00 +2.22571E-01 -1.93676E+00 +1.34974E+00 -1.68936E+00 +2.08434E+00 -7.48399E-01
 +2.06803E+00 +4.47255E-01 +1.32739E+00 +1.34291E+00 +2.44070E-01 +1.54747E+00 -6.42692E-01 +1.01990E+00
 -9.01909E-01 +8.47856E-02 -4.25355E-01 -7.24869E-01 +5.06375E-01 -9.30673E-01 +1.34695E+00 -3.62187E-01
 +1.55709E+00 +7.24860E-01 +9.06191E-01 +1.74672E+00 -3.58775E-01 +2.08756E+00 -1.59792E+00 +1.45644E+00
 -2.10970E+00 +1.02138E-01 -1.54673E+00 -1.26993E+00 -1.69352E-01 -1.87397E+00 +1.24761E+00 -1.31822E+00
 +1.84262E+00 +1.12137E-01 +1.19674E+00 +1.56912E+00 -3.64956E-01 +2.12449E+00 -1.91707E+00 +1.34720E+00
 -2.47076E+00 -3.87012E-01 -1.59122E+00 -2.07417E+00 +2.92946E-01 -2.66965E+00 +2.10439E+00 -1.73719E+00
 +2.74904E+00 +2.47100E-01 +1.78915E+00 +2.14301E+00 -2.60026E-01 +2.81500E+00 -2.20657E+00 +1.82345E+00
 -2.87965E+00 -2.84519E-01 -1.83592E+00 -2.27228E+00 +3.51009E-01 -2.93396E+00 +2.40076E+00 -1.81658E+00
 +3.06537E+00 +4.84532E-01 +1.87177E+00 +2.64182E+00 -5.68321E-01 +3.35370E+00 -2.87537E+00 +2.11471E+00
 -3.68267E+00 -4.51532E-01 -2.44334E+00 -2.90837E+00 +2.07037E-01 -3.81580E+00 +2.76755E+00 -2.58364E+00
 +3.71994E+00 +1.32765E-01 +2.43610E+00 +2.75701E+00 -3.93892E-01 +3.68891E+00 -3.10397E+00 +2.27213E+00
 -4.00972E+00 -7.51290E-01 -2.43774E+00 -3.61372E+00 +8.03506E-01 -4.54910E+00 +3.84107E+00 -2.88057E+00
 +4.83957E+00 +5.06627E-01 +3.13782E+00 +3.64059E+00 -2.93764E-01 +4.63988E+00 -3.39794E+00 +2.88399E+00
 -4.27693E+00 -5.64033E-01 -2.37665E+00 -3.57895E+00 +1.14441E+00 -4.27659E+00 +4.11482E+00 -2.18812E+00
 +4.69154E+00 +1.44103E+00 +2.49894E+00 +4.42344E+00 -1.15361E+00 +4.98444E+00 -4.10317E+00 +2.84056E+00
 -4.67177E+00 -6.68985E-01 -2.66151E+00 -3.45159E+00 +5.97166E-01 -3.95134E+00 +3.12453E+00 -2.04276E+00
 +3.50079E+00 +9.92612E-01 +1.64772E+00 +3.32141E+00 -1.24574E+00 +3.65715E+00 -3.51762E+00 +1.92815E+00
 -3.99669E+00 -8.18336E-01 -2.56537E+00 -3.11097E+00 -7.89730E-02 -3.86611E+00 +2.19315E+00 -2.86490E+00
 +3.22033E+00 -7.29101E-01 +2.63082E+00 +1.47049E+00 +7.87450E-01 +2.71186E+00 -1.41359E+00 +2.42307E+00
 -2.90251E+00 +6.99489E-01 -2.86244E+00 -1.69492E+00 -1.12566E+00 -3.57782E+00 +1.62290E+00 -3.84841E+00
 +4.02553E+00 -2.09191E+00 +4.67272E+00 +1.02834E+00 +2.93420E+00 +3.92742E+00 -4.87519E-01 +4.88441E+00
 -3.74221E+00 +3.10437E+00 -4.81733E+00 -6.06153E-01 -2.82043E+00 -4.10549E+00 +1.27264E+00 -5.12606E+00
 +5.01519E+00 -2.75210E+00 +5.93300E+00 +1.81512E+00 +3.15884E+00 +5.82832E+00 -1.84310E+00 +6.66641E+00
 -6.05270E+00 +3.57610E+00 -6.77395E+00 -1.69964E+00 -3.42604E+00 -5.91811E+00 +1.97237E+00 -6.38851E+00
 +6.02127E+00 -2.75178E+00 +6.11411E+00 +2.71708E+00 +2.14671E+00 +6.53303E+00 -3.38609E+00 +6.24181E+00
 -6.98934E+00 +2.00440E+00 -6.41327E+00 -3.51985E+00 -2.06981E+00 -6.90236E+00 +3.28826E+00 -6.13368E+00
 +6.37224E+00 -1.84251E+00 +5.43241E+00 +3.20375E+00 +1.26558E+00 +5.91958E+00 -3.42393E+00 +4.81545E+00
 -5.79951E+00 +7.96136E-01 -4.61067E+00 -3.56819E+00 -8.00605E-01 -5.71454E+00 +3.25640E+00 -4.59015E+00
 +5.27565E+00 -1.10199E+00 +4.34623E+00 +2.62106E+00 +1.26632E+00 +4.55934E+00 -2.11384E+00 +3.87976E+00
 -4.00964E+00 +1.20825E+00 -3.59859E+00 -1.89733E+00 -1.28405E+00 -3.84235E+00 +1.66250E+00 -3.74835E+00
 +3.78022E+00 -1.76113E+00 +4.07360E+00 +1.11101E+00 +2.41267E+00 +3.47947E+00 -4.20086E-01 +4.18115E+00
 -3.04664E+00 +2.80984E+00 -4.09941E+00 -2.94209E-02 -2.91210E+00 -2.91120E+00 +3.25921E-02 -4.24119E+00
 +3.21150E+00 -3.12239E+00 +4.79647E+00 +2.87064E-02 +3.69888E+00 +3.55319E+00 +3.21021E-01 +5.39780E+00
 -3.51952E+00 +4.32868E+00 -5.56823E+00 +7.79707E-01 -4.49731E+00 -3.26406E+00 -8.11105E-01 -5.38160E+00
 +3.34004E+00 -4.20239E+00 +5.40791E+00 -3.30806E-01 +4.02380E+00 +3.92927E+00 -9.20942E-02 +5.94213E+00
 -4.50470E+00 +4.37457E+00 -6.53070E+00 +6.30495E-02 -4.89662E+00 -4.45898E+00 -5.44380E-01 -6.50114E+00
 +3.93208E+00 -4.86821E+00 +5.87300E+00 -5.92496E-01 +4.17423E+00 +3.70635E+00 -5.76163E-02 +5.42710E+00
 -4.20439E+00 +3.55928E+00 -5.73771E+00 -7.35833E-01 -3.73083E+00 -4.86384E+00 +6.26203E-01 -6.37412E+00
 +4.78478E+00 -4.40628E+00 +6.37558E+00 -1.51167E-01 +4.58951E+00 +3.90974E+00 +5.96975E-01 +5.49324E+00
 -3.20122E+00 +3.83336E+00 -4.60890E+00 +7.05934E-02 -2.89729E+00 -3.47587E+00 +8.25497E-01 -4.68856E+00
 +4.31528E+00 -2.86544E+00 +5.51962E+00 +9.22719E-01 +3.74884E+00 +4.50353E+00 +2.63934E-02 +5.88120E+00
 -3.55244E+00 +4.36943E+00 -5.05161E+00 +9.36526E-01 -3.79095E+00 -2.40667E+00 -6.85822E-01 -3.79236E+00
 +2.33737E+00 -2.55598E+00 +3.48161E+00 +4.31188E-01 +2.10167E+00 +3.32010E+00 -9.72076E-01 +4.37815E+00
 -3.96467E+00 +2.97159E+00 -5.20173E+00 -1.19867E-01 -4.04953E+00 -3.20429E+00 -1.22129E+00 -4.66934E+00
 +1.68966E+00 -3.87786E+00 +3.14388E+00 -1.46838E+00 +2.50595E+00 +1.07245E+00 +3.42736E-01 +2.28216E+00
 -1.95955E+00 +1.52833E+00 -3.00415E+00 -6.90020E-01 -2.14896E+00 -3.07586E+00 +1.82308E-01 -4.27917E+00
 +2.77923E+00 -3.62699E+00 +4.32729E+00 -1.45172E+00 +4.10919E+00 +1.13013E+00 +2.35673E+00 +2.84096E+00
 +8.89171E-02 +2.92100E+00 -1.45559E+00 +1.50875E+00 -1.48173E+00 -4.62151E-01 -5.05301E-02 -1.78092E+00
 +1.96753E+00 -1.61379E+00 +3.36742E+00 +4.86264E-02 +3.26083E+00 +2.38433E+00 +1.56039E+00 +4.17756E+00
 -9.62104E-01 +4.47207E+00 -3.08067E+00 +3.09332E+00 -3.77364E+00 +7.55602E-01 -2.78422E+00 -1.31376E+00
 -7.74229E-01 -2.04075E+00 +1.02594E+00 -1.10390E+00 +1.49446E+00 +8.67240E-01 +2.57641E-01 +2.61993E+00
 -2.06768E+00 +2.97050E+00 -4.18328E+00 +1.48770E+00 -4.82255E+00 -1.22031E+00 -3.48263E+00 -3.80026E+00
 -7.56807E-01 -4.89415E+00 +1.94972E+00 -3.92570E+00 +3.19592E+00 -1.47773E+00 +2.35100E+00 +9.89716E-01
 +1.38247E-02 +1.96141E+00 -2.27777E+00 +7.77763E-01 -2.92759E+00 -1.90930E+00 -1.26129E+00 -4.45034E+00
 +1.98984E+00 -5.15145E+00 +5.04294E+00 -3.32632E+00 +6.10214E+00 +2.03939E-01 +4.48098E+00 +3.52354E+00
 +1.10156E+00 +4.75665E+00 -1.99675E+00 +3.25303E+00 -2.89544E+00 +6.48146E-02 -1.03266E+00 -2.64412E+00
 +2.36806E+00 -2.94332E+00 +5.00784E+00 -4.03299E-01 +4.96273E+00 +3.55179E+00 +1.95937E+00 +6.48973E+00
 -2.37641E+00 +6.51661E+00 -5.51093E+00 +3.53161E+00 -5.62736E+00 -6.55476E-01 -2.82577E+00 -3.46410E+00
 +9.14920E-01 -3.21998E+00 +3.02027E+00 -2.63545E-01 +2.01691E+00 +3.26350E+00 -1.48735E+00 +4.83147E+00
 -5.20447E+00 +3.20089E+00 -6.68635E+00 -7.59135E-01 -4.94270E+00 -4.66135E+00 -1.06986E+00 -6.19396E+00
 +2.51961E+00 -4.63432E+00 +3.72219E+00 -1.26749E+00 +2.10953E+00 +1.54385E+00 -8.74951E-01 +1.96888E+00
 -2.97534E+00 -1.11897E-01 -2.66713E+00 -3.13190E+00 -1.19164E-01 -4.98703E+00 +3.03995E+00 -4.46434E+00
 +4.91118E+00 -1.96665E+00 +4.59183E+00 +9.02823E-01 +2.65471E+00 +2.51608E+00 +5.89033E-01 +2.28455E+00
