 Created: 16-Jan-2021
 $NMID
 ID='D:\BASISSIMULATI'
 FMTDAT='(8E13.5)'
 VOLUME=   1.00000E+00
 TRAMP=   1.00000E+00
 $END
 +2.52870E+01 +1.23678E-01 +1.59661E+01 +1.95685E+01 -4.94130E+00 +2.47351E+01 -2.22031E+01 +1.19024E+01
 -2.32764E+01 -9.55306E+00 -7.42137E+00 -2.40081E+01 +1.37904E+01 -2.09691E+01 +2.49211E+01 -2.68991E+00
 +1.79023E+01 +1.74994E+01 -2.11675E+00 +2.49132E+01 -2.05463E+01 +1.41925E+01 -2.39892E+01 -6.82146E+00
 -9.97946E+00 -2.28224E+01 +1.12517E+01 -2.21877E+01 +2.42479E+01 -5.42056E+00 +1.95793E+01 +1.52461E+01
 +6.85192E-01 +2.47745E+01 -1.86597E+01 +1.62640E+01 -2.43875E+01 -4.05163E+00 -1.23673E+01 -2.13701E+01
 +8.61571E+00 -2.31056E+01 +2.32811E+01 -8.03535E+00 +2.09806E+01 +1.28401E+01 +3.42964E+00 +2.43264E+01
 -1.65711E+01 +1.80947E+01 -2.44719E+01 -1.27909E+00 -1.45578E+01 -1.96741E+01 +5.91718E+00 -2.37167E+01
 +2.20381E+01 -1.05034E+01 +2.20933E+01 +1.03144E+01 +6.08306E+00 +2.35798E+01 -1.43103E+01 +1.96656E+01
 -2.42467E+01 +1.46120E+00 -1.65269E+01 -1.77600E+01 +3.19122E+00 -2.40186E+01 +2.05393E+01 -1.27962E+01
 +2.29085E+01 +7.70296E+00 +8.61362E+00 +2.25493E+01 -1.19088E+01 +2.09615E+01 -2.37201E+01 +4.13530E+00
 -1.82535E+01 -1.56557E+01 +4.72618E-01 -2.40128E+01 +1.88081E+01 -1.48878E+01 +2.34210E+01 +5.04006E+00
 +1.09916E+01 +2.12530E+01 -9.39926E+00 +2.19710E+01 -2.29042E+01 +6.71072E+00 -1.97202E+01 -1.33910E+01
 -2.20452E+00 -2.37048E+01 +1.68703E+01 -1.67556E+01 +2.36298E+01 +2.36014E+00 +1.31898E+01 +1.97117E+01
 -6.81513E+00 +2.26862E+01 -2.18141E+01 +9.15673E+00 -2.09131E+01 -1.09972E+01 -4.80722E+00 -2.31038E+01
 +1.47539E+01 -1.83799E+01 +2.35374E+01 -3.02748E-01 +1.51835E+01 +1.79492E+01 -4.19028E+00 +2.31034E+01
 -2.04684E+01 +1.14448E+01 -2.18219E+01 -8.50669E+00 -7.30402E+00 -2.22224E+01 +1.24886E+01 -1.97445E+01
 +2.31504E+01 -2.91539E+00 +1.69514E+01 +1.59914E+01 -1.55844E+00 +2.32224E+01 -1.88885E+01 +1.35489E+01
 -2.24402E+01 -5.95253E+00 -9.66532E+00 -2.10766E+01 +1.01057E+01 -2.08367E+01 +2.24786E+01 -5.44577E+00
 +1.84750E+01 +1.38664E+01 +1.04712E+00 +2.30471E+01 -1.70984E+01 +1.54458E+01 -2.27651E+01 -3.36798E+00
 -1.18638E+01 -1.96854E+01 +7.63709E+00 -2.16475E+01 +2.15356E+01 -7.86346E+00 +1.97394E+01 +1.16040E+01
 +3.59406E+00 +2.25846E+01 -1.51242E+01 +1.71151E+01 -2.27978E+01 -7.86102E-01 -1.38745E+01 -1.80707E+01
 +5.11539E+00 -2.21717E+01 +2.03379E+01 -1.01400E+01 +2.07333E+01 +9.23487E+00 +6.05133E+00 +2.18459E+01
 -1.29941E+01 +1.85398E+01 -2.25429E+01 +1.76065E+00 -1.56755E+01 -1.62567E+01 +2.57326E+00 -2.24076E+01
 +1.89051E+01 -1.22492E+01 +2.14489E+01 +6.79082E+00 +8.38957E+00 +2.08450E+01 -1.07375E+01 +1.97063E+01
 -2.20087E+01 +4.24082E+00 -1.72478E+01 -1.42696E+01 +4.30770E-02 -2.23573E+01 +1.72592E+01 -1.41674E+01
 +2.18819E+01 +4.30391E+00 +1.05814E+01 +1.95992E+01 -8.38511E+00 +2.06043E+01 -2.12067E+01 +6.62435E+00
 -1.85755E+01 -1.21375E+01 -2.44353E+00 -2.20264E+01 +1.54248E+01 -1.58737E+01 +2.20320E+01 +1.80618E+00
 +1.26018E+01 +1.81284E+01 -5.96817E+00 +2.12274E+01 -2.01517E+01 +8.88292E+00 -1.96462E+01 -9.88983E+00
 -4.85601E+00 -2.14240E+01 +1.34281E+01 -1.73505E+01 +2.19020E+01 -6.70723E-01 +1.44284E+01 +1.64549E+01
 -3.51824E+00 +2.15723E+01 -1.88615E+01 +1.09903E+01 -2.04509E+01 -7.55683E+00 -7.16528E+00 -2.05624E+01
 +1.12973E+01 -1.85831E+01 +2.14986E+01 -3.09599E+00 +1.60414E+01 +1.46036E+01 -1.06675E+00 +2.16396E+01
 -1.73562E+01 +1.29225E+01 -2.09841E+01 -5.16938E+00 -9.34408E+00 -1.94569E+01 +9.06136E+00 -1.95603E+01
 +2.08316E+01 -5.43999E+00 +1.74244E+01 +1.26006E+01 +1.35543E+00 +2.14333E+01 -1.56588E+01 +1.46584E+01
 -2.12439E+01 -2.75850E+00 -1.13673E+01 -1.81258E+01 +6.75036E+00 -2.02742E+01 +1.99139E+01 -7.67462E+00
 +1.85638E+01 +1.04740E+01 +3.71830E+00 +2.09608E+01 -1.37938E+01 +1.61794E+01 -2.12316E+01 -3.54923E-01
 -1.32120E+01 -1.65897E+01 +4.39467E+00 -2.07204E+01 +1.87616E+01 -9.77367E+00 +1.94497E+01 +8.25256E+00
 +5.99315E+00 +2.02326E+01 -1.17876E+01 +1.74703E+01 -2.09523E+01 +2.01120E+00 -1.48583E+01 -1.48715E+01
 +2.02474E+00 -2.08979E+01 +1.73931E+01 -1.17131E+01 +2.00753E+01 +5.96599E+00 +8.15288E+00 +1.92625E+01
 -9.66809E+00 +1.85187E+01 -2.04141E+01 +4.31074E+00 -1.62888E+01 -1.29961E+01 -3.29352E-01 -2.08093E+01
 +1.58296E+01 -1.34712E+01 +2.04373E+01 +3.64419E+00 +1.01723E+01 +1.80667E+01 -7.46380E+00 +1.93157E+01
 -1.96283E+01 +6.51591E+00 -1.74893E+01 -1.09898E+01 -2.63824E+00 -2.04602E+01 +1.40940E+01 -1.50291E+01
 +2.05357E+01 +1.31700E+00 +1.20285E+01 +1.66644E+01 -5.20398E+00 +1.98556E+01 -1.86091E+01 +8.60060E+00
 -1.84487E+01 -8.88011E+00 -4.87366E+00 -1.98597E+01 +1.22113E+01 -1.63706E+01 +2.03738E+01 -9.86185E-01
 +1.37008E+01 +1.50767E+01 -2.91806E+00 +2.01361E+01 -1.73733E+01 +1.05407E+01 -1.91591E+01 -6.69543E+00
 -7.00873E+00 -1.90196E+01 +1.02076E+01 -1.74826E+01 +1.99582E+01 -3.23679E+00 +1.51715E+01 +1.33269E+01
 -6.35267E-01 +2.01582E+01 -1.59404E+01 +1.23142E+01 -1.96160E+01 -4.46455E+00 -9.01834E+00 -1.79547E+01
 +8.11046E+00 -1.83551E+01 +1.92987E+01 -5.40739E+00 +1.64256E+01 +1.14398E+01 +1.61571E+00 +1.99262E+01
 -1.43319E+01 +1.39018E+01 -1.98179E+01 -2.21637E+00 -1.08794E+01 -1.66824E+01 +5.94774E+00 -1.89813E+01
 +1.84076E+01 -7.47207E+00 +1.74510E+01 +9.44168E+00 +3.80710E+00 +1.94474E+01 -1.25709E+01 +1.52866E+01
 -1.97668E+01 +2.05063E-02 -1.25710E+01 -1.52222E+01 +3.74786E+00 -1.93577E+01 +1.73004E+01 -9.40668E+00
 +1.82388E+01 +7.35951E+00 +5.91234E+00 +1.87321E+01 -1.06824E+01 +1.64549E+01 -1.94677E+01 +2.21811E+00
 -1.40748E+01 -1.35959E+01 +1.53916E+00 -1.94838E+01 +1.59947E+01 -1.11891E+01 +1.87833E+01 +5.22099E+00
 +7.90644E+00 +1.77934E+01 -8.69237E+00 +1.73956E+01 -1.89288E+01 +4.34947E+00 -1.53753E+01 -1.18267E+01
 -6.50403E-01 -1.93624E+01 +1.45104E+01 -1.27996E+01 +1.90818E+01 +3.05404E+00 +9.76622E+00 +1.66471E+01
 -6.62760E+00 +1.81010E+01 -1.81610E+01 +6.38891E+00 -1.64595E+01 -9.93953E+00 -2.79359E+00 -1.89994E+01
 +1.28694E+01 -1.42209E+01 +1.91349E+01 +8.86428E-01 +1.14706E+01 +1.53113E+01 -4.51540E+00 +1.85662E+01
 -1.71779E+01 +8.31234E+00 -1.73175E+01 -7.96013E+00 -4.86423E+00 -1.84035E+01 +1.10949E+01 -1.54384E+01
 +1.89462E+01 -1.25454E+00 +1.30009E+01 +1.38059E+01 -2.38319E+00 +1.87895E+01 -1.59957E+01 +1.00976E+01
 -1.79426E+01 -5.91504E+00 -6.83753E+00 -1.75863E+01 +9.21167E+00 -1.64402E+01 +1.85222E+01 -3.34238E+00
 +1.43408E+01 +1.21530E+01 -2.58155E-01 +1.87724E+01 -1.46328E+01 +1.17246E+01 -1.83309E+01 -3.83114E+00
 -8.69033E+00 -1.65620E+01 +7.24534E+00 -1.72177E+01 +1.78725E+01 -5.35173E+00 +1.54768E+01 +1.03760E+01
 +1.83307E+00 +1.85192E+01 -1.31094E+01 +1.31756E+01 -1.84817E+01 -1.73536E+00 -1.04014E+01 -1.53470E+01
 +5.22208E+00 -1.77648E+01 +1.70091E+01 -7.25866E+00 +1.63982E+01 +8.49929E+00 +3.86474E+00 +1.80374E+01
 -1.14475E+01 +1.44355E+01 -1.83972E+01 +3.45724E-01 -1.19517E+01 -1.39600E+01 +3.16836E+00 -1.80787E+01
 +1.59466E+01 -9.04096E+00 +1.70970E+01 +6.54832E+00 +5.81233E+00 +1.73368E+01 -9.67054E+00 +1.54916E+01
 -1.80825E+01 +2.38616E+00 -1.33245E+01 -1.24215E+01 +1.11058E+00 -1.81596E+01 +1.47019E+01 -1.06784E+01
 +1.75685E+01 +4.54894E+00 +7.65279E+00 +1.64302E+01 -7.80280E+00 +1.63343E+01 -1.75457E+01 +4.36098E+00
 -1.45057E+01 -1.07534E+01 -9.25306E-01 -1.80104E+01 +1.32938E+01 -1.21528E+01 +1.78105E+01 +2.52716E+00
 +9.36481E+00 +1.53326E+01 -5.86939E+00 +1.69567E+01 -1.67974E+01 +6.24645E+00 -1.54836E+01 -8.97904E+00
 -2.91404E+00 -1.76371E+01 +1.17429E+01 -1.34485E+01 +1.78241E+01 +5.08828E-01 +1.09291E+01 +1.40611E+01
 -3.89582E+00 +1.73547E+01 -1.58506E+01 +8.02041E+00 -1.62495E+01 -7.12257E+00 -4.83140E+00 -1.70483E+01
 +1.00712E+01 -1.45523E+01 +1.76131E+01 -1.48072E+00 +1.23285E+01 +1.26348E+01 -1.90761E+00 +1.75273E+01
 -1.47208E+01 +9.66246E+00 -1.67975E+01 -5.20881E+00 -6.65450E+00 -1.62551E+01 +8.30191E+00 -1.54536E+01
 +1.71840E+01 -3.41692E+00 +1.35483E+01 +1.10742E+01 +6.99331E-02 +1.74763E+01 -1.34254E+01 +1.11542E+01
 -1.71245E+01 -3.26285E+00 -8.36204E+00 -1.52711E+01 +6.45894E+00 -1.61447E+01 +1.65460E+01 -5.27635E+00
 +1.45762E+01 +9.40149E+00 +2.01211E+00 +1.72061E+01 -1.19836E+01 +1.24796E+01 -1.72302E+01 -1.30975E+00
 -9.93452E+00 -1.41120E+01 +4.56679E+00 -1.66205E+01 +1.57109E+01 -7.03692E+00 +1.54027E+01 +7.63957E+00
 +3.89509E+00 +1.67240E+01 -1.04160E+01 +1.36247E+01 -1.71171E+01 +6.25782E-01 -1.13545E+01 -1.27955E+01
 +2.65015E+00 -1.68788E+01 +1.46926E+01 -8.67821E+00 +1.60209E+01 +5.81220E+00 +5.69620E+00 +1.60398E+01
 -8.74467E+00 +1.45783E+01 -1.67905E+01 +2.51968E+00 -1.26068E+01 -1.13409E+01 +7.33567E-01 -1.69200E+01
 +1.35070E+01 -1.01816E+01 +1.64267E+01 +3.94353E+00 +7.39418E+00 +1.51656E+01 -6.99238E+00 +1.53318E+01
 -1.62583E+01 +4.34883E+00 -1.36785E+01 -9.76882E+00 -1.15883E+00 -1.67475E+01 +1.21721E+01 -1.15306E+01
 +1.66185E+01 +2.05780E+00 +8.96947E+00 +1.41158E+01 -5.18262E+00 +1.58791E+01 -1.55306E+01 +6.09133E+00
 -1.45594E+01 -8.10120E+00 -3.00363E+00 -1.63672E+01 +1.07072E+01 -1.27110E+01 +1.65978E+01 +1.79045E-01
 +1.04044E+01 +1.29065E+01 -3.33918E+00 +1.62169E+01 -1.46201E+01 +7.72676E+00 -1.52416E+01 -6.36067E+00
 -4.77844E+00 -1.57875E+01 +9.13312E+00 -1.37107E+01 +1.63685E+01 -1.66920E+00 +1.16833E+01 +1.15558E+01
 -1.48584E+00 +1.63447E+01 -1.35414E+01 +9.23640E+00 -1.57200E+01 -4.57042E+00 -6.46215E+00 -1.50192E+01
 +7.47147E+00 -1.45204E+01 +1.59372E+01 -3.46419E+00 +1.27928E+01 +1.00832E+01 +3.53877E-01 +1.62645E+01
 -1.23111E+01 +1.06034E+01 -1.59922E+01 -2.75386E+00 -8.03515E+00 -1.40751E+01 +5.74474E+00 -1.51331E+01
 +1.53127E+01 -5.18428E+00 +1.37219E+01 +8.50938E+00 +2.15706E+00 +1.59810E+01 -1.09473E+01 +1.18131E+01
 -1.60583E+01 -9.34300E-01 -9.47955E+00 -1.29703E+01 +3.97580E+00 -1.55447E+01 +1.45063E+01 -6.80909E+00
 +1.44620E+01 +6.85585E+00 +3.90164E+00 +1.55012E+01 -9.46936E+00 +1.28530E+01 -1.59211E+01 +8.65288E-01
 -1.07794E+01 -1.17216E+01 +2.18766E+00 -1.57534E+01 +1.35314E+01 -8.31986E+00 +1.50072E+01 +5.14485E+00
 +5.56668E+00 +1.48346E+01 -7.89803E+00 +1.37130E+01 -1.55858E+01 +2.62260E+00 -1.19209E+01 -1.03470E+01
