 Created: 16-Jan-2021
 $NMID
 ID='D:\BASISSIMULATI'
 FMTDAT='(8E13.5)'
 VOLUME=   1.00000E+00
 TRAMP=   1.00000E+00
 $END
 +2.63403E+01 +2.96170E-02 +1.60908E+01 +1.96807E+01 -5.29639E+00 +2.19788E+01 -1.79798E+01 +5.94402E+00
 -1.08552E+01 -1.21601E+01 +8.02978E+00 -1.45456E+01 +1.94195E+01 +1.10947E+00 +1.13940E+01 +1.95998E+01
 -9.26822E+00 +2.28705E+01 -2.36622E+01 +7.27842E+00 -1.88214E+01 -1.30363E+01 +5.16842E-02 -1.97323E+01
 +1.47651E+01 -7.68746E+00 +1.15982E+01 +1.03647E+01 -5.71970E+00 +1.62418E+01 -1.98109E+01 +3.74802E+00
 -1.64113E+01 -1.55223E+01 +2.02348E+00 -2.33998E+01 +1.87835E+01 -1.24958E+01 +1.89019E+01 +6.89725E+00
 +3.29472E+00 +1.67913E+01 -1.23789E+01 +8.65976E+00 -1.28453E+01 -8.64563E+00 +2.24592E+00 -1.76185E+01
 +1.81928E+01 -8.93343E+00 +1.94467E+01 +9.73412E+00 +4.43970E+00 +2.11847E+01 -1.30771E+01 +1.51310E+01
 -1.72651E+01 -2.16038E+00 -5.21026E+00 -1.40848E+01 +1.05728E+01 -9.62506E+00 +1.43292E+01 +6.29501E+00
 +2.12963E+00 +1.77774E+01 -1.45487E+01 +1.32754E+01 -1.99495E+01 -3.45320E+00 -9.06416E+00 -1.71048E+01
 +7.78128E+00 -1.54929E+01 +1.49611E+01 -1.00969E+00 +6.43045E+00 +1.19397E+01 -8.75740E+00 +1.08466E+01
 -1.53661E+01 -3.05338E+00 -6.59928E+00 -1.62039E+01 +9.55566E+00 -1.58324E+01 +1.81359E+01 -2.08130E+00
 +1.14932E+01 +1.23321E+01 -3.61603E+00 +1.43699E+01 -1.27257E+01 +2.99000E+00 -7.51858E+00 -1.01552E+01
 +6.43644E+00 -1.20641E+01 +1.52787E+01 -7.71042E-01 +1.02025E+01 +1.29960E+01 -4.26329E+00 +1.62352E+01
 -1.47873E+01 +6.03600E+00 -1.20125E+01 -7.87411E+00 +7.09709E-01 -1.26001E+01 +1.08094E+01 -4.32791E+00
 +8.62758E+00 +8.31198E+00 -3.50262E+00 +1.27440E+01 -1.37526E+01 +4.48175E+00 -1.22336E+01 -8.78564E+00
 -3.27733E-01 -1.47357E+01 +1.08702E+01 -8.16067E+00 +1.12566E+01 +4.30143E+00 +1.20884E+00 +1.07518E+01
 -9.08152E+00 +5.40851E+00 -9.53308E+00 -6.10872E+00 +2.78128E-01 -1.24215E+01 +1.09677E+01 -7.32980E+00
 +1.24741E+01 +4.44594E+00 +3.58014E+00 +1.20025E+01 -7.18590E+00 +8.69785E+00 -9.87203E+00 -1.73172E+00
 -2.51323E+00 -9.03029E+00 +7.28706E+00 -6.30984E+00 +9.85580E+00 +3.55440E+00 +2.66538E+00 +1.09496E+01
 -7.48997E+00 +8.81720E+00 -1.11853E+01 -7.61507E-01 -5.31914E+00 -8.81328E+00 +4.19068E+00 -8.13784E+00
 +8.29751E+00 -5.78012E-04 +3.44802E+00 +7.38561E+00 -5.28603E+00 +6.86371E+00 -9.31697E+00 -9.56687E-01
 -4.77205E+00 -8.55643E+00 +4.02596E+00 -8.83969E+00 +8.92463E+00 -1.78804E+00 +5.73653E+00 +5.80194E+00
 -2.00953E+00 +6.97227E+00 -6.72132E+00 +1.12662E+00 -4.05198E+00 -5.70427E+00 +3.16352E+00 -6.83314E+00
 +7.89544E+00 -1.23604E+00 +5.71149E+00 +5.73352E+00 -1.18159E+00 +7.65019E+00 -6.31354E+00 +3.07677E+00
 -5.20362E+00 -3.34543E+00 +5.67039E-01 -5.55154E+00 +5.17017E+00 -1.79460E+00 +4.22141E+00 +3.96441E+00
 -1.19392E+00 +6.08619E+00 -5.84028E+00 +2.62799E+00 -5.45883E+00 -3.04663E+00 -6.80601E-01 -5.71170E+00
 +3.86286E+00 -3.25153E+00 +4.10216E+00 +1.58232E+00 +2.67165E-01 +4.06509E+00 -3.63727E+00 +2.03250E+00
 -3.83539E+00 -2.29129E+00 -2.81260E-01 -4.68675E+00 +3.57460E+00 -3.01256E+00 +4.25383E+00 +9.67429E-01
 +1.46714E+00 +3.53174E+00 -1.89756E+00 +2.60157E+00 -2.73048E+00 -4.99187E-01 -5.86879E-01 -2.59905E+00
 +2.17447E+00 -1.79500E+00 +2.86470E+00 +9.21033E-01 +9.84588E-01 +2.88914E+00 -1.56031E+00 +2.41872E+00
 -2.49448E+00 +2.23967E-01 -1.29930E+00 -1.53969E+00 +5.62280E-01 -1.44379E+00 +1.28371E+00 +2.15464E-02
 +4.24759E-01 +1.21157E+00 -9.22259E-01 +1.04096E+00 -1.42527E+00 -1.17598E-01 -7.93670E-01 -1.06858E+00
 +1.78857E-01 -1.08267E+00 +6.19646E-01 -4.64123E-01 +4.26961E-01 +2.28469E-02 +1.31377E-01 +4.90620E-02
 +1.21838E-01 -7.74371E-02 +2.26393E-01 +1.00531E-02 +8.90602E-02 +1.98271E-01 -2.23540E-01 +8.39437E-02
 -2.20356E-01 -3.74026E-01 +3.49307E-01 -6.24200E-01 +9.90799E-01 -1.20558E-01 +8.59588E-01 +8.89115E-01
 -2.43520E-01 +1.39252E+00 -1.40549E+00 +6.30044E-01 -1.36950E+00 -9.19739E-01 +1.00350E-01 -1.77456E+00
 +1.72199E+00 -8.87766E-01 +1.80144E+00 +1.11016E+00 -3.25128E-03 +2.28986E+00 -2.08843E+00 +1.27671E+00
 -2.30773E+00 -1.20058E+00 -1.57274E-01 -2.77176E+00 +2.47140E+00 -1.68057E+00 +2.94713E+00 +1.31183E+00
 +5.22954E-01 +3.40813E+00 -2.68688E+00 +2.41187E+00 -3.56243E+00 -9.71196E-01 -1.04740E+00 -3.56568E+00
 +2.59027E+00 -2.71420E+00 +3.75683E+00 +9.90122E-01 +1.04624E+00 +4.02338E+00 -3.16134E+00 +3.23518E+00
 -4.78352E+00 -9.58210E-01 -1.98806E+00 -4.71480E+00 +2.81649E+00 -4.34658E+00 +5.08476E+00 +3.82445E-03
 +2.50819E+00 +4.25787E+00 -2.55647E+00 +4.20515E+00 -5.14530E+00 -3.25798E-01 -2.45795E+00 -5.05590E+00
 +3.23706E+00 -5.23364E+00 +6.55063E+00 -3.08397E-01 +4.11404E+00 +5.29055E+00 -2.00061E+00 +6.24820E+00
 -6.04741E+00 +1.53904E+00 -4.07651E+00 -4.36767E+00 +2.10500E+00 -5.65222E+00 +6.45236E+00 -8.08070E-01
 +4.43823E+00 +5.67864E+00 -2.42600E+00 +7.46303E+00 -7.79804E+00 +2.48088E+00 -6.49911E+00 -4.84721E+00
 +3.86426E-01 -7.66975E+00 +6.33756E+00 -3.29363E+00 +5.56858E+00 +4.04449E+00 -1.29236E+00 +7.07935E+00
 -7.59007E+00 +2.51996E+00 -6.93465E+00 -5.58103E+00 +5.41159E-01 -9.51224E+00 +8.07161E+00 -5.28779E+00
 +8.60904E+00 +3.35064E+00 +1.65383E+00 +8.32696E+00 -6.07768E+00 +4.94572E+00 -6.98724E+00 -3.45361E+00
 +2.78533E-02 -8.52791E+00 +8.30654E+00 -4.92242E+00 +9.67758E+00 +4.41205E+00 +2.36520E+00 +1.08276E+01
 -7.09570E+00 +8.19875E+00 -9.95944E+00 -1.08247E+00 -3.67105E+00 -8.21867E+00 +5.52929E+00 -6.38238E+00
 +8.47171E+00 +2.61924E+00 +1.90603E+00 +9.90160E+00 -8.18193E+00 +7.96977E+00 -1.21383E+01 -1.95568E+00
 -5.90183E+00 -1.08875E+01 +4.93557E+00 -1.05666E+01 +1.03203E+01 -1.43958E+00 +5.35113E+00 +7.61829E+00
 -4.90080E+00 +7.73935E+00 -1.01307E+01 -1.34218E+00 -4.70329E+00 -1.08569E+01 +6.76453E+00 -1.13117E+01
 +1.36335E+01 -1.67464E+00 +9.38229E+00 +9.43791E+00 -2.03489E+00 +1.18726E+01 -9.83016E+00 +3.67852E+00
 -6.67946E+00 -6.90880E+00 +4.15937E+00 -9.28816E+00 +1.18408E+01 -7.27716E-01 +8.31467E+00 +1.08376E+01
 -3.81160E+00 +1.42748E+01 -1.35706E+01 +5.94317E+00 -1.20388E+01 -6.66571E+00 -9.31421E-01 -1.19618E+01
 +8.92986E+00 -5.33874E+00 +7.94651E+00 +6.32780E+00 -2.97221E+00 +1.11979E+01 -1.31419E+01 +3.86692E+00
 -1.22872E+01 -9.28402E+00 -4.84249E-01 -1.60356E+01 +1.17320E+01 -9.99468E+00 +1.33311E+01 +3.19162E+00
 +3.34881E+00 +1.11305E+01 -8.11841E+00 +6.52561E+00 -9.55733E+00 -5.76288E+00 +8.48847E-01 -1.32979E+01
 +1.33298E+01 -8.00660E+00 +1.57898E+01 +5.93876E+00 +5.42909E+00 +1.59401E+01 -8.44176E+00 +1.29488E+01
 -1.31975E+01 +1.57677E-01 -4.96072E+00 -9.98675E+00 +7.64247E+00 -7.69016E+00 +1.17246E+01 +4.73650E+00
 +2.55733E+00 +1.49978E+01 -1.17457E+01 +1.25769E+01 -1.78658E+01 -1.08835E+00 -1.00045E+01 -1.38239E+01
 +4.49550E+00 -1.42639E+01 +1.20962E+01 -2.71136E+00 +6.00285E+00 +9.12594E+00 -7.29490E+00 +9.35574E+00
 -1.42134E+01 -2.62827E+00 -7.14029E+00 -1.54521E+01 +8.13622E+00 -1.65938E+01 +1.78210E+01 -4.41664E+00
 +1.32407E+01 +1.01522E+01 -8.48855E-01 +1.39825E+01 -1.07835E+01 +4.27005E+00 -7.07436E+00 -8.78143E+00
 +6.45961E+00 -1.17550E+01 +1.63042E+01 -9.55080E-01 +1.22109E+01 +1.39270E+01 -2.88938E+00 +1.89922E+01
 -1.55590E+01 +9.41910E+00 -1.46174E+01 -5.87483E+00 -1.79998E+00 -1.27116E+01 +9.92004E+00 -5.19592E+00
 +8.78696E+00 +8.64711E+00 -4.41383E+00 +1.45785E+01 -1.70360E+01 +5.85480E+00 -1.66550E+01 -1.01947E+01
 -3.00599E+00 -1.90665E+01 +1.16759E+01 -1.28952E+01 +1.42827E+01 +2.03871E+00 +3.32107E+00 +1.13204E+01
 -9.70505E+00 +6.20620E+00 -1.13668E+01 -7.99207E+00 +7.48698E-01 -1.69954E+01 +1.56356E+01 -1.12735E+01
 +1.93392E+01 +4.74278E+00 +8.29517E+00 +1.67983E+01 -7.23854E+00 +1.43679E+01 -1.29632E+01 +6.62999E-01
 -4.18444E+00 -1.04963E+01 +9.74172E+00 -7.96025E+00 +1.44286E+01 +6.03239E+00 +4.31397E+00 +1.79702E+01
 -1.19218E+01 +1.60064E+01 -1.95792E+01 +1.33564E+00 -1.19428E+01 -1.28909E+01 +3.33701E+00 -1.40812E+01
 +1.15928E+01 -2.17403E+00 +5.18148E+00 +1.03883E+01 -9.22264E+00 +1.06521E+01 -1.70624E+01 -2.37756E+00
 -9.89245E+00 -1.67323E+01 +6.46921E+00 -1.89010E+01 +1.74365E+01 -6.74080E+00 +1.35334E+01 +8.47828E+00
 -6.28045E-01 +1.28393E+01 -1.08454E+01 +3.04112E+00 -6.97334E+00 -1.05287E+01 +7.35197E+00 -1.38296E+01
 +1.82095E+01 -2.68435E+00 +1.47421E+01 +1.31645E+01 -4.30087E-01 +1.93259E+01 -1.36879E+01 +1.04700E+01
 -1.33870E+01 -4.64163E+00 -9.01206E-01 -1.15868E+01 +1.08107E+01 -4.07787E+00 +9.70120E+00 +1.00816E+01
 -3.78945E+00 +1.65460E+01 -1.71450E+01 +8.22129E+00 -1.77434E+01 -7.90672E+00 -4.90808E+00 -1.74176E+01
 +9.47770E+00 -1.21809E+01 +1.23359E+01 +1.97502E+00 +1.83472E+00 +1.09471E+01 -1.09791E+01 +5.90262E+00
 -1.28637E+01 -8.28950E+00 -1.11539E+00 -1.77736E+01 +1.38256E+01 -1.30040E+01 +1.83444E+01 +2.11931E+00
 +8.61534E+00 +1.39844E+01 -5.82965E+00 +1.22424E+01 -1.12830E+01 -4.09084E-01 -2.95556E+00 -1.09498E+01
 +1.05366E+01 -8.59065E+00 +1.55239E+01 +4.88763E+00 +6.41987E+00 +1.68709E+01 -8.92892E+00 +1.59945E+01
 -1.67434E+01 +2.97701E+00 -1.04261E+01 -1.01271E+01 +3.25715E+00 -1.14650E+01 +1.07719E+01 -6.35057E-01
 +4.80185E+00 +1.10769E+01 -8.80884E+00 +1.16154E+01 -1.67357E+01 -2.74685E-01 -1.09630E+01 -1.38708E+01
 +3.57277E+00 -1.67375E+01 +1.37386E+01 -6.55590E+00 +1.07271E+01 +6.77139E+00 -1.65303E+00 +1.06649E+01
 -1.07796E+01 +1.86329E+00 -7.37932E+00 -1.05835E+01 +5.62177E+00 -1.40953E+01 +1.59684E+01 -4.63640E+00
 +1.38266E+01 +9.45708E+00 +1.13382E+00 +1.54748E+01 -1.03399E+01 +8.42382E+00 -1.02628E+01 -4.34261E+00
 +4.83098E-01 -1.02888E+01 +1.08140E+01 -3.70811E+00 +1.01636E+01 +8.91121E+00 -1.40500E+00 +1.52054E+01
 -1.33245E+01 +8.79687E+00 -1.46584E+01 -4.66196E+00 -4.48629E+00 -1.29562E+01 +7.34890E+00 -8.95499E+00
 +9.73141E+00 +2.71794E+00 +8.46603E-01 +1.02754E+01 -1.02362E+01 +6.11159E+00 -1.23667E+01 -5.98047E+00
 -2.99445E+00 -1.45402E+01 +9.46405E+00 -1.14320E+01 +1.37229E+01 +4.52132E-01 +6.35161E+00 +1.00674E+01
 -5.10576E+00 +8.79475E+00 -9.47866E+00 -1.43979E+00 -2.65206E+00 -1.01882E+01 +8.62187E+00 -8.57878E+00
 +1.33099E+01 +2.23006E+00 +6.67020E+00 +1.22583E+01 -5.30170E+00 +1.22888E+01 -1.16910E+01 +2.59406E+00
