 Created: 16-Jan-2021
 $NMID
 ID='D:\BASISSIMULATI'
 FMTDAT='(8E13.5)'
 VOLUME=   1.00000E+00
 TRAMP=   1.00000E+00
 $END
 +3.00972E+01 -1.06760E-01 +2.93974E+01 +6.11593E+00 +2.71252E+01 +1.19445E+01 +2.34493E+01 +1.69644E+01
 +1.86474E+01 +2.08253E+01 +1.30832E+01 +2.32695E+01 +7.17686E+00 +2.41519E+01 +1.36990E+00 +2.34509E+01
 -3.91006E+00 +2.12690E+01 -8.28397E+00 +1.78231E+01 -1.14513E+01 +1.34254E+01 -1.32131E+01 +8.45664E+00
 -1.34867E+01 +3.33399E+00 -1.23097E+01 -1.52333E+00 -9.83502E+00 -5.72834E+00 -6.31574E+00 -8.95711E+00
 -2.08195E+00 -1.09738E+01 +2.48807E+00 -1.16480E+01 +7.00034E+00 -1.09625E+01 +1.10781E+01 -9.01180E+00
 +1.43925E+01 -5.99098E+00 +1.66888E+01 -2.17665E+00 +1.78051E+01 +2.09879E+00 +1.76832E+01 +6.47680E+00
 +1.63701E+01 +1.06038E+01 +1.40103E+01 +1.41611E+01 +1.08306E+01 +1.68906E+01 +7.11725E+00 +1.86152E+01
 +3.18938E+00 +1.92509E+01 -6.29848E-01 +1.88109E+01 -4.04172E+00 +1.74009E+01 -6.79736E+00 +1.52065E+01
 -8.71797E+00 +1.24737E+01 -9.70833E+00 +9.48502E+00 -9.76239E+00 +6.53267E+00 -8.96083E+00 +3.89179E+00
 -7.46077E+00 +1.79597E+00 -5.47900E+00 +4.17098E-01 -3.27018E+00 -1.48639E-01 -1.10213E+00 +1.12454E-01
 +7.69450E-01 +1.13245E+00 +2.12457E+00 +2.77008E+00 +2.79881E+00 +4.82557E+00 +2.69772E+00 +7.06048E+00
 +1.80444E+00 +9.22074E+00 +1.80243E-01 +1.10607E+01 -2.04224E+00 +1.23660E+01 -4.67207E+00 +1.29734E+01
 -7.47829E+00 +1.27852E+01 -1.02115E+01 +1.17782E+01 -1.26271E+01 +1.00051E+01 -1.45074E+01 +7.58959E+00
 -1.56815E+01 +4.71481E+00 -1.60407E+01 +1.60640E+00 -1.55479E+01 -1.48767E+00 -1.42409E+01 -4.31944E+00
 -1.22286E+01 -6.66289E+00 -9.68163E+00 -8.33385E+00 -6.81682E+00 -9.20601E+00 -3.87834E+00 -9.22178E+00
 -1.11634E+00 -8.39694E+00 +1.23462E+00 -6.81902E+00 +2.97561E+00 -4.63935E+00 +3.96011E+00 -2.05981E+00
 +4.10608E+00 +6.84686E-01 +3.40245E+00 +3.34630E+00 +1.90938E+00 +5.68524E+00 -2.47401E-01 +7.48979E+00
 -2.88783E+00 +8.59365E+00 -5.79307E+00 +8.88925E+00 -8.72417E+00 +8.33585E+00 -1.14420E+01 +6.96200E+00
 -1.37269E+01 +4.86208E+00 -1.53964E+01 +2.18746E+00 -1.63193E+01 -8.66916E-01 -1.64254E+01 -4.07928E+00
 -1.57100E+01 -7.21961E+00 -1.42324E+01 -1.00685E+01 -1.21097E+01 -1.24347E+01 -9.50585E+00 -1.41696E+01
 -6.61684E+00 -1.51784E+01 -3.65396E+00 -1.54256E+01 -8.26193E-01 -1.49366E+01 +1.67664E+00 -1.37929E+01
 +3.69862E+00 -1.21238E+01 +5.12913E+00 -1.00942E+01 +5.91012E+00 -7.88942E+00 +6.03876E+00 -5.69940E+00
 +5.56530E+00 -3.70283E+00 +4.58668E+00 -2.05290E+00 +3.23645E+00 -8.65726E-01 +1.67197E+00 -2.12338E-01
 +6.01727E-02 -1.14819E-01 -1.43688E+00 -5.46718E-01 -2.67544E+00 -1.43756E+00 -3.54139E+00 -2.68091E+00
 -3.95848E+00 -4.14512E+00 -3.89306E+00 -5.68576E+00 -3.35485E+00 -7.15864E+00 -2.39404E+00 -8.43208E+00
 -1.09495E+00 -9.39774E+00 +4.32863E-01 -9.97869E+00 +2.06538E+00 -1.01346E+01 +3.67552E+00 -9.86344E+00
 +5.14436E+00 -9.19959E+00 +6.37104E+00 -8.20920E+00 +7.28067E+00 -6.98272E+00 +7.82950E+00 -5.62581E+00
 +8.00718E+00 -4.24931E+00 +7.83596E+00 -2.95926E+00 +7.36705E+00 -1.84786E+00 +6.67461E+00 -9.86065E-01
 +5.84806E+00 -4.18445E-01 +4.98340E+00 -1.60624E-01 +4.17445E+00 -1.99387E-01 +3.50463E+00 -4.95324E-01
 +3.04023E+00 -9.87634E-01 +2.82539E+00 -1.60056E+00 +2.87940E+00 -2.25076E+00 +3.19626E+00 -2.85500E+00
 +3.74648E+00 -3.33734E+00 +4.48085E+00 -3.63533E+00 +5.33563E+00 -3.70464E+00 +6.23880E+00 -3.52191E+00
 +7.11650E+00 -3.08553E+00 +7.89934E+00 -2.41461E+00 +8.52783E+00 -1.54616E+00 +8.95665E+00 -5.31008E-01
 +9.15739E+00 +5.71189E-01 +9.11968E+00 +1.69729E+00 +8.85072E+00 +2.78589E+00 +8.37335E+00 +3.78198E+00
 +7.72305E+00 +4.64062E+00 +6.94415E+00 +5.32952E+00 +6.08569E+00 +5.83023E+00 +5.19731E+00 +6.13819E+00
 +4.32556E+00 +6.26151E+00 +3.51094E+00 +6.21902E+00 +2.78576E+00 +6.03758E+00 +2.17299E+00 +5.74917E+00
 +1.68601E+00 +5.38803E+00 +1.32918E+00 +4.98805E+00 +1.09902E+00 +4.58071E+00 +9.85806E-01 +4.19357E+00
 +9.75247E-01 +3.84946E+00 +1.05015E+00 +3.56624E+00 +1.19177E+00 +3.35701E+00 +1.38090E+00 +3.23069E+00
 +1.59841E+00 +3.19266E+00 +1.82551E+00 +3.24535E+00 +2.04377E+00 +3.38872E+00 +2.23489E+00 +3.62033E+00
 +2.38053E+00 +3.93521E+00 +2.46242E+00 +4.32545E+00 +2.46261E+00 +4.77960E+00 +2.36418E+00 +5.28208E+00
 +2.15238E+00 +5.81282E+00 +1.81595E+00 +6.34718E+00 +1.34880E+00 +6.85644E+00 +7.51491E-01 +7.30880E+00
 +3.26903E-02 +7.67110E+00 -7.90009E-01 +7.91099E+00 -1.68984E+00 +7.99956E+00 -2.63148E+00 +7.91418E+00
 -3.57258E+00 +7.64118E+00 -4.46617E+00 +7.17815E+00 -5.26389E+00 +6.53557E+00 -5.91972E+00 +5.73745E+00
 -6.39399E+00 +4.82079E+00 -6.65726E+00 +3.83385E+00 -6.69375E+00 +2.83317E+00 -6.50370E+00 +1.87959E+00
 -6.10476E+00 +1.03347E+00 -5.53167E+00 +3.49575E-01 -4.83456E+00 -1.27992E-01 -4.07564E+00 -3.70240E-01
 -3.32460E+00 -3.66742E-01 -2.65294E+00 -1.27621E-01 -2.12790E+00 +3.16182E-01 -1.80622E+00 +9.14516E-01
 -1.72866E+00 +1.60147E+00 -1.91551E+00 +2.30045E+00 -2.36381E+00 +2.93051E+00 -3.04651E+00 +3.41343E+00
 -3.91382E+00 +3.68089E+00 -4.89662E+00 +3.68107E+00 -5.91197E+00 +3.38413E+00 -6.86999E+00 +2.78582E+00
 -7.68174E+00 +1.90898E+00 -8.26743E+00 +8.02557E-01 -8.56401E+00 -4.61802E-01 -8.53163E+00 -1.79541E+00
 -8.15820E+00 -3.09999E+00 -7.46148E+00 -4.27637E+00 -6.48863E+00 -5.23351E+00 -5.31285E+00 -5.89719E+00
 -4.02760E+00 -6.21748E+00 -2.73867E+00 -6.17414E+00 -1.55478E+00 -5.77958E+00 -5.77602E-01 -5.07878E+00
 +1.07911E-01 -4.14621E+00 +4.42047E-01 -3.07996E+00 +3.96755E-01 -1.99332E+00 -2.06269E-02 -1.00477E+00
 -7.66822E-01 -2.27046E-01 -1.76538E+00 +2.43592E-01 -2.91264E+00 +3.36982E-01 -4.08640E+00 +1.65708E-02
 -5.15670E+00 -7.15919E-01 -5.99757E+00 -1.81921E+00 -6.49893E+00 -3.21479E+00 -6.57742E+00 -4.79278E+00
 -6.18510E+00 -6.42088E+00 -5.31523E+00 -7.95565E+00 -4.00450E+00 -9.25528E+00 -2.33130E+00 -1.01926E+01
 -4.10153E-01 -1.06671E+01 +1.61726E+00 -1.06152E+01 +3.59393E+00 -1.00171E+01 +5.36107E+00 -8.90042E+00
 +6.77223E+00 -7.33911E+00 +7.70682E+00 -5.44861E+00 +8.08165E+00 -3.37691E+00 +7.85954E+00 -1.29254E+00
 +7.05407E+00 +6.29657E-01 +5.72992E+00 +2.22377E+00 +3.99875E+00 +3.34761E+00 +2.01081E+00 +3.89588E+00
 -5.71278E-02 +3.81040E+00 -2.01639E+00 +3.08651E+00 -3.68252E+00 +1.77488E+00 -4.89134E+00 -2.13987E-02
 -5.51368E+00 -2.15445E+00 -5.46735E+00 -4.44322E+00 -4.72533E+00 -6.68830E+00 -3.31935E+00 -8.68858E+00
 -1.33840E+00 -1.02584E+01 +1.07760E+00 -1.12438E+01 +3.74877E+00 -1.15361E+01 +6.46973E+00 -1.10820E+01
 +9.02660E+00 -9.88905E+00 +1.12149E+01 -8.02613E+00 +1.28568E+01 -5.61833E+00 +1.38168E+01 -2.83732E+00
 +1.40131E+01 +1.12565E-01 +1.34255E+01 +3.01108E+00 +1.20975E+01 +5.64043E+00 +1.01331E+01 +7.80350E+00
 +7.68859E+00 +9.34058E+00 +4.95955E+00 +1.01429E+01 +2.16487E+00 +1.01619E+01 -4.71796E-01 +9.41376E+00
 -2.74072E+00 +7.97771E+00 -4.46383E+00 +5.98972E+00 -5.50968E+00 +3.63088E+00 -5.80451E+00 +1.11202E+00
 -5.33836E+00 -1.34424E+00 -4.16568E+00 -3.52239E+00 -2.40050E+00 -5.23242E+00 -2.06334E-01 -6.32587E+00
 +2.21802E+00 -6.70836E+00 +4.65576E+00 -6.34733E+00 +6.89091E+00 -5.27452E+00 +8.72688E+00 -3.58272E+00
 +1.00034E+01 -1.41737E+00 +1.06102E+01 +1.03653E+00 +1.04962E+01 +3.57078E+00 +9.67336E+00 +5.97242E+00
 +8.21543E+00 +8.04238E+00 +6.25070E+00 +9.61294E+00 +3.95032E+00 +1.05622E+01 +1.51281E+00 +1.08247E+01
 -8.53829E-01 +1.03964E+01 -2.95075E+00 +9.33497E+00 -4.60598E+00 +7.75414E+00 -5.68970E+00 +5.81287E+00
 -6.12573E+00 +3.70094E+00 -5.89812E+00 +1.62158E+00 -5.05236E+00 -2.27065E-01 -3.69107E+00 -1.66990E+00
 -1.96448E+00 -2.57086E+00 -5.67337E-02 -2.84531E+00 +1.83100E+00 -2.46783E+00 +3.49891E+00 -1.47469E+00
 +4.76686E+00 +3.92743E-02 +5.49101E+00 +1.92904E+00 +5.57722E+00 +4.01235E+00 +4.99004E+00 +6.08613E+00
 +3.75648E+00 +7.94477E+00 +1.96421E+00 +9.39888E+00 -2.45758E-01 +1.02926E+01 -2.69115E+00 +1.05181E+01
 -5.16432E+00 +1.00261E+01 -7.45054E+00 +8.83070E+00 -9.34710E+00 +7.00932E+00 -1.06815E+01 +4.69662E+00
 -1.13271E+01 +2.07337E+00 -1.12151E+01 -6.48772E-01 -1.03412E+01 -3.24544E+00 -8.76712E+00 -5.49892E+00
 -6.61588E+00 -7.21725E+00 -4.06225E+00 -8.25114E+00 -1.31820E+00 -8.50743E+00 +1.38479E+00 -7.95783E+00
 +3.81530E+00 -6.64214E+00 +5.76176E+00 -4.66562E+00 +7.05057E+00 -2.19080E+00 +7.56126E+00 +5.75709E-01
 +7.23715E+00 +3.40020E+00 +6.09071E+00 +6.04130E+00 +4.20307E+00 +8.27020E+00 +1.71775E+00 +9.88979E+00
 -1.17093E+00 +1.07514E+01 -4.23367E+00 +1.07674E+01 -7.22512E+00 +9.91886E+00 -9.90411E+00 +8.25704E+00
 -1.20536E+01 +5.89978E+00 -1.34986E+01 +3.02158E+00 -1.41206E+01 -1.60636E-01 -1.38673E+01 -3.40543E+00
 -1.27569E+01 -6.46674E+00 -1.08759E+01 -9.11409E+00 -8.37254E+00 -1.11514E+01 -5.44339E+00 -1.24332E+01
 -2.31751E+00 -1.28756E+01 +7.62944E-01 -1.24634E+01 +3.56267E+00 -1.12504E+01 +5.87260E+00 -9.35417E+00
 +7.52685E+00 -6.94596E+00 +8.41597E+00 -4.23554E+00 +8.49530E+00 -1.45344E+00 +7.78775E+00 +1.16852E+00
 +6.38098E+00 +3.41665E+00 +4.41903E+00 +5.11300E+00 +2.08932E+00 +6.12975E+00 -3.93815E-01 +6.39924E+00
 -2.80778E+00 +5.91862E+00 -4.94073E+00 +4.74910E+00 -6.60952E+00 +3.00955E+00 -7.67482E+00 +8.65408E-01
 -8.05246E+00 -1.48639E+00 -7.71964E+00 -3.83492E+00 -6.71596E+00 -5.97380E+00 -5.13889E+00 -7.71904E+00
 -3.13434E+00 -8.92475E+00 -8.83098E-01 -9.49530E+00 +1.41559E+00 -9.39297E+00 +3.56187E+00 -8.64038E+00
 +5.37297E+00 -7.31765E+00 +6.69919E+00 -5.55452E+00 +7.43680E+00 -3.51811E+00 +7.53672E+00 -1.39763E+00
 +7.00834E+00 +6.12834E-01 +5.91807E+00 +2.33175E+00 +4.38286E+00 +3.60634E+00 +2.55931E+00 +4.32610E+00
 +6.29218E-01 +4.43243E+00 -1.21685E+00 +3.92366E+00 -2.79683E+00 +2.85493E+00 -3.95354E+00 +1.33303E+00
 -4.56878E+00 -4.93300E-01 -4.57390E+00 -2.44685E+00 -3.95602E+00 -4.33782E+00 -2.75917E+00 -5.98081E+00
 -1.08054E+00 -7.21144E+00 +9.38138E-01 -7.90105E+00 +3.12296E+00 -7.96824E+00 +5.28320E+00 -7.38626E+00
 +7.22803E+00 -6.18563E+00 +8.78332E+00 -4.45164E+00 +9.80695E+00 -2.31719E+00 +1.02014E+01 +4.86434E-02
 +9.92219E+00 +2.45511E+00 +8.98237E+00 +4.70621E+00 +7.45117E+00 +6.61758E+00 +5.44847E+00 +8.03237E+00
