 Created: 16-Jan-2021
 $NMID
 ID='D:\BASISSIMULATI'
 FMTDAT='(8E13.5)'
 VOLUME=   1.00000E+00
 TRAMP=   1.00000E+00
 $END
 +1.65579E+01 +7.63253E-01 +1.41872E+01 +8.29282E+00 +8.32561E+00 +1.33714E+01 +9.66779E-01 +1.45366E+01
 -5.45401E+00 +1.17422E+01 -8.96387E+00 +6.33151E+00 -8.75984E+00 +4.91191E-01 -5.45608E+00 -3.59570E+00
 -7.88954E-01 -4.56719E+00 +3.09176E+00 -2.36086E+00 +4.46314E+00 +1.81804E+00 +2.67651E+00 +6.00975E+00
 -1.62766E+00 +8.28228E+00 -6.80347E+00 +7.47532E+00 -1.08553E+01 +3.62463E+00 -1.22020E+01 -2.08174E+00
 -1.02557E+01 -7.77903E+00 -5.60533E+00 -1.16348E+01 +2.45795E-01 -1.25136E+01 +5.46714E+00 -1.03498E+01
 +8.57518E+00 -6.10574E+00 +8.93787E+00 -1.35439E+00 +6.93157E+00 +2.33367E+00 +3.71502E+00 +3.95712E+00
 +7.31565E-01 +3.39619E+00 -8.54220E-01 +1.37186E+00 -5.69265E-01 -9.06063E-01 +1.24941E+00 -2.24565E+00
 +3.65178E+00 -1.93158E+00 +5.48812E+00 +3.33492E-02 +5.86540E+00 +2.97721E+00 +4.47140E+00 +5.85640E+00
 +1.65594E+00 +7.66904E+00 -1.74055E+00 +7.81958E+00 -4.72472E+00 +6.30317E+00 -6.51362E+00 +3.65756E+00
 -6.78675E+00 +7.22906E-01 -5.74492E+00 -1.68286E+00 -3.97458E+00 -3.04447E+00 -2.18875E+00 -3.28734E+00
 -9.53954E-01 -2.73829E+00 -5.05466E-01 -1.94414E+00 -7.08908E-01 -1.43195E+00 -1.16497E+00 -1.50671E+00
 -1.40158E+00 -2.15723E+00 -1.07190E+00 -3.09252E+00 -8.43198E-02 -3.88039E+00 +1.37610E+00 -4.12573E+00
 +2.93056E+00 -3.61920E+00 +4.15285E+00 -2.40556E+00 +4.72031E+00 -7.56021E-01 +4.51588E+00 +9.35804E-01
 +3.65142E+00 +2.29045E+00 +2.41233E+00 +3.06197E+00 +1.15025E+00 +3.20210E+00 +1.64294E-01 +2.85363E+00
 -3.89506E-01 +2.28190E+00 -5.33702E-01 +1.77208E+00 -4.42828E-01 +1.52768E+00 -3.67108E-01 +1.60302E+00
 -5.33343E-01 +1.88971E+00 -1.05575E+00 +2.16020E+00 -1.88595E+00 +2.15389E+00 -2.81938E+00 +1.67776E+00
 -3.55814E+00 +6.88394E-01 -3.81171E+00 -6.73797E-01 -3.40365E+00 -2.11323E+00 -2.34713E+00 -3.26562E+00
 -8.60266E-01 -3.81679E+00 +6.89932E-01 -3.61444E+00 +1.90108E+00 -2.73190E+00 +2.47055E+00 -1.45680E+00
 +2.30471E+00 -2.01880E-01 +1.55980E+00 +6.35269E-01 +5.93853E-01 +8.15784E-01 -1.59083E-01 +3.52625E-01
 -3.50470E-01 -4.85595E-01 +1.44426E-01 -1.26776E+00 +1.16611E+00 -1.56118E+00 +2.31667E+00 -1.10281E+00
 +3.10075E+00 +8.49571E-02 +3.11304E+00 +1.68184E+00 +2.20227E+00 +3.17163E+00 +5.47369E-01 +4.02520E+00
 -1.38821E+00 +3.89850E+00 -3.01185E+00 +2.77017E+00 -3.81226E+00 +9.64022E-01 -3.54701E+00 -9.56314E-01
 -2.33565E+00 -2.38446E+00 -6.21192E-01 -2.88802E+00 +9.87903E-01 -2.36405E+00 +1.93739E+00 -1.07446E+00
 +1.92704E+00 +4.52582E-01 +1.01607E+00 +1.61846E+00 -4.04420E-01 +1.97398E+00 -1.76049E+00 +1.38140E+00
 -2.50905E+00 +5.96294E-02 -2.33613E+00 -1.50198E+00 -1.26706E+00 -2.72641E+00 +3.48906E-01 -3.15874E+00
 +1.97011E+00 -2.62581E+00 +3.05800E+00 -1.29003E+00 +3.26378E+00 +4.17331E-01 +2.54054E+00 +1.95345E+00
 +1.14555E+00 +2.85165E+00 -4.60993E-01 +2.87206E+00 -1.77857E+00 +2.06640E+00 -2.43036E+00 +7.41553E-01
 -2.27386E+00 -6.57075E-01 -1.42660E+00 -1.69634E+00 -2.07760E-01 -2.08818E+00 +9.76861E-01 -1.76454E+00
 +1.76400E+00 -8.78022E-01 +1.93599E+00 +2.62400E-01 +1.47119E+00 +1.29361E+00 +5.34946E-01 +1.90509E+00
 -5.78704E-01 +1.92136E+00 -1.53382E+00 +1.34257E+00 -2.04430E+00 +3.38291E-01 -1.94967E+00 -8.00324E-01
 -1.25917E+00 -1.73774E+00 -1.54430E-01 -2.18410E+00 +1.05206E+00 -1.97831E+00 +1.99724E+00 -1.14333E+00
 +2.37032E+00 +1.04881E-01 +2.01250E+00 +1.40450E+00 +9.82343E-01 +2.34631E+00 -4.40115E-01 +2.60034E+00
 -1.82214E+00 +2.03285E+00 -2.70784E+00 +7.71434E-01 -2.77153E+00 -8.12550E-01 -1.94289E+00 -2.20979E+00
 -4.54293E-01 -2.93965E+00 +1.21685E+00 -2.72335E+00 +2.50076E+00 -1.59954E+00 +2.93544E+00 +6.72317E-02
 +2.34288E+00 +1.69863E+00 +9.11993E-01 +2.70304E+00 -8.50959E-01 +2.69493E+00 -2.29524E+00 +1.65006E+00
 -2.86364E+00 -6.75250E-02 -2.30762E+00 -1.82529E+00 -7.95009E-01 -2.95066E+00 +1.13698E+00 -2.98521E+00
 +2.77256E+00 -1.86703E+00 +3.48369E+00 +3.23920E-02 +2.97139E+00 +2.03669E+00 +1.38734E+00 +3.41375E+00
 -7.14652E-01 +3.65204E+00 -2.58255E+00 +2.65748E+00 -3.54885E+00 +7.92722E-01 -3.28356E+00 -1.25862E+00
 -1.91861E+00 -2.75174E+00 +5.44003E-03 -3.16412E+00 +1.75015E+00 -2.39235E+00 +2.66490E+00 -7.85532E-01
 +2.43567E+00 +9.96913E-01 +1.19987E+00 +2.24615E+00 -5.16400E-01 +2.48000E+00 -2.01155E+00 +1.62566E+00
 -2.68597E+00 +3.88575E-02 -2.27350E+00 -1.64493E+00 -9.36840E-01 -2.76506E+00 +8.07377E-01 -2.89323E+00
 +2.29949E+00 -1.99251E+00 +2.99658E+00 -4.18261E-01 +2.67720E+00 +1.23403E+00 +1.51232E+00 +2.36837E+00
 -1.98912E-02 +2.61745E+00 -1.33512E+00 +1.97134E+00 -1.97490E+00 +7.59781E-01 -1.77631E+00 -4.97793E-01
 -9.15433E-01 -1.30785E+00 +1.85620E-01 -1.39488E+00 +1.04314E+00 -7.94896E-01 +1.30858E+00 +1.80888E-01
 +8.98344E-01 +1.08952E+00 +9.00621E-03 +1.54243E+00 -9.80172E-01 +1.35677E+00 -1.67043E+00 +6.13919E-01
 -1.80212E+00 -3.91391E-01 -1.34566E+00 -1.28237E+00 -4.94097E-01 -1.75273E+00 +4.31061E-01 -1.67771E+00
 +1.11507E+00 -1.14330E+00 +1.36821E+00 -3.90170E-01 +1.18193E+00 +2.96230E-01 +7.07487E-01 +6.99329E-01
 +1.75345E-01 +7.43207E-01 -2.04769E-01 +4.99320E-01 -3.20429E-01 +1.34724E-01 -1.82550E-01 -1.68517E-01
 +1.01241E-01 -2.85603E-01 +3.85729E-01 -1.85296E-01 +5.49454E-01 +7.73784E-02 +5.32823E-01 +3.99567E-01
 +3.43097E-01 +6.76751E-01 +3.35355E-02 +8.35234E-01 -3.25752E-01 +8.41576E-01 -6.68562E-01 +6.93940E-01
 -9.38232E-01 +4.09014E-01 -1.08362E+00 +1.69103E-02 -1.05777E+00 -4.32973E-01 -8.29097E-01 -8.63473E-01
 -4.04202E-01 -1.17249E+00 +1.50149E-01 -1.25675E+00 +7.04220E-01 -1.05345E+00 +1.09415E+00 -5.82492E-01
 +1.17956E+00 +3.50463E-02 +9.09253E-01 +6.00748E-01 +3.63487E-01 +9.05649E-01 -2.54050E-01 +8.18157E-01
 -6.82594E-01 +3.55457E-01 -7.09483E-01 -2.98921E-01 -2.72317E-01 -8.49770E-01 +4.89663E-01 -1.00435E+00
 +1.26667E+00 -6.03349E-01 +1.69024E+00 +2.88267E-01 +1.48685E+00 +1.37696E+00 +6.10426E-01 +2.23628E+00
 -7.07765E-01 +2.47256E+00 -2.02314E+00 +1.89591E+00 -2.84034E+00 +6.22466E-01 -2.81367E+00 -9.43255E-01
 -1.90261E+00 -2.24979E+00 -4.11681E-01 -2.81381E+00 +1.11174E+00 -2.42286E+00 +2.08860E+00 -1.23833E+00
 +2.14607E+00 +2.52269E-01 +1.28251E+00 +1.42300E+00 -1.14961E-01 +1.76606E+00 -1.41646E+00 +1.11201E+00
 -2.00571E+00 -2.82047E-01 -1.54369E+00 -1.82075E+00 -1.27850E-01 -2.80666E+00 +1.72576E+00 -2.73141E+00
 +3.27831E+00 -1.50081E+00 +3.86687E+00 +5.04342E-01 +3.18424E+00 +2.56444E+00 +1.42080E+00 +3.90478E+00
 -7.96569E-01 +4.01256E+00 -2.64977E+00 +2.85473E+00 -3.46173E+00 +9.01770E-01 -2.97801E+00 -1.05866E+00
 -1.47747E+00 -2.24522E+00 +3.39180E-01 -2.21057E+00 +1.64149E+00 -1.03444E+00 +1.82251E+00 +7.03046E-01
 +7.64481E-01 +2.16190E+00 -1.09819E+00 +2.59958E+00 -2.95064E+00 +1.69568E+00 -3.93675E+00 -2.95085E-01
 -3.52558E+00 -2.63131E+00 -1.74976E+00 -4.38323E+00 +7.88811E-01 -4.81959E+00 +3.15428E+00 -3.72083E+00
 +4.45920E+00 -1.48401E+00 +4.23544E+00 +1.03000E+00 +2.63609E+00 +2.84828E+00 +3.79158E-01 +3.29182E+00
 -1.54863E+00 +2.26496E+00 -2.30766E+00 +3.03138E-01 -1.56700E+00 -1.64669E+00 +3.42758E-01 -2.62550E+00
 +2.55506E+00 -2.07634E+00 +4.02451E+00 -9.78344E-02 +3.97004E+00 +2.57394E+00 +2.21904E+00 +4.85436E+00
 -6.94970E-01 +5.75472E+00 -3.72812E+00 +4.79957E+00 -5.74035E+00 +2.24144E+00 -5.96021E+00 -1.02100E+00
 -4.30809E+00 -3.79370E+00 -1.44115E+00 -5.06673E+00 +1.50373E+00 -4.42665E+00 +3.36772E+00 -2.23030E+00
 +3.44318E+00 +5.34961E-01 +1.76750E+00 +2.65167E+00 -8.85245E-01 +3.17202E+00 -3.31528E+00 +1.81314E+00
 -4.38668E+00 -9.15179E-01 -3.49735E+00 -3.90563E+00 -8.37595E-01 -5.89490E+00 +2.66990E+00 -5.97445E+00
 +5.72684E+00 -3.96390E+00 +7.17056E+00 -4.95591E-01 +6.43487E+00 +3.22515E+00 +3.77544E+00 +5.88843E+00
 +1.70031E-01 +6.58980E+00 -3.06597E+00 +5.17841E+00 -4.79413E+00 +2.30597E+00 -4.49253E+00 -8.40659E-01
 -2.44703E+00 -3.01377E+00 +3.78478E-01 -3.39598E+00 +2.73685E+00 -1.91369E+00 +3.59729E+00 +7.48211E-01
 +2.55089E+00 +3.43082E+00 -3.59762E-02 +4.96740E+00 -3.17576E+00 +4.64399E+00 -5.65399E+00 +2.47398E+00
 -6.50387E+00 -8.16617E-01 -5.37379E+00 -4.07986E+00 -2.64782E+00 -6.19176E+00 +7.19770E-01 -6.47545E+00
 +3.58236E+00 -4.93893E+00 +5.03736E+00 -2.24238E+00 +4.75072E+00 +5.81202E-01 +3.04960E+00 +2.53390E+00
 +7.58537E-01 +3.02645E+00 -1.14537E+00 +2.07558E+00 -1.91623E+00 +2.58569E-01 -1.31253E+00 -1.54470E+00
 +3.39217E-01 -2.51087E+00 +2.30275E+00 -2.18994E+00 +3.73853E+00 -6.60362E-01 +4.03190E+00 +1.52705E+00
 +3.01617E+00 +3.58196E+00 +1.01218E+00 +4.78380E+00 -1.31810E+00 +4.74481E+00 -3.23559E+00 +3.53042E+00
 -4.19713E+00 +1.60219E+00 -4.03413E+00 -3.81389E-01 -2.97744E+00 -1.81965E+00 -1.53251E+00 -2.37972E+00
 -2.65066E-01 -2.08710E+00 +4.13863E-01 -1.27404E+00 +3.83063E-01 -4.18874E-01 -1.76543E-01 +5.26462E-02
 -8.84579E-01 -7.43108E-02 -1.32877E+00 -7.40960E-01 -1.22807E+00 -1.66154E+00 -5.30948E-01 -2.45073E+00
 +5.80891E-01 -2.77624E+00 +1.77488E+00 -2.47784E+00 +2.69698E+00 -1.61300E+00 +3.09630E+00 -4.20510E-01
 +2.90110E+00 +7.75736E-01 +2.22502E+00 +1.68219E+00 +1.30946E+00 +2.12799E+00 +4.29741E-01 +2.10528E+00
 -1.98993E-01 +1.75034E+00 -4.84587E-01 +1.27890E+00 -4.72435E-01 +9.02600E-01 -3.12640E-01 +7.55910E-01
 -1.95313E-01 +8.55871E-01 -2.77576E-01 +1.10441E+00 -6.25841E-01 +1.32921E+00 -1.19048E+00 +1.34820E+00
 -1.81966E+00 +1.03682E+00 -2.30760E+00 +3.77195E-01 -2.46278E+00 -5.26382E-01 -2.17525E+00 -1.47190E+00
 -1.46147E+00 -2.21835E+00 -4.70388E-01 -2.56230E+00 +5.54753E-01 -2.40814E+00 +1.34999E+00 -1.80780E+00
 +1.71779E+00 -9.52804E-01 +1.59822E+00 -1.16713E-01 +1.09689E+00 +4.36573E-01 +4.54852E-01 +5.48473E-01
 -3.42275E-02 +2.30086E-01 -1.33705E-01 -3.32306E-01 +2.39040E-01 -8.38617E-01 +9.67020E-01 -9.86079E-01
 +1.76234E+00 -5.91602E-01 +2.26510E+00 +3.21584E-01 +2.18033E+00 +1.51052E+00 +1.40235E+00 +2.58445E+00
 +7.67735E-02 +3.14144E+00 -1.42980E+00 +2.92170E+00 -2.64800E+00 +1.91908E+00 -3.17254E+00 +4.04094E-01
 -2.81666E+00 -1.15676E+00 -1.69367E+00 -2.26101E+00 -1.89958E-01 -2.55298E+00 +1.16621E+00 -1.96035E+00
