 Created: 16-Jan-2021
 $NMID
 ID='D:\BASISSIMULATI'
 FMTDAT='(8E13.5)'
 VOLUME=   1.00000E+00
 TRAMP=   1.00000E+00
 $END
 +4.44232E+01 +3.93825E-01 +2.71395E+01 +3.20301E+01 -7.13767E+00 +3.52397E+01 -2.66523E+01 +1.03569E+01
 -1.65617E+01 -1.60254E+01 +8.00677E+00 -1.95392E+01 +2.05041E+01 -2.02626E+00 +1.16206E+01 +1.38788E+01
 -3.20989E+00 +1.17413E+01 -4.20696E+00 -9.62934E-01 +8.78505E+00 -3.66792E+00 +1.62816E+01 +1.13003E+01
 +2.93124E+00 +2.79631E+01 -2.23899E+01 +2.41143E+01 -3.39075E+01 -2.29928E+00 -1.67566E+01 -2.79296E+01
 +1.51645E+01 -2.71419E+01 +3.17045E+01 +7.51309E-01 +1.68905E+01 +2.96523E+01 -1.48668E+01 +3.27439E+01
 -3.38784E+01 +9.04790E+00 -2.52464E+01 -1.72202E+01 -2.10986E+00 -2.27937E+01 +1.08084E+01 -8.40095E+00
 +4.10914E+00 +5.29212E+00 -8.38424E+00 +2.58085E+00 -8.04948E+00 -1.01048E+01 +5.83505E+00 -1.35021E+01
 +1.52083E+01 +2.57497E-01 +5.01562E+00 +1.67902E+01 -1.74414E+01 +1.49548E+01 -2.83149E+01 -8.34576E+00
 -1.27896E+01 -3.22104E+01 +1.74953E+01 -3.24028E+01 +3.48999E+01 -6.95040E+00 +2.36818E+01 +2.09810E+01
 -4.16032E+00 +2.63649E+01 -2.17309E+01 +7.15536E+00 -1.47116E+01 -1.52576E+01 +5.70537E+00 -1.94517E+01
 +1.71043E+01 -5.48256E+00 +1.04967E+01 +8.03417E+00 -1.77236E+00 +6.43091E+00 -2.39186E+00 -4.79751E+00
 +9.85892E+00 -7.85509E+00 +1.85480E+01 +5.17792E+00 +9.18329E+00 +2.16580E+01 -1.25248E+01 +2.18345E+01
 -2.49887E+01 +1.68392E+00 -1.37275E+01 -2.06451E+01 +1.20285E+01 -2.27988E+01 +2.77066E+01 -1.69818E+00
 +1.83055E+01 +2.27728E+01 -6.55205E+00 +2.79756E+01 -2.31742E+01 +1.11283E+01 -1.82284E+01 -9.35919E+00
 -9.67727E-01 -1.42748E+01 +8.83247E+00 -3.12136E+00 +2.85395E+00 +7.81208E+00 -8.15940E+00 +5.26891E+00
 -8.58004E+00 -6.11895E+00 +3.10698E+00 -1.03059E+01 +1.22938E+01 +3.94731E-01 +5.42868E+00 +1.51668E+01
 -1.32448E+01 +1.60874E+01 -2.47203E+01 -1.40563E+00 -1.53615E+01 -2.19390E+01 +7.74681E+00 -2.54291E+01
 +2.32465E+01 -8.05269E+00 +1.71823E+01 +1.35627E+01 -3.10157E+00 +1.93992E+01 -1.73087E+01 +6.09204E+00
 -1.33103E+01 -1.10584E+01 +1.61463E+00 -1.52983E+01 +1.05741E+01 -5.61890E+00 +6.03552E+00 +4.27005E+00
 -3.10676E+00 +2.78275E+00 -3.35656E+00 -6.41533E+00 +6.88320E+00 -9.53207E+00 +1.51201E+01 +3.64946E-01
 +9.34201E+00 +1.41939E+01 -7.26037E+00 +1.62646E+01 -1.83512E+01 +2.00249E+00 -1.15855E+01 -1.58027E+01
 +7.72893E+00 -1.95894E+01 +2.14518E+01 -5.19513E+00 +1.69562E+01 +1.38072E+01 -4.43376E-01 +2.00962E+01
 -1.37969E+01 +9.86021E+00 -1.22035E+01 -4.70912E+00 -8.57655E-01 -9.38350E+00 +6.46414E+00 -2.54858E+00
 +3.11234E+00 +4.99907E+00 -4.11348E+00 +3.67982E+00 -4.31021E+00 -3.81113E+00 +3.92491E+00 -6.34813E+00
 +1.04156E+01 +1.75493E+00 +5.23930E+00 +1.30248E+01 -9.02041E+00 +1.43839E+01 -1.87225E+01 +1.82678E+00
 -1.32534E+01 -1.41170E+01 +3.39479E+00 -1.85337E+01 +1.61573E+01 -7.28303E+00 +1.39033E+01 +8.87940E+00
 +1.18317E-01 +1.53577E+01 -1.15742E+01 +8.02976E+00 -1.16027E+01 -4.00056E+00 -3.08957E+00 -9.13621E+00
 +3.44942E+00 -5.18941E+00 +2.36968E+00 +1.37877E-01 -1.75259E+00 -4.59619E-01 -9.70857E-01 -5.19583E+00
 +5.61837E+00 -5.90005E+00 +1.02023E+01 +1.42606E+00 +5.32988E+00 +1.06958E+01 -6.64212E+00 +1.16244E+01
 -1.47198E+01 +1.16623E+00 -1.03139E+01 -1.21835E+01 +3.57471E+00 -1.62915E+01 +1.49092E+01 -7.36424E+00
 +1.42871E+01 +6.47356E+00 +3.60230E+00 +1.34534E+01 -6.84882E+00 +9.36422E+00 -9.02024E+00 +2.84359E-01
 -4.09256E+00 -4.99701E+00 +7.97740E-01 -3.93501E+00 +1.27903E+00 -1.14143E+00 -1.49481E-01 -1.41639E+00
 +1.38330E+00 -3.64829E+00 +6.03644E+00 -2.61509E+00 +8.25615E+00 +3.78905E+00 +3.20188E+00 +1.06902E+01
 -6.78238E+00 +1.06506E+01 -1.33107E+01 +1.79889E+00 -9.99756E+00 -9.28513E+00 +9.66510E-01 -1.33763E+01
 +1.06300E+01 -7.26741E+00 +1.16004E+01 +3.48719E+00 +4.40609E+00 +1.01950E+01 -4.07830E+00 +8.92197E+00
 -7.71274E+00 +2.86218E+00 -6.08076E+00 -2.23762E+00 -2.94721E+00 -3.88841E+00 -1.08937E+00 -3.84595E+00
 +2.68359E-01 -4.28302E+00 +3.01584E+00 -4.43431E+00 +6.38285E+00 -1.79259E+00 +6.83363E+00 +3.84624E+00
 +2.04426E+00 +8.67969E+00 -5.61734E+00 +8.03798E+00 -1.03692E+01 +1.24782E+00 -8.13229E+00 -7.04392E+00
 -3.63000E-01 -1.06974E+01 +7.21177E+00 -7.32734E+00 +9.55169E+00 +4.53652E-02 +6.09528E+00 +6.10046E+00
 +2.14675E-01 +7.62830E+00 -4.29609E+00 +5.16173E+00 -5.89188E+00 +1.18112E+00 -5.07981E+00 -2.39648E+00
 -2.71524E+00 -4.87308E+00 +7.42412E-01 -5.78990E+00 +4.47367E+00 -4.38277E+00 +6.69414E+00 -4.95272E-01
 +5.61878E+00 +4.30197E+00 +1.25152E+00 +7.18596E+00 -4.04434E+00 +6.13937E+00 -7.08152E+00 +1.66124E+00
 -6.15594E+00 -3.55373E+00 -2.06439E+00 -6.59706E+00 +2.79196E+00 -6.13849E+00 +6.04924E+00 -2.75430E+00
 +6.38500E+00 +1.84601E+00 +3.69014E+00 +5.63745E+00 -9.62467E-01 +6.81799E+00 -5.40409E+00 +4.50426E+00
 -7.11567E+00 -4.16584E-01 -4.81518E+00 -5.23815E+00 +2.54900E-01 -6.95926E+00 +4.87100E+00 -4.53973E+00
 +6.19665E+00 +1.75031E-01 +3.95331E+00 +3.97364E+00 +2.99735E-01 +4.91654E+00 -2.39328E+00 +3.52316E+00
 -3.47200E+00 +1.48870E+00 -3.67712E+00 -3.58583E-01 -3.32424E+00 -2.39702E+00 -1.55286E+00 -4.60249E+00
 +2.16222E+00 -5.34801E+00 +6.10612E+00 -2.69274E+00 +6.88815E+00 +2.87589E+00 +2.68168E+00 +7.60672E+00
 -4.14202E+00 +7.33281E+00 -8.33765E+00 +1.62283E+00 -6.42382E+00 -5.19192E+00 -1.10212E-01 -7.71132E+00
 +5.22001E+00 -4.45376E+00 +5.65139E+00 +9.71134E-01 +2.22788E+00 +3.75766E+00 -8.08238E-01 +2.70119E+00
 -9.33294E-01 +7.54834E-01 +1.49620E-01 +9.42397E-01 -7.99008E-01 +2.49423E+00 -3.92231E+00 +1.84884E+00
 -5.38514E+00 -2.50895E+00 -1.73547E+00 -7.14943E+00 +5.28714E+00 -6.68580E+00 +9.39023E+00 +1.18590E-01
 +5.90912E+00 +7.96777E+00 -2.85910E+00 +9.66977E+00 -9.26738E+00 +3.39672E+00 -7.72029E+00 -5.15876E+00
 -2.43433E-01 -8.34957E+00 +5.76034E+00 -4.18108E+00 +5.24147E+00 +2.09298E+00 +4.15438E-01 +4.01238E+00
 -2.37840E+00 +8.81225E-01 -1.90398E-01 -2.03571E+00 +3.22413E+00 -1.78717E-01 +2.12326E+00 +4.51337E+00
 -3.85674E+00 +5.56475E+00 -8.38308E+00 -2.54015E-01 -5.21831E+00 -8.21356E+00 +4.19454E+00 -9.88802E+00
 +1.11563E+01 -2.29705E+00 +8.41515E+00 +8.09702E+00 -1.94870E+00 +1.14464E+01 -1.02014E+01 +4.60011E+00
 -8.80294E+00 -5.55848E+00 -4.12037E-02 -9.27955E+00 +6.74264E+00 -4.02317E+00 +5.28568E+00 +3.38992E+00
 -1.18897E+00 +4.74341E+00 -4.22897E+00 -4.31286E-01 -1.40861E-01 -4.73867E+00 +5.66345E+00 -1.89250E+00
 +5.02407E+00 +5.49053E+00 -3.02129E+00 +8.40730E+00 -1.02006E+01 +1.83332E+00 -7.75606E+00 -8.70400E+00
 +3.40970E+00 -1.22334E+01 +1.26995E+01 -4.11288E+00 +1.05966E+01 +8.36269E+00 -1.12050E+00 +1.30801E+01
 -1.09368E+01 +5.67513E+00 -9.55115E+00 -5.94114E+00 +5.49261E-01 -1.00739E+01 +8.20131E+00 -3.59362E+00
 +5.86363E+00 +5.24609E+00 -2.44801E+00 +6.43265E+00 -6.25131E+00 -5.59271E-01 -8.62236E-01 -6.47423E+00
 +7.06910E+00 -3.23179E+00 +7.15897E+00 +6.29700E+00 -2.41032E+00 +1.10016E+01 -1.19308E+01 +4.08290E+00
 -1.04179E+01 -8.53997E+00 +1.94002E+00 -1.38038E+01 +1.30955E+01 -5.49745E+00 +1.15525E+01 +8.55557E+00
 -1.31970E+00 +1.43284E+01 -1.25381E+01 +6.29710E+00 -1.11867E+01 -6.83343E+00 +2.09041E-01 -1.16203E+01
 +8.90438E+00 -4.25186E+00 +6.07826E+00 +5.86315E+00 -3.73837E+00 +7.03808E+00 -8.28516E+00 -1.52062E+00
 -1.81140E+00 -9.04166E+00 +8.15317E+00 -5.75362E+00 +9.27830E+00 +5.49093E+00 -1.20836E+00 +1.18581E+01
 -1.25420E+01 +4.88047E+00 -1.17794E+01 -9.40005E+00 +1.71300E+00 -1.61717E+01 +1.47772E+01 -7.70099E+00
 +1.41150E+01 +7.94628E+00 +4.92049E-01 +1.51150E+01 -1.19980E+01 +7.06632E+00 -1.09439E+01 -7.06049E+00
 +1.36114E+00 -1.23593E+01 +1.09800E+01 -4.23038E+00 +7.90782E+00 +7.16301E+00 -3.11820E+00 +8.74558E+00
 -8.46506E+00 -6.68926E-01 -1.41576E+00 -9.19788E+00 +9.89898E+00 -5.65759E+00 +1.15464E+01 +7.21128E+00
 -1.38330E-01 +1.51564E+01 -1.35604E+01 +8.19192E+00 -1.40165E+01 -7.67637E+00 +4.33075E-02 -1.61329E+01
 +1.46371E+01 -7.92020E+00 +1.47889E+01 +8.94627E+00 +4.26139E-01 +1.74463E+01 -1.36279E+01 +9.52529E+00
 -1.35737E+01 -5.67046E+00 -1.12986E+00 -1.21148E+01 +9.07931E+00 -4.31301E+00 +6.06325E+00 +7.30789E+00
 -5.52459E+00 +8.71295E+00 -1.11646E+01 -1.68489E+00 -3.39750E+00 -1.12726E+01 +9.24307E+00 -7.79564E+00
 +1.15721E+01 +6.13255E+00 -8.44153E-01 +1.51242E+01 -1.57612E+01 +7.87080E+00 -1.69242E+01 -9.75027E+00
 -1.82132E+00 -2.01292E+01 +1.49866E+01 -1.24839E+01 +1.69557E+01 +5.50919E+00 +2.92621E+00 +1.57504E+01
 -1.19772E+01 +8.79883E+00 -1.27537E+01 -6.62146E+00 -2.77588E-01 -1.37653E+01 +1.06264E+01 -6.22186E+00
 +8.21185E+00 +5.74680E+00 -3.20017E+00 +7.56192E+00 -8.67935E+00 -2.75824E+00 -2.69678E-01 -1.22498E+01
 +1.32695E+01 -7.95544E+00 +1.58507E+01 +7.62108E+00 +2.40028E+00 +1.82223E+01 -1.43840E+01 +1.14010E+01
 -1.69389E+01 -7.23287E+00 -1.75207E+00 -1.90813E+01 +1.63517E+01 -1.19476E+01 +1.95123E+01 +7.06960E+00
 +5.37907E+00 +1.91309E+01 -1.09885E+01 +1.34670E+01 -1.36213E+01 -1.94016E+00 -2.37664E+00 -1.00092E+01
 +8.14674E+00 -3.46704E+00 +5.70952E+00 +7.91313E+00 -5.83826E+00 +9.36759E+00 -1.15015E+01 -1.45125E+00
 -2.97358E+00 -1.15218E+01 +1.09865E+01 -7.43430E+00 +1.37367E+01 +8.52468E+00 -3.62813E-01 +1.96079E+01
 -1.84636E+01 +1.24840E+01 -2.20597E+01 -7.64976E+00 -6.67260E+00 -2.16008E+01 +1.29559E+01 -1.59730E+01
 +1.80239E+01 +2.92136E+00 +5.01085E+00 +1.59438E+01 -1.14364E+01 +1.12496E+01 -1.47449E+01 -4.06046E+00
 -3.80654E+00 -1.28935E+01 +7.23181E+00 -7.25764E+00 +5.81134E+00 +3.72044E+00 -4.80041E+00 +5.30538E+00
 -9.80734E+00 -5.25147E+00 -6.30292E-01 -1.51502E+01 +1.42160E+01 -1.07264E+01 +1.78479E+01 +6.11273E+00
 +4.05218E+00 +1.85413E+01 -1.45889E+01 +1.25807E+01 -1.91082E+01 -7.22298E+00 -4.15686E+00 -2.16435E+01
 +1.60002E+01 -1.64932E+01 +2.21477E+01 +2.78096E+00 +9.79906E+00 +1.71788E+01 -7.04785E+00 +1.41361E+01
 -1.15932E+01 -1.50966E-01 -1.91018E+00 -8.87227E+00 +8.45253E+00 -3.54196E+00 +6.80539E+00 +7.37886E+00
 -4.16501E+00 +9.29291E+00 -9.97563E+00 -1.00412E+00 -1.72995E+00 -1.11627E+01 +1.26220E+01 -7.38528E+00
 +1.63126E+01 +9.03746E+00 +2.57568E+00 +2.16870E+01 -1.66856E+01 +1.62517E+01 -2.25519E+01 -3.55166E+00
