 Created: 16-Jan-2021
 $NMID
 ID='D:\BASISSIMULATI'
 FMTDAT='(8E13.5)'
 VOLUME=   1.00000E+00
 TRAMP=   1.00000E+00
 $END
 +9.62586E+01 +4.82412E-01 +8.65932E+01 +4.03075E+01 +6.07638E+01 +7.18105E+01 +2.41587E+01 +8.87698E+01
 -1.56503E+01 +8.80300E+01 -5.05152E+01 +7.01456E+01 -7.34330E+01 +3.92332E+01 -8.00122E+01 +2.06812E+00
 -6.93738E+01 -3.33777E+01 -4.42960E+01 -5.96405E+01 -1.05787E+01 -7.13464E+01 +2.42323E+01 -6.63323E+01
 +5.24819E+01 -4.60681E+01 +6.80509E+01 -1.52971E+01 +6.76542E+01 +1.90242E+01 +5.15171E+01 +4.92512E+01
 +2.32889E+01 +6.87105E+01 -1.07816E+01 +7.31338E+01 -4.32248E+01 +6.15588E+01 -6.69798E+01 +3.65069E+01
 -7.69221E+01 +3.40564E+00 -7.09574E+01 -3.06142E+01 -5.04496E+01 -5.82806E+01 -1.98938E+01 -7.37592E+01
 +1.40873E+01 -7.39082E+01 +4.42026E+01 -5.89358E+01 +6.40853E+01 -3.23248E+01 +6.96717E+01 -4.29193E-02
 +6.00679E+01 +3.07828E+01 +3.77166E+01 +5.34352E+01 +7.83424E+00 +6.30766E+01 -2.27569E+01 +5.77974E+01
 -4.71417E+01 +3.90165E+01 -5.98387E+01 +1.11496E+01 -5.80048E+01 -1.93802E+01 -4.20563E+01 -4.55691E+01
 -1.55710E+01 -6.13850E+01 +1.55050E+01 -6.31017E+01 +4.41704E+01 -5.01263E+01 +6.39148E+01 -2.51367E+01
 +7.01570E+01 +6.49934E+00 +6.12616E+01 +3.78967E+01 +3.89119E+01 +6.21597E+01 +7.75537E+00 +7.38951E+01
 -2.55989E+01 +7.03988E+01 -5.40146E+01 +5.22588E+01 -7.13808E+01 +2.32407E+01 -7.39441E+01 -1.05189E+01
 -6.11318E+01 -4.18372E+01 -3.56840E+01 -6.40392E+01 -3.06709E+00 -7.24051E+01 +2.97047E+01 -6.51941E+01
 +5.55854E+01 -4.40245E+01 +6.90211E+01 -1.35254E+01 +6.71509E+01 +1.96631E+01 +5.04259E+01 +4.83259E+01
 +2.25111E+01 +6.62334E+01 -1.05084E+01 +6.94880E+01 -4.14442E+01 +5.73664E+01 -6.35592E+01 +3.24742E+01
 -7.20239E+01 +1.81134E-01 -6.49587E+01 -3.25412E+01 -4.38385E+01 -5.86262E+01 -1.31707E+01 -7.24384E+01
 +2.04802E+01 -7.09883E+01 +4.99115E+01 -5.45737E+01 +6.88367E+01 -2.67108E+01 +7.32384E+01 +6.63047E+00
 +6.22296E+01 +3.83179E+01 +3.82362E+01 +6.15973E+01 +6.46490E+00 +7.15467E+01 -2.62286E+01 +6.61314E+01
 -5.28230E+01 +4.66320E+01 -6.76470E+01 +1.73555E+01 -6.75970E+01 -1.53059E+01 -5.27972E+01 -4.42640E+01
 -2.65588E+01 -6.32688E+01 +5.34925E+00 -6.82561E+01 +3.59585E+01 -5.82177E+01 +5.86143E+01 -3.54066E+01
 +6.84152E+01 -4.83665E+00 +6.32687E+01 +2.68147E+01 +4.43340E+01 +5.26594E+01 +1.57593E+01 +6.70929E+01
 -1.62274E+01 +6.70051E+01 -4.46756E+01 +5.24467E+01 -6.34216E+01 +2.66087E+01 -6.84233E+01 -4.87862E+00
 -5.86304E+01 -3.51734E+01 -3.62041E+01 -5.77090E+01 -6.04085E+00 -6.76165E+01 +2.52965E+01 -6.27761E+01
 +5.10045E+01 -4.42693E+01 +6.55134E+01 -1.61371E+01 +6.56905E+01 +1.55027E+01 +5.15122E+01 +4.37849E+01
 +2.60609E+01 +6.25843E+01 -5.15013E+00 +6.78389E+01 -3.53754E+01 +5.84220E+01 -5.80994E+01 +3.63770E+01
 -6.84432E+01 +6.46534E+00 -6.42128E+01 -2.48717E+01 -4.63626E+01 -5.09105E+01 -1.87756E+01 -6.60985E+01
 +1.25878E+01 -6.72481E+01 +4.09879E+01 -5.42136E+01 +6.03662E+01 -2.99069E+01 +6.66516E+01 +3.48068E-01
 +5.86298E+01 +2.99816E+01 +3.81901E+01 +5.26075E+01 +9.89763E+00 +6.34063E+01 -2.00125E+01 +6.01616E+01
 -4.49989E+01 +4.37263E+01 -5.96374E+01 +1.78205E+01 -6.07951E+01 -1.17936E+01 -4.83009E+01 -3.85760E+01
 -2.49693E+01 -5.66383E+01 +4.02656E+00 -6.20237E+01 +3.22925E+01 -5.35631E+01 +5.36124E+01 -3.31196E+01
 +6.33045E+01 -5.17154E+00 +5.92375E+01 +2.41721E+01 +4.22889E+01 +4.85099E+01 +1.61450E+01 +6.25453E+01
 -1.35105E+01 +6.32397E+01 -4.02417E+01 +5.04695E+01 -5.82669E+01 +2.70463E+01 -6.37191E+01 -1.90352E+00
 -5.54863E+01 -3.00634E+01 -3.54488E+01 -5.13088E+01 -8.06304E+00 -6.10455E+01 +2.06166E+01 -5.72122E+01
 +4.42643E+01 -4.07289E+01 +5.76678E+01 -1.52942E+01 +5.78699E+01 +1.34248E+01 +4.48177E+01 +3.90323E+01
 +2.13783E+01 +5.58036E+01 -7.28317E+00 +5.99399E+01 -3.48275E+01 +5.04042E+01 -5.51232E+01 +2.91576E+01
 -6.35857E+01 +7.41365E-01 -5.81827E+01 -2.87017E+01 -3.98872E+01 -5.27572E+01 -1.24791E+01 -6.61309E+01
 +1.82625E+01 -6.58006E+01 +4.58016E+01 -5.16779E+01 +6.42532E+01 -2.66379E+01 +6.96533E+01 +4.09275E+00
 +6.08155E+01 +3.40549E+01 +3.95894E+01 +5.69428E+01 +1.04656E+01 +6.79574E+01 -2.03879E+01 +6.48351E+01
 -4.64496E+01 +4.83303E+01 -6.22423E+01 +2.20489E+01 -6.45049E+01 -8.33161E+00 -5.28847E+01 -3.62845E+01
 -3.00041E+01 -5.58365E+01 -8.86620E-01 -6.28475E+01 +2.81302E+01 -5.58916E+01 +5.07612E+01 -3.65527E+01
 +6.21230E+01 -9.07119E+00 +5.97773E+01 +2.05782E+01 +4.42434E+01 +4.59777E+01 +1.88730E+01 +6.16474E+01
 -1.08837E+01 +6.42172E+01 -3.86589E+01 +5.31395E+01 -5.85397E+01 +3.07907E+01 -6.63334E+01 +1.94322E+00
 -6.04565E+01 -2.72742E+01 -4.22550E+01 -5.07023E+01 -1.56920E+01 -6.34731E+01 +1.35260E+01 -6.30454E+01
 +3.91922E+01 -4.97289E+01 +5.59415E+01 -2.65904E+01 +6.03987E+01 +1.23652E+00 +5.18872E+01 +2.76824E+01
 +3.25468E+01 +4.70666E+01 +6.83950E+00 +5.53266E+01 -1.94455E+01 +5.08862E+01 -4.04684E+01 +3.49745E+01
 -5.16165E+01 +1.13323E+01 -5.05056E+01 -1.46290E+01 -3.74875E+01 -3.70281E+01 -1.55557E+01 -5.08102E+01
 +1.03269E+01 -5.28567E+01 +3.43299E+01 -4.26645E+01 +5.10426E+01 -2.24494E+01 +5.66664E+01 +3.34680E+00
 +4.98499E+01 +2.90378E+01 +3.19858E+01 +4.89447E+01 +6.90535E+00 +5.86456E+01 -1.99618E+01 +5.59476E+01
 -4.27782E+01 +4.13714E+01 -5.65780E+01 +1.80396E+01 -5.83565E+01 -9.00387E+00 -4.77307E+01 -3.38951E+01
 -2.70275E+01 -5.12326E+01 -7.78219E-01 -5.72596E+01 +2.52678E+01 -5.06881E+01 +4.53981E+01 -3.29853E+01
 +5.51858E+01 -8.05896E+00 +5.24599E+01 +1.85910E+01 +3.77855E+01 +4.10686E+01 +1.43494E+01 +5.43683E+01
 -1.27256E+01 +5.54692E+01 -3.74901E+01 +4.40015E+01 -5.44585E+01 +2.23377E+01 -5.98036E+01 -4.91117E+00
 -5.21937E+01 -3.18854E+01 -3.30917E+01 -5.27405E+01 -6.45056E+00 -6.29096E+01 +2.21299E+01 -6.00932E+01
 +4.66033E+01 -4.47614E+01 +6.17739E+01 -2.00591E+01 +6.44129E+01 +8.86304E+00 +5.39509E+01 +3.59507E+01
 +3.25998E+01 +5.55409E+01 +4.87665E+00 +6.35719E+01 -2.33661E+01 +5.84474E+01 -4.61945E+01 +4.13710E+01
 -5.88616E+01 +1.60774E+01 -5.88165E+01 -1.19772E+01 -4.62386E+01 -3.67909E+01 -2.39836E+01 -5.31052E+01
 +3.04555E+00 -5.75268E+01 +2.89634E+01 -4.92443E+01 +4.81735E+01 -3.01848E+01 +5.65695E+01 -4.58142E+00
 +5.24097E+01 +2.19538E+01 +3.66757E+01 +4.36485E+01 +1.28431E+01 +5.58156E+01 -1.38853E+01 +5.58578E+01
 -3.77144E+01 +4.38142E+01 -5.35119E+01 +2.23344E+01 -5.79134E+01 -3.91092E+00 -5.00377E+01 -2.92538E+01
 -3.16603E+01 -4.82612E+01 -6.81114E+00 -5.69093E+01 +1.91142E+01 -5.34447E+01 +4.05331E+01 -3.87484E+01
 +5.28884E+01 -1.61253E+01 +5.36307E+01 +9.43043E+00 +4.27576E+01 +3.23332E+01 +2.27972E+01 +4.76260E+01
 -1.76016E+00 +5.20568E+01 -2.54545E+01 +4.47773E+01 -4.30546E+01 +2.75144E+01 -5.07020E+01 +4.17915E+00
 -4.67493E+01 -2.00005E+01 -3.21128E+01 -3.96301E+01 -1.00636E+01 -5.03329E+01 +1.44957E+01 -4.97071E+01
 +3.61092E+01 -3.78500E+01 +4.99653E+01 -1.73339E+01 +5.29510E+01 +7.35881E+00 +4.43341E+01 +3.08173E+01
 +2.59250E+01 +4.78864E+01 +1.68266E+00 +5.47939E+01 -2.31478E+01 +4.99763E+01 -4.31785E+01 +3.44222E+01
 -5.40529E+01 +1.14600E+01 -5.33954E+01 -1.39646E+01 -4.13309E+01 -3.63628E+01 -2.04588E+01 -5.08958E+01
 +4.70944E+00 -5.44261E+01 +2.87293E+01 -4.61997E+01 +4.64040E+01 -2.80102E+01 +5.39123E+01 -3.81041E+00
 +4.96365E+01 +2.11452E+01 +3.45132E+01 +4.14393E+01 +1.18299E+01 +5.26659E+01 -1.34884E+01 +5.23849E+01
 -3.59466E+01 +4.06491E+01 -5.06688E+01 +1.99921E+01 -5.44543E+01 -5.12148E+00 -4.64681E+01 -2.92638E+01
 -2.84200E+01 -4.72178E+01 -4.19236E+00 -5.51052E+01 +2.10015E+01 -5.12231E+01 +4.17450E+01 -3.64082E+01
 +5.35886E+01 -1.38525E+01 +5.40080E+01 +1.15903E+01 +4.29452E+01 +3.44562E+01 +2.28146E+01 +4.98514E+01
 -2.02467E+00 +5.45070E+01 -2.62155E+01 +4.74791E+01 -4.45624E+01 +3.03453E+01 -5.31526E+01 +6.85519E+00
 -5.01964E+01 -1.78877E+01 -3.64060E+01 -3.85335E+01 -1.48312E+01 -5.06439E+01 +9.80909E+00 -5.16476E+01
 +3.21547E+01 -4.13903E+01 +4.73673E+01 -2.21574E+01 +5.21763E+01 +1.82981E+00 +4.55813E+01 +2.53368E+01
 +2.90606E+01 +4.32538E+01 +6.24147E+00 +5.17039E+01 -1.78936E+01 +4.88789E+01 -3.80928E+01 +3.54255E+01
 -4.99753E+01 +1.42964E+01 -5.09792E+01 -9.89685E+00 -4.09120E+01 -3.18902E+01 -2.19860E+01 -4.69107E+01
 +1.66881E+00 -5.17115E+01 +2.49055E+01 -4.52720E+01 +4.26800E+01 -2.90135E+01 +5.11450E+01 -6.48512E+00
 +4.84813E+01 +1.74118E+01 +3.52878E+01 +3.74898E+01 +1.44454E+01 +4.94008E+01 -9.51297E+00 +5.05771E+01
 -3.13894E+01 +4.07832E+01 -4.64491E+01 +2.21613E+01 -5.14449E+01 -1.23948E+00 -4.53175E+01 -2.43449E+01
 -2.94186E+01 -4.21582E+01 -7.21143E+00 -5.08418E+01 +1.64854E+01 -4.85457E+01 +3.65458E+01 -3.58018E+01
 +4.86474E+01 -1.54015E+01 +5.02050E+01 +8.21594E+00 +4.09254E+01 +2.99307E+01 +2.28627E+01 +4.50536E+01
 -3.44156E-02 +5.03407E+01 -2.27851E+01 +4.46914E+01 -4.04595E+01 +2.93792E+01 -4.92473E+01 +7.76739E+00
 -4.72799E+01 -1.54278E+01 -3.50286E+01 -3.51648E+01 -1.51944E+01 -4.71714E+01 +7.88659E+00 -4.88690E+01
 +2.91893E+01 -3.99262E+01 +4.40933E+01 -2.23228E+01 +4.93842E+01 +8.83286E-02 +4.39468E+01 +2.24240E+01
 +2.90002E+01 +3.98354E+01 +7.82476E+00 +4.85607E+01 -1.49576E+01 +4.67393E+01 -3.43923E+01 +3.48099E+01
 -4.62708E+01 +1.54076E+01 -4.80432E+01 -7.21656E+00 -3.93681E+01 -2.81246E+01 -2.21805E+01 -4.27691E+01
 -2.64393E-01 -4.79815E+01 +2.15763E+01 -4.26592E+01 +3.85664E+01 -2.80005E+01 +4.69999E+01 -7.23907E+00
 +4.50460E+01 +1.50647E+01 +3.31449E+01 +3.40195E+01 +1.39093E+01 +4.54700E+01 -8.44726E+00 +4.69014E+01
 -2.90294E+01 +3.79866E+01 -4.33267E+01 +2.06563E+01 -4.81962E+01 -1.32158E+00 -4.25459E+01 -2.31621E+01
 -2.75729E+01 -4.01043E+01 -6.50393E+00 -4.84457E+01 +1.61055E+01 -4.63475E+01 +3.53591E+01 -3.42342E+01
 +4.70827E+01 -1.47021E+01 +4.87285E+01 +8.04324E+00 +3.99279E+01 +2.90978E+01 +2.25708E+01 +4.39212E+01
 +3.96025E-01 +4.93191E+01 -2.18181E+01 +4.41334E+01 -3.92876E+01 +2.94911E+01 -4.82563E+01 +8.55926E+00
 -4.68066E+01 -1.41421E+01 -3.52708E+01 -3.37175E+01 -1.61560E+01 -4.59534E+01 +6.40050E+00 -4.82270E+01
 +2.75277E+01 -4.00688E+01 +4.26732E+01 -2.32593E+01 +4.85846E+01 -1.43996E+00 +4.40075E+01 +2.06773E+01
