 Created: 16-Jan-2021
 $NMID
 ID='D:\BASISSIMULATI'
 FMTDAT='(8E13.5)'
 VOLUME=   1.00000E+00
 TRAMP=   1.00000E+00
 $END
 +5.05619E+01 +2.54864E-01 +4.49470E+01 +1.17099E+01 +2.99608E+01 +2.15379E+01 +9.87628E+00 +2.83172E+01
 -9.74016E+00 +3.09221E+01 -2.37596E+01 +2.87913E+01 -2.90314E+01 +2.22195E+01 -2.52420E+01 +1.25249E+01
 -1.48410E+01 +1.94250E+00 -2.10146E+00 -6.82814E+00 +8.33844E+00 -1.13574E+01 +1.29499E+01 -1.02956E+01
 +1.03327E+01 -3.97033E+00 +1.48633E+00 +5.49392E+00 -1.06879E+01 +1.46596E+01 -2.24252E+01 +1.97818E+01
 -3.02898E+01 +1.80464E+01 -3.21315E+01 +8.62959E+00 -2.75391E+01 -6.81226E+00 -1.77254E+01 -2.44473E+01
 -4.97411E+00 -3.93293E+01 +8.09912E+00 -4.69077E+01 +1.92103E+01 -4.45016E+01 +2.68153E+01 -3.22392E+01
 +3.02187E+01 -1.31251E+01 +2.94601E+01 +7.81809E+00 +2.51136E+01 +2.50712E+01 +1.81182E+01 +3.43136E+01
 +9.68276E+00 +3.37365E+01 +1.22649E+00 +2.45433E+01 -5.73555E+00 +1.04821E+01 -9.83006E+00 -3.42205E+00
 -1.01820E+01 -1.25052E+01 -6.78686E+00 -1.39268E+01 -7.31829E-01 -7.48945E+00 +5.89634E+00 +4.42254E+00
 +1.04843E+01 +1.77220E+01 +1.06679E+01 +2.79858E+01 +5.18618E+00 +3.18397E+01 -5.49228E+00 +2.79189E+01
 -1.90414E+01 +1.71341E+01 -3.17762E+01 +2.22375E+00 -3.96873E+01 -1.31916E+01 -3.97137E+01 -2.57021E+01
 -3.08337E+01 -3.29900E+01 -1.45810E+01 -3.42632E+01 +5.24176E+00 -3.01856E+01 +2.36108E+01 -2.24244E+01
 +3.57838E+01 -1.30382E+01 +3.87762E+01 -3.92991E+00 +3.23174E+01 +3.48835E+00 +1.89527E+01 +8.39577E+00
 +3.23936E+00 +1.05026E+01 -9.71101E+00 +9.94596E+00 -1.58653E+01 +7.22857E+00 -1.35402E+01 +3.21080E+00
 -3.89543E+00 -9.06307E-01 +9.50116E+00 -3.70227E+00 +2.18769E+01 -3.82265E+00 +2.88124E+01 -4.01160E-01
 +2.76357E+01 +6.50938E+00 +1.82085E+01 +1.56849E+01 +2.87885E+00 +2.48263E+01 -1.43399E+01 +3.10683E+01
 -2.90514E+01 +3.18095E+01 -3.77817E+01 +2.56200E+01 -3.88947E+01 +1.29083E+01 -3.28683E+01 -3.93253E+00
 -2.19147E+01 -2.10278E+01 -9.14358E+00 -3.40761E+01 +2.41089E+00 -3.96518E+01 +1.05790E+01 -3.63306E+01
 +1.44504E+01 -2.52394E+01 +1.43329E+01 -9.80664E+00 +1.13863E+01 +5.24984E+00 +7.12692E+00 +1.53920E+01
 +2.99396E+00 +1.77130E+01 +9.03894E-02 +1.18855E+01 -8.96631E-01 +2.79136E-01 +3.29280E-01 -1.28043E+01
 +3.70459E+00 -2.25319E+01 +8.78486E+00 -2.51145E+01 +1.46896E+01 -1.90349E+01 +2.00971E+01 -5.52956E+00
 +2.33884E+01 +1.18214E+01 +2.29913E+01 +2.82428E+01 +1.78750E+01 +3.92552E+01 +8.04423E+00 +4.20169E+01
 -5.17412E+00 +3.60933E+01 -1.92280E+01 +2.34411E+01 -3.08836E+01 +7.66525E+00 -3.71089E+01 -7.16227E+00
 -3.60414E+01 -1.77116E+01 -2.77060E+01 -2.22510E+01 -1.41965E+01 -2.09221E+01 +8.07829E-01 -1.54206E+01
 +1.30912E+01 -8.26591E+00 +1.92073E+01 -1.94901E+00 +1.76148E+01 +1.75447E+00 +9.24403E+00 +2.12687E+00
 -2.72747E+00 -5.24283E-01 -1.38548E+01 -5.17021E+00 -1.98582E+01 -1.04643E+01 -1.80421E+01 -1.50869E+01
 -8.22501E+00 -1.79486E+01 +7.14027E+00 -1.82638E+01 +2.37055E+01 -1.55699E+01 +3.65861E+01 -9.77313E+00
 +4.18930E+01 -1.25108E+00 +3.79346E+01 +9.03208E+00 +2.57036E+01 +1.95020E+01 +8.50900E+00 +2.81461E+01
 -9.10114E+00 +3.29214E+01 -2.27506E+01 +3.23300E+01 -2.95132E+01 +2.59880E+01 -2.86593E+01 +1.49645E+01
 -2.16710E+01 +1.70419E+00 -1.15791E+01 -1.05259E+01 -1.89255E+00 -1.85499E+01 +4.50201E+00 -2.02878E+01
 +6.11985E+00 -1.55100E+01 +3.13130E+00 -6.04598E+00 -2.91954E+00 +4.67871E+00 -9.76253E+00 +1.26776E+01
 -1.51532E+01 +1.46989E+01 -1.74764E+01 +9.35427E+00 -1.60490E+01 -2.31453E+00 -1.11016E+01 -1.70526E+01
 -3.53698E+00 -3.03540E+01 +5.38577E+00 -3.78727E+01 +1.43157E+01 -3.68232E+01 +2.19674E+01 -2.69051E+01
 +2.71994E+01 -1.04404E+01 +2.90879E+01 +8.32700E+00 +2.70604E+01 +2.45385E+01 +2.10934E+01 +3.42022E+01
 +1.19020E+01 +3.53670E+01 +1.00040E+00 +2.86171E+01 -9.47763E+00 +1.67550E+01 -1.72308E+01 +3.80880E+00
 -2.04290E+01 -6.28165E+00 -1.83449E+01 -1.08593E+01 -1.17403E+01 -9.25253E+00 -2.81216E+00 -2.79971E+00
 +5.35762E+00 +5.75320E+00 +9.72814E+00 +1.32308E+01 +8.32107E+00 +1.70329E+01 +9.88403E-01 +1.58456E+01
 -1.03698E+01 +9.87604E+00 -2.22651E+01 +6.05260E-01 -3.06553E+01 -9.78463E+00 -3.22402E+01 -1.90741E+01
 -2.55930E+01 -2.55408E+01 -1.17347E+01 -2.82366E+01 +6.06697E+00 -2.69987E+01 +2.32372E+01 -2.22848E+01
 +3.52794E+01 -1.49570E+01 +3.91587E+01 -6.11198E+00 +3.42284E+01 +3.01649E+00 +2.23949E+01 +1.11259E+01
 +7.47245E+00 +1.69592E+01 -6.05197E+00 +1.95139E+01 -1.44285E+01 +1.83269E+01 -1.57681E+01 +1.37385E+01
 -1.05268E+01 +6.99561E+00 -1.22199E+00 +7.84378E-02 +8.48819E+00 -4.77458E+00 +1.50286E+01 -5.74516E+00
 +1.60216E+01 -2.10603E+00 +1.09437E+01 +5.36764E+00 +1.15246E+00 +1.44449E+01 -1.06664E+01 +2.19992E+01
 -2.13985E+01 +2.49533E+01 -2.84266E+01 +2.13220E+01 -3.02902E+01 +1.09956E+01 -2.69179E+01 -4.03216E+00
 -1.94298E+01 -2.01202E+01 -9.65283E+00 -3.30152E+01 +4.43070E-01 -3.91514E+01 +9.19991E+00 -3.67932E+01
 +1.55138E+01 -2.66304E+01 +1.88676E+01 -1.16097E+01 +1.92362E+01 +3.96082E+00 +1.69691E+01 +1.57498E+01
 +1.27171E+01 +2.07483E+01 +7.40428E+00 +1.81796E+01 +2.18504E+00 +9.67946E+00 -1.68946E+00 -1.30235E+00
 -3.13232E+00 -1.06662E+01 -1.56858E+00 -1.49984E+01 +2.74885E+00 -1.26376E+01 +8.60949E+00 -4.13641E+00
 +1.40221E+01 +8.00173E+00 +1.67181E+01 +2.01868E+01 +1.48689E+01 +2.88932E+01 +7.79186E+00 +3.17112E+01
 -3.61785E+00 +2.79734E+01 -1.69321E+01 +1.87993E+01 -2.87659E+01 +6.60334E+00 -3.57485E+01 -5.71573E+00
 -3.55958E+01 -1.56143E+01 -2.79238E+01 -2.15085E+01 -1.45018E+01 -2.30008E+01 +1.18032E+00 -2.07333E+01
 +1.49268E+01 -1.59939E+01 +2.31213E+01 -1.02599E+01 +2.38647E+01 -4.83383E+00 +1.75807E+01 -6.52765E-01
 +6.87720E+00 +1.74600E+00 -4.30233E+00 +2.17816E+00 -1.19619E+01 +7.70415E-01 -1.33473E+01 -2.03538E+00
 -7.82424E+00 -5.45613E+00 +2.94273E+00 -8.39350E+00 +1.55578E+01 -9.58850E+00 +2.60046E+01 -7.92981E+00
 +3.09226E+01 -2.85575E+00 +2.86299E+01 +5.28830E+00 +1.95751E+01 +1.51047E+01 +6.10438E+00 +2.43349E+01
 -8.33968E+00 +3.04005E+01 -2.02924E+01 +3.11698E+01 -2.72541E+01 +2.57110E+01 -2.82895E+01 +1.47584E+01
 -2.40950E+01 +6.84829E-01 -1.65770E+01 -1.30726E+01 -8.13986E+00 -2.29940E+01 -9.47729E-01 -2.65669E+01
 +3.60845E+00 -2.31209E+01 +5.11390E+00 -1.41070E+01 +4.01335E+00 -2.69535E+00 +1.29060E+00 +7.20737E+00
 -1.89821E+00 +1.22108E+01 -4.50834E+00 +1.05549E+01 -5.75254E+00 +2.70722E+00 -5.13488E+00 -8.76358E+00
 -2.44493E+00 -2.00048E+01 +2.22078E+00 -2.71196E+01 +8.39223E+00 -2.74211E+01 +1.51610E+01 -2.02862E+01
 +2.12032E+01 -7.33992E+00 +2.49684E+01 +8.07901E+00 +2.50452E+01 +2.19738E+01 +2.06286E+01 +3.09091E+01
 +1.19294E+01 +3.29968E+01 +3.46254E-01 +2.83464E+01 -1.17276E+01 +1.88742E+01 -2.14720E+01 +7.58018E+00
 -2.64472E+01 -2.43436E+00 -2.53894E+01 -8.87276E+00 -1.87140E+01 -1.07983E+01 -8.51502E+00 -8.70746E+00
 +1.99244E+00 -4.16446E+00 +9.44432E+00 +8.23150E-01 +1.14132E+01 +4.44958E+00 +7.24433E+00 +5.57304E+00
 -1.65686E+00 +3.89117E+00 -1.22118E+01 -1.55090E-01 -2.06273E+01 -5.64365E+00 -2.36229E+01 -1.14646E+01
 -1.95236E+01 -1.65422E+01 -8.84996E+00 -1.99520E+01 +5.79732E+00 -2.09692E+01 +2.05261E+01 -1.91148E+01
 +3.13550E+01 -1.42493E+01 +3.54340E+01 -6.70919E+00 +3.18867E+01 +2.58268E+00 +2.20115E+01 +1.21307E+01
 +8.79811E+00 +2.00828E+01 -4.05797E+00 +2.46508E+01 -1.33011E+01 +2.46419E+01 -1.70485E+01 +1.99247E+01
 -1.52265E+01 +1.16389E+01 -9.41263E+00 +2.01655E+00 -2.18292E+00 -6.19223E+00 +3.77888E+00 -1.05439E+01
 +6.50403E+00 -9.71947E+00 +5.24198E+00 -4.04658E+00 +5.28115E-01 +4.48721E+00 -6.14193E+00 +1.27818E+01
 -1.28664E+01 +1.75885E+01 -1.79078E+01 +1.65899E+01 -2.01014E+01 +9.23165E+00 -1.90177E+01 -2.98799E+00
 -1.48975E+01 -1.68961E+01 -8.45538E+00 -2.85879E+01 -6.64426E-01 -3.46380E+01 +7.40182E+00 -3.31827E+01
 +1.46569E+01 -2.45167E+01 +2.00635E+01 -1.10028E+01 +2.27330E+01 +3.67153E+00 +2.20953E+01 +1.56433E+01
 +1.81114E+01 +2.20488E+01 +1.14418E+01 +2.18430E+01 +3.45700E+00 +1.60129E+01 -3.98618E+00 +7.14239E+00
 -8.99919E+00 -1.49836E+00 -1.02364E+01 -7.01780E+00 -7.40189E+00 -7.77154E+00 -1.48623E+00 -3.77100E+00
 +5.40326E+00 +3.45958E+00 +1.06204E+01 +1.14812E+01 +1.18164E+01 +1.77575E+01 +7.76958E+00 +2.04092E+01
 -1.08442E+00 +1.86784E+01 -1.26364E+01 +1.29999E+01 -2.36514E+01 +4.72062E+00 -3.07350E+01 -4.38260E+00
 -3.14168E+01 -1.25998E+01 -2.49913E+01 -1.86466E+01 -1.28209E+01 -2.18183E+01 +2.01906E+00 -2.19623E+01
 +1.56551E+01 -1.93549E+01 +2.45986E+01 -1.45726E+01 +2.68121E+01 -8.41030E+00 +2.23083E+01 -1.83835E+00
 +1.30892E+01 +4.05696E+00 +2.45488E+00 +8.20771E+00 -6.08120E+00 +9.79308E+00 -9.90561E+00 +8.51500E+00
 -8.08544E+00 +4.81448E+00 -1.57685E+00 -9.41978E-02 +7.17799E+00 -4.45135E+00 +1.51015E+01 -6.42921E+00
 +1.94774E+01 -4.73701E+00 +1.87650E+01 +8.46847E-01 +1.29854E+01 +9.22628E+00 +3.59713E+00 +1.81601E+01
 -7.04883E+00 +2.48550E+01 -1.64572E+01 +2.68228E+01 -2.26818E+01 +2.27311E+01 -2.47591E+01 +1.29502E+01
 -2.27932E+01 -4.18097E-01 -1.77309E+01 -1.40789E+01 -1.09628E+01 -2.45063E+01 -3.91192E+00 -2.90260E+01
 +2.26192E+00 -2.66644E+01 +6.79352E+00 -1.84715E+01 +9.30850E+00 -7.19890E+00 +9.75980E+00 +3.57181E+00
 +8.37622E+00 +1.05675E+01 +5.65140E+00 +1.18542E+01 +2.34546E+00 +7.42259E+00 -5.64423E-01 -8.59257E-01
 -2.04120E+00 -9.89730E+00 -1.25931E+00 -1.63997E+01 +2.07465E+00 -1.79351E+01 +7.47419E+00 -1.36759E+01
 +1.36303E+01 -4.60121E+00 +1.86542E+01 +6.87818E+00 +2.05866E+01 +1.77172E+01 +1.80387E+01 +2.51740E+01
 +1.07549E+01 +2.75806E+01 -1.22211E-01 +2.47189E+01 -1.22231E+01 +1.77276E+01 -2.25560E+01 +8.62199E+00
 -2.83840E+01 -3.72197E-01 -2.80983E+01 -7.43956E+00 -2.17900E+01 -1.15673E+01 -1.13028E+01 -1.26336E+01
 +2.81115E-01 -1.12306E+01 +9.57883E+00 -8.34323E+00 +1.39712E+01 -5.02207E+00 +1.24421E+01 -2.15445E+00
 +5.90778E+00 -3.64147E-01 -3.08160E+00 -5.22712E-03 -1.11755E+01 -1.18264E+00 -1.53174E+01 -3.74518E+00
 -1.37382E+01 -7.24374E+00 -6.52162E+00 -1.09000E+01 +4.43573E+00 -1.36575E+01 +1.60451E+01 -1.43686E+01
 +2.50082E+01 -1.21120E+01 +2.88309E+01 -6.55950E+00 +2.65428E+01 +1.74524E+00 +1.89061E+01 +1.13363E+01
