 Created: 16-Jan-2021
 $NMID
 ID='D:\BASISSIMULATI'
 FMTDAT='(8E13.5)'
 VOLUME=   1.00000E+00
 TRAMP=   1.00000E+00
 $END
 +3.37071E+01 +1.69047E-01 +2.86025E+01 +7.68086E+00 +1.50348E+01 +1.37997E+01 -2.80418E+00 +1.73099E+01
 -1.94751E+01 +1.72664E+01 -3.00146E+01 +1.32537E+01 -3.14671E+01 +5.66948E+00 -2.37325E+01 -4.11407E+00
 -9.48026E+00 -1.38593E+01 +6.80265E+00 -2.09154E+01 +2.02815E+01 -2.29506E+01 +2.72596E+01 -1.87558E+01
 +2.62068E+01 -8.83457E+00 +1.80376E+01 +4.48727E+00 +5.61767E+00 +1.75569E+01 -7.27203E+00 +2.64120E+01
 -1.71294E+01 +2.80312E+01 -2.16913E+01 +2.14049E+01 -2.03932E+01 +8.03560E+00 -1.42631E+01 -8.35832E+00
 -5.37898E+00 -2.28977E+01 +3.85936E+00 -3.10487E+01 +1.13812E+01 -3.00963E+01 +1.58416E+01 -2.00856E+01
 +1.67189E+01 -3.89384E+00 +1.41918E+01 +1.36206E+01 +8.93101E+00 +2.71306E+01 +1.92400E+00 +3.25248E+01
 -5.62171E+00 +2.82087E+01 -1.23389E+01 +1.55934E+01 -1.68112E+01 -1.38318E+00 -1.78060E+01 -1.75352E+01
 -1.46221E+01 -2.80751E+01 -7.45291E+00 -3.00834E+01 +2.40375E+00 -2.33321E+01 +1.26495E+01 -1.02254E+01
 +2.04702E+01 +5.08101E+00 +2.33227E+01 +1.80501E+01 +1.97989E+01 +2.51554E+01 +1.02603E+01 +2.48499E+01
 -3.02837E+00 +1.78419E+01 -1.63945E+01 +6.65973E+00 -2.57914E+01 -5.28377E+00 -2.80731E+01 -1.47712E+01
 -2.20906E+01 -1.96519E+01 -9.21462E+00 -1.92662E+01 +6.94129E+00 -1.43684E+01 +2.15581E+01 -6.66928E+00
 +3.01025E+01 +1.77827E+00 +2.97915E+01 +9.12566E+00 +2.05377E+01 +1.40610E+01 +5.04052E+00 +1.59033E+01
 -1.20258E+01 +1.45349E+01 -2.54762E+01 +1.02875E+01 -3.12520E+01 +3.86948E+00 -2.76931E+01 -3.65267E+00
 -1.60301E+01 -1.08834E+01 +5.50512E-02 -1.62300E+01 +1.56383E+01 -1.81974E+01 +2.61203E+01 -1.58184E+01
 +2.86310E+01 -9.08973E+00 +2.28267E+01 +7.72434E-01 +1.08538E+01 +1.14286E+01 -3.46049E+00 +1.99271E+01
 -1.58802E+01 +2.35392E+01 -2.30574E+01 +2.06736E+01 -2.34406E+01 +1.15527E+01 -1.75462E+01 -1.63090E+00
 -7.57701E+00 -1.52062E+01 +3.41430E+00 -2.50673E+01 +1.24946E+01 -2.79652E+01 +1.76337E+01 -2.26232E+01
 +1.80910E+01 -1.02791E+01 +1.43654E+01 +5.57088E+00 +7.81802E+00 +2.01878E+01 +1.65368E-01 +2.90602E+01
 -6.96489E+00 +2.93540E+01 -1.23041E+01 +2.08566E+01 -1.50308E+01 +6.08786E+00 -1.47537E+01 -1.04733E+01
 -1.14855E+01 -2.37997E+01 -5.66671E+00 -2.99014E+01 +1.77892E+00 -2.70657E+01 +9.44185E+00 -1.63492E+01
 +1.55759E+01 -1.17804E+00 +1.84492E+01 +1.37924E+01 +1.68478E+01 +2.41617E+01 +1.05803E+01 +2.71219E+01
 +7.75145E-01 +2.22251E+01 -1.02052E+01 +1.13690E+01 -1.92970E+01 -1.94362E+00 -2.36098E+01 -1.37793E+01
 -2.13858E+01 -2.09760E+01 -1.27124E+01 -2.19896E+01 +2.99929E-01 -1.71583E+01 +1.40016E+01 -8.37268E+00
 +2.42514E+01 +1.66576E+00 +2.77180E+01 +1.03065E+01 +2.30089E+01 +1.56459E+01 +1.12293E+01 +1.68771E+01
 -4.25300E+00 +1.42618E+01 -1.87974E+01 +8.82876E+00 -2.79342E+01 +1.97048E+00 -2.87943E+01 -4.90433E+00
 -2.10483E+01 -1.05792E+01 -7.03531E+00 -1.41106E+01 +8.96987E+00 -1.48561E+01 +2.21119E+01 -1.25296E+01
 +2.84850E+01 -7.31587E+00 +2.63362E+01 +4.82218E-03 +1.65558E+01 +8.02209E+00 +2.31469E+00 +1.48585E+01
 -1.20047E+01 +1.85701E+01 -2.22101E+01 +1.77163E+01 -2.55673E+01 +1.19258E+01 -2.15362E+01 +2.23501E+00
 -1.17749E+01 -8.98764E+00 +5.32122E-01 -1.85902E+01 +1.17543E+01 -2.35444E+01 +1.89213E+01 -2.19424E+01
 +2.05071E+01 -1.37409E+01 +1.66860E+01 -9.60195E-01 +9.05043E+00 +1.27898E+01 -3.94501E-02 +2.33550E+01
 -8.21241E+00 +2.73420E+01 -1.36973E+01 +2.32545E+01 -1.56338E+01 +1.20662E+01 -1.40650E+01 -2.99281E+00
 -9.70563E+00 -1.73968E+01 -3.63679E+00 -2.67364E+01 +2.94848E+00 -2.81229E+01 +8.89397E+00 -2.11189E+01
 +1.31516E+01 -7.88296E+00 +1.48499E+01 +7.52147E+00 +1.34251E+01 +2.04232E+01 +8.81792E+00 +2.70146E+01
 +1.66609E+00 +2.55146E+01 -6.63139E+00 +1.66550E+01 -1.40872E+01 +3.35421E+00 -1.85692E+01 -1.02814E+01
 -1.84299E+01 -2.02754E+01 -1.31279E+01 -2.39782E+01 -3.60391E+00 -2.07686E+01 +7.78353E+00 -1.20762E+01
 +1.78168E+01 -7.73053E-01 +2.33528E+01 +9.81107E+00 +2.23501E+01 +1.69021E+01 +1.46401E+01 +1.90028E+01
 +2.14584E+00 +1.61374E+01 -1.15792E+01 +9.61443E+00 -2.23892E+01 +1.46414E+00 -2.68478E+01 -6.21735E+00
 -2.33672E+01 -1.17956E+01 -1.27915E+01 -1.43700E+01 +1.79479E+00 -1.37827E+01 +1.59954E+01 -1.04533E+01
 +2.54784E+01 -5.16483E+00 +2.73503E+01 +1.10101E+00 +2.10748E+01 +7.25538E+00 +8.63155E+00 +1.21623E+01
 -6.13331E+00 +1.47434E+01 -1.87434E+01 +1.41774E+01 -2.55015E+01 +1.01745E+01 -2.46107E+01 +3.23103E+00
 -1.66524E+01 -5.27640E+00 -4.29659E+00 -1.32707E+01 +8.62805E+00 -1.84553E+01 +1.83671E+01 -1.89953E+01
 +2.23649E+01 -1.41894E+01 +1.99312E+01 -4.87934E+00 +1.22775E+01 +6.59990E+00 +1.97166E+00 +1.69867E+01
 -7.95459E+00 +2.30452E+01 -1.49269E+01 +2.26166E+01 -1.74861E+01 +1.54128E+01 -1.55203E+01 +3.25406E+00
 -1.00693E+01 -1.03777E+01 -2.84524E+00 -2.13646E+01 +4.32529E+00 -2.62460E+01 +9.94807E+00 -2.33543E+01
 +1.30941E+01 -1.34071E+01 +1.34227E+01 +6.62672E-01 +1.10767E+01 +1.46016E+01 +6.55584E+00 +2.41710E+01
 +6.35216E-01 +2.64869E+01 -5.66968E+00 +2.09230E+01 -1.11509E+01 +9.28237E+00 -1.45447E+01 -4.80986E+00
 -1.47926E+01 -1.70811E+01 -1.13881E+01 -2.39565E+01 -4.68798E+00 -2.36340E+01 +3.96317E+00 -1.65539E+01
 +1.24178E+01 -5.14241E+00 +1.82376E+01 +7.04928E+00 +1.94197E+01 +1.64934E+01 +1.51131E+01 +2.07374E+01
 +6.05945E+00 +1.90327E+01 -5.44320E+00 +1.23839E+01 -1.61093E+01 +3.06413E+00 -2.26313E+01 -6.18907E+00
 -2.27493E+01 -1.30031E+01 -1.60621E+01 -1.59658E+01 -4.28257E+00 -1.48425E+01 +9.19252E+00 -1.04199E+01
 +2.02916E+01 -4.10478E+00 +2.55469E+01 +2.53945E+00 +2.32234E+01 +8.16111E+00 +1.39159E+01 +1.18142E+01
 +4.00472E-01 +1.29925E+01 -1.32235E+01 +1.15814E+01 -2.28250E+01 +7.81172E+00 -2.55429E+01 +2.25811E+00
 -2.06703E+01 -4.14249E+00 -9.83727E+00 -1.01253E+01 +3.55485E+00 -1.42618E+01 +1.54447E+01 -1.52771E+01
 +2.23898E+01 -1.24615E+01 +2.25939E+01 -6.03561E+00 +1.63656E+01 +2.69710E+00 +5.89285E+00 +1.15367E+01
 -5.54899E+00 +1.79250E+01 -1.46623E+01 +1.97103E+01 -1.91050E+01 +1.59028E+01 -1.80814E+01 +7.14308E+00
 -1.24010E+01 -4.31927E+00 -4.05150E+00 -1.51936E+01 +4.51791E+00 -2.21211E+01 +1.11376E+01 -2.27562E+01
 +1.44503E+01 -1.65918E+01 +1.41120E+01 -5.22972E+00 +1.06716E+01 +8.03028E+00 +5.24432E+00 +1.91798E+01
 -8.62220E-01 +2.47607E+01 -6.44041E+00 +2.29823E+01 -1.05377E+01 +1.43210E+01 -1.24997E+01 +1.39222E+00
 -1.19731E+01 -1.18684E+01 -8.93500E+00 -2.14504E+01 -3.76632E+00 -2.45283E+01 +2.67876E+00 -2.03239E+01
 +9.09284E+00 -1.02986E+01 +1.39028E+01 +2.37134E+00 +1.56375E+01 +1.38416E+01 +1.33983E+01 +2.08111E+01
 +7.27328E+00 +2.14998E+01 -1.48300E+00 +1.60937E+01 -1.06353E+01 +6.54961E+00 -1.75263E+01 -4.13033E+00
 -1.98748E+01 -1.28806E+01 -1.65625E+01 -1.74766E+01 -8.12965E+00 -1.70856E+01 +3.23338E+00 -1.23341E+01
 +1.42482E+01 -4.93537E+00 +2.15242E+01 +2.94374E+00 +2.26453E+01 +9.33641E+00 +1.70058E+01 +1.29472E+01
 +6.09448E+00 +1.33361E+01 -6.89698E+00 +1.08298E+01 -1.80386E+01 +6.26599E+00 -2.38975E+01 +7.04714E-01
 -2.26390E+01 -4.79100E+00 -1.46258E+01 -9.27185E+00 -2.31078E+00 -1.19518E+01 +1.05428E+01 -1.22577E+01
 +2.00567E+01 -9.92877E+00 +2.34528E+01 -5.15918E+00 +1.98910E+01 +1.28281E+00 +1.06690E+01 +8.06048E+00
 -1.26170E+00 +1.34756E+01 -1.22785E+01 +1.58808E+01 -1.92295E+01 +1.42025E+01 -2.03606E+01 +8.40097E+00
 -1.57446E+01 -3.25072E-01 -7.11486E+00 -9.72082E+00 +2.79576E+00 -1.70504E+01 +1.11547E+01 -1.99208E+01
 +1.58605E+01 -1.70970E+01 +1.60534E+01 -9.01920E+00 +1.21893E+01 +2.19017E+00 +5.71787E+00 +1.32814E+01
 -1.46847E+00 +2.08500E+01 -7.60482E+00 +2.24248E+01 -1.14640E+01 +1.73089E+01 -1.25223E+01 +6.87636E+00
 -1.09002E+01 -5.79801E+00 -7.17245E+00 -1.68768E+01 -2.16039E+00 -2.29671E+01 +3.21719E+00 -2.22014E+01
 +8.02322E+00 -1.48344E+01 +1.13561E+01 -3.15494E+00 +1.24417E+01 +9.25273E+00 +1.07966E+01 +1.86530E+01
 +6.43670E+00 +2.23259E+01 +4.16826E-02 +1.93790E+01 -7.03475E+00 +1.09518E+01 -1.29880E+01 -2.27679E-01
 -1.60139E+01 -1.07615E+01 -1.48786E+01 -1.76537E+01 -9.41926E+00 -1.91849E+01 -7.73071E-01 -1.53247E+01
 +8.80042E+00 -7.59121E+00 +1.65058E+01 +1.54706E+00 +1.98562E+01 +9.48999E+00 +1.75111E+01 +1.42642E+01
 +9.81231E+00 +1.49926E+01 -1.19373E+00 +1.19722E+01 -1.23009E+01 +6.40159E+00 -2.01080E+01 -9.33370E-02
 -2.21030E+01 -5.94744E+00 -1.75057E+01 -1.00073E+01 -7.57542E+00 -1.16778E+01 +4.73815E+00 -1.08888E+01
 +1.57028E+01 -7.96686E+00 +2.19789E+01 -3.50451E+00 +2.16776E+01 +1.72264E+00 +1.49509E+01 +6.79793E+00
 +3.92405E+00 +1.07198E+01 -8.00351E+00 +1.25312E+01 -1.72476E+01 +1.15425E+01 -2.11568E+01 +7.59949E+00
 -1.87952E+01 +1.29167E+00 -1.11504E+01 -6.02172E+00 -7.29562E-01 -1.24477E+01 +9.29583E+00 -1.60442E+01
 +1.60915E+01 -1.54315E+01 +1.79811E+01 -1.03293E+01 +1.48406E+01 -1.80839E+00 +7.98166E+00 +7.88061E+00
 -3.85365E-01 +1.59009E+01 -7.89136E+00 +1.96890E+01 -1.26950E+01 +1.78100E+01 -1.39107E+01 +1.05101E+01
 -1.16890E+01 -2.47583E-01 -6.98953E+00 -1.13139E+01 -1.18109E+00 -1.93070E+01 +4.36820E+00 -2.16881E+01
 +8.58344E+00 -1.76015E+01 +1.08096E+01 -8.19225E+00 +1.08014E+01 +3.72161E+00 +8.65277E+00 +1.45242E+01
 +4.73740E+00 +2.09422E+01 -3.10348E-01 +2.10754E+01 -5.60162E+00 +1.49800E+01 -1.00496E+01 +4.61799E+00
 -1.25328E+01 -6.79982E+00 -1.21709E+01 -1.58484E+01 -8.64874E+00 -1.99543E+01 -2.46468E+00 -1.81467E+01
 +5.02702E+00 -1.12687E+01 +1.18620E+01 -1.60944E+00 +1.59789E+01 +7.88630E+00 +1.58664E+01 +1.45503E+01
 +1.11328E+01 +1.67573E+01 +2.77840E+00 +1.42988E+01 -6.96746E+00 +8.28955E+00 -1.52438E+01 +6.88764E-01
 -1.94272E+01 -6.36293E+00 -1.79995E+01 -1.11593E+01 -1.11141E+01 -1.28148E+01 -6.45298E-01 -1.13455E+01
 +1.03271E+01 -7.48508E+00 +1.84559E+01 -2.35482E+00 +2.11882E+01 +2.87032E+00 +1.76016E+01 +7.19793E+00
 +8.72786E+00 +9.92413E+00 -2.75202E+00 +1.06441E+01 -1.33485E+01 +9.23412E+00 -1.98658E+01 +5.85996E+00
 -2.04029E+01 +1.01731E+00 -1.49264E+01 -4.43941E+00 -5.23711E+00 -9.35235E+00 +5.64573E+00 -1.24530E+01
 +1.44628E+01 -1.26867E+01 +1.87267E+01 -9.58616E+00 +1.74409E+01 -3.55882E+00 +1.13106E+01 +4.05577E+00
