 Created: 16-Jan-2021
 $NMID
 ID='D:\BASISSIMULATI'
 FMTDAT='(8E13.5)'
 VOLUME=   1.00000E+00
 TRAMP=   1.00000E+00
 $END
 +3.56394E+01 +1.08828E+00 +3.00521E+01 +1.65244E+01 +1.80024E+01 +2.62369E+01 +4.03058E+00 +2.81598E+01
 -7.38800E+00 +2.33121E+01 -1.36210E+01 +1.48497E+01 -1.45204E+01 +6.33977E+00 -1.18138E+01 +2.28258E-01
 -7.80185E+00 -2.78156E+00 -4.18849E+00 -3.33980E+00 -1.63104E+00 -2.52543E+00 -6.00399E-02 -1.07158E+00
 +6.65968E-01 +8.12827E-01 +3.37932E-01 +3.05992E+00 -1.48271E+00 +5.22566E+00 -4.92980E+00 +6.32358E+00
 -9.33274E+00 +5.20795E+00 -1.31878E+01 +1.28748E+00 -1.47182E+01 -4.90989E+00 -1.27366E+01 -1.17343E+01
 -7.30427E+00 -1.70420E+01 +2.15095E-01 -1.91295E+01 +7.74936E+00 -1.74575E+01 +1.34233E+01 -1.27795E+01
 +1.62735E+01 -6.64609E+00 +1.64157E+01 -6.15653E-01 +1.46538E+01 +4.36105E+00 +1.18492E+01 +8.07084E+00
 +8.47294E+00 +1.07026E+01 +4.59243E+00 +1.23581E+01 +2.31523E-01 +1.27872E+01 -4.21661E+00 +1.15403E+01
 -7.86926E+00 +8.42187E+00 -9.66534E+00 +3.90824E+00 -8.94385E+00 -8.01081E-01 -5.92737E+00 -4.19985E+00
 -1.78352E+00 -5.15883E+00 +1.81858E+00 -3.49526E+00 +3.43920E+00 -9.85783E-02 +2.49951E+00 +3.46565E+00
 -5.12729E-01 +5.65922E+00 -4.34293E+00 +5.60887E+00 -7.57678E+00 +3.36807E+00 -9.21386E+00 -2.73217E-01
 -8.93176E+00 -4.25434E+00 -6.98051E+00 -7.68871E+00 -3.86732E+00 -1.00615E+01 -8.20726E-02 -1.11526E+01
 +3.97066E+00 -1.08415E+01 +7.85103E+00 -9.00552E+00 +1.09461E+01 -5.61923E+00 +1.25015E+01 -9.81078E-01
 +1.18817E+01 +4.12932E+00 +8.93479E+00 +8.54499E+00 +4.23120E+00 +1.10840E+01 -1.01389E+00 +1.10387E+01
 -5.34939E+00 +8.52003E+00 -7.64689E+00 +4.45434E+00 -7.53083E+00 +2.13287E-01 -5.46651E+00 -2.93928E+00
 -2.47927E+00 -4.30755E+00 +3.25513E-01 -3.91877E+00 +2.18357E+00 -2.34194E+00 +2.84021E+00 -3.21496E-01
 +2.44131E+00 +1.54578E+00 +1.28492E+00 +2.92988E+00 -3.71082E-01 +3.67912E+00 -2.32633E+00 +3.66060E+00
 -4.31088E+00 +2.69829E+00 -5.86296E+00 +6.85946E-01 -6.36653E+00 -2.19728E+00 -5.29183E+00 -5.34282E+00
 -2.52676E+00 -7.79659E+00 +1.40666E+00 -8.59438E+00 +5.42186E+00 -7.20581E+00 +8.24332E+00 -3.85083E+00
 +8.92952E+00 +5.04179E-01 +7.28590E+00 +4.50108E+00 +3.95376E+00 +6.93785E+00 +1.25682E-01 +7.24480E+00
 -2.96917E+00 +5.66173E+00 -4.55366E+00 +3.04733E+00 -4.53654E+00 +4.41190E-01 -3.40924E+00 -1.38619E+00
 -1.90253E+00 -2.17840E+00 -6.10248E-01 -2.14782E+00 +2.24648E-01 -1.71753E+00 +6.83348E-01 -1.22975E+00
 +9.70704E-01 -7.89094E-01 +1.19645E+00 -3.04545E-01 +1.28046E+00 +3.34202E-01 +1.02842E+00 +1.08480E+00
 +3.10858E-01 +1.70547E+00 -7.82631E-01 +1.86424E+00 -1.91967E+00 +1.33353E+00 -2.65225E+00 +1.48846E-01
 -2.62354E+00 -1.36439E+00 -1.73991E+00 -2.71188E+00 -2.19434E-01 -3.43259E+00 +1.49947E+00 -3.27779E+00
 +2.93190E+00 -2.28575E+00 +3.71318E+00 -7.34800E-01 +3.68909E+00 +9.80486E-01 +2.91304E+00 +2.47909E+00
 +1.58325E+00 +3.47622E+00 -2.92913E-02 +3.80833E+00 -1.62878E+00 +3.42606E+00 -2.91983E+00 +2.38829E+00
 -3.63474E+00 +8.70195E-01 -3.58513E+00 -8.31913E-01 -2.73374E+00 -2.33093E+00 -1.25211E+00 -3.23457E+00
 +4.81108E-01 -3.27199E+00 +1.96804E+00 -2.41293E+00 +2.75067E+00 -9.17733E-01 +2.58413E+00 +7.22002E-01
 +1.54808E+00 +1.94595E+00 +3.81805E-02 +2.33348E+00 -1.37225E+00 +1.77217E+00 -2.15146E+00 +5.10336E-01
 -2.02061E+00 -9.36800E-01 -1.06599E+00 -1.99402E+00 +2.99828E-01 -2.26128E+00 +1.51510E+00 -1.67607E+00
 +2.10950E+00 -5.30619E-01 +1.90299E+00 +6.65168E-01 +1.07421E+00 +1.41536E+00 +6.67797E-02 +1.46054E+00
 -6.24664E-01 +8.89679E-01 -6.90976E-01 +8.91266E-02 -1.57547E-01 -4.49549E-01 +6.25770E-01 -3.74473E-01
 +1.15248E+00 +3.43915E-01 +1.00920E+00 +1.38126E+00 +9.07756E-02 +2.19838E+00 -1.32242E+00 +2.29070E+00
 -2.66611E+00 +1.43430E+00 -3.33088E+00 -1.85843E-01 -2.93273E+00 -2.02700E+00 -1.49494E+00 -3.39998E+00
 +5.39192E-01 -3.74977E+00 +2.46839E+00 -2.88610E+00 +3.60115E+00 -1.06912E+00 +3.52004E+00 +1.08117E+00
 +2.24041E+00 +2.81126E+00 +2.08474E-01 +3.50748E+00 -1.85452E+00 +2.91696E+00 -3.20403E+00 +1.24225E+00
 -3.33449E+00 -9.19968E-01 -2.16700E+00 -2.77711E+00 -9.78946E-02 -3.61647E+00 +2.11797E+00 -3.07184E+00
 +3.62579E+00 -1.28635E+00 +3.79397E+00 +1.10179E+00 +2.48512E+00 +3.17128E+00 +1.55692E-01 +4.07008E+00
 -2.28418E+00 +3.37901E+00 -3.82325E+00 +1.32734E+00 -3.78286E+00 -1.25715E+00 -2.14124E+00 -3.27254E+00
 +4.14963E-01 -3.81939E+00 +2.76114E+00 -2.61849E+00 +3.82372E+00 -1.67764E-01 +3.06930E+00 +2.45182E+00
 +7.63236E-01 +4.04502E+00 -2.12967E+00 +3.83357E+00 -4.35929E+00 +1.80443E+00 -4.92686E+00 -1.28225E+00
 -3.49986E+00 -4.21800E+00 -5.30241E-01 -5.84356E+00 +2.95006E+00 -5.49400E+00 +5.73737E+00 -3.21543E+00
 +6.88084E+00 +2.97847E-01 +5.96659E+00 +3.97265E+00 +3.19983E+00 +6.69870E+00 -6.85250E-01 +7.62854E+00
 -4.61907E+00 +6.38361E+00 -7.44356E+00 +3.16400E+00 -8.19538E+00 -1.23963E+00 -6.40814E+00 -5.56359E+00
 -2.36767E+00 -8.36237E+00 +2.80514E+00 -8.46613E+00 +7.37213E+00 -5.48775E+00 +9.52659E+00 -1.59001E-01
 +8.12763E+00 +5.73330E+00 +3.31385E+00 +9.90578E+00 -3.34100E+00 +1.04846E+01 -9.30996E+00 +6.88647E+00
 -1.21125E+01 +2.32454E-01 -1.04179E+01 -6.98119E+00 -4.72202E+00 -1.18875E+01 +2.77659E+00 -1.25029E+01
 +9.10298E+00 -8.63556E+00 +1.18235E+01 -1.98605E+00 +1.01255E+01 +4.63617E+00 +5.12734E+00 +8.60947E+00
 -7.28116E-01 +8.67283E+00 -4.87930E+00 +5.40214E+00 -5.83237E+00 +7.83033E-01 -3.74272E+00 -2.85737E+00
 -1.45712E-01 -3.98190E+00 +2.95322E+00 -2.46512E+00 +4.10259E+00 +5.55143E-01 +3.00708E+00 +3.42754E+00
 +4.56646E-01 +4.86799E+00 -2.27366E+00 +4.49084E+00 -4.13820E+00 +2.77123E+00 -4.73648E+00 +5.76242E-01
 -4.26459E+00 -1.36909E+00 -3.15331E+00 -2.74328E+00 -1.72110E+00 -3.52336E+00 -1.01410E-01 -3.69891E+00
 +1.54853E+00 -3.10994E+00 +2.79817E+00 -1.59212E+00 +2.95348E+00 +6.61133E-01 +1.44169E+00 +2.83656E+00
 -1.62355E+00 +3.65571E+00 -5.10764E+00 +2.00851E+00 -7.10927E+00 -2.23216E+00 -5.83284E+00 -7.73466E+00
 -6.86811E-01 -1.19958E+01 +7.02787E+00 -1.24149E+01 +1.43524E+01 -7.68563E+00 +1.78755E+01 +1.24211E+00
 +1.53937E+01 +1.12502E+01 +7.17734E+00 +1.82911E+01 -3.88587E+00 +1.92476E+01 -1.34505E+01 +1.34931E+01
 -1.76705E+01 +3.32011E+00 -1.49938E+01 -7.03681E+00 -6.88487E+00 -1.33334E+01 +2.89630E+00 -1.32472E+01
 +1.00849E+01 -7.35138E+00 +1.18586E+01 +1.31927E+00 +7.97898E+00 +8.82619E+00 +6.25480E-01 +1.21675E+01
 -6.87679E+00 +1.04746E+01 -1.16848E+01 +5.05110E+00 -1.25677E+01 -1.60670E+00 -1.00535E+01 -7.15232E+00
 -5.70250E+00 -1.03391E+01 -1.07938E+00 -1.11599E+01 +2.93019E+00 -1.02939E+01 +6.13888E+00 -8.37663E+00
 +8.57715E+00 -5.62712E+00 +1.00000E+01 -2.04000E+00 +9.82621E+00 +2.10272E+00 +7.59333E+00 +5.89251E+00
 +3.58619E+00 +8.00585E+00 -8.92231E-01 +7.43575E+00 -3.94466E+00 +4.29053E+00 -4.07003E+00 +6.81400E-02
 -1.15635E+00 -2.91773E+00 +3.19107E+00 -2.75421E+00 +6.31999E+00 +8.79922E-01 +5.93804E+00 +6.29947E+00
 +1.49607E+00 +1.05354E+01 -5.28684E+00 +1.08982E+01 -1.11594E+01 +6.54468E+00 -1.30229E+01 -8.66715E-01
 -9.66986E+00 -7.88620E+00 -2.58648E+00 -1.10406E+01 +4.69213E+00 -8.72364E+00 +8.38655E+00 -2.15728E+00
 +6.48532E+00 +5.14656E+00 -1.32414E-01 +9.17371E+00 -8.09061E+00 +7.49854E+00 -1.32258E+01 +5.56236E-01
 -1.26957E+01 -8.57568E+00 -6.36875E+00 -1.57425E+01 +3.20534E+00 -1.77606E+01 +1.21555E+01 -1.38630E+01
 +1.71855E+01 -5.84285E+00 +1.69857E+01 +3.06026E+00 +1.24933E+01 +9.81631E+00 +6.02608E+00 +1.28730E+01
 -6.94405E-02 +1.24374E+01 -4.43520E+00 +9.80942E+00 -6.88556E+00 +6.35184E+00 -7.84857E+00 +2.80313E+00
 -7.61946E+00 -6.92289E-01 -6.03454E+00 -4.01362E+00 -2.80348E+00 -6.51634E+00 +1.78939E+00 -7.04133E+00
 +6.42368E+00 -4.59084E+00 +9.01409E+00 +7.45197E-01 +7.71858E+00 +7.29621E+00 +2.14212E+00 +1.22399E+01
 -6.03960E+00 +1.28836E+01 -1.35529E+01 +8.14832E+00 -1.69866E+01 -6.13567E-01 -1.45119E+01 -1.00322E+01
 -6.91129E+00 -1.62508E+01 +2.70558E+00 -1.68003E+01 +1.04005E+01 -1.18084E+01 +1.33369E+01 -3.87414E+00
 +1.11026E+01 +3.32658E+00 +5.72594E+00 +6.93337E+00 +4.17637E-01 +6.25611E+00 -2.21872E+00 +2.88186E+00
 -1.49850E+00 -4.53701E-01 +1.20636E+00 -1.52477E+00 +3.49959E+00 +1.64286E-01 +3.49113E+00 +3.26032E+00
 +9.08287E-01 +5.53429E+00 -2.83056E+00 +5.30319E+00 -5.55335E+00 +2.43701E+00 -5.66468E+00 -1.61500E+00
 -3.06000E+00 -4.72945E+00 +8.84710E-01 -5.34963E+00 +4.17272E+00 -3.31041E+00 +5.32241E+00 +1.99681E-01
 +4.08962E+00 +3.43459E+00 +1.39768E+00 +5.09528E+00 -1.38558E+00 +4.91999E+00 -3.29544E+00 +3.55831E+00
 -4.19108E+00 +1.91175E+00 -4.53213E+00 +4.53793E-01 -4.74919E+00 -9.88423E-01 -4.71751E+00 -2.86401E+00
 -3.75438E+00 -5.24449E+00 -1.17836E+00 -7.40750E+00 +2.94937E+00 -8.03288E+00 +7.45108E+00 -5.96971E+00
 +1.03753E+01 -1.11952E+00 +9.95460E+00 +5.15426E+00 +5.65721E+00 +1.04364E+01 -1.30046E+00 +1.23515E+01
 -8.34081E+00 +9.77047E+00 -1.26636E+01 +3.46273E+00 -1.25513E+01 -4.18975E+00 -8.15324E+00 -1.02803E+01
 -1.34541E+00 -1.26942E+01 +5.22298E+00 -1.09730E+01 +9.36063E+00 -6.31978E+00 +1.01961E+01 -8.27715E-01
 +8.28400E+00 +3.58347E+00 +5.01767E+00 +5.93727E+00 +1.78024E+00 +6.33266E+00 -6.58880E-01 +5.50319E+00
 -2.22235E+00 +4.18479E+00 -3.16466E+00 +2.71968E+00 -3.62212E+00 +1.09677E+00 -3.42552E+00 -6.98257E-01
 -2.29400E+00 -2.35680E+00 -2.31936E-01 -3.23626E+00 +2.20519E+00 -2.70759E+00 +4.02271E+00 -6.30051E-01
 +4.25828E+00 +2.39112E+00 +2.53499E+00 +5.18107E+00 -6.59718E-01 +6.54202E+00 -4.16654E+00 +5.85820E+00
 -6.72275E+00 +3.39728E+00 -7.57535E+00 +1.28357E-01 -6.78092E+00 -2.82600E+00 -5.03318E+00 -4.76518E+00
 -3.15466E+00 -5.67024E+00 -1.59090E+00 -6.01670E+00 -2.27409E-01 -6.29780E+00 +1.37387E+00 -6.59533E+00
 +3.50166E+00 -6.49186E+00 +5.92457E+00 -5.38352E+00 +7.89206E+00 -2.98052E+00 +8.52944E+00 +3.48489E-01
 +7.38482E+00 +3.63882E+00 +4.77594E+00 +5.78965E+00 +1.70072E+00 +6.15465E+00 -6.55915E-01 +4.90452E+00
 -1.53447E+00 +2.93679E+00 -9.73127E-01 +1.38247E+00 +2.72657E-01 +1.00235E+00 +1.20017E+00 +1.82535E+00
 +1.12542E+00 +3.22447E+00 +7.78764E-03 +4.35385E+00 -1.63838E+00 +4.65628E+00 -3.15202E+00 +4.12534E+00
