 Created: 16-Jan-2021
 $NMID
 ID='D:\BASISSIMULATI'
 FMTDAT='(8E13.5)'
 VOLUME=   1.00000E+00
 TRAMP=   1.00000E+00
 $END
 +2.00022E+01 +1.00612E-01 +1.81187E+01 +7.23315E+00 +1.36914E+01 +1.28735E+01 +7.63310E+00 +1.61556E+01
 +1.11457E+00 +1.67133E+01 -4.68931E+00 +1.47299E+01 -8.84338E+00 +1.08688E+01 -1.08327E+01 +6.10187E+00
 -1.06419E+01 +1.47985E+00 -8.71955E+00 -2.10287E+00 -5.84039E+00 -4.09491E+00 -2.90145E+00 -4.38606E+00
 -7.01060E-01 -3.29811E+00 +2.47152E-01 -1.47494E+00 -1.76629E-01 +2.98517E-01 -1.68873E+00 +1.30331E+00
 -3.69074E+00 +1.06975E+00 -5.43251E+00 -5.05656E-01 -6.20876E+00 -3.13568E+00 -5.54179E+00 -6.21385E+00
 -3.30709E+00 -8.96302E+00 +2.26708E-01 -1.06248E+01 +4.45187E+00 -1.06441E+01 +8.55555E+00 -8.80662E+00
 +1.17018E+01 -5.29688E+00 +1.32188E+01 -6.64978E-01 +1.27488E+01 +4.28904E+00 +1.03263E+01 +8.68592E+00
 +6.37024E+00 +1.17534E+01 +1.59059E+00 +1.29862E+01 -3.16445E+00 +1.22437E+01 -7.08747E+00 +9.76738E+00
 -9.57544E+00 +6.11432E+00 -1.03425E+01 +2.02638E+00 -9.45926E+00 -1.73430E+00 -7.31241E+00 -4.54529E+00
 -4.49857E+00 -6.04409E+00 -1.67815E+00 -6.18347E+00 +5.74918E-01 -5.21317E+00 +1.89369E+00 -3.59590E+00
 +2.18302E+00 -1.88061E+00 +1.61679E+00 -5.64534E-01 +5.72112E-01 +2.33477E-02 -4.80956E-01 -2.08758E-01
 -1.10561E+00 -1.10784E+00 -1.00986E+00 -2.32865E+00 -1.17486E-01 -3.43108E+00 +1.41693E+00 -3.99726E+00
 +3.25017E+00 -3.73949E+00 +4.93770E+00 -2.57351E+00 +6.04379E+00 -6.40854E-01 +6.24748E+00 +1.72347E+00
 +5.41956E+00 +4.06873E+00 +3.65331E+00 +5.93189E+00 +1.24324E+00 +6.94201E+00 -1.38163E+00 +6.90120E+00
 -3.75295E+00 +5.82446E+00 -5.46398E+00 +3.93064E+00 -6.25305E+00 +1.58876E+00 -6.05132E+00 -7.66427E-01
 -4.98589E+00 -2.72885E+00 -3.33978E+00 -4.00381E+00 -1.48036E+00 -4.46079E+00 +2.25666E-01 -4.14644E+00
 +1.49053E+00 -3.25720E+00 +2.15945E+00 -2.08074E+00 +2.22984E+00 -9.21913E-01 +1.83385E+00 -3.16314E-02
 +1.19118E+00 +4.45029E-01 +5.45649E-01 +4.90611E-01 +1.02131E-01 +2.04238E-01 -2.11043E-02 -2.36985E-01
 +1.85955E-01 -6.32482E-01 +6.32659E-01 -8.13930E-01 +1.16048E+00 -6.88184E-01 +1.59090E+00 -2.57517E-01
 +1.77516E+00 +3.86373E-01 +1.63314E+00 +1.09135E+00 +1.17197E+00 +1.68791E+00 +4.80926E-01 +2.03444E+00
 -2.94819E-01 +2.05279E+00 -9.93499E-01 +1.74565E+00 -1.47834E+00 +1.19213E+00 -1.67044E+00 +5.23862E-01
 -1.56497E+00 -1.11014E-01 -1.22733E+00 -5.86050E-01 -7.71303E-01 -8.26752E-01 -3.26091E-01 -8.25384E-01
 -1.33893E-03 -6.37254E-01 +1.40301E-01 -3.60473E-01 +9.61557E-02 -1.05483E-01 -8.07099E-02 +3.68601E-02
 -3.00974E-01 +1.98523E-02 -4.67691E-01 -1.48295E-01 -5.05705E-01 -4.09939E-01 -3.83530E-01 -6.77592E-01
 -1.21680E-01 -8.61612E-01 +2.14603E-01 -8.97850E-01 +5.35875E-01 -7.67259E-01 +7.56166E-01 -5.01823E-01
 +8.19702E-01 -1.75095E-01 +7.18834E-01 +1.20006E-01 +4.97755E-01 +2.99794E-01 +2.40573E-01 +3.16581E-01
 +4.67425E-02 +1.75673E-01 +5.18667E-04 -6.27363E-02 +1.43028E-01 -2.98053E-01 +4.55147E-01 -4.16838E-01
 +8.56709E-01 -3.26343E-01 +1.22329E+00 +1.50587E-02 +1.41706E+00 +5.79235E-01 +1.32416E+00 +1.26736E+00
 +8.89026E-01 +1.92818E+00 +1.36071E-01 +2.39181E+00 -8.27519E-01 +2.51139E+00 -1.83004E+00 +2.20206E+00
 -2.67106E+00 +1.46731E+00 -3.16665E+00 +4.05241E-01 -3.19338E+00 -8.07826E-01 -2.71991E+00 -1.95340E+00
 -1.81811E+00 -2.81848E+00 -6.50127E-01 -3.24365E+00 +5.66242E-01 -3.15986E+00 +1.60593E+00 -2.60475E+00
 +2.28753E+00 -1.71403E+00 +2.51425E+00 -6.89580E-01 +2.29509E+00 +2.48502E-01 +1.74042E+00 +9.14266E-01
 +1.03303E+00 +1.20012E+00 +3.81228E-01 +1.10179E+00 -3.45535E-02 +7.17696E-01 -1.08590E-01 +2.22382E-01
 +1.61750E-01 -1.79705E-01 +6.73475E-01 -3.09012E-01 +1.24256E+00 -6.07050E-02 +1.65022E+00 +5.63085E-01
 +1.69998E+00 +1.44719E+00 +1.27163E+00 +2.38587E+00 +3.58675E-01 +3.12928E+00 -9.20706E-01 +3.44340E+00
 -2.34265E+00 +3.16916E+00 -3.62325E+00 +2.26671E+00 -4.48079E+00 +8.33292E-01 -4.70033E+00 -9.10123E-01
 -4.18552E+00 -2.66144E+00 -2.98516E+00 -4.10011E+00 -1.28769E+00 -4.95585E+00 +6.15672E-01 -5.06755E+00
 +2.39134E+00 -4.41894E+00 +3.73361E+00 -3.14232E+00 +4.42888E+00 -1.48945E+00 +4.39916E+00 +2.23781E-01
 +3.71493E+00 +1.68647E+00 +2.57466E+00 +2.65943E+00 +1.25591E+00 +3.02444E+00 +4.96148E-02 +2.80471E+00
 -8.06925E-01 +2.15225E+00 -1.18271E+00 +1.30558E+00 -1.07918E+00 +5.27961E-01 -6.23871E-01 +4.13470E-02
 -3.36458E-02 -2.84507E-02 +4.43600E-01 +3.17905E-01 +5.94441E-01 +9.54525E-01 +2.96816E-01 +1.66277E+00
 -4.45490E-01 +2.18716E+00 -1.49927E+00 +2.30120E+00 -2.63030E+00 +1.86742E+00 -3.55730E+00 +8.76958E-01
 -4.01880E+00 -5.40920E-01 -3.83717E+00 -2.14220E+00 -2.96472E+00 -3.61920E+00 -1.50073E+00 -4.66788E+00
 +3.24814E-01 -5.05582E+00 +2.19740E+00 -4.67534E+00 +3.78377E+00 -3.56931E+00 +4.80224E+00 -1.92389E+00
 +5.08187E+00 -2.96439E-02 +4.59698E+00 +1.77983E+00 +3.46965E+00 +3.19796E+00 +1.94002E+00 +4.00797E+00
 +3.11566E-01 +4.12451E+00 -1.11566E+00 +3.60516E+00 -2.10858E+00 +2.63009E+00 -2.54716E+00 +1.45534E+00
 -2.44289E+00 +3.51181E-01 -1.92670E+00 -4.59759E-01 -1.20975E+00 -8.50401E-01 -5.27581E-01 -8.12476E-01
 -8.09349E-02 -4.50547E-01 +1.24659E-02 +5.08108E-02 -2.55833E-01 +4.78048E-01 -7.86409E-01 +6.45195E-01
 -1.39997E+00 +4.42228E-01 -1.88465E+00 -1.36199E-01 -2.05087E+00 -9.88203E-01 -1.78055E+00 -1.92853E+00
 -1.05875E+00 -2.73275E+00 +1.93360E-02 -3.19114E+00 +1.26770E+00 -3.15922E+00 +2.45027E+00 -2.59329E+00
 +3.33339E+00 -1.56263E+00 +3.73770E+00 -2.35845E-01 +3.57756E+00 +1.15511E+00 +2.87905E+00 +2.36472E+00
 +1.77307E+00 +3.18590E+00 +4.65487E-01 +3.49230E+00 -8.08119E-01 +3.26177E+00 -1.83251E+00 +2.57618E+00
 -2.45617E+00 +1.59874E+00 -2.61860E+00 +5.34678E-01 -2.35601E+00 -4.14932E-01 -1.78547E+00 -1.09539E+00
 -1.07210E+00 -1.42734E+00 -3.88066E-01 -1.41660E+00 +1.26812E-01 -1.14383E+00 +3.93713E-01 -7.37787E-01
 +4.06744E-01 -3.39554E-01 +2.26487E-01 -6.68394E-02 -4.20131E-02 +1.30956E-02 -2.80435E-01 -1.04042E-01
 -3.89325E-01 -3.63696E-01 -3.13233E-01 -6.71106E-01 -5.30605E-02 -9.18968E-01 +3.36678E-01 -1.01667E+00
 +7.64123E-01 -9.13730E-01 +1.12506E+00 -6.11855E-01 +1.32990E+00 -1.63266E-01 +1.32579E+00 +3.43638E-01
 +1.10855E+00 +8.07009E-01 +7.22025E-01 +1.13655E+00 +2.45663E-01 +1.27442E+00 -2.25994E-01 +1.20710E+00
 -6.06203E-01 +9.65655E-01 -8.35483E-01 +6.15180E-01 -8.92960E-01 +2.36702E-01 -7.97281E-01 -9.33266E-02
 -5.97625E-01 -3.20518E-01 -3.57943E-01 -4.22734E-01 -1.39094E-01 -4.10894E-01 +1.61307E-02 -3.20991E-01
 +9.12717E-02 -2.00274E-01 +9.60001E-02 -9.19961E-02 +5.82536E-02 -2.32621E-02 +1.16707E-02 +6.35916E-04
 -1.74524E-02 -5.88907E-03 -1.94810E-02 -1.74787E-02 -4.10632E-03 -1.00908E-02 +4.44512E-03 +2.74498E-02
 -2.19189E-02 +8.66048E-02 -1.02100E-01 +1.39544E-01 -2.34751E-01 +1.47152E-01 -3.93187E-01 +7.25245E-02
 -5.28600E-01 -1.04022E-01 -5.81480E-01 -3.73166E-01 -4.98637E-01 -6.92189E-01 -2.51255E-01 -9.90258E-01
 +1.51282E-01 -1.18305E+00 +6.56359E-01 -1.19359E+00 +1.17438E+00 -9.74189E-01 +1.59583E+00 -5.23523E-01
 +1.81581E+00 +1.06330E-01 +1.76011E+00 +8.15714E-01 +1.40641E+00 +1.47584E+00 +7.94462E-01 +1.95618E+00
 +2.19623E-02 +2.15458E+00 -7.74004E-01 +2.02270E+00 -1.44627E+00 +1.58001E+00 -1.87098E+00 +9.12215E-01
 -1.97698E+00 +1.53562E-01 -1.76369E+00 -5.43487E-01 -1.30227E+00 -1.04417E+00 -7.19240E-01 -1.26427E+00
 -1.65549E-01 -1.19143E+00 +2.21504E-01 -8.89023E-01 +3.54297E-01 -4.80829E-01 +2.19514E-01 -1.19416E-01
 -1.15484E-01 +5.44186E-02 -5.17145E-01 -4.87538E-02 -8.18514E-01 -4.38582E-01 -8.62974E-01 -1.03564E+00
 -5.48457E-01 -1.68481E+00 +1.39105E-01 -2.18936E+00 +1.11221E+00 -2.35846E+00 +2.19286E+00 -2.05720E+00
 +3.14707E+00 -1.24674E+00 +3.73600E+00 -4.17401E-03 +3.77218E+00 +1.48397E+00 +3.16782E+00 +2.95480E+00
 +1.96298E+00 +4.12222E+00 +3.26098E-01 +4.73875E+00 -1.47480E+00 +4.65208E+00 -3.12478E+00 +3.84280E+00
 -4.32742E+00 +2.43391E+00 -4.86832E+00 +6.68891E-01 -4.66213E+00 -1.13767E+00 -3.77173E+00 -2.66632E+00
 -2.39468E+00 -3.66105E+00 -8.19195E-01 -3.98388E+00 +6.40469E-01 -3.64302E+00 +1.71468E+00 -2.78765E+00
 +2.23862E+00 -1.67006E+00 +2.18767E+00 -5.83781E-01 +1.67954E+00 +2.07941E-01 +9.41900E-01 +5.36397E-01
 +2.53172E-01 +3.68768E-01 -1.29892E-01 -1.83740E-01 -4.03182E-02 -8.93619E-01 +5.51965E-01 -1.47468E+00
 +1.52608E+00 -1.65625E+00 +2.63366E+00 -1.25629E+00 +3.55531E+00 -2.35545E-01 +3.97758E+00 +1.28116E+00
 +3.67248E+00 +3.02284E+00 +2.56065E+00 +4.62675E+00 +7.42433E-01 +5.71772E+00 -1.51182E+00 +5.99463E+00
 -3.81139E+00 +5.30407E+00 -5.72475E+00 +3.68352E+00 -6.87156E+00 +1.36315E+00 -7.00659E+00 -1.27545E+00
 -6.07601E+00 -3.77532E+00 -4.23295E+00 -5.69855E+00 -1.80784E+00 -6.71798E+00 +7.60285E-01 -6.68564E+00
 +3.01645E+00 -5.66221E+00 +4.58573E+00 -3.90058E+00 +5.25081E+00 -1.78716E+00 +4.99355E+00 +2.45733E-01
 +3.99119E+00 +1.81648E+00 +2.56825E+00 +2.67743E+00 +1.11546E+00 +2.76576E+00 -5.28673E-03 +2.21019E+00
 -5.47530E-01 +1.29227E+00 -4.37986E-01 +3.71404E-01 +2.08288E-01 -2.08536E-01 +1.11908E+00 -2.08564E-01
 +1.93530E+00 +4.41445E-01 +2.30392E+00 +1.61992E+00 +1.97125E+00 +3.03798E+00 +8.54293E-01 +4.30593E+00
 -9.27539E-01 +5.02680E+00 -3.06883E+00 +4.89517E+00 -5.13992E+00 +3.77787E+00 -6.68072E+00 +1.75706E+00
 -7.30520E+00 -8.75294E-01 -6.79276E+00 -3.67155E+00 -5.14506E+00 -6.11973E+00 -2.59444E+00 -7.75190E+00
 +4.38519E-01 -8.24532E+00 +3.42978E+00 -7.49342E+00 +5.86009E+00 -5.63029E+00 +7.32276E+00 -3.00300E+00
 +7.60685E+00 -9.75991E-02 +6.73722E+00 +2.56432E+00 +4.96274E+00 +4.53557E+00 +2.69565E+00 +5.53489E+00
 +4.16342E-01 +5.49982E+00 -1.43441E+00 +4.58941E+00 -2.55126E+00 +3.13701E+00 -2.82617E+00 +1.56477E+00
 -2.36283E+00 +2.80089E-01 -1.44093E+00 -4.21427E-01 -4.39442E-01 -4.24018E-01 +2.62527E-01 +1.84945E-01
 +3.83517E-01 +1.14152E+00 -1.87142E-01 +2.07495E+00 -1.35830E+00 +2.60392E+00 -2.85554E+00 +2.43610E+00
 -4.28515E+00 +1.44740E+00 -5.22864E+00 -2.78341E-01 -5.34556E+00 -2.45903E+00 -4.46058E+00 -4.67172E+00
 -2.61398E+00 -6.44496E+00 -6.33881E-02 -7.36495E+00 +2.76434E+00 -7.17129E+00 +5.36067E+00 -5.82006E+00
