 Created: 16-Jan-2021
 $NMID
 ID='D:\BASISSIMULATI'
 FMTDAT='(8E13.5)'
 VOLUME=   1.00000E+00
 TRAMP=   1.00000E+00
 $END
 +2.70739E+01 +1.86777E+00 +1.95334E+01 +1.87459E+01 +2.85459E+00 +2.62415E+01 -1.40083E+01 +2.08720E+01
 -2.24476E+01 +6.40487E+00 -1.91872E+01 -8.72921E+00 -7.75021E+00 -1.67138E+01 +4.32253E+00 -1.48485E+01
 +1.04537E+01 -6.49201E+00 +8.86990E+00 +1.85435E+00 +2.95221E+00 +5.09839E+00 -1.78188E+00 +2.63237E+00
 -1.73534E+00 -1.93438E+00 +2.47896E+00 -3.86574E+00 +6.88609E+00 -8.53026E-01 +7.27083E+00 +5.42384E+00
 +2.25507E+00 +1.06223E+01 -5.75140E+00 +1.08211E+01 -1.21970E+01 +5.15787E+00 -1.33325E+01 -3.68020E+00
 -8.43649E+00 -1.12305E+01 +1.03313E-03 -1.39320E+01 +7.98269E+00 -1.09454E+01 +1.22777E+01 -4.16203E+00
 +1.18250E+01 +3.25646E+00 +7.66177E+00 +8.62813E+00 +1.83288E+00 +1.07148E+01 -3.75068E+00 +9.62405E+00
 -7.82167E+00 +6.15590E+00 -9.65399E+00 +1.29869E+00 -8.85324E+00 -3.83461E+00 -5.45908E+00 -7.90331E+00
 -2.83410E-01 -9.53237E+00 +4.99007E+00 -7.93403E+00 +8.33117E+00 -3.56375E+00 +8.37667E+00 +1.80137E+00
 +5.28597E+00 +5.84028E+00 +7.60878E-01 +6.94743E+00 -2.91445E+00 +5.15125E+00 -4.23783E+00 +2.02019E+00
 -3.33513E+00 -4.30072E-01 -1.68986E+00 -1.08952E+00 -9.44171E-01 -4.14290E-01 -1.63714E+00 +7.62641E-02
 -2.80528E+00 -9.04743E-01 -2.75194E+00 -3.28164E+00 -4.36875E-01 -5.50710E+00 +3.53302E+00 -5.59945E+00
 +7.06992E+00 -2.61709E+00 +7.87458E+00 +2.47724E+00 +4.97080E+00 +7.20774E+00 -5.37545E-01 +9.01862E+00
 -6.01259E+00 +6.82326E+00 -8.78790E+00 +1.66760E+00 -7.66920E+00 -3.89676E+00 -3.50497E+00 -7.29187E+00
 +1.45791E+00 -7.29324E+00 +4.93719E+00 -4.49476E+00 +5.80451E+00 -6.91246E-01 +4.42341E+00 +2.29999E+00
 +2.08114E+00 +3.58365E+00 +3.39391E-02 +3.37612E+00 -1.16351E+00 +2.49102E+00 -1.68780E+00 +1.61667E+00
 -1.97938E+00 +9.19023E-01 -2.23569E+00 +1.67074E-01 -2.25852E+00 -8.38537E-01 -1.71040E+00 -1.94107E+00
 -5.06892E-01 -2.66952E+00 +1.00255E+00 -2.58413E+00 +2.20994E+00 -1.62509E+00 +2.63052E+00 -1.84829E-01
 +2.19063E+00 +1.14026E+00 +1.21655E+00 +1.91283E+00 +1.64276E-01 +2.05826E+00 -6.77198E-01 +1.78370E+00
 -1.28211E+00 +1.32075E+00 -1.74134E+00 +7.28173E-01 -2.03558E+00 -8.10321E-02 -1.95129E+00 -1.12667E+00
 -1.23496E+00 -2.16731E+00 +1.27810E-01 -2.72461E+00 +1.74320E+00 -2.35357E+00 +2.92163E+00 -9.82629E-01
 +3.03969E+00 +9.30706E-01 +1.92798E+00 +2.57131E+00 +2.31756E-02 +3.18625E+00 -1.83167E+00 +2.49967E+00
 -2.82715E+00 +8.65374E-01 -2.60385E+00 -9.34259E-01 -1.40301E+00 -2.11327E+00 +1.16840E-01 -2.27357E+00
 +1.26183E+00 -1.54644E+00 +1.64706E+00 -4.37506E-01 +1.32064E+00 +4.94558E-01 +6.40110E-01 +9.21355E-01
 +1.82901E-02 +8.45631E-01 -2.95881E-01 +5.07535E-01 -2.94579E-01 +1.94301E-01 -1.44180E-01 +7.81845E-02
 -4.87511E-02 +1.56850E-01 -1.30446E-01 +2.95374E-01 -3.75924E-01 +3.21335E-01 -6.52300E-01 +1.20112E-01
 -7.71658E-01 -3.02498E-01 -5.79562E-01 -8.05412E-01 -4.24302E-02 -1.15296E+00 +6.99282E-01 -1.11029E+00
 +1.35008E+00 -5.69036E-01 +1.56989E+00 +3.53192E-01 +1.14696E+00 +1.30868E+00 +1.49469E-01 +1.84775E+00
 -1.04457E+00 +1.64149E+00 -1.89092E+00 +6.87031E-01 -1.94821E+00 -6.34924E-01 -1.13304E+00 -1.71419E+00
 +1.95198E-01 -2.01819E+00 +1.39311E+00 -1.38885E+00 +1.86825E+00 -1.51893E-01 +1.40797E+00 +1.04275E+00
 +3.07982E-01 +1.57514E+00 -7.87551E-01 +1.20726E+00 -1.25545E+00 +2.24407E-01 -8.63039E-01 -7.29000E-01
 +8.41961E-02 -1.03587E+00 +9.18472E-01 -4.92702E-01 +1.02039E+00 +5.41488E-01 +2.25660E-01 +1.34163E+00
 -1.02661E+00 +1.26176E+00 -1.91874E+00 +1.69662E-01 -1.74442E+00 -1.40376E+00 -3.80438E-01 -2.52166E+00
 +1.55770E+00 -2.38358E+00 +3.00457E+00 -8.42460E-01 +3.04215E+00 +1.42656E+00 +1.46670E+00 +3.24156E+00
 -1.02347E+00 +3.56278E+00 -3.16254E+00 +2.10773E+00 -3.80857E+00 -4.40156E-01 -2.59789E+00 -2.77780E+00
 -1.70389E-01 -3.70281E+00 +2.18349E+00 -2.79152E+00 +3.25691E+00 -6.30128E-01 +2.60847E+00 +1.54409E+00
 +7.83610E-01 +2.57737E+00 -1.05374E+00 +2.06486E+00 -1.84711E+00 +5.45314E-01 -1.28088E+00 -8.84268E-01
 +6.65125E-02 -1.28324E+00 +1.13316E+00 -4.60604E-01 +1.08008E+00 +9.20779E-01 -1.54005E-01 +1.78585E+00
 -1.79507E+00 +1.35178E+00 -2.70525E+00 -3.45398E-01 -2.09078E+00 -2.42572E+00 -1.66408E-02 -3.65492E+00
 +2.57590E+00 -3.15589E+00 +4.35361E+00 -9.29135E-01 +4.29720E+00 +2.10477E+00 +2.24230E+00 +4.54960E+00
 -1.01786E+00 +5.21504E+00 -4.09587E+00 +3.68591E+00 -5.64027E+00 +5.17710E-01 -4.93292E+00 -3.00462E+00
 -2.20193E+00 -5.41524E+00 +1.46315E+00 -5.68615E+00 +4.55237E+00 -3.67112E+00 +5.76603E+00 -1.97869E-01
 +4.59234E+00 +3.25081E+00 +1.57993E+00 +5.17392E+00 -1.86187E+00 +4.75865E+00 -4.11044E+00 +2.31912E+00
 -4.15802E+00 -8.07492E-01 -2.18906E+00 -2.93860E+00 +4.70192E-01 -2.99349E+00 +2.09667E+00 -1.17529E+00
 +1.64429E+00 +1.08260E+00 -5.02684E-01 +1.98071E+00 -2.64801E+00 +5.73219E-01 -2.82717E+00 -2.43276E+00
 -2.01807E-01 -4.91729E+00 +4.10903E+00 -4.62899E+00 +7.43381E+00 -7.85766E-01 +7.11219E+00 +5.06508E+00
 +2.32631E+00 +9.63986E+00 -5.00708E+00 +9.78497E+00 -1.10197E+01 +4.54563E+00 -1.20517E+01 -3.90863E+00
 -6.93903E+00 -1.12416E+01 +2.03757E+00 -1.33653E+01 +1.02597E+01 -8.89535E+00 +1.33775E+01 -9.82343E-02
 +9.85718E+00 +8.34242E+00 +1.87711E+00 +1.20464E+01 -6.01658E+00 +9.47923E+00 -9.66694E+00 +2.73148E+00
 -7.74011E+00 -3.93456E+00 -2.31329E+00 -6.81062E+00 +2.69847E+00 -4.97325E+00 +4.18615E+00 -6.10310E-01
 +1.80238E+00 +2.68668E+00 -2.02293E+00 +2.45346E+00 -3.93213E+00 -1.00676E+00 -2.04101E+00 -4.93392E+00
 +2.74233E+00 -6.08986E+00 +7.32800E+00 -3.01737E+00 +8.50843E+00 +2.93851E+00 +5.05623E+00 +8.47303E+00
 -1.51011E+00 +1.03914E+01 -7.89927E+00 +7.50939E+00 -1.10093E+01 +1.21007E+00 -9.57329E+00 -5.53901E+00
 -4.54654E+00 -9.90571E+00 +1.76462E+00 -1.05075E+01 +7.04058E+00 -7.65344E+00 +9.84726E+00 -2.69039E+00
 +9.74105E+00 +2.82825E+00 +6.91153E+00 +7.55114E+00 +1.94648E+00 +1.02965E+01 -4.03897E+00 +1.00395E+01
 -9.23705E+00 +6.31650E+00 -1.15004E+01 -1.04779E-01 -9.37798E+00 -6.95057E+00 -3.27741E+00 -1.11656E+01
 +4.20729E+00 -1.05287E+01 +9.39549E+00 -5.20606E+00 +9.63357E+00 +1.96181E+00 +5.09621E+00 +6.95066E+00
 -1.09581E+00 +7.07031E+00 -4.79045E+00 +2.84843E+00 -3.63822E+00 -2.16953E+00 +1.10604E+00 -3.81017E+00
 +5.25031E+00 -3.51251E-01 +4.58701E+00 +5.90032E+00 -1.83240E+00 +9.86804E+00 -1.04462E+01 +7.20469E+00
 -1.51142E+01 -2.27207E+00 -1.12077E+01 -1.37133E+01 +8.25928E-01 -1.98627E+01 +1.49992E+01 -1.57022E+01
 +2.30560E+01 -2.10010E+00 +1.95802E+01 +1.41165E+01 +5.65274E+00 +2.39814E+01 -1.14452E+01 +2.18099E+01
 -2.24619E+01 +8.75712E+00 -2.17147E+01 -7.83193E+00 -1.04093E+01 -1.89086E+01 +4.36227E+00 -1.91651E+01
 +1.42186E+01 -9.95750E+00 +1.46303E+01 +2.06413E+00 +7.29556E+00 +9.54130E+00 -1.62194E+00 +9.07153E+00
 -5.97621E+00 +2.91379E+00 -3.70343E+00 -3.17949E+00 +2.20990E+00 -4.27971E+00 +6.28692E+00 +3.16063E-01
 +4.66253E+00 +6.85296E+00 -2.18456E+00 +1.00094E+01 -9.86220E+00 +6.73330E+00 -1.31710E+01 -1.66201E+00
 -9.60575E+00 -1.04551E+01 -8.71288E-01 -1.46686E+01 +8.42695E+00 -1.21419E+01 +1.37732E+01 -4.52222E+00
 +1.32668E+01 +4.20748E+00 +8.12969E+00 +1.03355E+01 +1.24941E+00 +1.22688E+01 -4.84006E+00 +1.05814E+01
 -9.00638E+00 +6.71414E+00 -1.11178E+01 +1.70735E+00 -1.10027E+01 -3.96124E+00 -8.03248E+00 -9.54046E+00
 -1.87514E+00 -1.32850E+01 +6.26856E+00 -1.29171E+01 +1.32969E+01 -7.25455E+00 +1.55098E+01 +2.22703E+00
 +1.09961E+01 +1.13995E+01 +1.40349E+00 +1.55382E+01 -8.46948E+00 +1.22943E+01 -1.33682E+01 +3.50695E+00
 -1.09282E+01 -5.65114E+00 -3.33577E+00 -9.89296E+00 +4.03915E+00 -7.31736E+00 +6.28611E+00 -7.16978E-01
 +2.40995E+00 +4.37628E+00 -3.89365E+00 +3.68379E+00 -6.84765E+00 -2.56541E+00 -2.88203E+00 -9.52344E+00
 +6.41797E+00 -1.10255E+01 +1.49306E+01 -4.12880E+00 +1.59787E+01 +8.29921E+00 +7.06573E+00 +1.89219E+01
 -7.91254E+00 +2.05177E+01 -2.06558E+01 +1.08338E+01 -2.35077E+01 -5.57361E+00 -1.43128E+01 -1.98505E+01
 +2.10723E+00 -2.41666E+01 +1.68424E+01 -1.64297E+01 +2.22684E+01 -1.38886E+00 +1.64502E+01 +1.24832E+01
 +3.84790E+00 +1.81992E+01 -7.90488E+00 +1.41791E+01 -1.28531E+01 +4.52401E+00 -1.00151E+01 -4.21696E+00
 -3.19119E+00 -7.39795E+00 +2.21682E+00 -4.84743E+00 +2.97374E+00 -1.99746E-01 -1.75687E-01 +2.18973E+00
 -3.62347E+00 +4.03524E-01 -3.85024E+00 -3.94565E+00 +5.22542E-03 -7.20217E+00 +5.67682E+00 -6.43863E+00
 +9.50180E+00 -1.48188E+00 +8.94264E+00 +5.09957E+00 +4.12185E+00 +9.80460E+00 -2.51324E+00 +1.03815E+01
 -7.89529E+00 +6.91289E+00 -1.00736E+01 +1.31064E+00 -8.87327E+00 -4.11005E+00 -5.34446E+00 -7.81749E+00
 -7.59848E-01 -9.30446E+00 +3.93972E+00 -8.57921E+00 +7.96948E+00 -5.68042E+00 +1.02836E+01 -7.98856E-01
 +9.64415E+00 +5.14159E+00 +5.40955E+00 +1.01799E+01 -1.51468E+00 +1.19233E+01 -8.49272E+00 +8.93712E+00
 -1.22407E+01 +1.99608E+00 -1.07042E+01 -5.86278E+00 -4.50578E+00 -1.08162E+01 +3.15423E+00 -1.04742E+01
 +8.28169E+00 -5.39402E+00 +8.49422E+00 +1.21219E+00 +4.46066E+00 +5.49376E+00 -6.36555E-01 +5.41051E+00
 -3.29827E+00 +1.96596E+00 -2.08670E+00 -1.63058E+00 +1.45046E+00 -2.30973E+00 +3.96041E+00 +6.25580E-01
 +2.76249E+00 +4.94551E+00 -2.10144E+00 +7.03151E+00 -7.69417E+00 +4.46944E+00 -1.00573E+01 -2.08785E+00
 -6.89424E+00 -9.09676E+00 +7.44143E-01 -1.22719E+01 +8.91805E+00 -9.31281E+00 +1.31279E+01 -1.42758E+00
 +1.10167E+01 +7.32491E+00 +3.73778E+00 +1.24282E+01 -4.81783E+00 +1.15016E+01 -1.03598E+01 +5.50455E+00
 -1.05924E+01 -2.08056E+00 -6.23462E+00 -7.42683E+00 -2.08065E-01 -8.47476E+00 +4.30482E+00 -5.74359E+00
 +5.63074E+00 -1.54872E+00 +4.18722E+00 +1.66023E+00 +1.73752E+00 +2.70002E+00 +1.67208E-02 +2.00046E+00
 -3.07853E-01 +8.96226E-01 +2.34077E-01 +5.22004E-01 +5.85913E-01 +1.09260E+00 +3.48835E-02 +1.94846E+00
 -1.32245E+00 +2.17687E+00 -2.73690E+00 +1.28738E+00 -3.35468E+00 -5.00587E-01 -2.73055E+00 -2.44991E+00
 -1.01160E+00 -3.74531E+00 +1.21450E+00 -3.86535E+00 +3.21046E+00 -2.72306E+00 +4.32861E+00 -6.18737E-01
 +4.14942E+00 +1.86627E+00 +2.58201E+00 +3.97574E+00 -3.38694E-02 +4.93513E+00 -2.89864E+00 +4.21789E+00
