 Created: 16-Jan-2021
 $NMID
 ID='D:\BASISSIMULATI'
 FMTDAT='(8E13.5)'
 VOLUME=   1.00000E+00
 TRAMP=   1.00000E+00
 $END
 +4.80385E+01 +8.02769E-01 +4.54003E+01 +1.40966E+01 +3.80273E+01 +2.56220E+01 +2.68995E+01 +3.38550E+01
 +1.34930E+01 +3.77496E+01 -4.42818E-01 +3.68836E+01 -1.31435E+01 +3.15064E+01 -2.30841E+01 +2.24838E+01
 -2.91893E+01 +1.11504E+01 -3.09669E+01 -9.03902E-01 -2.85473E+01 -1.20770E+01 -2.26266E+01 -2.09879E+01
 -1.43268E+01 -2.66644E+01 -4.99902E+00 -2.86569E+01 +3.99430E+00 -2.70645E+01 +1.14838E+01 -2.24762E+01
 +1.66516E+01 -1.58393E+01 +1.91210E+01 -8.28393E+00 +1.89698E+01 -9.33391E-01 +1.66685E+01 +5.26719E+00
 +1.29621E+01 +9.67765E+00 +8.71743E+00 +1.20279E+01 +4.76618E+00 +1.24162E+01 +1.76845E+00 +1.12466E+01
 +1.19271E-01 +9.12157E+00 -9.08083E-02 +6.71250E+00 +9.41072E-01 +4.63122E+00 +2.79509E+00 +3.32518E+00
 +4.92658E+00 +3.01154E+00 +6.77707E+00 +3.65821E+00 +7.87847E+00 +5.01084E+00 +7.93321E+00 +6.65715E+00
 +6.85891E+00 +8.11453E+00 +4.79289E+00 +8.92411E+00 +2.05920E+00 +8.73501E+00 -8.93530E-01 +7.36577E+00
 -3.57100E+00 +4.83450E+00 -5.51519E+00 +1.35548E+00 -6.37626E+00 -2.69488E+00 -5.96450E+00 -6.83525E+00
 -4.27598E+00 -1.05497E+01 -1.49045E+00 -1.33600E+01 +2.05624E+00 -1.48903E+01 +5.91958E+00 -1.49150E+01
 +9.60602E+00 -1.33864E+01 +1.26366E+01 -1.04386E+01 +1.46067E+01 -6.37039E+00 +1.52350E+01 -1.60791E+00
 +1.43970E+01 +3.34477E+00 +1.21399E+01 +7.96367E+00 +8.67776E+00 +1.17641E+01 +4.36853E+00 +1.43546E+01
 -3.26069E-01 +1.54814E+01 -4.89197E+00 +1.50564E+01 -8.82130E+00 +1.31679E+01 -1.16715E+01 +1.00711E+01
 -1.31181E+01 +6.15852E+00 -1.29956E+01 +1.91408E+00 -1.13193E+01 -2.14521E+00 -8.28683E+00 -5.53309E+00
 -4.25572E+00 -7.85525E+00 +2.99362E-01 -8.86011E+00 +4.84587E+00 -8.47157E+00 +8.86143E+00 -6.79870E+00
 +1.19015E+01 -4.12007E+00 +1.36572E+01 -8.44206E-01 +1.39943E+01 +2.54877E+00 +1.29679E+01 +5.57608E+00
 +1.08099E+01 +7.82166E+00 +7.88995E+00 +8.99547E+00 +4.65769E+00 +8.97339E+00 +1.57312E+00 +7.81146E+00
 -9.62655E-01 +5.73214E+00 -2.66582E+00 +3.08478E+00 -3.40796E+00 +2.86867E-01 -3.22788E+00 -2.24433E+00
 -2.31558E+00 -4.15828E+00 -9.71639E-01 -5.22496E+00 +4.50972E-01 -5.36708E+00 +1.61212E+00 -4.66561E+00
 +2.24561E+00 -3.33825E+00 +2.20559E+00 -1.69499E+00 +1.49028E+00 -7.89109E-02 +2.39384E-01 +1.19719E+00
 -1.29417E+00 +1.90719E+00 -2.79272E+00 +1.95116E+00 -3.93389E+00 +1.37135E+00 -4.45125E+00 +3.42092E-01
 -4.18502E+00 -8.64326E-01 -3.11383E+00 -1.92954E+00 -1.36208E+00 -2.54940E+00 +8.18416E-01 -2.49208E+00
 +3.08911E+00 -1.64380E+00 +5.08090E+00 -3.41720E-02 +6.45601E+00 +2.16306E+00 +6.96526E+00 +4.65418E+00
 +6.49111E+00 +7.07040E+00 +5.06939E+00 +9.02606E+00 +2.88628E+00 +1.01805E+01 +2.51139E-01 +1.02936E+01
 -2.45021E+00 +9.26597E+00 -4.81427E+00 +7.15778E+00 -6.48127E+00 +4.18299E+00 -7.18966E+00 +6.80498E-01
 -6.81543E+00 -2.93331E+00 -5.39049E+00 -6.22309E+00 -3.09773E+00 -8.79532E+00 -2.43992E-01 -1.03522E+01
 +2.78459E+00 -1.07311E+01 +5.57790E+00 -9.92375E+00 +7.75946E+00 -8.07398E+00 +9.03807E+00 -5.45358E+00
 +9.24616E+00 -2.42165E+00 +8.35980E+00 +6.26938E-01 +6.49822E+00 +3.31600E+00 +3.90349E+00 +5.33785E+00
 +9.03986E-01 +6.49144E+00 -2.13277E+00 +6.70419E+00 -4.85079E+00 +6.03480E+00 -6.95267E+00 +4.65776E+00
 -8.23654E+00 +2.83215E+00 -8.61822E+00 +8.60111E-01 -8.13585E+00 -9.58923E-01 -6.93724E+00 -2.37138E+00
 -5.25233E+00 -3.20402E+00 -3.35524E+00 -3.38503E+00 -1.52198E+00 -2.94917E+00 +1.00668E-02 -2.02668E+00
 +1.07480E+00 -8.18274E-01 +1.59771E+00 +4.39736E-01 +1.60112E+00 +1.51457E+00 +1.19415E+00 +2.21427E+00
 +5.49319E-01 +2.41746E+00 -1.30272E-01 +2.09115E+00 -6.47590E-01 +1.29402E+00 -8.46478E-01 +1.64890E-01
 -6.38942E-01 -1.10152E+00 -2.06876E-02 -2.28763E+00 +9.27523E-01 -3.18947E+00 +2.05282E+00 -3.65061E+00
 +3.15532E+00 -3.58837E+00 +4.02135E+00 -3.00792E+00 +4.45938E+00 -2.00217E+00 +4.33291E+00 -7.37468E-01
 +3.58504E+00 +5.72589E-01 +2.25074E+00 +1.70113E+00 +4.54755E-01 +2.44430E+00 -1.60450E+00 +2.65414E+00
 -3.68270E+00 +2.26299E+00 -5.52475E+00 +1.29540E+00 -6.90186E+00 -1.34128E-01 -7.64494E+00 -1.83728E+00
 -7.66923E+00 -3.57951E+00 -6.98649E+00 -5.11473E+00 -5.70297E+00 -6.22181E+00 -4.00354E+00 -6.73754E+00
 -2.12451E+00 -6.58085E+00 -3.19234E-01 -5.76497E+00 +1.17840E+00 -4.39567E+00 +2.18710E+00 -2.65593E+00
 +2.60311E+00 -7.79463E-01 +2.41354E+00 +9.83034E-01 +1.69606E+00 +2.39983E+00 +6.05293E-01 +3.29114E+00
 -6.51982E-01 +3.55434E+00 -1.84916E+00 +3.17772E+00 -2.77482E+00 +2.24100E+00 -3.26521E+00 +9.02368E-01
 -3.22957E+00 -6.25844E-01 -2.66432E+00 -2.10947E+00 -1.65413E+00 -3.32799E+00 -3.59441E-01 -4.10794E+00
 +1.00767E+00 -4.34941E+00 +2.21609E+00 -4.04144E+00 +3.05169E+00 -3.26391E+00 +3.35164E+00 -2.17550E+00
 +3.03154E+00 -9.89063E-01 +2.10113E+00 +6.18725E-02 +6.65806E-01 +7.60651E-01 -1.08671E+00 +9.43314E-01
 -2.91299E+00 +5.27025E-01 -4.55008E+00 -4.73611E-01 -5.75582E+00 -1.94535E+00 -6.34717E+00 -3.69092E+00
 -6.23026E+00 -5.45773E+00 -5.41727E+00 -6.97642E+00 -4.02674E+00 -8.00355E+00 -2.26694E+00 -8.36141E+00
 -4.04426E-01 -7.96854E+00 +1.27757E+00 -6.85553E+00 +2.52431E+00 -5.16308E+00 +3.15091E+00 -3.12209E+00
 +3.07287E+00 -1.01857E+00 +2.32051E+00 +8.51036E-01 +1.03438E+00 +2.22713E+00 -5.57766E-01 +2.92863E+00
 -2.17903E+00 +2.88206E+00 -3.55003E+00 +2.13293E+00 -4.43638E+00 +8.37090E-01 -4.68873E+00 -7.66600E-01
 -4.26824E+00 -2.39771E+00 -3.25303E+00 -3.78279E+00 -1.82418E+00 -4.70241E+00 -2.33723E-01 -5.02859E+00
 +1.23994E+00 -4.74582E+00 +2.34113E+00 -3.95192E+00 +2.88193E+00 -2.83872E+00 +2.77495E+00 -1.65587E+00
 +2.04803E+00 -6.64500E-01 +8.38252E-01 -8.91083E-02 -6.33535E-01 -7.64208E-02 -2.10302E+00 -6.68708E-01
 -3.31000E+00 -1.79632E+00 -4.04463E+00 -3.29067E+00 -4.18380E+00 -4.91500E+00 -3.71122E+00 -6.40721E+00
 -2.71777E+00 -7.52661E+00 -1.38250E+00 -8.09590E+00 +6.19405E-02 -8.03092E+00 +1.37250E+00 -7.35275E+00
 +2.33938E+00 -6.18052E+00 +2.82202E+00 -4.70676E+00 +2.77083E+00 -3.16042E+00 +2.23122E+00 -1.76500E+00
 +1.32966E+00 -6.99740E-01 +2.45343E-01 -7.12436E-02 -8.26679E-01 +9.96580E-02 -1.71320E+00 -1.26158E-01
 -2.29411E+00 -6.25659E-01 -2.52122E+00 -1.24411E+00 -2.42156E+00 -1.82974E+00 -2.08518E+00 -2.26550E+00
 -1.64062E+00 -2.49139E+00 -1.22375E+00 -2.51330E+00 -9.46633E-01 -2.39702E+00 -8.73014E-01 -2.24921E+00
 -1.00539E+00 -2.19001E+00 -1.28598E+00 -2.32315E+00 -1.61099E+00 -2.71036E+00 -1.85485E+00 -3.35507E+00
 -1.89887E+00 -4.19909E+00 -1.65837E+00 -5.13242E+00 -1.10233E+00 -6.01408E+00 -2.61833E-01 -6.69931E+00
 +7.74408E-01 -7.06741E+00 +1.87599E+00 -7.04454E+00 +2.89477E+00 -6.61684E+00 +3.69155E+00 -5.83183E+00
 +4.16002E+00 -4.78801E+00 +4.24328E+00 -3.61568E+00 +3.93985E+00 -2.45323E+00 +3.29895E+00 -1.42410E+00
 +2.40659E+00 -6.19214E-01 +1.36648E+00 -8.79944E-02 +2.80317E-01 +1.60919E-01 -7.68011E-01 +1.50483E-01
 -1.72089E+00 -7.91659E-02 -2.54692E+00 -4.86071E-01 -3.23322E+00 -1.03841E+00 -3.77295E+00 -1.71973E+00
 -4.15244E+00 -2.52610E+00 -4.34205E+00 -3.45599E+00 -4.29437E+00 -4.49581E+00 -3.95126E+00 -5.60560E+00
 -3.25900E+00 -6.70953E+00 -2.18837E+00 -7.69514E+00 -7.54851E-01 -8.42348E+00 +9.66531E-01 -8.74959E+00
 +2.83665E+00 -8.55014E+00 +4.66100E+00 -7.75308E+00 +6.21214E+00 -6.36272E+00 +7.26311E+00 -4.47414E+00
 +7.62632E+00 -2.27226E+00 +7.19100E+00 -1.37887E-02 +5.95123E+00 +2.00643E+00 +4.01851E+00 +3.49982E+00
 +1.61464E+00 +4.23178E+00 -9.55099E-01 +4.06419E+00 -3.34527E+00 +2.98425E+00 -5.22315E+00 +1.11379E+00
 -6.32221E+00 -1.30396E+00 -6.48676E+00 -3.93872E+00 -5.69932E+00 -6.42347E+00 -4.08549E+00 -8.41224E+00
 -1.89481E+00 -9.63557E+00 +5.39434E-01 -9.94358E+00 +2.85467E+00 -9.32927E+00 +4.71831E+00 -7.92753E+00
 +5.88138E+00 -5.99021E+00 +6.21717E+00 -3.84158E+00 +5.73815E+00 -1.82236E+00 +4.58853E+00 -2.32206E-01
 +3.01413E+00 +7.19045E-01 +1.31553E+00 +9.42860E-01 -2.06868E-01 +4.81105E-01 -1.30560E+00 -5.08352E-01
 -1.82738E+00 -1.78618E+00 -1.73556E+00 -3.07937E+00 -1.11046E+00 -4.13309E+00 -1.28173E-01 -4.75693E+00
 +9.77458E-01 -4.85727E+00 +1.96206E+00 -4.45020E+00 +2.61805E+00 -3.65338E+00 +2.81316E+00 -2.65904E+00
 +2.51348E+00 -1.69390E+00 +1.78701E+00 -9.73968E-01 +7.88008E-01 -6.62768E-01 -2.74535E-01 -8.40797E-01
 -1.17765E+00 -1.49138E+00 -1.72666E+00 -2.50506E+00 -1.79113E+00 -3.70098E+00 -1.32805E+00 -4.86081E+00
 -3.88629E-01 -5.76852E+00 +8.91881E-01 -6.24867E+00 +2.31886E+00 -6.19637E+00 +3.67240E+00 -5.59400E+00
 +4.74446E+00 -4.51252E+00 +5.37239E+00 -3.09770E+00 +5.46341E+00 -1.54476E+00 +5.00642E+00 -6.62051E-02
 +4.06995E+00 +1.14124E+00 +2.78780E+00 +1.92503E+00 +1.33555E+00 +2.19634E+00 -9.74029E-02 +1.93842E+00
 -1.33535E+00 +1.20343E+00 -2.23905E+00 +9.95825E-02 -2.72090E+00 -1.22834E+00 -2.75098E+00 -2.62126E+00
 -2.35444E+00 -3.92712E+00 -1.60186E+00 -5.01827E+00 -5.95217E-01 -5.80303E+00 +5.47859E-01 -6.23081E+00
 +1.70893E+00 -6.29144E+00 +2.78092E+00 -6.00997E+00 +3.67669E+00 -5.43875E+00 +4.33383E+00 -4.64847E+00
 +4.71630E+00 -3.71942E+00 +4.81355E+00 -2.73391E+00 +4.63820E+00 -1.76995E+00 +4.22268E+00 -8.96246E-01
 +3.61531E+00 -1.68254E-01 +2.87576E+00 +3.74859E-01 +2.07002E+00 +7.12316E-01 +1.26463E+00 +8.42599E-01
 +5.20703E-01 +7.82701E-01 -1.11934E-01 +5.65428E-01 -5.99527E-01 +2.34670E-01 -9.27272E-01 -1.61012E-01
 -1.09949E+00 -5.75672E-01 -1.13674E+00 -9.72942E-01 -1.07002E+00 -1.33130E+00 -9.33078E-01 -1.64642E+00
 -7.54069E-01 -1.92979E+00 -5.48483E-01 -2.20360E+00 -3.14944E-01 -2.49263E+00 -3.52007E-02 -2.81462E+00
 +3.21257E-01 -3.17137E+00 +7.88440E-01 -3.54249E+00 +1.39249E+00 -3.88387E+00 +2.13994E+00 -4.13163E+00
 +3.00830E+00 -4.21178E+00 +3.94125E+00 -4.05392E+00 +4.85040E+00 -3.60707E+00 +5.62403E+00 -2.85419E+00
 +6.14200E+00 -1.82270E+00 +6.29487E+00 -5.88103E-01 +6.00392E+00 +7.30620E-01 +5.23852E+00 +1.98394E+00
 +4.02738E+00 +3.01153E+00 +2.46122E+00 +3.66586E+00 +6.85449E-01 +3.83595E+00 -1.11629E+00 +3.46700E+00
 -2.74585E+00 +2.57252E+00 -4.01777E+00 +1.23639E+00 -4.78576E+00 -3.95920E-01 -4.96410E+00 -2.13585E+00
