 Created: 16-Jan-2021
 $NMID
 ID='D:\BASISSIMULATI'
 FMTDAT='(8E13.5)'
 VOLUME=   1.00000E+00
 TRAMP=   1.00000E+00
 $END
 +4.34570E+01 +9.90209E-01 +3.16818E+01 +4.41482E+00 +4.58834E+00 +7.36783E+00 -2.17833E+01 +9.03316E+00
 -3.25538E+01 +8.06144E+00 -2.30991E+01 +4.11503E+00 -1.21337E+00 -8.67556E-01 +1.86582E+01 -3.31148E+00
 +2.48295E+01 -5.97380E-01 +1.50906E+01 +6.29836E+00 -3.24631E+00 +1.25537E+01 -1.91386E+01 +1.24751E+01
 -2.48991E+01 +3.88079E+00 -1.98581E+01 -9.45608E+00 -8.95016E+00 -1.96114E+01 +1.70806E+00 -1.97773E+01
 +8.56192E+00 -9.36400E+00 +1.13418E+01 +4.97596E+00 +1.12485E+01 +1.35636E+01 +8.97138E+00 +1.04288E+01
 +4.47546E+00 -2.24713E+00 -1.59274E+00 -1.53656E+01 -6.76566E+00 -1.91694E+01 -7.58617E+00 -1.01450E+01
 -2.20543E+00 +6.39702E+00 +7.36478E+00 +1.99730E+01 +1.55915E+01 +2.22072E+01 +1.66866E+01 +1.25207E+01
 +8.67968E+00 -1.78902E+00 -4.76641E+00 -1.09755E+01 -1.63903E+01 -9.70836E+00 -1.99698E+01 -4.16730E-01
 -1.43070E+01 +9.08212E+00 -3.73281E+00 +1.16048E+01 +5.12773E+00 +5.66540E+00 +7.85212E+00 -4.03530E+00
 +4.70351E+00 -1.06864E+01 -4.67149E-01 -1.05943E+01 -3.66288E+00 -5.52630E+00 -3.62012E+00 -6.27083E-01
 -1.95347E+00 +1.02590E-01 -8.31693E-01 -3.00526E+00 -5.27434E-01 -5.92013E+00 +8.28218E-01 -4.65904E+00
 +5.01726E+00 +1.07804E+00 +1.11037E+01 +7.43878E+00 +1.50467E+01 +9.52182E+00 +1.24169E+01 +5.50826E+00
 +2.33128E+00 -1.59320E+00 -1.06816E+01 -6.09957E+00 -1.88953E+01 -4.07941E+00 -1.65703E+01 +3.43280E+00
 -4.43587E+00 +1.10110E+01 +1.00704E+01 +1.28252E+01 +1.74179E+01 +7.00287E+00 +1.24368E+01 -2.96390E+00
 -1.96056E+00 -1.07960E+01 -1.65639E+01 -1.19696E+01 -2.20121E+01 -6.77171E+00 -1.50099E+01 +3.23700E-01
 -2.78723E-01 +4.26077E+00 +1.29850E+01 +3.07209E+00 +1.74410E+01 -1.15474E+00 +1.21676E+01 -4.49045E+00
 +2.42276E+00 -4.50730E+00 -4.78303E+00 -1.96467E+00 -5.72047E+00 +3.88731E-01 -1.88189E+00 +6.31495E-01
 +2.21407E+00 -4.86107E-01 +3.15673E+00 -3.37939E-01 +1.22717E+00 +2.83927E+00 -5.08416E-01 +7.74942E+00
 +4.75690E-01 +1.05251E+01 +3.47674E+00 +7.79064E+00 +4.94277E+00 -1.21546E-01 +1.67866E+00 -8.61963E+00
 -5.84639E+00 -1.18071E+01 -1.30456E+01 -6.93218E+00 -1.43143E+01 +3.10417E+00 -7.43765E+00 +1.13583E+01
 +4.18165E+00 +1.16614E+01 +1.34350E+01 +3.17877E+00 +1.43633E+01 -8.73682E+00 +6.42603E+00 -1.61734E+01
 -5.01009E+00 -1.41989E+01 -1.23734E+01 -4.27849E+00 -1.10850E+01 +6.90438E+00 -2.49434E+00 +1.22858E+01
 +7.44270E+00 +9.30444E+00 +1.25544E+01 +1.29280E+00 +1.05594E+01 -5.44181E+00 +3.98892E+00 -6.42812E+00
 -2.38159E+00 -2.03532E+00 -5.26533E+00 +3.43930E+00 -4.79801E+00 +5.58238E+00 -3.43434E+00 +3.37472E+00
 -3.14357E+00 -3.71537E-01 -3.53267E+00 -1.80782E+00 -2.53469E+00 +4.09019E-01 +1.06612E+00 +3.86182E+00
 +5.70164E+00 +4.48426E+00 +7.67553E+00 +2.75770E-01 +4.16296E+00 -6.54007E+00 -3.86757E+00 -1.08698E+01
 -1.14636E+01 -8.71317E+00 -1.28450E+01 -6.17684E-01 -5.77359E+00 +8.23991E+00 +6.22656E+00 +1.16346E+01
 +1.57686E+01 +6.92330E+00 +1.65317E+01 -2.81350E+00 +7.73825E+00 -1.08376E+01 -5.12842E+00 -1.15575E+01
 -1.39898E+01 -4.51092E+00 -1.36321E+01 +5.41412E+00 -5.06589E+00 +1.16120E+01 +5.52680E+00 +1.04611E+01
 +1.13186E+01 +3.60850E+00 +9.43095E+00 -3.69800E+00 +2.34373E+00 -6.72763E+00 -4.58642E+00 -4.57702E+00
 -7.28844E+00 -2.47196E-01 -5.55941E+00 +2.27649E+00 -2.32185E+00 +1.37303E+00 -5.67876E-01 -1.17751E+00
 -7.58993E-01 -2.16687E+00 -8.49811E-01 -1.04261E-01 +1.26369E+00 +3.24710E+00 +5.19477E+00 +4.32559E+00
 +7.84111E+00 +1.03115E+00 +5.90165E+00 -5.00611E+00 -8.95457E-01 -9.23157E+00 -8.70298E+00 -7.63132E+00
 -1.18750E+01 -1.72623E-01 -7.19530E+00 +8.62823E+00 +3.22603E+00 +1.27050E+01 +1.28487E+01 +8.88615E+00
 +1.50431E+01 -5.82579E-01 +7.83119E+00 -9.44664E+00 -4.48645E+00 -1.18336E+01 -1.41275E+01 -6.39754E+00
 -1.51106E+01 +2.84173E+00 -7.24756E+00 +9.52828E+00 +3.96771E+00 +9.53591E+00 +1.13600E+01 +3.66358E+00
 +1.09544E+01 -3.41299E+00 +4.24973E+00 -6.90684E+00 -3.50280E+00 -5.38123E+00 -7.39583E+00 -1.30726E+00
 -6.12338E+00 +1.46196E+00 -2.12320E+00 +1.03730E+00 +1.07649E+00 -1.13060E+00 +1.85385E+00 -1.88516E+00
 +1.36224E+00 +5.06252E-01 +1.78415E+00 +4.49286E+00 +3.75480E+00 +6.34576E+00 +5.40113E+00 +3.40632E+00
 +3.97115E+00 -3.23302E+00 -1.31352E+00 -9.00337E+00 -7.76627E+00 -9.14180E+00 -1.06998E+01 -2.53517E+00
 -6.99213E+00 +6.94980E+00 +2.01374E+00 +1.29035E+01 +1.07837E+01 +1.09279E+01 +1.32001E+01 +1.93727E+00
 +7.00868E+00 -8.31954E+00 -4.23367E+00 -1.32392E+01 -1.33317E+01 -9.94242E+00 -1.43267E+01 -1.11588E+00
 -6.60060E+00 +7.14105E+00 +4.75091E+00 +9.73848E+00 +1.25095E+01 +5.96299E+00 +1.22501E+01 -5.78098E-01
 +5.06266E+00 -5.10372E+00 -3.70287E+00 -5.26303E+00 -8.48436E+00 -2.41627E+00 -7.22907E+00 +1.60682E-01
 -2.17096E+00 +3.94468E-01 +2.53748E+00 -8.63426E-01 +4.16697E+00 -9.23782E-01 +3.05131E+00 +1.88119E+00
 +1.48356E+00 +6.15612E+00 +1.16076E+00 +8.16283E+00 +1.57105E+00 +4.91415E+00 +7.36754E-01 -2.85767E+00
 -2.44235E+00 -1.04702E+01 -6.48708E+00 -1.23430E+01 -8.03585E+00 -6.21811E+00 -4.61662E+00 +4.68618E+00
 +2.76730E+00 +1.34432E+01 +9.60660E+00 +1.40527E+01 +1.08468E+01 +5.67063E+00 +4.79011E+00 -6.64774E+00
 -5.11803E+00 -1.52785E+01 -1.22704E+01 -1.50784E+01 -1.14613E+01 -6.61063E+00 -2.75118E+00 +4.58865E+00
 +8.30787E+00 +1.19467E+01 +1.44135E+01 +1.20510E+01 +1.15920E+01 +6.24518E+00 +1.94143E+00 -1.10204E+00
 -7.94656E+00 -5.93569E+00 -1.16960E+01 -6.84776E+00 -7.52869E+00 -4.96938E+00 +8.17887E-01 -2.11137E+00
 +7.13427E+00 +8.78988E-01 +7.32363E+00 +4.11437E+00 +2.09500E+00 +7.33476E+00 -4.07176E+00 +8.91281E+00
 -6.63463E+00 +6.58944E+00 -4.37708E+00 -3.52281E-01 +7.31670E-02 -9.37126E+00 +2.76280E+00 -1.53262E+01
 +1.75966E+00 -1.36477E+01 -1.40406E+00 -3.94865E+00 -3.25762E+00 +8.79149E+00 -1.50398E+00 +1.68464E+01
 +2.91490E+00 +1.47445E+01 +6.51587E+00 +3.23133E+00 +6.15476E+00 -1.07792E+01 +1.71182E+00 -1.85095E+01
 -3.64270E+00 -1.50516E+01 -5.86690E+00 -2.58274E+00 -3.23728E+00 +1.11681E+01 +2.23882E+00 +1.80909E+01
 +6.32836E+00 +1.48702E+01 +5.81786E+00 +4.65476E+00 +9.50624E-01 -5.66741E+00 -4.83086E+00 -1.03504E+01
 -7.57916E+00 -8.25386E+00 -5.81001E+00 -2.65988E+00 -1.42825E+00 +1.92386E+00 +2.01811E+00 +3.20062E+00
 +2.24376E+00 +2.13754E+00 -8.89540E-02 +1.17623E+00 -2.20877E+00 +1.48862E+00 -1.78888E+00 +1.80738E+00
 +9.95687E-01 -1.47615E-01 +3.66083E+00 -4.96953E+00 +3.68311E+00 -1.01183E+01 +8.81272E-01 -1.12930E+01
 -2.20335E+00 -5.81356E+00 -2.38497E+00 +4.63870E+00 +1.28857E+00 +1.43359E+01 +6.32113E+00 +1.70413E+01
 +8.43641E+00 +1.03985E+01 +4.99197E+00 -2.04449E+00 -2.56374E+00 -1.28196E+01 -9.32556E+00 -1.53055E+01
 -1.04294E+01 -8.02478E+00 -4.84784E+00 +4.46227E+00 +3.50674E+00 +1.45926E+01 +8.42776E+00 +1.65853E+01
 +5.98993E+00 +9.74561E+00 -2.36139E+00 -1.68434E+00 -1.06376E+01 -1.16059E+01 -1.25826E+01 -1.56977E+01
 -6.29338E+00 -1.32630E+01 +4.26505E+00 -6.59393E+00 +1.20375E+01 +1.02989E+00 +1.19473E+01 +6.99276E+00
 +4.53206E+00 +9.78088E+00 -4.51989E+00 +8.67240E+00 -8.56163E+00 +3.69453E+00 -4.79383E+00 -3.79575E+00
 +3.82658E+00 -1.06708E+01 +1.08866E+01 -1.28630E+01 +1.12234E+01 -7.66928E+00 +4.54249E+00 +3.80735E+00
 -4.61166E+00 +1.61497E+01 -1.03173E+01 +2.21494E+01 -9.47752E+00 +1.72533E+01 -3.70114E+00 +3.03916E+00
 +2.29971E+00 -1.29826E+01 +4.33732E+00 -2.16275E+01 +1.59777E+00 -1.78288E+01 -3.25464E+00 -4.08681E+00
 -6.46461E+00 +1.09300E+01 -5.99791E+00 +1.78772E+01 -2.64692E+00 +1.26973E+01 +1.13218E+00 -9.46343E-01
 +3.38602E+00 -1.43359E+01 +3.95451E+00 -1.95164E+01 +3.98113E+00 -1.42279E+01 +4.36440E+00 -2.72311E+00
 +4.72948E+00 +7.73395E+00 +3.89935E+00 +1.18949E+01 +1.37571E+00 +9.48145E+00 -1.66822E+00 +4.29525E+00
 -3.00862E+00 +6.63421E-01 -1.27084E+00 +2.09500E-01 +2.50599E+00 +1.33810E+00 +5.18104E+00 +1.44450E+00
 +3.76589E+00 -3.24818E-01 -2.02101E+00 -2.21529E+00 -9.02231E+00 -1.61305E+00 -1.25859E+01 +2.18412E+00
 -9.93160E+00 +6.68412E+00 -2.41410E+00 +7.72596E+00 +5.17766E+00 +2.78917E+00 +7.95107E+00 -6.52649E+00
 +4.46915E+00 -1.49851E+01 -2.15484E+00 -1.70714E+01 -6.53275E+00 -1.08778E+01 -5.00162E+00 +3.38881E-01
 +1.64794E+00 +1.01446E+01 +8.78483E+00 +1.31032E+01 +1.14316E+01 +8.21901E+00 +7.97742E+00 -6.84700E-01
 +1.28143E+00 -7.73684E+00 -3.64911E+00 -8.84323E+00 -3.57687E+00 -3.92732E+00 +5.06346E-01 +3.67366E+00
 +4.28663E+00 +9.80135E+00 +3.67315E+00 +1.19735E+01 -1.81728E+00 +1.01677E+01 -8.52324E+00 +5.85745E+00
 -1.14180E+01 +5.82171E-01 -8.06966E+00 -4.64344E+00 -6.87497E-01 -8.89093E+00 +5.39813E+00 -1.07948E+01
 +5.72719E+00 -8.97231E+00 +1.51096E-01 -3.36536E+00 -6.92082E+00 +3.71074E+00 -9.70916E+00 +8.17657E+00
 -5.33221E+00 +6.60956E+00 +4.01318E+00 -1.03378E+00 +1.25560E+01 -1.05771E+01 +1.50006E+01 -1.57672E+01
 +1.01451E+01 -1.23131E+01 +1.50287E+00 -1.09133E+00 -5.36283E+00 +1.19279E+01 -6.70608E+00 +1.92879E+01
 -2.86292E+00 +1.68739E+01 +2.51474E+00 +6.63637E+00 +5.37919E+00 -4.73926E+00 +4.03234E+00 -1.03240E+01
 -2.17514E-01 -7.46877E+00 -4.60644E+00 +7.57581E-01 -7.12464E+00 +8.07679E+00 -7.58040E+00 +9.49760E+00
 -6.92726E+00 +4.53026E+00 -5.81472E+00 -3.03524E+00 -3.88328E+00 -8.31586E+00 -4.77132E-01 -8.89321E+00
 +3.99708E+00 -6.09053E+00 +7.55924E+00 -3.25808E+00 +7.80363E+00 -2.71054E+00 +3.97861E+00 -3.88837E+00
 -1.77941E+00 -4.16246E+00 -5.39979E+00 -1.46570E+00 -3.66502E+00 +3.55919E+00 +3.14660E+00 +7.77434E+00
 +1.09107E+01 +8.02340E+00 +1.41761E+01 +3.86314E+00 +9.94363E+00 -1.73919E+00 -1.29931E-02 -4.44736E+00
 -1.00891E+01 -1.84566E+00 -1.45226E+01 +4.56879E+00 -1.12398E+01 +1.02941E+01 -3.14283E+00 +1.10197E+01
 +4.05000E+00 +5.73415E+00 +5.80295E+00 -2.56801E+00 +1.71104E+00 -9.06510E+00 -4.62236E+00 -1.04873E+01
 -8.48026E+00 -7.17543E+00 -7.40783E+00 -2.40116E+00 -2.59249E+00 +3.37811E-01 +2.55179E+00 -1.45983E-01
 +5.22720E+00 -2.26470E+00 +5.18474E+00 -3.40940E+00 +4.33100E+00 -2.30323E+00 +4.57921E+00 +3.90265E-02
 +5.92705E+00 +1.46594E+00 +6.45596E+00 +8.55958E-01 +4.23998E+00 -6.66163E-01 -5.34065E-01 -6.08005E-01
