 Created: 16-Jan-2021
 $NMID
 ID='D:\BASISSIMULATI'
 FMTDAT='(8E13.5)'
 VOLUME=   1.00000E+00
 TRAMP=   1.00000E+00
 $END
 +3.01871E+01 +1.15147E+00 +2.21445E+01 +1.94190E+01 +4.22467E+00 +2.72443E+01 -1.34725E+01 +2.08694E+01
 -2.12143E+01 +4.74906E+00 -1.53377E+01 -1.11755E+01 -2.89458E-01 -1.74285E+01 +1.41752E+01 -1.05850E+01
 +1.88891E+01 +4.83493E+00 +1.06946E+01 +1.92205E+01 -5.81966E+00 +2.36659E+01 -2.11971E+01 +1.51929E+01
 -2.67603E+01 -1.66869E+00 -1.96032E+01 -1.77431E+01 -4.02243E+00 -2.46546E+01 +1.12863E+01 -1.95524E+01
 +1.84165E+01 -6.39502E+00 +1.46693E+01 +6.75891E+00 +3.68420E+00 +1.26321E+01 -7.15040E+00 +8.80615E+00
 -1.12393E+01 -1.30772E+00 -6.49583E+00 -1.09243E+01 +3.84699E+00 -1.40667E+01 +1.35419E+01 -8.91302E+00
 +1.71362E+01 +1.53923E+00 +1.29513E+01 +1.16070E+01 +3.61841E+00 +1.63405E+01 -5.85823E+00 +1.41357E+01
 -1.11113E+01 +7.15603E+00 -1.06508E+01 -3.86090E-01 -6.17963E+00 -4.81717E+00 -1.09941E+00 -4.86674E+00
 +1.65196E+00 -1.87644E+00 +1.09364E+00 +1.47137E+00 -1.69228E+00 +2.90466E+00 -4.61727E+00 +1.70061E+00
 -5.94545E+00 -1.29999E+00 -5.10362E+00 -4.53805E+00 -2.62198E+00 -6.72212E+00 +4.98480E-01 -7.33445E+00
 +3.41316E+00 -6.51483E+00 +5.65455E+00 -4.64103E+00 +6.96816E+00 -2.04688E+00 +7.09802E+00 +9.27412E-01
 +5.83017E+00 +3.72432E+00 +3.29695E+00 +5.54144E+00 +2.35180E-01 +5.67045E+00 -2.15009E+00 +4.03004E+00
 -2.78339E+00 +1.46655E+00 -1.44814E+00 -5.25973E-01 +8.81947E-01 -6.26779E-01 +2.45266E+00 +1.41836E+00
 +1.74473E+00 +4.44812E+00 -1.49536E+00 +6.41546E+00 -5.89689E+00 +5.57383E+00 -9.10167E+00 +1.62672E+00
 -9.09749E+00 -3.90524E+00 -5.46910E+00 -8.40816E+00 +2.22892E-01 -9.62636E+00 +5.22879E+00 -6.99380E+00
 +7.14517E+00 -2.02493E+00 +5.30046E+00 +2.51252E+00 +1.15152E+00 +4.18363E+00 -2.56847E+00 +2.29825E+00
 -3.46023E+00 -1.69648E+00 -8.73965E-01 -5.08413E+00 +3.71009E+00 -5.49450E+00 +7.55786E+00 -2.30770E+00
 +8.28697E+00 +2.97945E+00 +5.24904E+00 +7.62622E+00 -1.15463E-01 +9.22693E+00 -5.13138E+00 +7.06035E+00
 -7.42101E+00 +2.43524E+00 -6.20601E+00 -2.13044E+00 -2.64083E+00 -4.37453E+00 +9.65348E-01 -3.52823E+00
 +2.53112E+00 -6.30118E-01 +1.36185E+00 +2.20663E+00 -1.56324E+00 +3.08610E+00 -4.27950E+00 +1.40246E+00
 -5.03508E+00 -1.90372E+00 -3.27548E+00 -4.98852E+00 +1.29420E-01 -6.20728E+00 +3.47916E+00 -5.01032E+00
 +5.24487E+00 -2.14322E+00 +4.87317E+00 +8.92088E-01 +2.95995E+00 +2.73286E+00 +7.68602E-01 +2.86221E+00
 -5.54649E-01 +1.75205E+00 -5.85150E-01 +4.36033E-01 +2.73675E-01 -1.65417E-01 +1.16885E+00 +2.53544E-01
 +1.36908E+00 +1.31729E+00 +6.67512E-01 +2.30463E+00 -5.89873E-01 +2.62386E+00 -1.80036E+00 +2.12394E+00
 -2.48922E+00 +1.08828E+00 -2.53504E+00 -2.18652E-02 -2.13213E+00 -8.64867E-01 -1.57287E+00 -1.36143E+00
 -1.03458E+00 -1.62585E+00 -5.17402E-01 -1.78382E+00 +5.40848E-02 -1.83807E+00 +6.77559E-01 -1.68274E+00
 +1.20805E+00 -1.23876E+00 +1.44087E+00 -5.85485E-01 +1.27876E+00 +3.25183E-02 +8.47048E-01 +3.46677E-01
 +4.52265E-01 +2.58306E-01 +3.92959E-01 -6.04224E-02 +7.44370E-01 -2.48494E-01 +1.27057E+00 +1.43365E-02
 +1.54156E+00 +7.74431E-01 +1.19767E+00 +1.72717E+00 +1.99220E-01 +2.36291E+00 -1.10234E+00 +2.26064E+00
 -2.13091E+00 +1.35390E+00 -2.40144E+00 +1.84370E-03 -1.80037E+00 -1.18765E+00 -6.61983E-01 -1.68683E+00
 +4.09657E-01 -1.33951E+00 +8.73769E-01 -4.45464E-01 +5.50717E-01 +4.11753E-01 -2.84485E-01 +6.95036E-01
 -1.06386E+00 +2.14510E-01 -1.24933E+00 -7.68895E-01 -6.34976E-01 -1.69095E+00 +5.36961E-01 -1.99656E+00
 +1.70513E+00 -1.44363E+00 +2.28798E+00 -2.35120E-01 +1.98932E+00 +1.08645E+00 +9.49851E-01 +1.92039E+00
 -3.29886E-01 +1.91401E+00 -1.24900E+00 +1.13530E+00 -1.41074E+00 +2.79060E-02 -8.16449E-01 -8.23213E-01
 +1.46299E-01 -9.92344E-01 +9.11084E-01 -4.27311E-01 +1.02833E+00 +5.29059E-01 +3.99575E-01 +1.31946E+00
 -6.68042E-01 +1.46314E+00 -1.61574E+00 +8.10572E-01 -1.92012E+00 -3.68560E-01 -1.36901E+00 -1.51261E+00
 -1.83733E-01 -2.05086E+00 +1.08039E+00 -1.70055E+00 +1.81160E+00 -6.24047E-01 +1.65900E+00 +6.41836E-01
 +7.24019E-01 +1.45649E+00 -4.81018E-01 +1.41131E+00 -1.29552E+00 +5.54033E-01 -1.26321E+00 -6.24116E-01
 -3.87723E-01 -1.44271E+00 +8.52787E-01 -1.40047E+00 +1.75182E+00 -4.61024E-01 +1.75832E+00 +9.05831E-01
 +7.92019E-01 +1.96218E+00 -6.88416E-01 +2.10093E+00 -1.91498E+00 +1.19069E+00 -2.22355E+00 -3.29021E-01
 -1.42775E+00 -1.66775E+00 +5.87089E-02 -2.11033E+00 +1.43150E+00 -1.41835E+00 +1.93322E+00 +2.09441E-02
 +1.28061E+00 +1.39326E+00 -1.61128E-01 +1.90449E+00 -1.56596E+00 +1.23208E+00 -2.10290E+00 -2.76644E-01
 -1.40977E+00 -1.78087E+00 +1.85067E-01 -2.40959E+00 +1.82739E+00 -1.75621E+00 +2.60582E+00 -1.23132E-01
 +2.06516E+00 +1.62994E+00 +4.73203E-01 +2.55711E+00 -1.31622E+00 +2.15550E+00 -2.33308E+00 +6.53041E-01
 -2.03249E+00 -1.11176E+00 -6.01994E-01 -2.15439E+00 +1.14011E+00 -1.89368E+00 +2.19977E+00 -4.77144E-01
 +1.96041E+00 +1.29997E+00 +5.25278E-01 +2.43527E+00 -1.33960E+00 +2.27228E+00 -2.62622E+00 +8.59317E-01
 -2.63288E+00 -1.07985E+00 -1.33918E+00 -2.54032E+00 +5.90875E-01 -2.77440E+00 +2.16961E+00 -1.68224E+00
 +2.60842E+00 +1.47983E-01 +1.72315E+00 +1.75982E+00 +1.60296E-02 +2.33001E+00 -1.59603E+00 +1.58803E+00
 -2.25636E+00 -5.55462E-02 -1.60230E+00 -1.72574E+00 +5.48315E-02 -2.52687E+00 +1.88428E+00 -1.99118E+00
 +2.94378E+00 -3.16129E-01 +2.64379E+00 +1.72048E+00 +1.04792E+00 +3.12784E+00 -1.13497E+00 +3.18226E+00
 -2.87232E+00 +1.79563E+00 -3.30348E+00 -4.08755E-01 -2.18006E+00 -2.36730E+00 -3.06842E-02 -3.08646E+00
 +2.05585E+00 -2.15783E+00 +2.95535E+00 -1.58962E-02 +2.10042E+00 +2.22203E+00 -1.65474E-01 +3.29496E+00
 -2.68907E+00 +2.46976E+00 -4.06063E+00 -5.35047E-03 -3.36648E+00 -2.94033E+00 -7.44477E-01 -4.76946E+00
 +2.59085E+00 -4.38484E+00 +4.92432E+00 -1.79527E+00 +4.95229E+00 +1.78110E+00 +2.54432E+00 +4.49861E+00
 -1.09493E+00 +4.87075E+00 -4.00927E+00 +2.63183E+00 -4.54678E+00 -1.03157E+00 -2.31755E+00 -4.06205E+00
 +1.50555E+00 -4.65081E+00 +4.76224E+00 -2.28751E+00 +5.48211E+00 +1.86930E+00 +3.02259E+00 +5.55633E+00
 -1.48939E+00 +6.63332E+00 -5.70319E+00 +4.30462E+00 -7.31311E+00 -3.66250E-01 -5.35691E+00 -4.97513E+00
 -8.04208E-01 -7.07503E+00 +3.92609E+00 -5.54269E+00 +6.27990E+00 -1.23989E+00 +4.99257E+00 +3.42530E+00
 +8.21339E-01 +5.81692E+00 -3.84303E+00 +4.54451E+00 -6.28802E+00 +2.65046E-01 -4.99345E+00 -4.64796E+00
 -5.02858E-01 -7.39897E+00 +4.84154E+00 -6.31749E+00 +8.16394E+00 -1.79987E+00 +7.62628E+00 +3.88026E+00
 +3.44035E+00 +7.79373E+00 -2.23693E+00 +7.94056E+00 -6.46773E+00 +4.33004E+00 -7.11952E+00 -1.03219E+00
 -4.00852E+00 -5.23888E+00 +1.01768E+00 -6.05762E+00 +5.09628E+00 -3.13254E+00 +5.90719E+00 +1.83544E+00
 +2.92889E+00 +6.01924E+00 -2.28117E+00 +6.99798E+00 -6.92470E+00 +4.06421E+00 -8.46198E+00 -1.39218E+00
 -5.96695E+00 -6.62115E+00 -6.17623E-01 -8.96938E+00 +4.93154E+00 -7.27693E+00 +7.95249E+00 -2.47378E+00
 +7.07164E+00 +2.93175E+00 +2.96767E+00 +6.19042E+00 -2.02123E+00 +5.75940E+00 -5.16054E+00 +2.09357E+00
 -4.77478E+00 -2.62944E+00 -1.12381E+00 -5.69171E+00 +3.75543E+00 -5.28920E+00 +7.14523E+00 -1.48657E+00
 +7.09127E+00 +3.82415E+00 +3.43021E+00 +7.92583E+00 -2.13254E+00 +8.69939E+00 -6.92025E+00 +5.71650E+00
 -8.67208E+00 +4.37969E-01 -6.68919E+00 -4.56718E+00 -2.15186E+00 -6.95549E+00 +2.53547E+00 -5.79362E+00
 +5.00826E+00 -1.98852E+00 +4.14981E+00 +2.23604E+00 +6.27430E-01 +4.52136E+00 -3.49649E+00 +3.59305E+00
 -5.85492E+00 -1.01711E-01 -4.99818E+00 -4.64485E+00 -1.13046E+00 -7.63711E+00 +3.99581E+00 -7.41510E+00
 +7.95734E+00 -3.88638E+00 +8.86179E+00 +1.42291E+00 +6.27834E+00 +6.11939E+00 +1.44428E+00 +8.11571E+00
 -3.34811E+00 +6.64887E+00 -5.88246E+00 +2.64606E+00 -5.11385E+00 -1.74330E+00 -1.68903E+00 -4.22570E+00
 +2.37504E+00 -3.52662E+00 +4.71149E+00 -5.89603E-02 +3.82786E+00 +4.25351E+00 -8.14261E-02 +6.93630E+00
 -5.16712E+00 +6.24596E+00 -8.82162E+00 +2.12432E+00 -9.01267E+00 -3.68713E+00 -5.37540E+00 -8.47276E+00
 +5.25059E-01 -9.91776E+00 +5.93880E+00 -7.32847E+00 +8.33176E+00 -2.04047E+00 +6.71867E+00 +3.23876E+00
 +2.20756E+00 +5.84002E+00 -2.56726E+00 +4.55926E+00 -4.85210E+00 +3.25647E-01 -3.27781E+00 -4.27685E+00
 +1.36064E+00 -6.40395E+00 +6.49522E+00 -4.51882E+00 +9.15791E+00 +7.24876E-01 +7.60032E+00 +6.78352E+00
 +2.27490E+00 +1.05619E+01 -4.36756E+00 +1.00695E+01 -9.16309E+00 +5.49299E+00 -9.90681E+00 -9.00695E-01
 -6.50474E+00 -5.97597E+00 -9.86019E-01 -7.39322E+00 +3.61867E+00 -4.82408E+00 +4.91268E+00 -7.09106E-02
 +2.39695E+00 +3.95363E+00 -2.30624E+00 +4.81799E+00 -6.36498E+00 +1.87359E+00 -7.27467E+00 -3.41629E+00
 -4.19410E+00 -8.27051E+00 +1.61465E+00 -1.00626E+01 +7.44891E+00 -7.68825E+00 +1.05603E+01 -2.12451E+00
 +9.54782E+00 +4.08661E+00 +5.04002E+00 +8.13896E+00 -6.62505E-01 +8.37059E+00 -4.78021E+00 +5.06682E+00
 -5.46703E+00 +2.65922E-01 -2.72841E+00 -3.31918E+00 +1.61210E+00 -3.71128E+00 +4.87717E+00 -6.97348E-01
 +4.94456E+00 +4.04797E+00 +1.38627E+00 +7.81681E+00 -4.25207E+00 +8.27973E+00 -9.19809E+00 +4.73876E+00
 -1.08691E+01 -1.43579E+00 -8.23959E+00 -7.44313E+00 -2.43502E+00 -1.04700E+01 +3.79565E+00 -9.16593E+00
 +7.49281E+00 -4.38633E+00 +7.05625E+00 +1.22883E+00 +3.12180E+00 +4.65829E+00 -1.76598E+00 +4.15022E+00
 -4.54900E+00 +2.12617E-01 -3.37662E+00 -4.63636E+00 +1.30760E+00 -7.26162E+00 +6.95289E+00 -5.69609E+00
 +1.02974E+01 -3.10982E-01 +9.21004E+00 +6.31831E+00 +3.93300E+00 +1.08096E+01 -3.00575E+00 +1.08604E+01
 -8.18359E+00 +6.54579E+00 -9.19423E+00 +2.70700E-01 -5.97837E+00 -4.60693E+00 -8.02119E-01 -5.68863E+00
 +3.10127E+00 -2.87218E+00 +3.42585E+00 +1.66173E+00 +1.11413E-01 +4.78989E+00 -4.67775E+00 +4.30941E+00
 -7.87692E+00 +2.20260E-01 -7.34148E+00 -5.31371E+00 -3.08126E+00 -9.26858E+00 +2.79885E+00 -9.52514E+00
 +7.37163E+00 -6.04298E+00 +8.57736E+00 -7.79960E-01 +6.32110E+00 +3.53538E+00 +2.36731E+00 +4.99629E+00
 -8.31873E-01 +3.51856E+00 -1.61227E+00 +7.01805E-01 +1.58853E-02 -1.28147E+00 +2.54845E+00 -1.03282E+00
 +4.03617E+00 +1.31037E+00 +3.29731E+00 +4.29994E+00 +5.52624E-01 +6.15985E+00 -2.83941E+00 +5.85989E+00
