 Created: 16-Jan-2021
 $NMID
 ID='D:\BASISSIMULATI'
 FMTDAT='(8E13.5)'
 VOLUME=   1.00000E+00
 TRAMP=   1.00000E+00
 $END
 +1.68561E+01 +8.38232E-02 +1.57634E+01 +5.91079E+00 +1.27235E+01 +1.09920E+01 +8.11730E+00 +1.47007E+01
 +2.51858E+00 +1.65816E+01 -3.37763E+00 +1.64066E+01 -8.84124E+00 +1.42026E+01 -1.31975E+01 +1.02473E+01
 -1.59102E+01 +5.03426E+00 -1.66481E+01 -7.88413E-01 -1.53247E+01 -6.49894E+00 -1.21090E+01 -1.13912E+01
 -7.40344E+00 -1.48621E+01 -1.79391E+00 -1.64858E+01 +4.02345E+00 -1.60662E+01 +9.32850E+00 -1.36602E+01
 +1.34663E+01 -9.57050E+00 +1.59279E+01 -4.30717E+00 +1.64131E+01 +1.47575E+00 +1.48667E+01 +7.06160E+00
 +1.14852E+01 +1.17599E+01 +6.69148E+00 +1.49917E+01 +1.08204E+00 +1.63609E+01 -4.64718E+00 +1.57029E+01
 -9.78715E+00 +1.31040E+01 -1.37035E+01 +8.89067E+00 -1.59150E+01 +3.58816E+00 -1.61522E+01 -2.14491E+00
 -1.43907E+01 -7.59825E+00 -1.08536E+01 -1.20980E+01 -5.98273E+00 -1.50899E+01 -3.84029E-01 -1.62077E+01
 +5.24813E+00 -1.53178E+01 +1.02169E+01 -1.25353E+01 +1.39095E+01 -8.20917E+00 +1.58721E+01 -2.87841E+00
 +1.58664E+01 +2.79502E+00 +1.38981E+01 +8.10847E+00 +1.02155E+01 +1.24056E+01 +5.27847E+00 +1.51573E+01
 -2.99096E-01 +1.60272E+01 -5.82567E+00 +1.49123E+01 -1.06177E+01 +1.19555E+01 -1.40843E+01 +7.52731E+00
 -1.58000E+01 +2.17907E+00 -1.55569E+01 -3.42529E+00 -1.33900E+01 -8.59188E+00 -9.57224E+00 -1.26827E+01
 -4.57994E+00 -1.51944E+01 +9.66375E-01 -1.58202E+01 +6.37922E+00 -1.44875E+01 +1.09894E+01 -1.13660E+01
 +1.42286E+01 -6.84641E+00 +1.56995E+01 -1.49124E+00 +1.52248E+01 +4.03496E+00 +1.28679E+01 +9.04815E+00
 +8.92520E+00 +1.29295E+01 +3.88832E+00 +1.52017E+01 -1.61689E+00 +1.55878E+01 -6.90828E+00 +1.40447E+01
 -1.13318E+01 +1.07681E+01 -1.43425E+01 +6.16772E+00 -1.55715E+01 +8.15951E-01 -1.48712E+01 -4.62332E+00
 -1.23330E+01 -9.47704E+00 -8.27568E+00 -1.31463E+01 -3.20479E+00 -1.51801E+01 +2.24979E+00 -1.53310E+01
 +7.41239E+00 -1.35851E+01 +1.16451E+01 -1.01631E+01 +1.44267E+01 -5.49251E+00 +1.54167E+01 -1.54218E-01
 +1.44972E+01 +5.18975E+00 +1.17867E+01 +9.87832E+00 +7.62496E+00 +1.33332E+01 +2.53047E+00 +1.51300E+01
 -2.86426E+00 +1.50508E+01 -7.89114E+00 +1.31100E+01 -1.19293E+01 +9.55232E+00 -1.44816E+01 +4.82196E+00
 -1.52361E+01 -4.93007E-01 -1.41041E+01 -5.73365E+00 -1.12302E+01 -1.02519E+01 -6.97431E+00 -1.34906E+01
 -1.86641E+00 -1.50524E+01 +3.45955E+00 -1.47483E+01 +8.34419E+00 -1.26206E+01 +1.21844E+01 -8.93706E+00
 +1.45077E+01 -4.15725E+00 +1.50306E+01 +1.12482E+00 +1.36929E+01 +6.25449E+00 +1.06648E+01 +1.05976E+01
 +6.32497E+00 +1.36189E+01 +1.21366E+00 +1.49479E+01 -4.03495E+00 +1.44246E+01 -8.77126E+00 +1.21182E+01
 -1.24107E+01 +8.31858E+00 -1.45058E+01 +3.49950E+00 -1.48012E+01 -1.74037E+00 -1.32650E+01 -6.75180E+00
 -1.00918E+01 -1.09155E+01 -5.67814E+00 -1.37184E+01 -5.73208E-01 -1.48174E+01 +4.58982E+00 -1.40806E+01
 +9.17212E+00 -1.16040E+01 +1.26083E+01 -7.69814E+00 +1.44763E+01 -2.84983E+00 +1.45488E+01 +2.33884E+00
 +1.28214E+01 +7.22517E+00 +9.51240E+00 +1.12055E+01 +5.03499E+00 +1.37897E+01 -5.40114E-02 +1.46616E+01
 -5.12356E+00 +1.37177E+01 -9.54659E+00 +1.10793E+01 -1.27776E+01 +7.07694E+00 -1.44199E+01 +2.20926E+00
 -1.42744E+01 -2.91948E+00 -1.23634E+01 -7.67422E+00 -8.92792E+00 -1.14677E+01 -4.39666E+00 -1.38331E+01
 +6.67100E-01 -1.44814E+01 +5.63562E+00 -1.33368E+01 +9.89455E+00 -1.05452E+01 +1.29188E+01 -6.45620E+00
 +1.43374E+01 -1.57883E+00 +1.39790E+01 +3.48160E+00 +1.18922E+01 +8.09865E+00 +8.33955E+00 +1.17023E+01
 +3.76425E+00 +1.38493E+01 -1.26521E+00 +1.42778E+01 -6.12554E+00 +1.29390E+01 -1.02159E+01 +1.00031E+01
 -1.30323E+01 +5.83708E+00 -1.42296E+01 +9.59503E-01 -1.36636E+01 -4.02453E+00 -1.14089E+01 -8.49821E+00
 -7.74851E+00 -1.19094E+01 -3.13884E+00 -1.38389E+01 +1.84754E+00 -1.40516E+01 +6.59285E+00 -1.25256E+01
 +1.05107E+01 -9.45406E+00 +1.31186E+01 -5.22072E+00 +1.40971E+01 -3.52202E-01 +1.33294E+01 +4.54767E+00
 +1.09147E+01 +8.87269E+00 +7.15596E+00 +1.20893E+01 +2.52145E+00 +1.38024E+01 -2.41333E+00 +1.38038E+01
 -7.03720E+00 +1.20977E+01 -1.07790E+01 +8.89938E+00 -1.31780E+01 +4.60823E+00 -1.39408E+01 -2.42186E-01
 -1.29773E+01 -5.05047E+00 -1.04109E+01 -9.22194E+00 -6.56307E+00 -1.22422E+01 -1.91308E+00 -1.37405E+01
 +2.96189E+00 -1.35353E+01 +7.45824E+00 -1.16563E+01 +1.10207E+01 -8.34019E+00 +1.32110E+01 -4.00068E+00
 +1.37615E+01 +8.22819E-01 +1.26084E+01 +5.53243E+00 +9.89853E+00 +9.54586E+00 +5.97098E+00 +1.23684E+01
 +1.31468E+00 +1.36539E+01 -3.49255E+00 +1.32471E+01 -7.85569E+00 +1.12027E+01 -1.12361E+01 +7.77767E+00
 -1.32182E+01 +3.39912E+00 -1.35601E+01 -1.38890E+00 -1.22239E+01 -5.99311E+00 -9.37884E+00 -9.84440E+00
 -5.38079E+00 -1.24683E+01 -7.27175E-01 -1.35432E+01 +4.00471E+00 -1.29402E+01 +8.22934E+00 -1.07379E+01
 +1.14254E+01 -7.21295E+00 +1.32001E+01 -2.80456E+00 +1.33375E+01 +1.93969E+00 +1.18247E+01 +6.43209E+00
 +8.85295E+00 +1.01176E+01 +4.79358E+00 +1.25422E+01 +1.51424E-01 +1.34094E+01 -4.49781E+00 +1.26155E+01
 -8.57899E+00 +1.02632E+01 -1.15887E+01 +6.64717E+00 -1.31573E+01 +2.21797E+00 -1.30945E+01 -2.47447E+00
 -1.14120E+01 -6.84904E+00 -8.32202E+00 -1.03654E+01 -4.21039E+00 -1.25907E+01 +4.11738E-01 -1.32530E+01
 +4.97133E+00 -1.22742E+01 +8.90453E+00 -9.77954E+00 +1.17264E+01 -6.08141E+00 +1.30906E+01 -1.64029E+00
 +1.28320E+01 +2.99259E+00 +1.09868E+01 +7.24366E+00 +7.78715E+00 +1.05880E+01 +3.63225E+00 +1.26142E+01
 -9.61522E-01 +1.30750E+01 -5.42483E+00 +1.19172E+01 -9.20587E+00 +9.28814E+00 -1.18387E+01 +5.51675E+00
 -1.30004E+01 +1.07241E+00 -1.25511E+01 -3.49344E+00 -1.05503E+01 -7.61569E+00 -7.24945E+00 -1.07855E+01
 -3.06014E+00 -1.26132E+01 +1.49718E+00 -1.28761E+01 +5.85787E+00 -1.15455E+01 +9.48299E+00 -8.79009E+00
 +1.19260E+01 -4.95425E+00 +1.28876E+01 -5.15191E-01 +1.22525E+01 +3.97645E+00 +1.01035E+01 +7.96493E+00
 +6.71000E+00 +1.09581E+01 +2.49502E+00 +1.25883E+01 -2.01802E+00 +1.26572E+01 -6.27010E+00 +1.11602E+01
 -9.73590E+00 +8.28648E+00 -1.19887E+01 +4.39491E+00 -1.27528E+01 -3.05413E-02 -1.19374E+01 -4.44111E+00
 -9.64748E+00 -8.29124E+00 -6.16988E+00 -1.11061E+01 -1.93779E+00 -1.25400E+01 +2.52338E+00 -1.24192E+01
 +6.66120E+00 -1.07624E+01 +9.96465E+00 -7.77839E+00 +1.20272E+01 -3.83974E+00 +1.25968E+01 +5.64010E-01
 +1.16067E+01 +4.88694E+00 +9.18335E+00 +8.59449E+00 +5.63012E+00 +1.12296E+01 +1.38935E+00 +1.24690E+01
 -3.01263E+00 +1.21629E+01 -7.03091E+00 +1.03529E+01 -1.01694E+01 +7.26690E+00 -1.20420E+01 +3.28969E+00
 -1.24203E+01 -1.08448E+00 -1.12613E+01 -5.31351E+00 -8.71217E+00 -8.87464E+00 -5.09173E+00 -1.13290E+01
 -8.50533E-01 -1.23759E+01 +3.48523E+00 -1.18892E+01 +7.37898E+00 -9.93301E+00 +1.03502E+01 -6.75303E+00
 +1.20336E+01 -2.74569E+00 +1.22242E+01 +1.59124E+00 +1.09022E+01 +5.72045E+00 +8.23497E+00 +9.13167E+00
 +4.55571E+00 +1.14047E+01 +3.22151E-01 +1.22613E+01 -3.94063E+00 +1.15990E+01 -7.70526E+00 +9.50361E+00
 -1.05073E+01 +6.23784E+00 -1.20025E+01 +2.20864E+00 -1.20093E+01 -2.08365E+00 -1.05305E+01 -6.10742E+00
 -7.75280E+00 -9.36560E+00 -4.02303E+00 -1.14571E+01 +1.95024E-01 -1.21261E+01 +4.37837E+00 -1.12934E+01
 +8.00960E+00 -9.06576E+00 +1.06409E+01 -5.72231E+00 +1.19494E+01 -1.67941E+00 +1.17764E+01 +2.56109E+00
 +1.01471E+01 +6.47413E+00 +7.26669E+00 +9.57651E+00 +3.49462E+00 +1.14865E+01 -7.00263E-01 +1.19708E+01
 -4.79799E+00 +1.09731E+01 -8.29193E+00 +8.62048E+00 -1.07514E+01 +5.20745E+00 -1.18747E+01 +1.15883E+00
 -1.15263E+01 -3.02298E+00 -9.75297E+00 -6.82035E+00 -6.77764E+00 -9.76451E+00 -2.97139E+00 -1.14934E+01
 +1.19287E+00 -1.17962E+01 +5.19912E+00 -1.06391E+01 +8.55218E+00 -8.16878E+00 +1.08389E+01 -4.69421E+00
 +1.17791E+01 -6.47684E-01 +1.12599E+01 +3.46880E+00 +9.34914E+00 +7.14587E+00 +6.28667E+00 +9.92976E+00
 +2.45422E+00 +1.14783E+01 -1.67220E+00 +1.16032E+01 -5.58140E+00 +1.02924E+01 -8.79037E+00 +7.71168E+00
 -1.09039E+01 +4.18353E+00 -1.16633E+01 +1.46743E-01 -1.09781E+01 -3.89807E+00 -8.93658E+00 -7.45053E+00
 -5.79473E+00 -1.00724E+01 -1.94395E+00 -1.14418E+01 +2.13762E+00 -1.13924E+01 +5.94453E+00 -9.93385E+00
 +9.00654E+00 -7.25014E+00 +1.09468E+01 -3.67633E+00 +1.15280E+01 +3.43272E-01 +1.06817E+01 +4.31032E+00
 +8.51627E+00 +7.73423E+00 +5.30278E+00 +1.01928E+01 +1.44140E+00 +1.13844E+01 -2.58858E+00 +1.11647E+01
 -6.28824E+00 +9.56448E+00 -9.20076E+00 +6.78516E+00 -1.09678E+01 +3.17349E+00 -1.13737E+01 -8.21676E-01
 -1.03717E+01 -4.70517E+00 -8.08919E+00 -7.99689E+00 -4.81177E+00 -1.02911E+01 -9.47359E-01 -1.13066E+01
 +3.02454E+00 -1.09209E+01 +6.61233E+00 -9.18521E+00 +9.37317E+00 -6.31769E+00 +1.09676E+01 -2.67587E+00
 +1.12014E+01 +1.28782E+00 +1.00489E+01 +5.08225E+00 +7.65629E+00 +8.23849E+00 +4.32260E+00 +1.03677E+01
 +4.62564E-01 +1.12091E+01 -3.44500E+00 +1.06618E+01 -6.91660E+00 +8.79697E+00 -9.52391E+00 +5.84867E+00
 -1.09466E+01 +2.18429E+00 -1.10115E+01 -1.74109E+00 -9.71424E+00 -5.44125E+00 -7.21853E+00 -8.45903E+00
 -3.83615E+00 -1.04229E+01 +1.22671E-02 -1.10924E+01 +3.84951E+00 -1.03882E+01 +7.20093E+00 -8.40071E+00
 +9.65319E+00 -5.37904E+00 +1.09052E+01 -1.69956E+00 +1.08051E+01 +2.18092E+00 +9.36860E+00 +5.78187E+00
 +6.77685E+00 +8.65857E+00 +3.35330E+00 +1.04570E+01 -4.76455E-01 +1.09573E+01 -4.23766E+00 +1.01010E+01
 -7.46523E+00 +7.99735E+00 -9.76124E+00 +4.90969E+00 -1.08440E+01 +1.22244E+00 -1.05827E+01 -2.60676E+00
 -9.01290E+00 -6.10390E+00 -6.33218E+00 -8.83721E+00 -2.87488E+00 -1.04705E+01 +9.29356E-01 -1.08045E+01
 +4.60908E+00 -9.80108E+00 +7.70943E+00 -7.58782E+00 +9.84833E+00 -4.44151E+00 +1.07636E+01 -7.53672E-01
 +1.03452E+01 +3.01814E+00 +8.64804E+00 +6.40713E+00 +5.88542E+00 +8.99506E+00 +2.40170E+00 +1.04638E+01
 -1.37036E+00 +1.06345E+01 -4.96344E+00 +9.48923E+00 -7.93353E+00 +7.17304E+00 -9.91477E+00 +3.97536E+00
 -1.06646E+01 +2.93956E-01 -1.00933E+01 -3.41457E+00 -8.27491E+00 -6.69141E+00 -5.43747E+00 -9.13229E+00
 -1.93454E+00 -1.04374E+01 +1.79890E+00 -1.04481E+01 +5.30045E+00 -9.16633E+00 +8.13754E+00 -6.75391E+00
 +9.96089E+00 -3.51209E+00 +1.05475E+01 +1.56038E-01 +9.82791E+00 +3.79566E+00 +7.89441E+00 +6.95662E+00
