 Created: 16-Jan-2021
 $NMID
 ID='D:\BASISSIMULATI'
 FMTDAT='(8E13.5)'
 VOLUME=   1.00000E+00
 TRAMP=   1.00000E+00
 $END
 +1.39372E+02 +6.35385E-01 +1.28679E+02 +5.00029E+01 +9.97376E+01 +9.08012E+01 +5.78301E+01 +1.16403E+02
 +1.04938E+01 +1.23081E+02 -3.39619E+01 +1.10677E+02 -6.80677E+01 +8.25472E+01 -8.66137E+01 +4.48216E+01
 -8.75902E+01 +5.12154E+00 -7.24674E+01 -2.89888E+01 -4.57690E+01 -5.15020E+01 -1.40371E+01 -5.91100E+01
 +1.55849E+01 -5.17645E+01 +3.68540E+01 -3.25492E+01 +4.56998E+01 -6.90473E+00 +4.10066E+01 +1.86203E+01
 +2.47500E+01 +3.78209E+01 +1.47087E+00 +4.61803E+01 -2.27919E+01 +4.18250E+01 -4.18744E+01 +2.58909E+01
 -5.08703E+01 +2.23075E+00 -4.72245E+01 -2.34695E+01 -3.13074E+01 -4.49695E+01 -6.34619E+00 -5.68724E+01
 +2.22686E+01 -5.58393E+01 +4.81518E+01 -4.13595E+01 +6.53167E+01 -1.59098E+01 +6.94936E+01 +1.55339E+01
 +5.90904E+01 +4.65287E+01 +3.55881E+01 +7.05249E+01 +3.28237E+00 +8.22635E+01 -3.15767E+01 +7.89166E+01
 -6.20702E+01 +6.07236E+01 -8.20511E+01 +3.09876E+01 -8.74375E+01 -4.57317E+00 -7.70850E+01 -3.89871E+01
 -5.30528E+01 -6.54625E+01 -2.02037E+01 -7.87953E+01 +1.47832E+01 -7.64557E+01 +4.47823E+01 -5.91259E+01
 +6.36921E+01 -3.05740E+01 +6.77001E+01 +3.11216E+00 +5.60792E+01 +3.47745E+01 +3.13489E+01 +5.76604E+01
 -1.23423E+00 +6.68188E+01 -3.47518E+01 +6.01285E+01 -6.20435E+01 +3.87445E+01 -7.71794E+01 +6.87195E+00
 -7.66800E+01 -2.90883E+01 -6.02338E+01 -6.18438E+01 -3.07653E+01 -8.46962E+01 +6.15916E+00 -9.29031E+01
 +4.34633E+01 -8.46359E+01 +7.39959E+01 -6.13385E+01 +9.19722E+01 -2.74174E+01 +9.41269E+01 +1.06693E+01
 +8.03425E+01 +4.57339E+01 +5.36295E+01 +7.13141E+01 +1.94683E+01 +8.29635E+01 -1.53454E+01 +7.91106E+01
 -4.41076E+01 +6.13163E+01 -6.15710E+01 +3.38815E+01 -6.49862E+01 +2.89546E+00 -5.46054E+01 -2.50706E+01
 -3.35512E+01 -4.43473E+01 -7.08521E+00 -5.13381E+01 +1.85629E+01 -4.52329E+01 +3.75533E+01 -2.81203E+01
 +4.56922E+01 -4.47916E+00 +4.13211E+01 +1.98352E+01 +2.56521E+01 +3.88926E+01 +2.48050E+00 +4.79964E+01
 -2.26593E+01 +4.47199E+01 -4.37149E+01 +2.94508E+01 -5.54506E+01 +5.32521E+00 -5.46112E+01 -2.24321E+01
 -4.06662E+01 -4.76239E+01 -1.59724E+01 -6.44151E+01 +1.46803E+01 -6.86039E+01 +4.50487E+01 -5.85567E+01
 +6.87360E+01 -3.56097E+01 +8.05396E+01 -3.84599E+00 +7.75638E+01 +3.07074E+01 +5.98612E+01 +6.12984E+01
 +3.04666E+01 +8.18323E+01 -5.18783E+00 +8.81291E+01 -4.03560E+01 +7.87958E+01 -6.83392E+01 +5.55283E+01
 -8.38421E+01 +2.27804E+01 -8.40440E+01 -1.31321E+01 -6.91641E+01 -4.53102E+01 -4.24039E+01 -6.76667E+01
 -9.27944E+00 -7.61509E+01 +2.35162E+01 -6.95511E+01 +4.94856E+01 -4.97101E+01 +6.36488E+01 -2.11128E+01
 +6.35437E+01 +1.00669E+01 +4.96970E+01 +3.72580E+01 +2.54751E+01 +5.48561E+01 -3.65339E+00 +5.93725E+01
 -3.12841E+01 +5.01343E+01 -5.14283E+01 +2.93917E+01 -5.97656E+01 +1.81353E+00 -5.45376E+01 -2.65182E+01
 -3.68986E+01 -4.94028E+01 -1.06522E+01 -6.18321E+01 +1.85666E+01 -6.10429E+01 +4.44906E+01 -4.70922E+01
 +6.15465E+01 -2.28369E+01 +6.60307E+01 +6.67528E+00 +5.68876E+01 +3.52737E+01 +3.59288E+01 +5.69658E+01
 +7.45016E+00 +6.71968E+01 -2.26731E+01 +6.38051E+01 -4.82196E+01 +4.74732E+01 -6.39257E+01 +2.15808E+01
 -6.65857E+01 -8.50731E+00 -5.57175E+01 -3.65668E+01 -3.36570E+01 -5.68180E+01 -5.06180E+00 -6.51330E+01
 +2.40706E+01 -5.98936E+01 +4.76619E+01 -4.23219E+01 +6.08264E+01 -1.62143E+01 +6.08906E+01 +1.28630E+01
 +4.79462E+01 +3.87472E+01 +2.48224E+01 +5.59743E+01 -3.51580E+00 +6.09248E+01 -3.10171E+01 +5.25803E+01
 -5.18177E+01 +3.27316E+01 -6.14749E+01 +5.59859E+00 -5.78993E+01 -2.30607E+01 -4.17928E+01 -4.71616E+01
 -1.65003E+01 -6.15715E+01 +1.26932E+01 -6.31882E+01 +3.96710E+01 -5.15913E+01 +5.87671E+01 -2.91315E+01
 +6.59533E+01 -4.39029E-01 +5.96828E+01 +2.85443E+01 +4.12140E+01 +5.18070E+01 +1.43475E+01 +6.45237E+01
 -1.53671E+01 +6.40614E+01 -4.17904E+01 +5.05278E+01 -5.94726E+01 +2.67457E+01 -6.47885E+01 -2.33792E+00
 -5.66892E+01 -3.06865E+01 -3.69158E+01 -5.24326E+01 -9.63016E+00 -6.31002E+01 +1.94580E+01 -6.05329E+01
 +4.42852E+01 -4.53373E+01 +5.96988E+01 -2.07488E+01 +6.25288E+01 +8.05141E+00 +5.22434E+01 +3.50223E+01
 +3.10517E+01 +5.45266E+01 +3.43468E+00 +6.25061E+01 -2.47966E+01 +5.73250E+01 -4.77186E+01 +4.01042E+01
 -6.05325E+01 +1.44807E+01 -6.05638E+01 -1.41588E+01 -4.78155E+01 -3.98064E+01 -2.49616E+01 -5.70893E+01
 +3.21716E+00 -6.23892E+01 +3.08358E+01 -5.45932E+01 +5.21345E+01 -3.53203E+01 +6.26788E+01 -8.57639E+00
 +6.02797E+01 +2.00859E+01 +4.54430E+01 +4.47286E+01 +2.12548E+01 +6.02649E+01 -7.26955E+00 +6.35149E+01
 -3.42371E+01 +5.38592E+01 -5.41065E+01 +3.33562E+01 -6.28397E+01 +6.30099E+00 -5.87342E+01 -2.16804E+01
 -4.27644E+01 -4.48105E+01 -1.83626E+01 -5.83651E+01 +9.31267E+00 -5.96526E+01 +3.44650E+01 -4.85631E+01
 +5.18767E+01 -2.75742E+01 +5.79978E+01 -1.21596E+00 +5.16806E+01 +2.48926E+01 +3.44057E+01 +4.52307E+01
 +9.95665E+00 +5.55366E+01 -1.63898E+01 +5.36997E+01 -3.89833E+01 +4.01959E+01 -5.29950E+01 +1.79780E+01
 -5.54362E+01 -8.15628E+00 -4.57871E+01 -3.25830E+01 -2.61034E+01 -5.00435E+01 -5.80694E-01 -5.67572E+01
 +2.53324E+01 -5.12225E+01 +4.60851E+01 -3.45374E+01 +5.71972E+01 -1.01722E+01 +5.62075E+01 +1.67565E+01
 +4.31982E+01 +4.05593E+01 +2.07871E+01 +5.61690E+01 -6.41378E+00 +6.02078E+01 -3.27575E+01 +5.17007E+01
 -5.27395E+01 +3.22890E+01 -6.21480E+01 +5.89600E+00 -5.89448E+01 -2.20835E+01 -4.36955E+01 -4.59010E+01
 -1.94564E+01 -6.06473E+01 +8.85498E+00 -6.32708E+01 +3.54771E+01 -5.32097E+01 +5.49953E+01 -3.25076E+01
 +6.34591E+01 -5.38811E+00 +5.91946E+01 +2.26213E+01 +4.31424E+01 +4.58330E+01 +1.86536E+01 +5.95732E+01
 -9.21333E+00 +6.11406E+01 -3.47459E+01 +5.03531E+01 -5.27615E+01 +2.95689E+01 -5.96750E+01 +3.18166E+00
 -5.42285E+01 -2.33046E+01 -3.77343E+01 -4.44252E+01 -1.37799E+01 -5.58893E+01 +1.25365E+01 -5.54620E+01
 +3.56818E+01 -4.34130E+01 +5.08464E+01 -2.24386E+01 +5.49446E+01 +2.92208E+00 +4.72471E+01 +2.72527E+01
 +2.95166E+01 +4.54033E+01 +5.61972E+00 +5.35711E+01 -1.93007E+01 +5.00925E+01 -3.99167E+01 +3.57811E+01
 -5.18407E+01 +1.37440E+01 -5.25479E+01 -1.12850E+01 -4.19027E+01 -3.39512E+01 -2.21809E+01 -4.94131E+01
 +2.41734E+00 -5.43650E+01 +2.66587E+01 -4.77333E+01 +4.53842E+01 -3.09015E+01 +5.45992E+01 -7.41663E+00
 +5.23179E+01 +1.77598E+01 +3.89835E+01 +3.92985E+01 +1.73771E+01 +5.26266E+01 -7.96523E+00 +5.48926E+01
 -3.17049E+01 +4.55699E+01 -4.88228E+01 +2.65723E+01 -5.56747E+01 +1.85706E+00 -5.07598E+01 -2.34013E+01
 -3.50405E+01 -4.38931E+01 -1.17469E+01 -5.52849E+01 +1.42932E+01 -5.51282E+01 +3.76590E+01 -4.33752E+01
 +5.34660E+01 -2.23934E+01 +5.83838E+01 +3.52332E+00 +5.13306E+01 +2.90444E+01 +3.37002E+01 +4.89091E+01
 +9.07327E+00 +5.90172E+01 -1.75248E+01 +5.72779E+01 -4.06653E+01 +4.40407E+01 -5.56394E+01 +2.20183E+01
 -5.94289E+01 -4.27924E+00 -5.13247E+01 -2.94828E+01 -3.30631E+01 -4.84760E+01 -8.45526E+00 -5.74514E+01
 +1.74120E+01 -5.46897E+01 +3.92366E+01 -4.09021E+01 +5.26003E+01 -1.90661E+01 +5.48779E+01 +6.20833E+00
 +4.57679E+01 +2.96489E+01 +2.73370E+01 +4.64222E+01 +3.56902E+00 +5.31375E+01 -2.04814E+01 +4.85418E+01
 -3.97551E+01 +3.37648E+01 -5.02481E+01 +1.20638E+01 -4.98440E+01 -1.18763E+01 -3.87466E+01 -3.29376E+01
 -1.94221E+01 -4.66501E+01 +3.93336E+00 -5.01304E+01 +2.62879E+01 -4.26838E+01 +4.28403E+01 -2.59422E+01
 +5.00351E+01 -3.51236E+00 +4.63115E+01 +1.97911E+01 +3.24312E+01 +3.89659E+01 +1.13160E+01 +4.98796E+01
 -1.25691E+01 +5.01428E+01 -3.41575E+01 +3.96151E+01 -4.88488E+01 +2.04371E+01 -5.34782E+01 -3.41684E+00
 -4.69844E+01 -2.69714E+01 -3.06365E+01 -4.52933E+01 -7.77178E+00 -5.45257E+01 +1.68997E+01 -5.26979E+01
 +3.82782E+01 -4.01394E+01 +5.19391E+01 -1.94138E+01 +5.50563E+01 +5.21460E+00 +4.69916E+01 +2.86694E+01
 +2.94272E+01 +4.61196E+01 +6.01403E+00 +5.39847E+01 -1.83901E+01 +5.06792E+01 -3.87329E+01 +3.69386E+01
 -5.08190E+01 +1.56629E+01 -5.21809E+01 -8.69171E+00 -4.25882E+01 -3.10436E+01 -2.40895E+01 -4.67449E+01
 -5.79883E-01 -5.25474E+01 +2.30154E+01 -4.72748E+01 +4.17698E+01 -3.20612E+01 +5.17809E+01 -1.01075E+01
 +5.09800E+01 +1.39917E+01 +3.95568E+01 +3.52100E+01 +1.99118E+01 +4.91374E+01 -3.85137E+00 +5.28964E+01
 -2.67876E+01 +4.57358E+01 -4.41431E+01 +2.91789E+01 -5.23454E+01 +6.69612E+00 -4.97422E+01 -1.70261E+01
 -3.69370E+01 -3.70676E+01 -1.66524E+01 -4.93016E+01 +6.84814E+00 -5.12511E+01 +2.86581E+01 -4.25978E+01
 +4.42561E+01 -2.52371E+01 +5.04489E+01 -2.86992E+00 +4.60324E+01 +1.97807E+01 +3.20334E+01 +3.79645E+01
 +1.14832E+01 +4.78996E+01 -1.12282E+01 +4.75616E+01 -3.12804E+01 +3.71012E+01 -4.44377E+01 +1.88032E+01
 -4.79384E+01 -3.40191E+00 -4.10717E+01 -2.47702E+01 -2.53218E+01 -4.07462E+01 -4.05146E+00 -4.79221E+01
 +1.82097E+01 -4.47545E+01 +3.67205E+01 -3.18874E+01 +4.75267E+01 -1.20167E+01 +4.82934E+01 +1.06781E+01
 +3.87968E+01 +3.14116E+01 +2.09728E+01 +4.57976E+01 -1.48734E+00 +5.07706E+01 -2.39092E+01 +4.52290E+01
 -4.16128E+01 +3.02685E+01 -5.08918E+01 +8.95418E+00 -4.97877E+01 -1.43178E+01 -3.84998E+01 -3.47375E+01
 -1.93431E+01 -4.80831E+01 +3.73379E+00 -5.16006E+01 +2.59723E+01 -4.45748E+01 +4.27941E+01 -2.84763E+01
 +5.07527E+01 -6.65150E+00 +4.82471E+01 +1.63769E+01 +3.58497E+01 +3.58530E+01 +1.61808E+01 +4.77765E+01
 -6.64369E+00 +4.97325E+01 -2.78731E+01 +4.13868E+01 -4.31138E+01 +2.45480E+01 -4.92416E+01 +2.78134E+00
 -4.50481E+01 -1.93412E+01 -3.14832E+01 -3.71987E+01 -1.14483E+01 -4.70850E+01 +1.08184E+01 -4.69789E+01
 +3.06321E+01 -3.69584E+01 +4.38428E+01 -1.91763E+01 +4.77001E+01 +2.59848E+00 +4.14229E+01 +2.37751E+01
 +2.63557E+01 +3.99040E+01 +5.67962E+00 +4.76072E+01 -1.62598E+01 +4.52811E+01 -3.48656E+01 +3.34257E+01
 -4.62514E+01 +1.45328E+01 -4.80526E+01 -7.44175E+00 -3.99154E+01 -2.79111E+01 -2.35638E+01 -4.26190E+01
 -2.43145E+00 -4.85289E+01 +1.90633E+01 -4.44552E+01 +3.64456E+01 -3.13047E+01 +4.61217E+01 -1.18785E+01
 +4.61288E+01 +9.72180E+00 +3.65401E+01 +2.89585E+01 +1.94427E+01 +4.18115E+01 -1.50742E+00 +4.56205E+01
 -2.18582E+01 +3.96395E+01 -3.72992E+01 +2.51886E+01 -4.45683E+01 +5.37099E+00 -4.21351E+01 -1.55825E+01
