 Created: 16-Jan-2021
 $NMID
 ID='D:\BASISSIMULATI'
 FMTDAT='(8E13.5)'
 VOLUME=   1.00000E+00
 TRAMP=   1.00000E+00
 $END
 +7.91113E+01 +1.06074E+00 +6.23750E+01 +1.33232E+01 +2.54409E+01 +2.95436E+01 -7.36641E+00 +4.48721E+01
 -1.93544E+01 +4.75444E+01 -1.27158E+01 +3.16936E+01 -1.87510E+00 +6.12860E+00 +1.96511E+00 -1.15593E+01
 -1.01315E+00 -1.04091E+01 -4.35531E+00 +4.52329E+00 -5.03922E+00 +1.79900E+01 -6.01329E+00 +1.89175E+01
 -1.01723E+01 +8.64816E+00 -1.48759E+01 -3.74098E+00 -1.45169E+01 -1.18089E+01 -7.80380E+00 -1.60715E+01
 -9.37574E-02 -1.93859E+01 +2.85445E+00 -2.12445E+01 +2.36322E+00 -1.87920E+01 +5.93473E+00 -1.25505E+01
 +1.80816E+01 -8.04854E+00 +3.34077E+01 -9.58853E+00 +4.07752E+01 -1.31906E+01 +3.48244E+01 -8.56451E+00
 +2.20288E+01 +9.84853E+00 +1.38888E+01 +3.43164E+01 +1.43065E+01 +4.84968E+01 +1.52808E+01 +4.23559E+01
 +6.25360E+00 +2.23675E+01 -1.28863E+01 +5.79069E+00 -2.97585E+01 +4.19077E+00 -3.13542E+01 +1.29074E+01
 -1.74364E+01 +1.71343E+01 -1.11824E+00 +7.90286E+00 +4.06836E+00 -8.82608E+00 -3.05464E+00 -1.89328E+01
 -1.17835E+01 -1.48450E+01 -1.18086E+01 -2.57997E+00 -3.56290E+00 +5.32611E+00 +3.97345E+00 +2.31325E+00
 +4.33958E+00 -7.50840E+00 +6.34585E-01 -1.57686E+01 +1.21775E+00 -1.84808E+01 +9.90595E+00 -1.72562E+01
 +2.20307E+01 -1.36534E+01 +3.00072E+01 -5.49905E+00 +3.09323E+01 +9.42330E+00 +2.73052E+01 +2.72650E+01
 +2.12588E+01 +3.85809E+01 +1.08966E+01 +3.67103E+01 -5.74264E+00 +2.50969E+01 -2.40871E+01 +1.44678E+01
 -3.35114E+01 +1.19328E+01 -2.68688E+01 +1.38141E+01 -9.41462E+00 +1.05728E+01 +3.90351E+00 -1.29585E+00
 +1.94004E+00 -1.38866E+01 -1.16685E+01 -1.57459E+01 -2.19395E+01 -4.83042E+00 -1.75381E+01 +7.89150E+00
 -2.03520E+00 +8.89594E+00 +1.02166E+01 -4.07063E+00 +9.08968E+00 -1.94985E+01 -1.23240E+00 -2.36762E+01
 -7.28744E+00 -1.40892E+01 -5.19122E-01 -7.98829E-01 +1.44979E+01 +4.88965E+00 +2.56457E+01 +1.82847E+00
 +2.55496E+01 -1.29938E+00 +1.72840E+01 +3.49591E+00 +8.74266E+00 +1.49633E+01 +3.57572E+00 +2.48313E+01
 -8.80166E-01 +2.70067E+01 -7.68552E+00 +2.28455E+01 -1.49112E+01 +1.74083E+01 -1.77682E+01 +1.26074E+01
 -1.52104E+01 +6.11481E+00 -1.20598E+01 -3.16035E+00 -1.32539E+01 -1.09603E+01 -1.70413E+01 -1.13290E+01
 -1.60963E+01 -4.33598E+00 -6.35208E+00 +1.97690E+00 +6.53269E+00 -6.73099E-01 +1.15826E+01 -1.12001E+01
 +4.14014E+00 -1.89826E+01 -7.97217E+00 -1.46724E+01 -1.14490E+01 -8.44214E-01 -1.05804E+00 +9.57105E+00
 +1.46110E+01 +6.36669E+00 +2.17005E+01 -6.86866E+00 +1.51243E+01 -1.57087E+01 +3.26864E+00 -9.21521E+00
 -1.44517E+00 +9.12885E+00 +4.20097E+00 +2.50313E+01 +1.12950E+01 +2.73634E+01 +8.83362E+00 +1.78701E+01
 -4.48413E+00 +7.35951E+00 -1.91564E+01 +3.76944E+00 -2.48183E+01 +5.28442E+00 -1.99520E+01 +4.79432E+00
 -1.14789E+01 -8.79355E-01 -6.20069E+00 -7.84074E+00 -4.49320E+00 -1.06811E+01 -2.63425E+00 -9.05686E+00
 +6.37753E-01 -7.23695E+00 +2.22221E+00 -7.85355E+00 -3.82093E-01 -8.31808E+00 -4.21279E+00 -4.75622E+00
 -3.20493E+00 +1.55038E+00 +4.27628E+00 +4.01454E+00 +1.20320E+01 -1.70780E+00 +1.20129E+01 -1.10497E+01
 +3.73870E+00 -1.35658E+01 -3.90570E+00 -3.75250E+00 -1.74199E+00 +1.19429E+01 +9.05233E+00 +2.04711E+01
 +1.68331E+01 +1.51566E+01 +1.11061E+01 +2.66298E+00 -6.01750E+00 -3.83937E+00 -2.09733E+01 +1.63444E+00
 -2.18257E+01 +1.18147E+01 -9.84190E+00 +1.41270E+01 +2.34794E+00 +4.05695E+00 +3.73323E+00 -1.02644E+01
 -4.67811E+00 -1.67309E+01 -1.23483E+01 -1.14990E+01 -1.08661E+01 -1.90318E+00 -1.92551E+00 +2.15984E+00
 +6.04969E+00 -1.69131E+00 +7.50809E+00 -7.38904E+00 +4.53846E+00 -8.32768E+00 +2.52576E+00 -4.35060E+00
 +3.16110E+00 -3.49837E-01 +3.43109E+00 +5.50499E-01 +1.01561E+00 +3.32042E-01 -1.57176E+00 +2.21474E+00
 +9.02031E-02 +5.24813E+00 +5.84253E+00 +4.95113E+00 +9.51609E+00 -3.06267E-01 +5.43636E+00 -5.40462E+00
 -4.26438E+00 -3.09747E+00 -1.06793E+01 +7.11887E+00 -7.49642E+00 +1.63684E+01 +1.43447E+00 +1.44470E+01
 +5.45649E+00 +8.32605E-01 -1.37533E+00 -1.34846E+01 -1.30182E+01 -1.63068E+01 -1.69495E+01 -6.38978E+00
 -7.24694E+00 +5.38074E+00 +8.59668E+00 +7.22774E+00 +1.66705E+01 -1.64363E+00 +1.03678E+01 -1.09190E+01
 -3.37852E+00 -1.05166E+01 -1.15028E+01 -1.03179E+00 -7.67565E+00 +7.58755E+00 +2.67001E+00 +7.00186E+00
 +9.35778E+00 -1.09739E+00 +7.95105E+00 -7.69757E+00 +2.56255E+00 -6.40139E+00 -5.95686E-01 +5.94317E-01
 -3.47472E-01 +6.20908E+00 -3.02744E-01 +6.48802E+00 -2.74869E+00 +3.56938E+00 -5.05939E+00 +1.27711E+00
 -3.22772E+00 -7.05172E-02 +2.18811E+00 -2.88128E+00 +5.67712E+00 -7.06348E+00 +3.07481E+00 -8.02517E+00
 -2.94860E+00 -1.70979E+00 -5.38059E+00 +8.87232E+00 -1.11568E+00 +1.43473E+01 +4.69360E+00 +7.94408E+00
 +4.02988E+00 -6.41774E+00 -4.29731E+00 -1.65071E+01 -1.18800E+01 -1.33717E+01 -9.03086E+00 -4.04289E-01
 +4.18978E+00 +9.93220E+00 +1.65070E+01 +8.64428E+00 +1.60324E+01 -1.04477E+00 +2.31951E+00 -7.81764E+00
 -1.27721E+01 -4.56992E+00 -1.64799E+01 +4.36008E+00 -7.10244E+00 +8.46066E+00 +5.45513E+00 +2.61980E+00
 +1.02945E+01 -7.62480E+00 +5.72019E+00 -1.23560E+01 -1.03574E+00 -7.66186E+00 -2.76524E+00 +1.11036E+00
 +6.18008E-01 +5.92013E+00 +3.89178E+00 +4.35581E+00 +3.63041E+00 +6.65894E-01 +1.65299E+00 -4.62455E-01
 +1.37462E+00 +7.67247E-01 +2.59753E+00 +9.16357E-01 +1.78926E+00 -1.02156E+00 -2.52701E+00 -1.75887E+00
 -6.55320E+00 +1.66473E+00 -5.08372E+00 +6.72960E+00 +1.62552E+00 +7.00104E+00 +6.65726E+00 -3.85339E-01
 +3.55563E+00 -9.98944E+00 -5.68042E+00 -1.25818E+01 -1.13393E+01 -4.94010E+00 -5.89381E+00 +5.85753E+00
 +7.18771E+00 +9.15264E+00 +1.57704E+01 +1.82567E+00 +1.09633E+01 -8.21545E+00 -3.54810E+00 -1.03529E+01
 -1.46648E+01 -2.68368E+00 -1.24525E+01 +5.82346E+00 +7.35517E-01 +4.96809E+00 +1.35372E+01 -5.47691E+00
 +1.70492E+01 -1.49814E+01 +1.22287E+01 -1.27576E+01 +6.36134E+00 +1.44766E+00 +3.92201E+00 +1.71764E+01
 +2.50690E+00 +2.31821E+01 -2.31842E+00 +1.68840E+01 -9.94936E+00 +4.54190E+00 -1.42666E+01 -6.09878E+00
 -1.03494E+01 -1.17997E+01 -3.96424E-01 -1.30987E+01 +8.10051E+00 -1.02872E+01 +9.77695E+00 -2.71608E+00
 +5.94862E+00 +7.66421E+00 +1.58857E+00 +1.44036E+01 -9.07398E-01 +1.09768E+01 -3.34550E+00 -1.96116E+00
 -7.12647E+00 -1.50434E+01 -8.97338E+00 -1.78237E+01 -3.53559E+00 -8.71377E+00 +9.22593E+00 +3.27236E+00
 +2.09263E+01 +7.42687E+00 +2.12963E+01 +1.94634E+00 +8.76426E+00 -4.87286E+00 -6.35978E+00 -3.98771E+00
 -1.07507E+01 +4.66713E+00 -8.58362E-01 +1.25107E+01 +1.33627E+01 +1.20122E+01 +1.79022E+01 +4.87304E+00
 +7.96249E+00 -2.38714E-01 -8.09404E+00 +2.38978E+00 -1.74418E+01 +9.10834E+00 -1.46814E+01 +1.10218E+01
 -5.16108E+00 +3.87319E+00 +2.18590E+00 -7.24167E+00 +3.68572E+00 -1.32249E+01 +2.38451E+00 -1.01738E+01
 +2.34261E+00 -2.47901E+00 +3.62548E+00 +2.77946E+00 +3.59538E+00 +3.13285E+00 +1.67540E+00 +1.68274E+00
 +7.06913E-01 +1.73250E+00 +2.96361E+00 +2.38114E+00 +6.26471E+00 +4.63773E-01 +5.97222E+00 -4.08801E+00
 +1.22313E+00 -6.79214E+00 -2.36711E+00 -3.49394E+00 +1.93489E+00 +4.20062E+00 +1.35558E+01 +1.00188E+01
 +2.28549E+01 +1.00885E+01 +1.93880E+01 +7.75667E+00 +2.48243E+00 +9.77532E+00 -1.69685E+01 +1.74236E+01
 -2.59164E+01 +2.28814E+01 -2.05194E+01 +1.62824E+01 -8.20241E+00 -2.99571E+00 +9.19935E-01 -2.29860E+01
 +3.60562E+00 -2.85062E+01 +4.18589E+00 -1.48336E+01 +6.94945E+00 +7.65995E+00 +9.87502E+00 +2.24594E+01
 +7.16290E+00 +2.06691E+01 -2.61690E+00 +6.77014E+00 -1.26846E+01 -7.60788E+00 -1.36556E+01 -1.41528E+01
 -2.96772E+00 -1.23832E+01 +1.20011E+01 -6.08853E+00 +2.05203E+01 +1.87621E+00 +1.79004E+01 +1.02606E+01
 +8.32019E+00 +1.66808E+01 -6.87160E-01 +1.72411E+01 -5.18271E+00 +1.05891E+01 -6.09570E+00 +1.50844E+00
 -5.29985E+00 -1.78476E+00 -2.81513E+00 +4.56936E+00 +1.21032E+00 +1.52781E+01 +3.35996E+00 +2.01215E+01
 -1.42193E+00 +1.36918E+01 -1.35559E+01 +6.66495E-01 -2.51826E+01 -9.04060E+00 -2.52617E+01 -1.01130E+01
 -1.01169E+01 -6.15811E+00 +1.11906E+01 -4.22372E+00 +2.34103E+01 -6.11621E+00 +1.83342E+01 -6.54163E+00
 +2.01394E+00 -1.45722E-01 -1.12133E+01 +1.07925E+01 -1.19283E+01 +1.72369E+01 -3.08735E+00 +1.24877E+01
 +4.87612E+00 -2.69423E-01 +5.19176E+00 -1.03595E+01 +4.36471E-01 -9.67955E+00 -2.08411E+00 +4.70791E-02
 +1.01595E+00 +1.00546E+01 +6.09356E+00 +1.37431E+01 +7.26314E+00 +1.22829E+01 +2.65588E+00 +1.13125E+01
 -4.81642E+00 +1.34540E+01 -1.18154E+01 +1.53790E+01 -1.77567E+01 +1.21919E+01 -2.29370E+01 +3.40134E+00
 -2.49381E+01 -6.48087E+00 -1.93228E+01 -1.28034E+01 -5.17669E+00 -1.48176E+01 +1.09543E+01 -1.42850E+01
 +1.87262E+01 -1.13209E+01 +1.29963E+01 -3.78808E+00 -8.98107E-01 +8.19732E+00 -1.16570E+01 +1.84866E+01
 -1.22420E+01 +1.82298E+01 -5.48805E+00 +4.72255E+00 +3.64630E-01 -1.34505E+01 +8.89618E-01 -2.19716E+01
 -7.25045E-01 -1.31972E+01 +9.90500E-01 +6.42544E+00 +6.02883E+00 +2.17095E+01 +8.05454E+00 +2.20945E+01
 +1.70504E+00 +1.02647E+01 -1.02992E+01 -1.79905E+00 -1.87155E+01 -4.55909E+00 -1.69089E+01 +1.37884E+00
 -7.85977E+00 +8.11692E+00 -1.38975E+00 +9.19593E+00 -4.38595E+00 +4.60834E+00 -1.41542E+01 -1.80963E+00
 -2.14328E+01 -7.68152E+00 -1.93479E+01 -1.33000E+01 -8.99334E+00 -1.82668E+01 +3.08051E+00 -1.92299E+01
 +1.13070E+01 -1.27996E+01 +1.42315E+01 -6.04848E-01 +1.24316E+01 +1.01626E+01 +5.87120E+00 +1.26277E+01
 -4.93300E+00 +6.71150E+00 -1.57898E+01 -1.00754E+00 -1.94530E+01 -4.18304E+00 -1.16539E+01 -2.82909E+00
 +3.22254E+00 -1.93163E+00 +1.40607E+01 -4.37509E+00 +1.23523E+01 -6.67224E+00 +1.71835E-01 -2.87392E+00
 -1.17030E+01 +7.54248E+00 -1.42123E+01 +1.71013E+01 -8.55989E+00 +1.68426E+01 -4.14270E+00 +5.45669E+00
 -8.14863E+00 -8.84944E+00 -1.77832E+01 -1.61138E+01 -2.31212E+01 -1.40142E+01 -1.72858E+01 -9.12196E+00
 -3.22681E+00 -9.03167E+00 +9.49775E+00 -1.40797E+01 +1.38231E+01 -1.74328E+01 +1.05145E+01 -1.29812E+01
 +5.16516E+00 -2.18241E+00 +1.55025E+00 +7.32973E+00 -9.48415E-01 +9.31472E+00 -4.01131E+00 +4.30944E+00
 -6.49674E+00 -2.29945E+00 -5.38563E+00 -6.24858E+00 -2.84399E-01 -7.37805E+00 +4.66581E+00 -7.19409E+00
 +4.63422E+00 -5.41270E+00 -4.10286E-01 -5.67930E-01 -5.26771E+00 +6.19182E+00 -5.23161E+00 +9.85875E+00
