 Created: 16-Jan-2021
 $NMID
 ID='D:\BASISSIMULATI'
 FMTDAT='(8E13.5)'
 VOLUME=   1.00000E+00
 TRAMP=   1.00000E+00
 $END
 +5.86476E+01 +1.71923E+00 +4.44873E+01 +8.55218E+00 +1.29854E+01 +1.84349E+01 -1.55962E+01 +2.83950E+01
 -2.66579E+01 +3.02971E+01 -2.07951E+01 +1.95331E+01 -9.21093E+00 +1.26680E+00 -1.48797E+00 -1.31988E+01
 +1.61222E+00 -1.66098E+01 +4.69291E+00 -1.18061E+01 +9.74041E+00 -7.24836E+00 +1.34780E+01 -7.07519E+00
 +1.24131E+01 -6.74051E+00 +8.45164E+00 +8.85254E-01 +7.42627E+00 +1.57595E+01 +1.16855E+01 +2.84381E+01
 +1.56333E+01 +2.85866E+01 +1.05315E+01 +1.56221E+01 -5.55122E+00 +7.49798E-02 -2.33923E+01 -6.22895E+00
 -2.95796E+01 -1.28696E+00 -1.86807E+01 +6.00561E+00 +1.43653E+00 +5.69307E+00 +1.66000E+01 -2.89674E+00
 +1.87058E+01 -1.08995E+01 +1.13430E+01 -9.49382E+00 +3.92486E+00 +1.10301E+00 +1.48215E+00 +1.24311E+01
 +1.03947E+00 +1.67667E+01 -2.50908E+00 +1.42062E+01 -8.74113E+00 +1.06150E+01 -1.15304E+01 +9.71261E+00
 -6.62816E+00 +8.87062E+00 +1.99234E+00 +3.42405E+00 +5.03508E+00 -5.90344E+00 -2.30194E+00 -1.17825E+01
 -1.41540E+01 -7.62329E+00 -1.87895E+01 +4.29055E+00 -1.01331E+01 +1.34114E+01 +5.73285E+00 +1.07585E+01
 +1.59900E+01 -1.79372E+00 +1.30831E+01 -1.26576E+01 +1.24605E+00 -1.14438E+01 -8.63183E+00 +1.19084E+00
 -9.91977E+00 +1.45511E+01 -5.58329E+00 +1.83709E+01 -3.18896E+00 +1.18667E+01 -5.96225E+00 +2.60788E+00
 -9.88941E+00 -2.48712E+00 -9.43427E+00 -3.75158E+00 -4.62661E+00 -6.18847E+00 -1.04569E+00 -1.15883E+01
 -2.73293E+00 -1.50806E+01 -6.52646E+00 -1.04952E+01 -4.99700E+00 +1.49983E+00 +4.64377E+00 +1.21769E+01
 +1.56260E+01 +1.27457E+01 +1.70131E+01 +3.46257E+00 +4.64326E+00 -6.09293E+00 -1.36619E+01 -6.43098E+00
 -2.45023E+01 +2.26365E+00 -2.08961E+01 +1.03256E+01 -8.01538E+00 +8.40558E+00 +2.73624E+00 -3.24659E+00
 +4.80288E+00 -1.53647E+01 +1.40428E+00 -1.89867E+01 +8.41313E-02 -1.35095E+01 +3.70071E+00 -5.50784E+00
 +7.82747E+00 -6.60786E-01 +6.79415E+00 +1.73553E+00 +8.65409E-01 +5.83557E+00 -3.89897E+00 +1.20496E+01
 -2.91147E+00 +1.47008E+01 +1.10766E+00 +7.97916E+00 +8.71280E-01 -6.25761E+00 -6.74630E+00 -1.81400E+01
 -1.57685E+01 -1.84465E+01 -1.61393E+01 -7.74512E+00 -4.11251E+00 +3.72844E+00 +1.28446E+01 +5.84287E+00
 +2.22018E+01 -1.75244E+00 +1.77122E+01 -9.82915E+00 +4.66383E+00 -9.23914E+00 -5.92305E+00 +5.01718E-02
 -7.78976E+00 +9.59659E+00 -3.92728E+00 +1.14748E+01 -1.32165E+00 +5.78795E+00 -2.63303E+00 -8.60464E-01
 -4.10227E+00 -3.35215E+00 -1.35734E+00 -3.16598E+00 +4.27082E+00 -5.13279E+00 +6.68097E+00 -1.01588E+01
 +2.34656E+00 -1.28905E+01 -4.51268E+00 -7.56054E+00 -5.51716E+00 +4.39498E+00 +2.71507E+00 +1.39686E+01
 +1.37582E+01 +1.28437E+01 +1.67884E+01 +1.99069E+00 +7.27468E+00 -8.67307E+00 -7.96840E+00 -9.70555E+00
 -1.67944E+01 -1.18726E+00 -1.29107E+01 +7.80103E+00 -1.11527E+00 +8.53615E+00 +8.22070E+00 +1.05914E+00
 +9.20165E+00 -6.78966E+00 +4.67836E+00 -8.02729E+00 +1.25081E+00 -3.31925E+00 +1.47738E+00 +1.02105E+00
 +2.06976E+00 +8.50907E-01 -5.83551E-01 -1.30553E+00 -4.74614E+00 -3.56775E-02 -4.69738E+00 +5.58259E+00
 +2.10007E+00 +9.87149E+00 +1.04552E+01 +6.61925E+00 +1.15716E+01 -3.24729E+00 +2.26061E+00 -1.12668E+01
 -1.05750E+01 -9.52596E+00 -1.56566E+01 +9.96898E-01 -8.05412E+00 +1.08136E+01 +5.85990E+00 +1.10280E+01
 +1.43586E+01 +1.93891E+00 +1.12654E+01 -7.62051E+00 +9.86001E-01 -9.29581E+00 -6.83288E+00 -3.10048E+00
 -6.85870E+00 +3.71680E+00 -1.96514E+00 +4.93557E+00 +1.66062E+00 +1.53271E+00 +1.80868E+00 -6.04610E-01
 +1.63694E+00 +1.79736E+00 +4.21863E+00 +5.48215E+00 +7.35464E+00 +4.78411E+00 +5.37694E+00 -1.11124E+00
 -3.66217E+00 -6.38304E+00 -1.37927E+01 -4.76025E+00 -1.56148E+01 +3.00504E+00 -5.64943E+00 +8.97046E+00
 +9.18595E+00 +5.99516E+00 +1.72284E+01 -4.33924E+00 +1.26671E+01 -1.25165E+01 +6.03064E-01 -1.02326E+01
 -8.33863E+00 +1.32470E+00 -8.12922E+00 +1.25366E+01 -1.98617E+00 +1.45870E+01 +2.47023E+00 +7.40258E+00
 +1.58566E+00 -1.44462E+00 -1.50585E+00 -4.97254E+00 -1.93108E+00 -3.13714E+00 +5.14102E-01 -1.05165E+00
 +1.25414E+00 -2.04245E+00 -2.81590E+00 -3.85990E+00 -8.28242E+00 -2.18355E+00 -7.87835E+00 +3.12664E+00
 +1.35184E+00 +6.83676E+00 +1.33055E+01 +4.12008E+00 +1.74052E+01 -3.12858E+00 +8.60246E+00 -7.11075E+00
 -7.23115E+00 -2.08912E+00 -1.82189E+01 +8.74164E+00 -1.69977E+01 +1.52813E+01 -6.57781E+00 +1.01293E+01
 +3.70419E+00 -3.77055E+00 +7.28309E+00 -1.53788E+01 +5.13975E+00 -1.56641E+01 +2.31973E+00 -5.57233E+00
 +1.28805E+00 +5.75384E+00 -6.12400E-02 +1.00773E+01 -4.05231E+00 +6.97816E+00 -8.51535E+00 +2.14191E+00
 -8.09745E+00 +6.36907E-02 -6.86400E-01 -3.00733E-01 +8.52792E+00 -2.53589E+00 +1.09025E+01 -6.72773E+00
 +2.96518E+00 -8.10685E+00 -9.20862E+00 -2.47520E+00 -1.51041E+01 +7.68011E+00 -9.75711E+00 +1.38777E+01
 +1.42193E+00 +9.40124E+00 +8.01860E+00 -3.61553E+00 +4.79431E+00 -1.53878E+01 -3.61128E+00 -1.71710E+01
 -7.97188E+00 -8.88235E+00 -3.96489E+00 +1.73795E+00 +3.95772E+00 +7.01603E+00 +7.85783E+00 +5.88727E+00
 +4.65224E+00 +2.83443E+00 -1.36172E+00 +1.52575E+00 -3.94593E+00 +8.99422E-01 -1.86747E+00 -2.06201E+00
 +3.06614E-01 -6.81661E+00 -1.93946E+00 -8.36594E+00 -7.45270E+00 -2.93016E+00 -1.04003E+01 +6.03316E+00
 -6.66174E+00 +9.16674E+00 +1.62103E+00 +8.10248E-02 +8.38235E+00 -1.67789E+01 +1.00640E+01 -2.80007E+01
 +8.76721E+00 -2.23089E+01 +8.61969E+00 -9.45548E-01 +9.79122E+00 +2.24930E+01 +7.52711E+00 +3.27564E+01
 -2.04349E+00 +2.44579E+01 -1.56227E+01 +4.59633E+00 -2.36181E+01 -1.46882E+01 -1.84603E+01 -2.52302E+01
 -2.31096E+00 -2.59706E+01 +1.40115E+01 -1.96917E+01 +2.03822E+01 -9.10878E+00 +1.59526E+01 +3.27116E+00
 +8.59115E+00 +1.32454E+01 +6.11616E+00 +1.57133E+01 +8.51561E+00 +9.14113E+00 +8.97401E+00 -1.16681E+00
 +2.13698E+00 -6.15427E+00 -9.39289E+00 -1.10389E+00 -1.71302E+01 +8.99712E+00 -1.49528E+01 +1.31044E+01
 -4.82083E+00 +4.33807E+00 +5.66992E+00 -1.28315E+01 +1.07965E+01 -2.57595E+01 +1.12418E+01 -2.45169E+01
 +1.14555E+01 -1.02203E+01 +1.35979E+01 +6.87924E+00 +1.50766E+01 +1.70463E+01 +1.20468E+01 +1.86383E+01
 +4.33770E+00 +1.66980E+01 -4.05070E+00 +1.53407E+01 -9.23187E+00 +1.28529E+01 -1.11291E+01 +4.75603E+00
 -1.20357E+01 -9.03753E+00 -1.19336E+01 -2.14451E+01 -6.90187E+00 -2.35142E+01 +6.24359E+00 -1.26948E+01
 +2.36056E+01 +4.35198E+00 +3.40627E+01 +1.72506E+01 +2.76579E+01 +2.01992E+01 +5.52897E+00 +1.52137E+01
 -1.86855E+01 +8.24361E+00 -2.87503E+01 +3.27156E+00 -1.89158E+01 +5.01723E-01 +1.55313E+00 -8.61422E-01
 +1.64771E+01 -4.80334E-02 +1.60243E+01 +3.88263E+00 +3.42659E+00 +8.73324E+00 -9.75721E+00 +9.23224E+00
 -1.40971E+01 +2.11510E+00 -8.66784E+00 -8.74752E+00 +9.29286E-01 -1.37672E+01 +8.75308E+00 -5.98334E+00
 +1.21528E+01 +1.12047E+01 +1.07821E+01 +2.52444E+01 +4.58801E+00 +2.47323E+01 -5.54927E+00 +9.69420E+00
 -1.56672E+01 -7.98891E+00 -1.93881E+01 -1.47545E+01 -1.28513E+01 -6.80537E+00 +4.42098E-01 +7.54884E+00
 +1.07912E+01 +1.61404E+01 +9.92960E+00 +1.34267E+01 -1.50862E+00 +3.65840E+00 -1.41539E+01 -4.87020E+00
 -1.80685E+01 -7.60448E+00 -1.12816E+01 -6.00034E+00 -5.77634E-01 -3.57213E+00 +5.77966E+00 -1.38800E+00
 +5.65424E+00 +1.95661E+00 +3.34125E+00 +6.87950E+00 +2.99043E+00 +1.09181E+01 +2.94773E+00 +1.10627E+01
 -2.38374E+00 +7.38817E+00 -1.50148E+01 +3.17269E+00 -2.86014E+01 +9.05543E-01 -3.23902E+01 -1.07640E+00
 -2.07814E+01 -6.70559E+00 +7.33074E-01 -1.64257E+01 +1.92541E+01 -2.41320E+01 +2.44988E+01 -2.14265E+01
 +1.60282E+01 -6.05265E+00 +1.78225E+00 +1.39698E+01 -9.46146E+00 +2.56561E+01 -1.41297E+01 +2.17056E+01
 -1.38179E+01 +6.61652E+00 -1.13879E+01 -7.64216E+00 -8.42831E+00 -1.23070E+01 -6.01603E+00 -8.72581E+00
 -5.90583E+00 -5.36313E+00 -9.01511E+00 -8.58101E+00 -1.25204E+01 -1.65372E+01 -1.01693E+01 -2.16797E+01
 +2.27503E+00 -1.84288E+01 +2.08762E+01 -8.01936E+00 +3.37099E+01 +3.64057E+00 +2.93234E+01 +1.16859E+01
 +6.92415E+00 +1.51919E+01 -2.12232E+01 +1.50637E+01 -3.83087E+01 +1.07747E+01 -3.54740E+01 +7.14163E-01
 -1.75384E+01 -1.40707E+01 +2.49667E+00 -2.77175E+01 +1.43744E+01 -3.27178E+01 +1.69441E+01 -2.60979E+01
 +1.54449E+01 -1.23249E+01 +1.42428E+01 +4.38185E-01 +1.29679E+01 +7.19545E+00 +9.05265E+00 +9.20369E+00
 +2.42863E+00 +1.04341E+01 -3.55053E+00 +1.17435E+01 -5.79822E+00 +9.53426E+00 -5.02517E+00 +5.76782E-01
 -4.63673E+00 -1.24725E+01 -6.17158E+00 -2.15747E+01 -6.77769E+00 -2.02389E+01 -2.10989E+00 -1.00649E+01
 +8.22534E+00 +1.42749E-01 +1.88340E+01 +2.37476E+00 +2.28487E+01 -3.16722E+00 +1.82245E+01 -8.56701E+00
 +9.45961E+00 -6.08361E+00 +2.91922E+00 +4.35903E+00 +7.53119E-01 +1.52047E+01 -1.54163E-01 +1.82840E+01
 -3.33282E+00 +1.16756E+01 -7.63981E+00 +2.24336E-01 -7.89033E+00 -9.58478E+00 -7.97322E-01 -1.44787E+01
 +1.02981E+01 -1.46418E+01 +1.74879E+01 -1.08472E+01 +1.55624E+01 -3.11844E+00 +7.13777E+00 +7.29335E+00
 +2.30922E-01 +1.58654E+01 +5.86314E-01 +1.67914E+01 +6.44630E+00 +8.37949E+00 +1.08630E+01 -3.68626E+00
 +8.87144E+00 -9.78102E+00 +2.08506E+00 -4.42220E+00 -3.63357E+00 +8.43402E+00 -4.40272E+00 +1.83647E+01
 -1.68996E+00 +1.73758E+01 +3.26894E-01 +6.53018E+00 -1.23484E-01 -5.68128E+00 -7.18921E-01 -1.11695E+01
 +1.57599E+00 -8.52445E+00 +6.30204E+00 -2.26263E+00 +9.54913E+00 +2.96374E+00 +8.29727E+00 +6.51915E+00
 +4.00373E+00 +1.03435E+01 +1.09348E+00 +1.46049E+01 +1.82059E+00 +1.62096E+01 +3.33795E+00 +1.22182E+01
 +6.54276E-01 +4.14863E+00 -7.37310E+00 -2.26786E+00 -1.55857E+01 -2.35102E+00 -1.67791E+01 +2.62062E+00
 -8.71282E+00 +6.34314E+00 +3.28005E+00 +3.73574E+00 +1.09327E+01 -3.76026E+00 +1.03812E+01 -9.31586E+00
 +4.93791E+00 -7.19037E+00 +8.45903E-01 +1.96582E+00 +7.57449E-01 +1.20824E+01 +1.69491E+00 +1.74277E+01
 -8.25269E-01 +1.70093E+01 -7.37462E+00 +1.35443E+01 -1.38009E+01 +9.12287E+00 -1.56027E+01 +3.05687E+00
 -1.24214E+01 -5.65404E+00 -7.75073E+00 -1.46060E+01 -4.54214E+00 -1.82036E+01 -2.00129E+00 -1.25852E+01
 +2.63712E+00 -3.00061E-01 +9.45155E+00 +1.07217E+01 +1.39645E+01 +1.36845E+01 +1.08484E+01 +8.77415E+00
 -2.95509E-01 +2.48809E+00 -1.33222E+01 +1.06962E+00 -2.02893E+01 +4.60430E+00 -1.81421E+01 +7.53833E+00
