 Created: 16-Jan-2021
 $NMID
 ID='D:\BASISSIMULATI'
 FMTDAT='(8E13.5)'
 VOLUME=   1.00000E+00
 TRAMP=   1.00000E+00
 $END
 +2.81902E+01 +1.46372E-01 +1.64189E+01 +2.06700E+01 -6.50548E+00 +2.08187E+01 -1.70733E+01 +1.58859E+00
 -4.94758E+00 -1.60209E+01 +1.64425E+01 -1.29801E+01 +2.40538E+01 +8.02890E+00 +9.23519E+00 +2.55622E+01
 -1.33987E+01 +2.18019E+01 -2.12973E+01 +9.90129E-01 -7.39385E+00 -1.51718E+01 +1.27446E+01 -1.01784E+01
 +1.72973E+01 +1.02303E+01 +8.94294E-01 +2.42469E+01 -1.99559E+01 +1.67753E+01 -2.41730E+01 -4.97000E+00
 -7.97962E+00 -1.91408E+01 +1.13750E+01 -1.20159E+01 +1.37119E+01 +7.89865E+00 -3.14283E+00 +1.89485E+01
 -2.13081E+01 +8.93300E+00 -2.16008E+01 -1.23367E+01 -3.43185E+00 -2.34228E+01 +1.47786E+01 -1.35734E+01
 +1.48741E+01 +6.28697E+00 -2.26791E+00 +1.51367E+01 -1.78994E+01 +3.74925E+00 -1.50540E+01 -1.58978E+01
 +3.88841E+00 -2.32859E+01 +1.98844E+01 -1.07049E+01 +1.71246E+01 +8.92225E+00 -6.71484E-01 +1.56661E+01
 -1.43800E+01 +3.28498E+00 -9.47793E+00 -1.45229E+01 +8.98766E+00 -1.85837E+01 +2.18861E+01 -4.17873E+00
 +1.59851E+01 +1.42563E+01 -2.44797E+00 +1.83101E+01 -1.44032E+01 +4.66788E+00 -7.95881E+00 -1.17048E+01
 +9.51573E+00 -1.33240E+01 +1.92867E+01 +1.68854E+00 +1.08118E+01 +1.78945E+01 -7.47488E+00 +1.87568E+01
 -1.71590E+01 +3.73987E+00 -9.01085E+00 -1.13959E+01 +7.65183E+00 -1.11383E+01 +1.49153E+01 +3.76636E+00
 +4.93226E+00 +1.73692E+01 -1.21333E+01 +1.52618E+01 -1.89029E+01 -5.59341E-01 -8.84257E+00 -1.40281E+01
 +7.19325E+00 -1.18267E+01 +1.24833E+01 +2.93759E+00 +1.80179E+00 +1.42610E+01 -1.34100E+01 +1.00147E+01
 -1.71721E+01 -5.60081E+00 -5.54619E+00 -1.66912E+01 +9.52781E+00 -1.22783E+01 +1.28473E+01 +2.48678E+00
 +1.67244E+00 +1.19683E+01 -1.17212E+01 +6.38318E+00 -1.30239E+01 -8.23670E+00 -6.97128E-01 -1.65979E+01
 +1.27027E+01 -1.01073E+01 +1.37547E+01 +4.41543E+00 +2.00529E+00 +1.20957E+01 -9.86679E+00 +5.49359E+00
 -9.41310E+00 -7.91781E+00 +2.76951E+00 -1.38052E+01 +1.39592E+01 -5.90357E+00 +1.26924E+01 +7.71723E+00
 +5.30186E-01 +1.32931E+01 -9.86648E+00 +5.65421E+00 -8.03157E+00 -6.68519E+00 +3.60788E+00 -1.06409E+01
 +1.25716E+01 -2.13664E+00 +9.43022E+00 +9.93885E+00 -2.57632E+00 +1.32117E+01 -1.12031E+01 +4.62971E+00
 -8.01752E+00 -6.66170E+00 +3.05938E+00 -9.05333E+00 +1.01432E+01 -4.58045E-01 +5.82628E+00 +9.83125E+00
 -5.34729E+00 +1.10235E+01 -1.19000E+01 +1.95329E+00 -7.40260E+00 -8.01252E+00 +3.09497E+00 -8.90097E+00
 +8.60780E+00 -3.66002E-01 +3.66518E+00 +8.27918E+00 -6.27025E+00 +7.93172E+00 -1.07704E+01 -9.77976E-01
 -5.29404E+00 -9.24894E+00 +4.36656E+00 -8.62923E+00 +8.37541E+00 -2.20131E-01 +3.05315E+00 +6.99479E+00
 -5.59807E+00 +5.62961E+00 -8.40417E+00 -2.61613E+00 -2.52163E+00 -9.04751E+00 +5.90336E+00 -7.13308E+00
 +8.36705E+00 +9.12656E-01 +2.77692E+00 +6.74671E+00 -4.68981E+00 +4.66047E+00 -6.24391E+00 -2.72055E+00
 -4.93802E-01 -7.48645E+00 +6.42630E+00 -4.74335E+00 +7.44920E+00 +2.53983E+00 +1.80911E+00 +6.91985E+00
 -4.48499E+00 +4.25907E+00 -5.09027E+00 -2.24041E+00 +2.16022E-01 -5.66828E+00 +5.63673E+00 -2.61617E+00
 +5.56300E+00 +3.55342E+00 +2.51539E-01 +6.48927E+00 -4.76632E+00 +3.45212E+00 -4.58617E+00 -2.12686E+00
 +1.54889E-01 -4.48733E+00 +4.27225E+00 -1.50042E+00 +3.56119E+00 +3.42054E+00 -1.02822E+00 +5.13254E+00
 -4.70103E+00 +2.06283E+00 -3.91173E+00 -2.46145E+00 +1.68948E-01 -3.91354E+00 +3.19076E+00 -1.19512E+00
 +2.23366E+00 +2.54130E+00 -1.39276E+00 +3.40101E+00 -3.82468E+00 +7.01696E-01 -2.72684E+00 -2.63518E+00
 +5.28153E-01 -3.32862E+00 +2.58741E+00 -1.02722E+00 +1.64005E+00 +1.65018E+00 -9.68093E-01 +2.02672E+00
 -2.42907E+00 +8.57811E-03 -1.41025E+00 -2.14250E+00 +8.34800E-01 -2.33007E+00 +2.04739E+00 -6.41464E-01
 +1.30117E+00 +1.06440E+00 -3.23859E-01 +1.23400E+00 -1.13092E+00 +4.99155E-02 -5.38340E-01 -1.08133E+00
 +6.11758E-01 -1.11814E+00 +1.17965E+00 -2.68754E-01 +8.57720E-01 +5.38081E-01 +1.88764E-01 +7.18056E-01
 -2.29966E-01 +4.20297E-01 -2.87106E-01 +6.33930E-02 -1.63774E-01 -1.78388E-01 +7.15967E-02 -3.24536E-01
 +4.35623E-01 -2.68881E-01 +7.04483E-01 +1.64988E-01 +4.52668E-01 +7.95602E-01 -3.81462E-01 +9.85041E-01
 -1.11987E+00 +2.72658E-01 -8.73758E-01 -8.87128E-01 +3.91065E-01 -1.31934E+00 +1.50917E+00 -3.40534E-01
 +1.17235E+00 +1.26507E+00 -5.50716E-01 +1.79993E+00 -1.98081E+00 +4.34581E-01 -1.44274E+00 -1.65375E+00
 +8.13724E-01 -2.25702E+00 +2.57060E+00 -4.69323E-01 +1.83514E+00 +2.08971E+00 -8.96596E-01 +2.72718E+00
 -2.86277E+00 +5.34956E-01 -1.82013E+00 -2.38177E+00 +1.41476E+00 -2.88136E+00 +3.52801E+00 -1.34010E-01
 +2.08736E+00 +3.22534E+00 -1.70846E+00 +3.63922E+00 -3.99971E+00 +4.23995E-01 -2.23357E+00 -3.23284E+00
 +1.95194E+00 -3.41271E+00 +4.16908E+00 +3.39846E-01 +1.82269E+00 +4.25528E+00 -2.94840E+00 +4.10168E+00
 -5.24143E+00 -2.79421E-01 -2.48370E+00 -4.52371E+00 +2.64745E+00 -4.14501E+00 +4.77445E+00 +6.50040E-01
 +1.43332E+00 +4.90005E+00 -4.10906E+00 +3.93512E+00 -6.02909E+00 -1.59774E+00 -2.04113E+00 -6.13130E+00
 +3.96885E+00 -4.86844E+00 +5.77831E+00 +1.05419E+00 +1.35606E+00 +5.48748E+00 -4.76890E+00 +3.59337E+00
 -6.03190E+00 -2.93037E+00 -7.39823E-01 -7.35808E+00 +5.90496E+00 -4.87427E+00 +7.03950E+00 +2.21948E+00
 +1.36608E+00 +6.65427E+00 -5.24587E+00 +3.71821E+00 -5.71642E+00 -3.63680E+00 +7.67843E-01 -7.63561E+00
 +7.64918E+00 -3.75464E+00 +7.68126E+00 +4.35436E+00 +5.86085E-01 +8.43815E+00 -6.40919E+00 +4.22336E+00
 -5.97421E+00 -3.92598E+00 +1.56472E+00 -7.34896E+00 +8.32223E+00 -2.12375E+00 +6.96144E+00 +6.62477E+00
 -1.52316E+00 +9.85960E+00 -8.59913E+00 +4.06451E+00 -6.98612E+00 -4.87920E+00 +1.62119E+00 -7.63834E+00
 +8.09651E+00 -1.19168E+00 +5.32241E+00 +7.80381E+00 -4.23230E+00 +9.77999E+00 -1.08557E+01 +2.28210E+00
 -7.64482E+00 -7.25187E+00 +2.14812E+00 -9.08001E+00 +8.29848E+00 -1.36576E+00 +4.22381E+00 +7.70149E+00
 -5.98801E+00 +8.30830E+00 -1.16360E+01 -6.69707E-01 -6.52912E+00 -1.02745E+01 +4.38955E+00 -1.06651E+01
 +9.99951E+00 -1.45138E+00 +4.57148E+00 +7.70105E+00 -6.09642E+00 +7.04040E+00 -1.05516E+01 -3.00459E+00
 -3.63261E+00 -1.20654E+01 +7.96589E+00 -1.05406E+01 +1.24919E+01 +2.91935E-01 +5.38493E+00 +9.41101E+00
 -5.80763E+00 +7.45266E+00 -9.15333E+00 -3.42314E+00 -8.05779E-01 -1.16043E+01 +1.08038E+01 -8.07125E+00
 +1.36061E+01 +4.07174E+00 +4.50439E+00 +1.26408E+01 -7.22776E+00 +9.00400E+00 -9.48354E+00 -2.81233E+00
 +1.53064E-02 -1.01636E+01 +1.11799E+01 -4.93868E+00 +1.19620E+01 +7.84635E+00 +9.76885E-01 +1.51054E+01
 -1.08763E+01 +9.28468E+00 -1.16586E+01 -3.64168E+00 -8.83175E-01 -1.02523E+01 +9.83258E+00 -3.65266E+00
 +8.80165E+00 +9.20950E+00 -3.46546E+00 +1.46503E+01 -1.46241E+01 +6.51386E+00 -1.32712E+01 -7.27112E+00
 -8.94895E-01 -1.28146E+01 +9.53874E+00 -4.73278E+00 +7.04082E+00 +8.12691E+00 -5.86229E+00 +1.18065E+01
 -1.56217E+01 +1.81696E+00 -1.17359E+01 -1.20377E+01 +2.21343E+00 -1.57553E+01 +1.21543E+01 -5.73518E+00
 +8.13563E+00 +7.35924E+00 -5.22913E+00 +9.63058E+00 -1.34632E+01 -1.52923E+00 -7.30025E+00 -1.45942E+01
 +7.55119E+00 -1.58292E+01 +1.62230E+01 -3.64106E+00 +1.01406E+01 +9.64195E+00 -3.97119E+00 +1.05366E+01
 -1.10085E+01 -1.51330E+00 -3.22984E+00 -1.34615E+01 +1.15764E+01 -1.22085E+01 +1.81034E+01 +1.68326E+00
 +9.46586E+00 +1.44518E+01 -5.54132E+00 +1.34025E+01 -1.15201E+01 +1.63869E-01 -2.51049E+00 -1.09339E+01
 +1.17249E+01 -7.76709E+00 +1.58103E+01 +6.87950E+00 +4.80230E+00 +1.81103E+01 -1.05610E+01 +1.43930E+01
 -1.49612E+01 -3.82616E-01 -4.45155E+00 -1.08808E+01 +9.37856E+00 -6.27337E+00 +1.14435E+01 +8.43017E+00
 -1.08159E+00 +1.75359E+01 -1.57269E+01 +1.10092E+01 -1.76531E+01 -5.00535E+00 -5.11684E+00 -1.45026E+01
 +8.66046E+00 -8.25833E+00 +9.23443E+00 +6.53445E+00 -3.98784E+00 +1.37264E+01 -1.70723E+01 +5.05294E+00
 -1.60464E+01 -1.11863E+01 -1.48747E+00 -1.87027E+01 +1.20140E+01 -1.01641E+01 +1.10116E+01 +5.14341E+00
 -2.78610E+00 +1.09632E+01 -1.42730E+01 +1.01488E+00 -1.06862E+01 -1.44191E+01 +5.05228E+00 -1.91687E+01
 +1.73165E+01 -8.02589E+00 +1.40158E+01 +7.79177E+00 -8.14123E-01 +1.22895E+01 -1.12054E+01 +1.34585E+00
 -5.89890E+00 -1.29856E+01 +9.89654E+00 -1.50337E+01 +1.98966E+01 -1.86173E+00 +1.36918E+01 +1.36282E+01
 -2.39784E+00 +1.60952E+01 -1.18864E+01 +3.71733E+00 -5.28200E+00 -9.92134E+00 +1.00298E+01 -9.99400E+00
 +1.74858E+01 +4.10238E+00 +8.61451E+00 +1.80946E+01 -8.11392E+00 +1.76830E+01 -1.60827E+01 +3.42640E+00
 -7.80850E+00 -9.84372E+00 +7.29230E+00 -8.47028E+00 +1.27394E+01 +5.81297E+00 +2.17614E+00 +1.77026E+01
 -1.39956E+01 +1.42808E+01 -1.94379E+01 -1.52032E+00 -8.87399E+00 -1.39644E+01 +6.44235E+00 -1.08817E+01
 +1.04677E+01 +3.69336E+00 -9.24148E-01 +1.37685E+01 -1.56672E+01 +8.08085E+00 -1.80927E+01 -8.16546E+00
 -5.25033E+00 -1.87202E+01 +1.00321E+01 -1.31955E+01 +1.25095E+01 +2.15799E+00 +3.62865E-01 +1.10052E+01
 -1.29643E+01 +3.95374E+00 -1.28129E+01 -1.16880E+01 +1.41569E+00 -1.95561E+01 +1.56525E+01 -1.12785E+01
 +1.58108E+01 +4.83547E+00 +2.41173E+00 +1.24762E+01 -1.00263E+01 +4.30264E+00 -8.14693E+00 -1.04756E+01
 +6.34975E+00 -1.57537E+01 +1.85224E+01 -5.32252E+00 +1.57664E+01 +1.06914E+01 +9.05003E-01 +1.63929E+01
 -1.08056E+01 +6.63723E+00 -7.57631E+00 -7.69355E+00 +6.69318E+00 -1.10921E+01 +1.65558E+01 +4.21129E-01
 +1.11412E+01 +1.52041E+01 -4.55248E+00 +1.81545E+01 -1.49096E+01 +6.40843E+00 -9.94953E+00 -7.75262E+00
 +4.36175E+00 -9.73920E+00 +1.24202E+01 +2.18677E+00 +5.26548E+00 +1.51906E+01 -1.01345E+01 +1.52920E+01
 -1.81987E+01 +1.90461E+00 -1.09502E+01 -1.16201E+01 +3.76084E+00 -1.19215E+01 +1.05159E+01 +5.22752E-01
 +2.38417E+00 +1.20086E+01 -1.19442E+01 +9.94202E+00 -1.72937E+01 -4.07642E+00 -7.80840E+00 -1.59951E+01
 +7.02660E+00 -1.39661E+01 +1.23260E+01 -6.06900E-01 +3.27007E+00 +9.83801E+00 -9.99409E+00 +6.37326E+00
 -1.30196E+01 -7.36348E+00 -2.10085E+00 -1.69941E+01 +1.19519E+01 -1.24054E+01 +1.51278E+01 +1.79190E+00
 +4.75346E+00 +1.11620E+01 -7.85048E+00 +6.48563E+00 -9.24587E+00 -6.74464E+00 +2.16261E+00 -1.41713E+01
 +1.45784E+01 -7.55737E+00 +1.51657E+01 +6.71448E+00 +3.36412E+00 +1.43799E+01 -8.64814E+00 +8.13471E+00
