 Created: 16-Jan-2021
 $NMID
 ID='D:\BASISSIMULATI'
 FMTDAT='(8E13.5)'
 VOLUME=   1.00000E+00
 TRAMP=   1.00000E+00
 $END
 +3.81468E+01 +8.47160E-01 +3.56507E+01 +1.30600E+01 +2.91872E+01 +2.36296E+01 +1.96148E+01 +3.12805E+01
 +8.18636E+00 +3.51434E+01 -3.63148E+00 +3.48679E+01 -1.43668E+01 +3.06575E+01 -2.27453E+01 +2.32241E+01
 -2.78578E+01 +1.36711E+01 -2.92695E+01 +3.32523E+00 -2.70560E+01 -6.45589E+00 -2.17662E+01 -1.44708E+01
 -1.43190E+01 -1.98288E+01 -5.85596E+00 -2.20510E+01 +2.42893E+00 -2.11081E+01 +9.45358E+00 -1.73916E+01
 +1.43846E+01 -1.16303E+01 +1.67291E+01 -4.76680E+00 +1.63719E+01 +2.18437E+00 +1.35594E+01 +8.27519E+00
 +8.83681E+00 +1.27408E+01 +2.95264E+00 +1.50807E+01 -3.25238E+00 +1.50977E+01 -8.95627E+00 +1.28950E+01
 -1.34519E+01 +8.83665E+00 -1.62184E+01 +3.48261E+00 -1.69634E+01 -2.49136E+00 -1.56349E+01 -8.37653E+00
 -1.24073E+01 -1.35076E+01 -7.64697E+00 -1.73263E+01 -1.86374E+00 -1.94274E+01 +4.34474E+00 -1.95880E+01
 +1.03511E+01 -1.77789E+01 +1.55549E+01 -1.41607E+01 +1.94344E+01 -9.06582E+00 +2.15922E+01 -2.96866E+00
 +2.17916E+01 +3.55575E+00 +1.99814E+01 +9.88215E+00 +1.63063E+01 +1.53923E+01 +1.11003E+01 +1.95359E+01
 +4.86050E+00 +2.18884E+01 -1.79716E+00 +2.22018E+01 -8.19967E+00 +2.04391E+01 -1.36897E+01 +1.67875E+01
 -1.77016E+01 +1.16458E+01 -1.98319E+01 +5.58495E+00 -1.98929E+01 -7.15697E-01 -1.79410E+01 -6.54982E+00
 -1.42752E+01 -1.12727E+01 -9.40121E+00 -1.43850E+01 -3.96731E+00 -1.55995E+01 +1.32179E+00 -1.48803E+01
 +5.80065E+00 -1.24467E+01 +8.93455E+00 -8.74174E+00 +1.03929E+01 -4.36774E+00 +1.00933E+01 +1.40103E-03
 +8.20932E+00 +3.71830E+00 +5.14003E+00 +6.25572E+00 +1.44707E+00 +7.28161E+00 -2.23250E+00 +6.70409E+00
 -5.28301E+00 +4.67967E+00 -7.20202E+00 +1.58400E+00 -7.67331E+00 -2.04978E+00 -6.61001E+00 -5.61507E+00
 -4.16205E+00 -8.52462E+00 -6.87872E-01 -1.02979E+01 +3.30423E+00 -1.06295E+01 +7.23510E+00 -9.42948E+00
 +1.05412E+01 -6.82991E+00 +1.27551E+01 -3.15856E+00 +1.35688E+01 +1.11466E+00 +1.28699E+01 +5.44925E+00
 +1.07489E+01 +9.31197E+00 +7.47661E+00 +1.22490E+01 +3.45757E+00 +1.39422E+01 -8.31203E-01 +1.42431E+01
 -4.90733E+00 +1.31803E+01 -8.34520E+00 +1.09428E+01 -1.08251E+01 +7.84303E+00 -1.21637E+01 +4.26742E+00
 -1.23236E+01 +6.21684E-01 -1.14031E+01 -2.72001E+00 -9.61008E+00 -5.45630E+00 -7.22514E+00 -7.38590E+00
 -4.56057E+00 -8.41918E+00 -1.92081E+00 -8.57493E+00 +4.30912E-01 -7.96479E+00 +2.29669E+00 -6.76929E+00
 +3.55750E+00 -5.20951E+00 +4.17652E+00 -3.51826E+00 +4.19357E+00 -1.91386E+00 +3.71259E+00 -5.78594E-01
 +2.88449E+00 +3.56934E-01 +1.88737E+00 +8.23220E-01 +9.05864E-01 +8.15025E-01 +1.11042E-01 +3.88703E-01
 -3.57759E-01 -3.45874E-01 -4.08108E-01 -1.23822E+00 -5.40169E-03 -2.11420E+00 +8.21625E-01 -2.79599E+00
 +1.98178E+00 -3.12345E+00 +3.32934E+00 -2.97497E+00 +4.67884E+00 -2.28542E+00 +5.82603E+00 -1.05869E+00
 +6.57284E+00 +6.27290E-01 +6.75374E+00 +2.62459E+00 +6.26013E+00 +4.72875E+00 +5.05921E+00 +6.70090E+00
 +3.20423E+00 +8.29604E+00 +8.34065E-01 +9.29436E+00 -1.83876E+00 +9.53123E+00 -4.55052E+00 +8.92173E+00
 -7.01692E+00 +7.47588E+00 -8.96785E+00 +5.30205E+00 -1.01818E+01 +2.59748E+00 -1.05151E+01 -3.73241E-01
 -9.92185E+00 -3.30909E+00 -8.46135E+00 -5.90908E+00 -6.29235E+00 -7.90924E+00 -3.65411E+00 -9.11535E+00
 -8.37039E-01 -9.42683E+00 +1.85328E+00 -8.84860E+00 +4.13397E+00 -7.48954E+00 +5.77956E+00 -5.54748E+00
 +6.64913E+00 -3.28305E+00 +6.70235E+00 -9.85753E-01 +6.00244E+00 +1.06333E+00 +4.70585E+00 +2.62725E+00
 +3.04013E+00 +3.54289E+00 +1.27278E+00 +3.74080E+00 -3.24736E-01 +3.25285E+00 -1.51336E+00 +2.20666E+00
 -2.11848E+00 +8.07515E-01 -2.05362E+00 -6.89843E-01 -1.33270E+00 -2.01619E+00 -6.90752E-02 -2.92509E+00
 +1.53858E+00 -3.22774E+00 +3.23220E+00 -2.82079E+00 +4.72884E+00 -1.70348E+00 +5.75965E+00 +1.87335E-02
 +6.10816E+00 +2.14468E+00 +5.64288E+00 +4.40153E+00 +4.33959E+00 +6.47958E+00 +2.28978E+00 +8.07343E+00
 -3.06489E-01 +8.92442E+00 -3.16289E+00 +8.85829E+00 -5.94204E+00 +7.81285E+00 -8.29916E+00 +5.85114E+00
 -9.92836E+00 +3.15794E+00 -1.06052E+01 +1.90690E-02 -1.02194E+01 -3.21379E+00 -8.79232E+00 -6.16855E+00
 -6.47682E+00 -8.50199E+00 -3.53876E+00 -9.94600E+00 -3.22325E-01 -1.03440E+01 +2.79581E+00 -9.67204E+00
 +5.45704E+00 -8.04142E+00 +7.36876E+00 -5.68232E+00 +8.34261E+00 -2.91076E+00 +8.31754E+00 -8.39753E-02
 +7.36432E+00 +2.44926E+00 +5.67135E+00 +4.39578E+00 +3.51408E+00 +5.55587E+00 +1.21329E+00 +5.84627E+00
 -9.11341E-01 +5.30575E+00 -2.58517E+00 +4.08285E+00 -3.61364E+00 +2.40886E+00 -3.90373E+00 +5.60630E-01
 -3.46966E+00 -1.18037E+00 -2.42298E+00 -2.56646E+00 -9.50103E-01 -3.41419E+00 +7.18308E-01 -3.62307E+00
 +2.34069E+00 -3.18120E+00 +3.69551E+00 -2.15863E+00 +4.60560E+00 -6.91112E-01 +4.95370E+00 +1.04177E+00
 +4.68863E+00 +2.84012E+00 +3.82324E+00 +4.50522E+00 +2.42684E+00 +5.85689E+00 +6.14473E-01 +6.74562E+00
 -1.46427E+00 +7.06037E+00 -3.63559E+00 +6.73322E+00 -5.71075E+00 +5.74278E+00 -7.49516E+00 +4.11755E+00
 -8.79886E+00 +1.93937E+00 -9.44987E+00 -6.53941E-01 -9.31105E+00 -3.46898E+00 -8.29987E+00 -6.26284E+00
 -6.40872E+00 -8.75733E+00 -3.72186E+00 -1.06624E+01 -4.24626E-01 -1.17085E+01 +3.19971E+00 -1.16842E+01
 +6.78840E+00 -1.04744E+01 +9.93370E+00 -8.09305E+00 +1.22311E+01 -4.70148E+00 +1.33356E+01 -6.08495E-01
 +1.30183E+01 +3.75262E+00 +1.12136E+01 +7.86963E+00 +8.04712E+00 +1.12152E+01 +3.83815E+00 +1.33209E+01
 -9.27492E-01 +1.38509E+01 -5.65352E+00 +1.26620E+01 -9.71124E+00 +9.84077E+00 -1.25293E+01 +5.70701E+00
 -1.36819E+01 +7.82649E-01 -1.29599E+01 -4.27341E+00 -1.04141E+01 -8.75540E+00 -6.36024E+00 -1.20133E+01
 -1.34332E+00 -1.35519E+01 +3.93456E+00 -1.31109E+01 +8.71360E+00 -1.07111E+01 +1.22879E+01 -6.66032E+00
 +1.41121E+01 -1.51433E+00 +1.38859E+01 +4.00054E+00 +1.16026E+01 +9.09244E+00 +7.55427E+00 +1.30204E+01
 +2.29060E+00 +1.52042E+01 -3.46052E+00 +1.53103E+01 -8.89968E+00 +1.33003E+01 -1.32725E+01 +9.43529E+00
 -1.59784E+01 +4.23480E+00 -1.66542E+01 -1.60148E+00 -1.52211E+01 -7.29723E+00 -1.18885E+01 -1.21112E+01
 -7.11533E+00 -1.54399E+01 -1.53676E+00 -1.68965E+01 +4.13115E+00 -1.63538E+01 +9.19300E+00 -1.39486E+01
 +1.30665E+01 -1.00476E+01 +1.53525E+01 -5.18337E+00 +1.58738E+01 +2.79568E-02 +1.46795E+01 +4.97321E+00
 +1.20186E+01 +9.12006E+00 +8.28835E+00 +1.20754E+01 +3.96960E+00 +1.36183E+01 -4.40681E-01 +1.37056E+01
 -4.48899E+00 +1.24537E+01 -7.80984E+00 +1.01036E+01 -1.01515E+01 +6.97631E+00 -1.13832E+01 +3.42755E+00
 -1.14869E+01 -1.90811E-01 -1.05401E+01 -3.56010E+00 -8.69315E+00 -6.41284E+00 -6.14887E+00 -8.54152E+00
 -3.14494E+00 -9.80137E+00 +5.91633E-02 -1.01109E+01 +3.19257E+00 -9.45310E+00 +5.98363E+00 -7.87854E+00
 +8.17356E+00 -5.50941E+00 +9.53510E+00 -2.54183E+00 +9.89603E+00 +7.57608E-01 +9.16519E+00 +4.06450E+00
 +7.35631E+00 +7.02089E+00 +4.60415E+00 +9.27093E+00 +1.16700E+00 +1.05049E+01 -2.58840E+00 +1.05056E+01
 -6.22096E+00 +9.18969E+00 -9.26600E+00 +6.63506E+00 -1.12970E+01 +3.08823E+00 -1.19890E+01 -1.05347E+00
 -1.11741E+01 -5.28449E+00 -8.87751E+00 -9.05440E+00 -5.32841E+00 -1.18436E+01 -9.39355E-01 -1.32400E+01
 +3.74292E+00 -1.30042E+01 +8.11015E+00 -1.11123E+01 +1.15779E+01 -7.76755E+00 +1.36709E+01 -3.37863E+00
 +1.40938E+01 +1.49465E+00 +1.27774E+01 +6.21921E+00 +9.89064E+00 +1.01792E+01 +5.81712E+00 +1.28643E+01
 +1.09929E+00 +1.39432E+01 -3.64102E+00 +1.33086E+01 -7.79305E+00 +1.10888E+01 -1.08442E+01 +7.62386E+00
 -1.24501E+01 +3.41014E+00 -1.24775E+01 -9.76571E-01 -1.10134E+01 -4.96673E+00 -8.34126E+00 -8.07799E+00
 -4.88868E+00 -9.97865E+00 -1.15672E+00 -1.05248E+01 +2.35705E+00 -9.76684E+00 +5.22921E+00 -7.92577E+00
 +7.16416E+00 -5.34642E+00 +8.02352E+00 -2.43565E+00 +7.82872E+00 +4.02587E-01 +6.73898E+00 +2.82463E+00
 +5.01064E+00 +4.58857E+00 +2.94675E+00 +5.57464E+00 +8.46386E-01 +5.78367E+00 -1.03771E+00 +5.31682E+00
 -2.52708E+00 +4.34264E+00 -3.52840E+00 +3.05906E+00 -4.02795E+00 +1.65815E+00 -4.07370E+00 +2.99484E-01
 -3.75069E+00 -9.04132E-01 -3.15609E+00 -1.88821E+00 -2.37940E+00 -2.62769E+00 -1.49130E+00 -3.12194E+00
 -5.42334E-01 -3.37883E+00 +4.30463E-01 -3.40262E+00 +1.39211E+00 -3.18896E+00 +2.29818E+00 -2.72800E+00
 +3.08751E+00 -2.01440E+00 +3.68214E+00 -1.06081E+00 +3.99560E+00 +8.92888E-02 +3.94840E+00 +1.35400E+00
 +3.48725E+00 +2.61383E+00 +2.60363E+00 +3.72235E+00 +1.34685E+00 +4.52572E+00 -1.72419E-01 +4.88794E+00
 -1.79026E+00 +4.71694E+00 -3.30893E+00 +3.98623E+00 -4.52512E+00 +2.74712E+00 -5.26198E+00 +1.12825E+00
 -5.39955E+00 -6.78540E-01 -4.89732E+00 -2.44422E+00 -3.80479E+00 -3.93650E+00 -2.25719E+00 -4.95575E+00
 -4.56918E-01 -5.36682E+00 +1.35667E+00 -5.12079E+00 +2.94382E+00 -4.26287E+00 +4.10115E+00 -2.92498E+00
 +4.69224E+00 -1.30412E+00 +4.66681E+00 +3.69365E-01 +4.06551E+00 +1.86825E+00 +3.00969E+00 +3.00319E+00
 +1.67850E+00 +3.64983E+00 +2.77768E-01 +3.76405E+00 -9.93864E-01 +3.38319E+00 -1.97527E+00 +2.61382E+00
 -2.56485E+00 +1.60895E+00 -2.73083E+00 +5.39374E-01 -2.50890E+00 -4.35437E-01 -1.98876E+00 -1.19171E+00
 -1.29264E+00 -1.65705E+00 -5.50774E-01 -1.81546E+00 +1.21722E-01 -1.70174E+00 +6.42162E-01 -1.38750E+00
 +9.69287E-01 -9.62246E-01 +1.10309E+00 -5.13904E-01 +1.07661E+00 -1.12583E-01 +9.42304E-01 +1.99425E-01
 +7.56601E-01 +4.10109E-01 +5.66086E-01 +5.33021E-01 +3.98344E-01 +5.97298E-01 +2.59013E-01 +6.35334E-01
 +1.35148E-01 +6.71304E-01 +3.51019E-03 +7.13342E-01 -1.58690E-01 +7.51108E-01 -3.63506E-01 +7.59143E-01
 -6.05140E-01 +7.04963E-01 -8.57873E-01 +5.59747E-01 -1.07964E+00 +3.08855E-01 -1.22054E+00 -4.05247E-02
 -1.23433E+00 -4.56646E-01 -1.09026E+00 -8.86300E-01 -7.82465E-01 -1.26332E+00 -3.34660E-01 -1.52084E+00
 +2.01259E-01 -1.60474E+00 +7.52566E-01 -1.48541E+00 +1.23779E+00 -1.16537E+00 +1.58118E+00 -6.80806E-01
 +1.72664E+00 -9.67096E-02 +1.64846E+00 +5.03613E-01 +1.35647E+00 +1.03274E+00 +8.94729E-01 +1.41426E+00
 +3.33970E-01 +1.59590E+00 -2.40846E-01 +1.55822E+00 -7.45318E-01 +1.31722E+00 -1.10997E+00 +9.20429E-01
 -1.29146E+00 +4.37559E-01 -1.27865E+00 -5.26049E-02 -1.09256E+00 -4.76266E-01 -7.80450E-01 -7.77024E-01
