 Created: 16-Jan-2021
 $NMID
 ID='D:\BASISSIMULATI'
 FMTDAT='(8E13.5)'
 VOLUME=   1.00000E+00
 TRAMP=   1.00000E+00
 $END
 +4.91558E+01 +1.15524E+00 +3.36029E+01 +1.92363E+01 -3.65356E-01 +2.80847E+01 -2.89987E+01 +2.28559E+01
 -3.33285E+01 +5.28356E+00 -1.25181E+01 -1.56297E+01 +1.68958E+01 -2.72966E+01 +3.43248E+01 -2.11421E+01
 +2.99989E+01 +5.01624E-01 +1.02434E+01 +2.41920E+01 -9.45550E+00 +3.37979E+01 -1.66955E+01 +2.23641E+01
 -9.92617E+00 -1.79903E+00 +2.95372E+00 -2.05628E+01 +1.21162E+01 -1.96679E+01 +1.26045E+01 -7.77251E-02
 +5.94477E+00 +2.24637E+01 -2.75393E+00 +2.98423E+01 -8.56172E+00 +1.61594E+01 -8.75741E+00 -7.42887E+00
 -3.26976E+00 -2.17074E+01 +5.24480E+00 -1.49408E+01 +1.17335E+01 +7.72030E+00 +1.07782E+01 +2.84984E+01
 +4.84610E-01 +3.11925E+01 -1.44024E+01 +1.37020E+01 -2.38782E+01 -1.09084E+01 -1.93534E+01 -2.49693E+01
 -1.30654E+00 -1.94520E+01 +1.88415E+01 +3.31596E-01 +2.58242E+01 +1.99647E+01 +1.23028E+01 +2.68471E+01
 -1.40051E+01 +1.81551E+01 -3.46114E+01 +8.99391E-01 -3.37947E+01 -1.42074E+01 -1.11287E+01 -1.95382E+01
 +1.73166E+01 -1.37300E+01 +3.07354E+01 -8.73920E-01 +1.94020E+01 +1.21611E+01 -7.91815E+00 +1.85552E+01
 -3.08345E+01 +1.42718E+01 -3.29444E+01 +5.37640E-01 -1.38589E+01 -1.54622E+01 +1.14464E+01 -2.36311E+01
 +2.47127E+01 -1.73826E+01 +1.79231E+01 +5.97184E-01 -1.99510E+00 +1.84677E+01 -1.98246E+01 +2.28093E+01
 -2.37596E+01 +8.93304E+00 -1.29581E+01 -1.42679E+01 +3.72743E+00 -2.98585E+01 +1.52596E+01 -2.55290E+01
 +1.56965E+01 -3.67170E+00 +6.55358E+00 +1.96343E+01 -5.75495E+00 +2.66478E+01 -1.42339E+01 +1.18063E+01
 -1.45408E+01 -1.37095E+01 -6.42374E+00 -3.05366E+01 +6.16537E+00 -2.61013E+01 +1.63258E+01 -4.13696E+00
 +1.73699E+01 +1.86099E+01 +7.22108E+00 +2.55091E+01 -8.78957E+00 +1.24404E+01 -1.99417E+01 -9.96670E+00
 -1.71145E+01 -2.51890E+01 -2.89311E-01 -2.31619E+01 +1.97444E+01 -6.67223E+00 +2.82059E+01 +1.20918E+01
 +1.74831E+01 +2.09624E+01 -6.01401E+00 +1.56606E+01 -2.55184E+01 +1.12229E+00 -2.61822E+01 -1.31173E+01
 -6.71415E+00 -1.91236E+01 +1.90241E+01 -1.43564E+01 +3.21970E+01 -1.93929E+00 +2.32357E+01 +1.14450E+01
 -9.84701E-01 +1.86346E+01 -2.25939E+01 +1.52962E+01 -2.63612E+01 +2.60589E+00 -1.07919E+01 -1.23631E+01
 +1.16294E+01 -1.99861E+01 +2.45495E+01 -1.42570E+01 +1.98490E+01 +2.14517E+00 +2.59082E+00 +1.83737E+01
 -1.40392E+01 +2.24726E+01 -1.89007E+01 +1.04871E+01 -1.02148E+01 -9.54304E+00 +4.63203E+00 -2.27294E+01
 +1.53216E+01 -1.84940E+01 +1.55468E+01 +7.77320E-01 +6.11246E+00 +2.08313E+01 -6.69524E+00 +2.61533E+01
 -1.52892E+01 +1.20517E+01 -1.47697E+01 -1.13713E+01 -5.17449E+00 -2.67113E+01 +8.44268E+00 -2.24735E+01
 +1.81888E+01 -1.72307E+00 +1.74261E+01 +2.04238E+01 +5.18252E+00 +2.82456E+01 -1.20031E+01 +1.68153E+01
 -2.31105E+01 -5.10832E+00 -1.97186E+01 -2.21982E+01 -2.61654E+00 -2.36652E+01 +1.74299E+01 -1.00592E+01
 +2.64672E+01 +8.43306E+00 +1.74687E+01 +1.98213E+01 -3.82915E+00 +1.80890E+01 -2.24248E+01 +5.92422E+00
 -2.48907E+01 -8.26509E+00 -9.50741E+00 -1.60386E+01 +1.22550E+01 -1.35508E+01 +2.43087E+01 -3.02285E+00
 +1.80745E+01 +8.94736E+00 -1.19167E+00 +1.50515E+01 -1.86745E+01 +1.13182E+01 -2.13833E+01 -2.85981E-01
 -7.77103E+00 -1.24082E+01 +1.15932E+01 -1.64747E+01 +2.23421E+01 -8.53789E+00 +1.69226E+01 +7.09531E+00
 -4.00767E-01 +1.97616E+01 -1.72796E+01 +1.95484E+01 -2.23076E+01 +4.96427E+00 -1.25700E+01 -1.48172E+01
 +5.16032E+00 -2.56996E+01 +1.95265E+01 -1.88475E+01 +2.19087E+01 +2.20631E+00 +1.12617E+01 +2.33177E+01
 -5.88899E+00 +2.96001E+01 -1.95692E+01 +1.62778E+01 -2.19744E+01 -7.64872E+00 -1.17069E+01 -2.57866E+01
 +5.37891E+00 -2.60543E+01 +1.92567E+01 -9.03379E+00 +2.14276E+01 +1.29870E+01 +1.02462E+01 +2.51578E+01
 -7.52678E+00 +2.03808E+01 -2.05518E+01 +3.44430E+00 -2.02443E+01 -1.33505E+01 -6.84653E+00 -1.91821E+01
 +1.03202E+01 -1.16741E+01 +1.91662E+01 +2.58475E+00 +1.35123E+01 +1.34380E+01 -2.25011E+00 +1.41381E+01
 -1.62606E+01 +5.24152E+00 -1.80002E+01 -6.54192E+00 -6.24453E+00 -1.31439E+01 +9.95104E+00 -1.02907E+01
 +1.80906E+01 -9.30165E-03 +1.17301E+01 +1.07522E+01 -4.60659E+00 +1.44898E+01 -1.87928E+01 +7.99883E+00
 -2.01348E+01 -5.18817E+00 -7.25698E+00 -1.65600E+01 +1.09396E+01 -1.79469E+01 +2.17388E+01 -7.26279E+00
 +1.76045E+01 +9.30974E+00 +1.27780E+00 +2.07633E+01 -1.63426E+01 +1.85942E+01 -2.36934E+01 +3.12435E+00
 -1.61170E+01 -1.59469E+01 +1.40227E+00 -2.57291E+01 +1.77413E+01 -1.90822E+01 +2.27859E+01 +4.38214E-02
 +1.36368E+01 +1.89579E+01 -3.80319E+00 +2.48734E+01 -1.86069E+01 +1.37986E+01 -2.15747E+01 -6.67786E+00
 -1.09019E+01 -2.26933E+01 +6.66245E+00 -2.36929E+01 +1.99711E+01 -9.50832E+00 +2.05237E+01 +9.88820E+00
 +8.01721E+00 +2.14947E+01 -9.29288E+00 +1.80922E+01 -1.99087E+01 +2.73130E+00 -1.67552E+01 -1.38414E+01
 -2.04326E+00 -2.06680E+01 +1.41406E+01 -1.37517E+01 +2.07268E+01 +1.71855E+00 +1.33279E+01 +1.52120E+01
 -2.72098E+00 +1.79476E+01 -1.61412E+01 +8.53656E+00 -1.76531E+01 -6.35901E+00 -6.44337E+00 -1.66031E+01
 +9.40145E+00 -1.53365E+01 +1.87098E+01 -3.50577E+00 +1.50801E+01 +1.07904E+01 +1.23454E+00 +1.77455E+01
 -1.30618E+01 +1.25137E+01 -1.78911E+01 -1.39140E+00 -1.00062E+01 -1.43788E+01 +5.06118E+00 -1.73293E+01
 +1.68982E+01 -7.97066E+00 +1.73349E+01 +7.39397E+00 +5.95884E+00 +1.81368E+01 -9.62044E+00 +1.66711E+01
 -1.88742E+01 +3.79585E+00 -1.54194E+01 -1.17674E+01 -1.36772E+00 -1.93612E+01 +1.39592E+01 -1.37341E+01
 +2.01856E+01 +1.36249E+00 +1.28847E+01 +1.57632E+01 -3.27875E+00 +1.98051E+01 -1.75179E+01 +1.08051E+01
 -2.01585E+01 -5.23772E+00 -9.28534E+00 -1.77279E+01 +7.81858E+00 -1.85053E+01 +1.95685E+01 -7.15772E+00
 +1.80192E+01 +8.79250E+00 +4.34235E+00 +1.88516E+01 -1.20133E+01 +1.64112E+01 -1.98990E+01 +3.07790E+00
 -1.41473E+01 -1.23300E+01 +1.01035E+00 -1.95327E+01 +1.50761E+01 -1.36209E+01 +1.86168E+01 +1.52842E+00
 +9.61212E+00 +1.56699E+01 -5.46650E+00 +1.90409E+01 -1.63223E+01 +9.12933E+00 -1.58252E+01 -7.36005E+00
 -4.58004E+00 -1.89465E+01 +9.76442E+00 -1.73526E+01 +1.77185E+01 -3.46152E+00 +1.41171E+01 +1.31067E+01
 +1.33980E+00 +2.06926E+01 -1.22920E+01 +1.38818E+01 -1.78318E+01 -2.58981E+00 -1.14329E+01 -1.71760E+01
 +3.04883E+00 -1.97096E+01 +1.62892E+01 -8.52977E+00 +1.93769E+01 +8.52210E+00 +9.76140E+00 +1.97810E+01
 -6.65969E+00 +1.78790E+01 -1.90409E+01 +4.55116E+00 -1.87501E+01 -1.09829E+01 -5.49620E+00 -1.85284E+01
 +1.20055E+01 -1.36017E+01 +2.17282E+01 +9.06508E-02 +1.67107E+01 +1.35607E+01 +1.84044E-01 +1.84716E+01
 -1.64654E+01 +1.21705E+01 -2.16877E+01 -1.06233E+00 -1.20187E+01 -1.29103E+01 +5.47010E+00 -1.61037E+01
 +1.83563E+01 -8.73998E+00 +1.78419E+01 +4.55702E+00 +4.88419E+00 +1.53508E+01 -1.09083E+01 +1.65712E+01
 -1.85216E+01 +7.16308E+00 -1.33628E+01 -6.84859E+00 -3.35917E-03 -1.60027E+01 +1.17347E+01 -1.37750E+01
 +1.40034E+01 -1.42978E+00 +6.08589E+00 +1.23814E+01 -5.84208E+00 +1.75262E+01 -1.35279E+01 +9.85951E+00
 -1.22375E+01 -5.32465E+00 -3.41218E+00 -1.68324E+01 +6.83165E+00 -1.58383E+01 +1.18324E+01 -2.73874E+00
 +8.40679E+00 +1.28120E+01 -1.39646E+00 +1.89943E+01 -1.15125E+01 +1.07759E+01 -1.53294E+01 -6.14250E+00
 -9.69354E+00 -1.94826E+01 +2.70813E+00 -1.94979E+01 +1.43062E+01 -6.12006E+00 +1.70268E+01 +1.11513E+01
 +7.82760E+00 +2.02868E+01 -8.34284E+00 +1.52465E+01 -2.08984E+01 -1.99836E-01 -2.05237E+01 -1.56548E+01
 -6.15169E+00 -2.14169E+01 +1.33284E+01 -1.45728E+01 +2.46402E+01 -7.78082E-02 +1.95012E+01 +1.30781E+01
 +9.83913E-01 +1.74836E+01 -1.82192E+01 +1.12032E+01 -2.47485E+01 -1.75131E+00 -1.42348E+01 -1.39620E+01
 +5.60591E+00 -1.85751E+01 +2.07808E+01 -1.29050E+01 +2.12682E+01 -8.21355E-02 +7.94934E+00 +1.23181E+01
 -8.76015E+00 +1.64894E+01 -1.70665E+01 +9.42536E+00 -1.22429E+01 -4.50859E+00 +8.23131E-01 -1.58492E+01
 +1.21979E+01 -1.63683E+01 +1.44342E+01 -5.27157E+00 +7.30313E+00 +9.60057E+00 -3.15590E+00 +1.71468E+01
 -9.62243E+00 +1.13861E+01 -8.38980E+00 -3.58001E+00 -1.02197E+00 -1.62756E+01 +7.45968E+00 -1.65596E+01
 +1.18967E+01 -3.66905E+00 +9.69762E+00 +1.28803E+01 +1.94048E+00 +2.04884E+01 -7.15111E+00 +1.32160E+01
 -1.21375E+01 -3.59611E+00 -9.27936E+00 -1.74519E+01 +7.42950E-01 -1.82410E+01 +1.22389E+01 -5.69277E+00
 +1.73768E+01 +1.08576E+01 +1.14806E+01 +1.97863E+01 -2.80517E+00 +1.56162E+01 -1.62051E+01 +2.27414E+00
 -1.88892E+01 -1.06253E+01 -7.98202E+00 -1.49252E+01 +9.40620E+00 -9.01462E+00 +2.07101E+01 +2.22241E+00
 +1.71904E+01 +1.15039E+01 +9.23201E-01 +1.37716E+01 -1.62833E+01 +8.48474E+00 -2.16439E+01 -9.10735E-01
 -1.11841E+01 -9.14063E+00 +7.14783E+00 -1.16034E+01 +1.95706E+01 -6.54920E+00 +1.69885E+01 +3.63348E+00
 +1.70440E+00 +1.29819E+01 -1.47323E+01 +1.49958E+01 -2.05127E+01 +7.06331E+00 -1.21878E+01 -6.71057E+00
 +3.50590E+00 -1.71632E+01 +1.53496E+01 -1.61437E+01 +1.58876E+01 -3.01272E+00 +5.97292E+00 +1.37357E+01
 -7.01374E+00 +2.19224E+01 -1.49144E+01 +1.47563E+01 -1.38582E+01 -3.42779E+00 -5.58354E+00 -1.97440E+01
 +4.69730E+00 -2.22139E+01 +1.15527E+01 -8.95048E+00 +1.17361E+01 +1.02409E+01 +5.26148E+00 +2.12825E+01
 -4.58385E+00 +1.65009E+01 -1.23716E+01 +1.90379E-01 -1.30971E+01 -1.51366E+01 -5.46105E+00 -1.85503E+01
 +6.32114E+00 -8.68955E+00 +1.43705E+01 +6.05457E+00 +1.24091E+01 +1.46516E+01 +9.44777E-01 +1.17484E+01
 -1.20738E+01 +8.13687E-01 -1.66076E+01 -9.54761E+00 -8.37052E+00 -1.23795E+01 +7.09986E+00 -6.82350E+00
 +1.80280E+01 +2.45775E+00 +1.54327E+01 +9.34077E+00 +5.62275E-01 +1.01694E+01 -1.55293E+01 +5.13698E+00
 -2.03591E+01 -2.70716E+00 -9.85154E+00 -9.26646E+00 +8.28622E+00 -1.10003E+01 +2.04581E+01 -6.35288E+00
 +1.76647E+01 +2.99499E+00 +2.25181E+00 +1.20247E+01 -1.42459E+01 +1.46206E+01 -2.01175E+01 +7.71139E+00
 -1.20443E+01 -5.48219E+00 +3.22366E+00 -1.63609E+01 +1.46818E+01 -1.65586E+01 +1.52310E+01 -4.61199E+00
 +5.93696E+00 +1.17981E+01 -6.01900E+00 +2.07249E+01 -1.30735E+01 +1.49202E+01 -1.19818E+01 -2.06028E+00
 -4.67044E+00 -1.79121E+01 +4.09833E+00 -2.07461E+01 +9.72218E+00 -8.34130E+00 +9.61115E+00 +9.95934E+00
 +3.82782E+00 +2.03991E+01 -4.89291E+00 +1.53922E+01 -1.18481E+01 -8.43781E-01 -1.24229E+01 -1.59234E+01
