 Created: 16-Jan-2021
 $NMID
 ID='D:\BASISSIMULATI'
 FMTDAT='(8E13.5)'
 VOLUME=   1.00000E+00
 TRAMP=   1.00000E+00
 $END
 +7.50164E+01 +1.94638E+00 +5.52733E+01 +4.56164E+01 +1.09983E+01 +6.20269E+01 -3.04912E+01 +4.22245E+01
 -4.41932E+01 -1.19856E-01 -2.30969E+01 -3.77567E+01 +1.78888E+01 -4.73557E+01 +5.20383E+01 -2.40613E+01
 +5.81110E+01 +1.61505E+01 +3.35398E+01 +4.74647E+01 -4.82356E+00 +5.10570E+01 -3.24234E+01 +2.67171E+01
 -3.31186E+01 -8.02095E+00 -9.09895E+00 -3.01498E+01 +2.15636E+01 -2.64050E+01 +3.75871E+01 -1.39289E+00
 +2.86503E+01 +2.63659E+01 +1.71266E+00 +3.73630E+01 -2.43412E+01 +2.41353E+01 -3.17472E+01 -4.18266E+00
 -1.57088E+01 -2.84749E+01 +1.27289E+01 -3.26788E+01 +3.43901E+01 -1.44369E+01 +3.48728E+01 +1.35821E+01
 +1.40213E+01 +3.23066E+01 -1.41531E+01 +2.89240E+01 -3.08185E+01 +5.21235E+00 -2.46396E+01 -2.37725E+01
 +9.80838E-01 -3.95792E+01 +3.02797E+01 -3.22376E+01 +4.53673E+01 -6.46611E+00 +3.75803E+01 +2.16073E+01
 +1.27056E+01 +3.48635E+01 -1.30526E+01 +2.59426E+01 -2.35261E+01 +1.53057E+00 -1.26645E+01 -2.22999E+01
 +1.20763E+01 -3.04545E+01 +3.49164E+01 -1.81732E+01 +4.19237E+01 +6.44758E+00 +2.96009E+01 +2.80734E+01
 +6.56588E+00 +3.40294E+01 -1.24347E+01 +2.20807E+01 -1.60824E+01 +1.29213E+00 -3.43269E+00 -1.42730E+01
 +1.60302E+01 -1.47173E+01 +2.89648E+01 -3.99041E-01 +2.69033E+01 +1.88014E+01 +1.14706E+01 +3.02843E+01
 -7.11832E+00 +2.69922E+01 -1.70529E+01 +1.17481E+01 -1.26830E+01 -4.99299E+00 +2.03037E+00 -1.22852E+01
 +1.64797E+01 -5.90659E+00 +2.06524E+01 +9.08240E+00 +1.17650E+01 +2.19874E+01 -4.07201E+00 +2.37668E+01
 -1.61446E+01 +1.30474E+01 -1.64090E+01 -3.09863E+00 -4.85134E+00 -1.40382E+01 +1.06130E+01 -1.27727E+01
 +1.95575E+01 -6.04768E-01 +1.60926E+01 +1.38188E+01 +2.80714E+00 +2.03919E+01 -1.10157E+01 +1.43782E+01
 -1.56736E+01 -3.99645E-01 -7.58210E+00 -1.41290E+01 +8.30634E+00 -1.75866E+01 +2.18002E+01 -8.30852E+00
 +2.42552E+01 +7.76749E+00 +1.43031E+01 +2.02609E+01 -1.28454E+00 +2.12347E+01 -1.21349E+01 +1.04069E+01
 -1.11474E+01 -4.75850E+00 +8.88819E-01 -1.40819E+01 +1.59653E+01 -1.14100E+01 +2.42825E+01 +1.43478E+00
 +2.07412E+01 +1.60697E+01 +8.15323E+00 +2.32830E+01 -4.90267E+00 +1.91576E+01 -1.00195E+01 +7.47484E+00
 -4.60925E+00 -3.13838E+00 +6.56268E+00 -5.26978E+00 +1.49203E+01 +2.20718E+00 +1.41810E+01 +1.35181E+01
 +4.76890E+00 +2.02015E+01 -6.52560E+00 +1.71901E+01 -1.14072E+01 +6.50418E+00 -6.07954E+00 -4.06325E+00
 +5.82407E+00 -6.42558E+00 +1.55269E+01 +1.91687E+00 +1.51688E+01 +1.57284E+01 +3.52468E+00 +2.52736E+01
 -1.26291E+01 +2.29074E+01 -2.26530E+01 +8.59982E+00 -1.91012E+01 -9.46231E+00 -3.02011E+00 -1.98459E+01
 +1.61803E+01 -1.53155E+01 +2.64405E+01 +2.12945E+00 +2.07852E+01 +2.20719E+01 +2.05638E+00 +3.20279E+01
 -1.85452E+01 +2.53583E+01 -2.83306E+01 +5.64712E+00 -2.10882E+01 -1.53516E+01 -1.04858E+00 -2.49814E+01
 +1.97202E+01 -1.75706E+01 +2.88539E+01 +2.08228E+00 +2.13655E+01 +2.18282E+01 +2.57942E+00 +2.98637E+01
 -1.54743E+01 +2.20576E+01 -2.18010E+01 +4.25985E+00 -1.32969E+01 -1.17691E+01 +3.63855E+00 -1.60475E+01
 +1.76219E+01 -6.64496E+00 +1.98407E+01 +9.46324E+00 +9.65118E+00 +2.13516E+01 -5.37772E+00 +2.14961E+01
 -1.48395E+01 +1.06214E+01 -1.25818E+01 -3.09700E+00 -7.49086E-01 -9.80954E+00 +1.18726E+01 -4.77596E+00
 +1.60062E+01 +8.43111E+00 +8.31791E+00 +2.04344E+01 -6.23562E+00 +2.25381E+01 -1.77443E+01 +1.27760E+01
 -1.81169E+01 -2.60118E+00 -6.70451E+00 -1.32501E+01 +9.06441E+00 -1.17308E+01 +1.85401E+01 +1.33440E+00
 +1.49986E+01 +1.74652E+01 +2.91946E-01 +2.58447E+01 -1.61769E+01 +2.05375E+01 -2.35705E+01 +4.58587E+00
 -1.68207E+01 -1.18183E+01 -1.22933E-01 -1.79696E+01 +1.56733E+01 -9.75284E+00 +2.01468E+01 +7.50957E+00
 +1.02239E+01 +2.24291E+01 -7.66241E+00 +2.50050E+01 -2.16820E+01 +1.32822E+01 -2.23630E+01 -5.21300E+00
 -8.91760E+00 -1.82914E+01 +1.00685E+01 -1.70888E+01 +2.21279E+01 -1.99887E+00 +1.90622E+01 +1.73951E+01
 +2.42829E+00 +2.84372E+01 -1.72825E+01 +2.36397E+01 -2.73273E+01 +5.67948E+00 -2.09659E+01 -1.41606E+01
 -1.92601E+00 -2.31649E+01 +1.78609E+01 -1.53695E+01 +2.58376E+01 +4.53983E+00 +1.68434E+01 +2.41564E+01
 -3.58903E+00 +3.12351E+01 -2.27775E+01 +2.14551E+01 -2.89686E+01 +1.07949E+00 -1.87349E+01 -1.71478E+01
 +1.03579E+00 -2.21615E+01 +1.77490E+01 -1.15007E+01 +2.12275E+01 +7.41107E+00 +1.00592E+01 +2.23231E+01
 -7.86705E+00 +2.41355E+01 -2.08157E+01 +1.25679E+01 -2.09334E+01 -4.07975E+00 -9.15066E+00 -1.47316E+01
 +5.86015E+00 -1.29253E+01 +1.37945E+01 -8.71702E-01 +9.69052E+00 +1.24052E+01 -2.90728E+00 +1.74439E+01
 -1.46306E+01 +1.08474E+01 -1.68910E+01 -2.48261E+00 -7.86793E+00 -1.28381E+01 +6.19569E+00 -1.24997E+01
 +1.52677E+01 -1.18497E+00 +1.24724E+01 +1.35809E+01 -1.01252E+00 +2.14749E+01 -1.64761E+01 +1.64296E+01
 -2.33571E+01 +9.75843E-01 -1.63557E+01 -1.51175E+01 +7.73293E-01 -2.11214E+01 +1.73574E+01 -1.24631E+01
 +2.25914E+01 +6.02356E+00 +1.25967E+01 +2.29410E+01 -6.86398E+00 +2.75222E+01 -2.38608E+01 +1.65685E+01
 -2.78017E+01 -3.36855E+00 -1.61769E+01 -2.00212E+01 +3.79231E+00 -2.31208E+01 +1.96823E+01 -1.08763E+01
 +2.16962E+01 +8.91738E+00 +8.80480E+00 +2.38444E+01 -1.07002E+01 +2.47220E+01 -2.45568E+01 +1.13325E+01
 -2.43316E+01 -7.59535E+00 -1.06746E+01 -2.00830E+01 +7.29239E+00 -1.85725E+01 +1.79838E+01 -4.64121E+00
 +1.48286E+01 +1.22240E+01 +3.86220E-01 +2.09186E+01 -1.55123E+01 +1.59476E+01 -2.23130E+01 +8.91504E-01
 -1.56628E+01 -1.40995E+01 -1.81141E-01 -1.90842E+01 +1.37020E+01 -1.08993E+01 +1.67195E+01 +4.80094E+00
 +6.93300E+00 +1.73596E+01 -8.99022E+00 +1.82467E+01 -2.02327E+01 +6.77005E+00 -1.90626E+01 -9.43184E+00
 -6.03845E+00 -1.94618E+01 +1.02973E+01 -1.64456E+01 +1.90669E+01 -2.17875E+00 +1.43160E+01 +1.39848E+01
 -9.50967E-01 +2.13054E+01 -1.66812E+01 +1.48146E+01 -2.24048E+01 -1.31255E+00 -1.42034E+01 -1.64508E+01
 +2.62787E+00 -2.05360E+01 +1.70293E+01 -1.07542E+01 +1.94781E+01 +6.54824E+00 +8.30425E+00 +2.00279E+01
 -9.18228E+00 +2.08375E+01 -2.15172E+01 +8.47789E+00 -2.06609E+01 -8.88106E+00 -7.29862E+00 -1.98219E+01
 +9.65299E+00 -1.72356E+01 +1.89880E+01 -2.99053E+00 +1.46346E+01 +1.33713E+01 -3.76059E-01 +2.10131E+01
 -1.60067E+01 +1.49870E+01 -2.19386E+01 -5.51994E-01 -1.44173E+01 -1.52067E+01 +1.33168E+00 -1.93148E+01
 +1.46837E+01 -1.03667E+01 +1.67536E+01 +5.40281E+00 +6.30743E+00 +1.72644E+01 -9.47925E+00 +1.72053E+01
 -1.98822E+01 +5.27421E+00 -1.78302E+01 -1.04900E+01 -4.63661E+00 -1.94654E+01 +1.08807E+01 -1.55673E+01
 +1.82874E+01 -1.33562E+00 +1.25065E+01 +1.37204E+01 -2.74934E+00 +1.94231E+01 -1.73677E+01 +1.17031E+01
 -2.14817E+01 -4.62612E+00 -1.20065E+01 -1.89387E+01 +5.23084E+00 -2.17217E+01 +1.91868E+01 -1.08364E+01
 +2.07415E+01 +6.97672E+00 +8.65670E+00 +2.03574E+01 -9.51980E+00 +2.06184E+01 -2.22148E+01 +7.37478E+00
 -2.12150E+01 -1.11256E+01 -6.94281E+00 -2.32034E+01 +1.17626E+01 -2.11647E+01 +2.32282E+01 -6.19673E+00
 +2.03338E+01 +1.23797E+01 +4.99755E+00 +2.30173E+01 -1.30848E+01 +1.92372E+01 -2.26171E+01 +3.66671E+00
 -1.78396E+01 -1.37236E+01 -2.07810E+00 -2.20152E+01 +1.45168E+01 -1.62515E+01 +2.15306E+01 -4.50803E-01
 +1.48962E+01 +1.51500E+01 -6.80626E-01 +2.07693E+01 -1.49727E+01 +1.33174E+01 -1.89612E+01 -1.81861E+00
 -1.06208E+01 -1.45166E+01 +3.98768E+00 -1.66472E+01 +1.49418E+01 -7.32744E+00 +1.51173E+01 +6.72530E+00
 +4.83389E+00 +1.58830E+01 -8.56862E+00 +1.41299E+01 -1.58566E+01 +3.02614E+00 -1.22146E+01 -9.51972E+00
 -4.59086E-01 -1.47728E+01 +1.10022E+01 -9.19549E+00 +1.40349E+01 +3.14592E+00 +6.43365E+00 +1.34270E+01
 -6.52008E+00 +1.42049E+01 -1.56824E+01 +4.63046E+00 -1.43820E+01 -8.86995E+00 -3.11578E+00 -1.69477E+01
 +1.06488E+01 -1.37723E+01 +1.74874E+01 -1.14799E+00 +1.24660E+01 +1.25480E+01 -1.37125E+00 +1.79484E+01
 -1.48904E+01 +1.10497E+01 -1.89112E+01 -3.96690E+00 -1.03651E+01 -1.73867E+01 +5.56957E+00 -2.03434E+01
 +1.87985E+01 -1.06827E+01 +2.08981E+01 +5.59051E+00 +1.05912E+01 +1.82214E+01 -5.47855E+00 +1.93559E+01
 -1.71175E+01 +8.54525E+00 -1.71563E+01 -7.12176E+00 -5.91156E+00 -1.77265E+01 +9.28051E+00 -1.68812E+01
 +1.89793E+01 -5.58957E+00 +1.76607E+01 +8.76270E+00 +6.93317E+00 +1.74056E+01 -5.95487E+00 +1.57530E+01
 -1.30766E+01 +5.94545E+00 -1.08492E+01 -5.06256E+00 -1.88823E+00 -1.03245E+01 +7.26249E+00 -7.30647E+00
 +1.07291E+01 +9.47235E-01 +7.04549E+00 +8.38453E+00 -3.56652E-01 +1.02559E+01 -5.96909E+00 +6.16110E+00
 -6.18714E+00 -1.13774E-01 -1.66309E+00 -3.62609E+00 +3.47810E+00 -1.90641E+00 +4.84485E+00 +3.36411E+00
 +1.05739E+00 +7.72104E+00 -5.21682E+00 +7.27602E+00 -9.17128E+00 +1.65891E+00 -7.35736E+00 -5.54309E+00
 -3.15991E-01 -9.19024E+00 +7.52729E+00 -6.21404E+00 +1.07200E+01 +2.03023E+00 +6.52529E+00 +1.03600E+01
 -2.97390E+00 +1.30342E+01 -1.19140E+01 +7.60662E+00 -1.42926E+01 -3.19233E+00 -7.92225E+00 -1.28966E+01
 +3.89343E+00 -1.52849E+01 +1.41730E+01 -8.41997E+00 +1.65454E+01 +3.87873E+00 +9.35080E+00 +1.42021E+01
 -3.10148E+00 +1.61198E+01 -1.30490E+01 +8.31035E+00 -1.40996E+01 -4.42308E+00 -5.34741E+00 -1.40240E+01
 +7.89348E+00 -1.42345E+01 +1.73301E+01 -4.64658E+00 +1.69431E+01 +8.89968E+00 +6.91060E+00 +1.79445E+01
 -6.38765E+00 +1.68277E+01 -1.44047E+01 +6.41514E+00 -1.19708E+01 -6.35611E+00 -7.44667E-01 -1.29299E+01
 +1.17619E+01 -8.75094E+00 +1.70592E+01 +3.64014E+00 +1.13148E+01 +1.61609E+01 -1.99140E+00 +2.04754E+01
 -1.42456E+01 +1.35740E+01 -1.73771E+01 -9.22169E-02 -9.30257E+00 -1.14486E+01 +4.53881E+00 -1.28194E+01
 +1.46968E+01 -3.14864E+00 +1.40201E+01 +1.11341E+01 +2.56037E+00 +2.02985E+01 -1.22899E+01 +1.78367E+01
 -2.06351E+01 +4.95677E+00 -1.67263E+01 -1.00522E+01 -2.95196E+00 -1.72708E+01 +1.15968E+01 -1.18274E+01
 +1.71319E+01 +2.69708E+00 +9.77259E+00 +1.65144E+01 -5.71197E+00 +2.01160E+01 -1.89470E+01 +1.06970E+01
 -2.08334E+01 -5.82081E+00 -9.68975E+00 -1.86043E+01 +7.48714E+00 -1.90851E+01 +1.95591E+01 -6.72415E+00
 +1.86112E+01 +1.05147E+01 +5.25148E+00 +2.13558E+01 -1.17086E+01 +1.86550E+01 -2.10178E+01 +4.15650E+00
 -1.63954E+01 -1.26054E+01 -6.84055E-01 -2.05518E+01 +1.60001E+01 -1.43286E+01 +2.28941E+01 +2.19349E+00
