 Created: 16-Jan-2021
 $NMID
 ID='D:\BASISSIMULATI'
 FMTDAT='(8E13.5)'
 VOLUME=   1.00000E+00
 TRAMP=   1.00000E+00
 $END
 +5.61617E+01 +7.42260E-01 +3.99201E+01 -2.56894E+01 +2.45892E+00 -3.06271E+01 -3.12223E+01 -8.28048E+00
 -3.95495E+01 +2.66178E+01 -1.93305E+01 +4.92165E+01 +1.25063E+01 +4.24245E+01 +3.15032E+01 +9.41195E+00
 +2.34484E+01 -2.82831E+01 -5.46329E+00 -4.57449E+01 -3.33357E+01 -3.20928E+01 -3.86632E+01 +2.07391E+00
 -1.61500E+01 +3.24332E+01 +1.91706E+01 +3.82672E+01 +4.24989E+01 +1.69475E+01 +3.69377E+01 -1.46943E+01
 +5.60147E+00 -3.29183E+01 -3.04854E+01 -2.43903E+01 -4.71655E+01 +4.22392E+00 -3.40299E+01 +3.12151E+01
 -1.41105E+00 +3.56681E+01 +2.73583E+01 +1.27197E+01 +3.27239E+01 -2.27362E+01 +1.26627E+01 -4.65203E+01
 -1.63421E+01 -4.22762E+01 -3.16036E+01 -1.29774E+01 -2.08141E+01 +2.13118E+01 +9.04191E+00 +3.77017E+01
 +3.67630E+01 +2.65105E+01 +4.22280E+01 -2.32121E+00 +2.08654E+01 -2.68241E+01 -1.30510E+01 -2.89613E+01
 -3.65408E+01 -7.44791E+00 -3.41453E+01 +2.16563E+01 -8.64753E+00 +3.68015E+01 +2.12416E+01 +2.65796E+01
 +3.43897E+01 -2.10379E+00 +2.21776E+01 -2.90670E+01 -5.75075E+00 -3.53354E+01 -2.88207E+01 -1.66216E+01
 -3.04706E+01 +1.37823E+01 -9.92222E+00 +3.46073E+01 +1.75468E+01 +3.16988E+01 +3.18107E+01 +7.80823E+00
 +2.23908E+01 -1.97504E+01 -4.15278E+00 -3.16755E+01 -2.90794E+01 -2.03609E+01 -3.49151E+01 +5.03519E+00
 -1.77889E+01 +2.55431E+01 +1.00758E+01 +2.61509E+01 +2.92891E+01 +6.45814E+00 +2.70884E+01 -1.92982E+01
 +6.13295E+00 -3.26436E+01 -1.78118E+01 -2.40881E+01 -2.73967E+01 +2.78263E-01 -1.60375E+01 +2.33619E+01
 +7.68130E+00 +2.93360E+01 +2.64806E+01 +1.47479E+01 +2.68861E+01 -9.36791E+00 +8.74269E+00 -2.56532E+01
 -1.49367E+01 -2.28396E+01 -2.74568E+01 -3.52750E+00 -2.03228E+01 +1.80520E+01 +9.50680E-01 +2.64477E+01
 +2.10653E+01 +1.59867E+01 +2.59633E+01 -5.44421E+00 +1.26844E+01 -2.23278E+01 -8.87522E+00 -2.27086E+01
 -2.33243E+01 -6.58699E+00 -2.08043E+01 +1.43533E+01 -3.78608E+00 +2.52722E+01 +1.50522E+01 +1.87107E+01
 +2.21142E+01 -3.55496E-01 +1.25678E+01 -1.83639E+01 -6.44407E+00 -2.29489E+01 -2.11632E+01 -1.15874E+01
 -2.11227E+01 +6.96106E+00 -6.47338E+00 +1.92191E+01 +1.23772E+01 +1.66823E+01 +2.23464E+01 +1.69151E+00
 +1.69267E+01 -1.45559E+01 +5.35902E-01 -2.02182E+01 -1.49524E+01 -1.12542E+01 -1.88088E+01 +5.88499E+00
 -8.95430E+00 +1.90622E+01 +6.89082E+00 +1.91548E+01 +1.70245E+01 +6.39593E+00 +1.42145E+01 -1.00494E+01
 +7.20494E-01 -1.87763E+01 -1.35685E+01 -1.41947E+01 -1.83620E+01 -2.30302E-01 -1.02899E+01 +1.27964E+01
 +4.86640E+00 +1.56889E+01 +1.64700E+01 +6.83838E+00 +1.66322E+01 -6.90203E+00 +5.66279E+00 -1.53748E+01
 -8.41245E+00 -1.24650E+01 -1.57431E+01 -3.62780E-01 -1.16298E+01 +1.21929E+01 +3.70605E-01 +1.62733E+01
 +1.12782E+01 +9.09000E+00 +1.32619E+01 -4.18595E+00 +5.17915E+00 -1.42721E+01 -6.81386E+00 -1.44096E+01
 -1.38637E+01 -5.01521E+00 -1.08153E+01 +6.87294E+00 +1.91511E-01 +1.28009E+01 +1.13991E+01 +8.92786E+00
 +1.50495E+01 -1.41632E+00 +8.85121E+00 -1.03507E+01 -2.56999E+00 -1.12223E+01 -1.11494E+01 -3.34604E+00
 -1.11808E+01 +7.63678E+00 -3.25799E+00 +1.39155E+01 +6.38122E+00 +1.11077E+01 +1.05029E+01 +1.28169E+00
 +6.09709E+00 -8.67065E+00 -3.56417E+00 -1.20295E+01 -1.14124E+01 -6.96997E+00 -1.17237E+01 +2.33176E+00
 -4.18551E+00 +8.89045E+00 +5.97929E+00 +8.00494E+00 +1.18212E+01 +5.66882E-01 +9.59916E+00 -7.73124E+00
 +1.30567E+00 -1.06193E+01 -6.94330E+00 -5.80043E+00 -9.39201E+00 +3.43448E+00 -4.72436E+00 +1.06222E+01
 +3.16186E+00 +1.07643E+01 +8.15012E+00 +3.83411E+00 +6.42380E+00 -5.31535E+00 -7.76866E-01 -1.04899E+01
 -8.10931E+00 -8.53608E+00 -1.00410E+01 -1.42735E+00 -4.85825E+00 +5.36488E+00 +4.10541E+00 +6.94370E+00
 +1.08574E+01 +2.51322E+00 +1.09847E+01 -4.16617E+00 +4.69210E+00 -7.65308E+00 -3.48930E+00 -4.88507E+00
 -8.03268E+00 +2.53819E+00 -6.33286E+00 +9.48124E+00 -4.00215E-01 +1.09609E+01 +4.81633E+00 +5.71727E+00
 +5.17618E+00 -2.88972E+00 +4.01585E-01 -9.26384E+00 -5.76607E+00 -9.48836E+00 -8.37703E+00 -3.96654E+00
 -4.96908E+00 +3.05390E+00 +2.54925E+00 +6.64833E+00 +9.18742E+00 +4.73778E+00 +1.03911E+01 -5.67761E-01
 +5.25358E+00 -4.71202E+00 -2.86929E+00 -4.18052E+00 -8.74341E+00 +8.44791E-01 -8.89946E+00 +6.59675E+00
 -3.92915E+00 +8.49751E+00 +2.15473E+00 +4.55876E+00 +4.95115E+00 -3.06969E+00 +2.85341E+00 -9.52685E+00
 -1.91540E+00 -1.06160E+01 -5.10972E+00 -5.71142E+00 -3.73327E+00 +1.86106E+00 +1.64659E+00 +7.20166E+00
 +7.23776E+00 +7.23704E+00 +8.76533E+00 +2.71836E+00 +4.61951E+00 -2.55461E+00 -2.87498E+00 -4.63983E+00
 -8.99053E+00 -2.33486E+00 -9.83645E+00 +2.05175E+00 -5.00223E+00 +4.55357E+00 +2.25042E+00 +2.62104E+00
 +7.33397E+00 -2.85852E+00 +7.50693E+00 -8.08421E+00 +3.61287E+00 -9.03844E+00 -7.93756E-01 -4.40996E+00
 -2.21681E+00 +3.36479E+00 +1.77584E-01 +9.69427E+00 +4.01444E+00 +1.09263E+01 +5.58206E+00 +6.75756E+00
 +2.71682E+00 +2.86807E-01 -3.43144E+00 -4.26195E+00 -9.05937E+00 -4.47752E+00 -1.03373E+01 -1.26886E+00
 -6.12483E+00 +2.07049E+00 +1.16546E+00 +2.47655E+00 +7.16617E+00 -5.43943E-01 +8.47753E+00 -4.55438E+00
 +4.85752E+00 -6.04819E+00 -8.19611E-01 -3.14460E+00 -4.72971E+00 +2.86286E+00 -4.78959E+00 +8.24898E+00
 -1.95313E+00 +9.37829E+00 +7.51461E-01 +5.21750E+00 +6.61569E-01 -1.93415E+00 -2.42858E+00 -7.99394E+00
 -6.05887E+00 -9.81170E+00 -6.91674E+00 -7.14597E+00 -3.34019E+00 -2.56317E+00 +3.31592E+00 +5.79072E-01
 +9.45067E+00 +5.59810E-01 +1.15908E+01 -1.60727E+00 +8.69655E+00 -3.13806E+00 +2.79397E+00 -1.73192E+00
 -2.47205E+00 +2.56956E+00 -4.30779E+00 +7.28424E+00 -2.52398E+00 +9.22083E+00 +6.07732E-01 +6.78348E+00
 +2.20084E+00 +1.18844E+00 +9.14120E-01 -4.27957E+00 -2.13321E+00 -6.44394E+00 -4.30646E+00 -4.31489E+00
 -3.51859E+00 +3.63864E-01 +1.20278E-01 +4.43044E+00 +4.27174E+00 +5.50431E+00 +5.97616E+00 +3.50967E+00
 +3.74002E+00 +4.96129E-01 -1.38512E+00 -1.03065E+00 -6.48621E+00 -8.94503E-03 -8.73473E+00 +2.42522E+00
 -7.22014E+00 +3.84062E+00 -3.41139E+00 +2.37388E+00 +1.61640E-02 -1.81815E+00 +1.10075E+00 -6.56674E+00
 -1.14266E-01 -9.14545E+00 -1.79373E+00 -8.12445E+00 -1.80547E+00 -4.31435E+00 +6.29388E-01 -1.58409E-01
 +4.32821E+00 +1.96237E+00 +6.99385E+00 +1.29961E+00 +6.87516E+00 -8.99476E-01 +4.03199E+00 -2.43285E+00
 +3.06212E-01 -1.79082E+00 -1.95776E+00 +7.82556E-01 -1.51412E+00 +3.54283E+00 +9.92359E-01 +4.57894E+00
 +3.56962E+00 +3.23091E+00 +4.32567E+00 +5.68502E-01 +2.76843E+00 -1.38869E+00 +5.17676E-02 -1.12022E+00
 -1.95658E+00 +1.32655E+00 -2.06907E+00 +4.39537E+00 -6.17532E-01 +6.13132E+00 +8.44325E-01 +5.52372E+00
 +7.22421E-01 +3.12858E+00 -1.42953E+00 +5.65741E-01 -4.56877E+00 -6.98977E-01 -6.88984E+00 -3.83970E-01
 -7.07045E+00 +4.95863E-01 -5.13860E+00 +4.76312E-01 -2.36667E+00 -1.20165E+00 -3.14733E-01 -3.98208E+00
 +2.54142E-01 -6.36038E+00 -1.93261E-01 -6.93934E+00 -4.52991E-01 -5.40032E+00 +4.07948E-01 -2.70035E+00
 +2.29728E+00 -3.83151E-01 +4.15159E+00 +4.71509E-01 +4.74012E+00 -9.83738E-02 +3.60745E+00 -1.11621E+00
 +1.45439E+00 -1.49199E+00 -3.18118E-01 -8.47309E-01 -5.62061E-01 +2.71940E-01 +8.58400E-01 +9.22167E-01
 +3.03075E+00 +5.93332E-01 +4.67012E+00 -3.10324E-01 +4.98551E+00 -7.17931E-01 +4.10591E+00 +3.11026E-01
 +2.79562E+00 +2.83550E+00 +1.73293E+00 +5.88950E+00 +9.42992E-01 +8.05817E+00 -1.66845E-01 +8.35776E+00
 -2.20536E+00 +6.79348E+00 -5.11628E+00 +4.22344E+00 -7.97740E+00 +1.67760E+00 -9.47940E+00 -3.28136E-01
 -8.76459E+00 -1.97104E+00 -6.02159E+00 -3.69903E+00 -2.40004E+00 -5.59107E+00 +6.95672E-01 -7.05670E+00
 +2.42524E+00 -7.16176E+00 +2.86760E+00 -5.36355E+00 +2.69990E+00 -2.09033E+00 +2.50220E+00 +1.31805E+00
 +2.26378E+00 +3.32999E+00 +1.48923E+00 +3.12699E+00 -1.88656E-01 +1.06283E+00 -2.40745E+00 -1.64073E+00
 -4.02558E+00 -3.72732E+00 -3.75488E+00 -4.65431E+00 -1.06541E+00 -4.72394E+00 +3.29988E+00 -4.54810E+00
 +7.62187E+00 -4.31700E+00 +1.01595E+01 -3.49677E+00 +1.01235E+01 -1.24468E+00 +8.00481E+00 +2.74889E+00
 +5.05404E+00 +7.66031E+00 +2.32834E+00 +1.17138E+01 +2.88543E-02 +1.31226E+01 -2.38101E+00 +1.11833E+01
 -5.39832E+00 +6.75562E+00 -8.69331E+00 +1.76003E+00 -1.09958E+01 -1.98055E+00 -1.08372E+01 -3.75833E+00
 -7.65621E+00 -4.15978E+00 -2.44172E+00 -4.32388E+00 +2.63378E+00 -4.87698E+00 +5.42571E+00 -5.37931E+00
 +5.07805E+00 -4.72625E+00 +2.46412E+00 -2.20665E+00 -5.01529E-01 +1.61419E+00 -2.18928E+00 +4.93358E+00
 -2.27077E+00 +5.75272E+00 -1.70853E+00 +3.23415E+00 -1.76391E+00 -1.60166E+00 -2.80403E+00 -6.39347E+00
 -3.84903E+00 -8.86897E+00 -3.25227E+00 -8.21898E+00 -4.18296E-02 -5.46481E+00 +5.08557E+00 -2.57669E+00
 +9.92268E+00 -9.97247E-01 +1.20450E+01 -6.53128E-01 +1.03760E+01 -1.76597E-01 +5.91646E+00 +1.84098E+00
 +1.09277E+00 +5.52152E+00 -1.84420E+00 +9.33460E+00 -2.25036E+00 +1.10323E+01 -1.34144E+00 +9.24963E+00
 -1.10632E+00 +4.60469E+00 -2.69238E+00 -5.48472E-01 -5.46372E+00 -3.60324E+00 -7.44290E+00 -3.40220E+00
 -6.82508E+00 -9.51526E-01 -3.44524E+00 +1.37061E+00 +9.14646E-01 +1.55198E+00 +3.65875E+00 -6.17125E-01
 +3.17083E+00 -3.44600E+00 -2.34420E-02 -4.65283E+00 -3.58972E+00 -3.12100E+00 -5.00803E+00 +1.94805E-01
 -3.33795E+00 +2.89841E+00 +1.43433E-01 +2.88101E+00 +2.89847E+00 -1.05962E-01 +2.99643E+00 -4.19662E+00
 +5.38891E-01 -6.69050E+00 -2.39918E+00 -5.96157E+00 -3.28190E+00 -2.61672E+00 -9.86924E-01 +9.48322E-01
 +3.32432E+00 +2.29052E+00 +6.98718E+00 +7.03931E-01 +7.71345E+00 -2.25311E+00 +5.21268E+00 -3.88655E+00
 +1.37528E+00 -2.34740E+00 -1.12197E+00 +1.96729E+00 -7.77537E-01 +6.61851E+00 +1.63834E+00 +8.80373E+00
 +3.66285E+00 +7.31007E+00 +2.98725E+00 +3.33801E+00 -7.69285E-01 -3.95353E-01 -5.66201E+00 -1.61950E+00
 -8.71436E+00 -1.13419E-01 -7.99254E+00 +2.21480E+00 -3.97510E+00 +2.82369E+00 +7.70077E-01 +5.08572E-01
 +3.37346E+00 -3.60760E+00 +2.63491E+00 -6.80905E+00 -2.31797E-01 -6.73536E+00 -2.59851E+00 -3.13647E+00
 -2.41929E+00 +1.84871E+00 +2.43129E-01 +5.11595E+00 +3.27881E+00 +4.71885E+00 +4.13375E+00 +1.17986E+00
 +1.77592E+00 -2.94073E+00 -2.42847E+00 -4.89488E+00 -5.59535E+00 -3.67618E+00 -5.34784E+00 -6.42738E-01
