 Created: 16-Jan-2021
 $NMID
 ID='D:\BASISSIMULATI'
 FMTDAT='(8E13.5)'
 VOLUME=   1.00000E+00
 TRAMP=   1.00000E+00
 $END
 +9.58026E+01 +4.80367E-01 +8.65967E+01 +3.85422E+01 +6.21335E+01 +6.88330E+01 +2.73787E+01 +8.55157E+01
 -1.06565E+01 +8.55476E+01 -4.43652E+01 +6.92894E+01 -6.71114E+01 +4.04071E+01 -7.45861E+01 +5.09158E+00
 -6.56739E+01 -2.92409E+01 -4.26504E+01 -5.54924E+01 -1.06747E+01 -6.83489E+01 +2.33139E+01 -6.53630E+01
 +5.20600E+01 -4.74303E+01 +6.95099E+01 -1.85641E+01 +7.20633E+01 +1.49795E+01 +5.93017E+01 +4.60384E+01
 +3.40414E+01 +6.80596E+01 +1.70695E+00 +7.64729E+01 -3.08394E+01 +6.96356E+01 -5.67625E+01 +4.91528E+01
 -7.07018E+01 +1.95087E+01 -6.98971E+01 -1.29083E+01 -5.47565E+01 -4.11776E+01 -2.87485E+01 -5.93237E+01
 +2.35455E+00 -6.35849E+01 +3.17197E+01 -5.32068E+01 +5.29175E+01 -3.05921E+01 +6.12962E+01 -7.80406E-01
 +5.49754E+01 +2.96342E+01 +3.52480E+01 +5.39135E+01 +6.30732E+00 +6.66162E+01 -2.56426E+01 +6.47634E+01
 -5.37046E+01 +4.84811E+01 -7.17551E+01 +2.09855E+01 -7.57486E+01 -1.20880E+01 -6.45853E+01 -4.38687E+01
 -4.03576E+01 -6.76986E+01 -7.92231E+00 -7.85388E+01 +2.61098E+01 -7.40373E+01 +5.47567E+01 -5.50333E+01
 +7.21281E+01 -2.53919E+01 +7.46616E+01 +8.79751E+00 +6.18716E+01 +4.04900E+01 +3.64546E+01 +6.31549E+01
 +3.72846E+00 +7.21390E+01 -2.94773E+01 +6.56362E+01 -5.62459E+01 +4.50615E+01 -7.10146E+01 +1.47524E+01
 -7.07312E+01 -1.89409E+01 -5.54843E+01 -4.89835E+01 -2.84753E+01 -6.91234E+01 +4.65837E+00 -7.51920E+01
 +3.70276E+01 -6.59656E+01 +6.19334E+01 -4.34090E+01 +7.42632E+01 -1.22512E+01 +7.15504E+01 +2.10142E+01
 +5.44766E+01 +4.94933E+01 +2.67126E+01 +6.73352E+01 -5.86555E+00 +7.09492E+01 -3.64184E+01 +5.97437E+01
 -5.85809E+01 +3.62328E+01 -6.77947E+01 +5.49204E+00 -6.22538E+01 -2.59219E+01 -4.32689E+01 -5.13563E+01
 -1.49749E+01 -6.54618E+01 +1.65537E+01 -6.53115E+01 +4.45915E+01 -5.10050E+01 +6.31823E+01 -2.56342E+01
 +6.83918E+01 +5.38151E+00 +5.91295E+01 +3.54472E+01 +3.73683E+01 +5.81879E+01 +7.71854E+00 +6.87926E+01
 -2.35524E+01 +6.50245E+01 -4.98469E+01 +4.76856E+01 -6.56290E+01 +2.04400E+01 -6.75890E+01 -1.09662E+01
 -5.53355E+01 -3.99208E+01 -3.14709E+01 -6.03404E+01 -1.03639E+00 -6.79513E+01 +2.95563E+01 -6.11843E+01
 +5.38780E+01 -4.14990E+01 +6.68358E+01 -1.30685E+01 +6.57420E+01 +1.81062E+01 +5.08738E+01 +4.54649E+01
 +2.54065E+01 +6.32712E+01 -5.26275E+00 +6.78184E+01 -3.46585E+01 +5.82053E+01 -5.65942E+01 +3.65186E+01
 -6.64762E+01 +7.38541E+00 -6.22682E+01 -2.30088E+01 -4.49152E+01 -4.82282E+01 -1.81384E+01 -6.29458E+01
 +1.23560E+01 -6.40648E+01 +4.00836E+01 -5.13694E+01 +5.91523E+01 -2.75663E+01 +6.55050E+01 +2.28985E+00
 +5.77744E+01 +3.18650E+01 +3.75699E+01 +5.48833E+01 +9.13712E+00 +6.64503E+01 -2.15378E+01 +6.40853E+01
 -4.79898E+01 +4.82437E+01 -6.46365E+01 +2.22214E+01 -6.79535E+01 -8.53828E+00 -5.72164E+01 -3.75892E+01
 -3.46533E+01 -5.88371E+01 -4.97830E+00 -6.78200E+01 +2.55984E+01 -6.26448E+01 +5.06721E+01 -4.43847E+01
 +6.49863E+01 -1.68541E+01 +6.55327E+01 +1.41907E+01 +5.21795E+01 +4.22567E+01 +2.76972E+01 +6.14721E+01
 -2.82357E+00 +6.78114E+01 -3.30375E+01 +5.99336E+01 -5.66702E+01 +3.94560E+01 -6.88258E+01 +1.06104E+01
 -6.70021E+01 -2.06463E+01 -5.16030E+01 -4.78778E+01 -2.58426E+01 -6.55107E+01 +4.93782E+00 -6.99899E+01
 +3.43932E+01 -6.05075E+01 +5.65023E+01 -3.91541E+01 +6.68199E+01 -1.04639E+01 +6.33932E+01 +1.95490E+01
 +4.71502E+01 +4.46579E+01 +2.16821E+01 +5.97275E+01 -7.53026E+00 +6.17804E+01 -3.42828E+01 +5.06039E+01
 -5.29581E+01 +2.87716E+01 -5.97040E+01 +1.07849E+00 -5.32321E+01 -2.64882E+01 -3.50711E+01 -4.80237E+01
 -9.22382E+00 -5.89555E+01 +1.86982E+01 -5.70045E+01 +4.26751E+01 -4.26566E+01 +5.75614E+01 -1.90455E+01
 +6.01777E+01 +8.72508E+00 +4.99820E+01 +3.46754E+01 +2.91790E+01 +5.32267E+01 +2.24587E+00 +6.03910E+01
 -2.50245E+01 +5.46204E+01 -4.67588E+01 +3.71388E+01 -5.82560E+01 +1.16832E+01 -5.69918E+01 -1.62873E+01
 -4.31619E+01 -4.07500E+01 -1.96498E+01 -5.63978E+01 +8.57500E+00 -5.97700E+01 +3.55018E+01 -4.99945E+01
 +5.53464E+01 -2.89852E+01 +6.37745E+01 -1.05232E+00 +5.88231E+01 +2.79939E+01 +4.13262E+01 +5.20575E+01
 +1.47536E+01 +6.60344E+01 -1.55031E+01 +6.68858E+01 -4.32482E+01 +5.42807E+01 -6.27700E+01 +3.06748E+01
 -7.00295E+01 +8.06785E-01 -6.35014E+01 -2.92803E+01 -4.44911E+01 -5.34904E+01 -1.68645E+01 -6.69347E+01
 +1.37554E+01 -6.69402E+01 +4.11536E+01 -5.35953E+01 +5.98079E+01 -2.97211E+01 +6.60251E+01 -2.75689E-01
 +5.86918E+01 +2.86824E+01 +3.94864E+01 +5.12528E+01 +1.25092E+01 +6.29119E+01 -1.65870E+01 +6.14369E+01
 -4.17844E+01 +4.73440E+01 -5.79529E+01 +2.37531E+01 -6.19079E+01 -4.28960E+00 -5.30523E+01 -3.08850E+01
 -3.34719E+01 -5.05243E+01 -7.46684E+00 -5.92382E+01 +1.93771E+01 -5.54131E+01 +4.13797E+01 -4.01045E+01
 +5.39672E+01 -1.67845E+01 +5.46295E+01 +9.41881E+00 +4.34335E+01 +3.28262E+01 +2.29857E+01 +4.84218E+01
 -2.14323E+00 +5.29184E+01 -2.64096E+01 +4.54495E+01 -4.44896E+01 +2.77418E+01 -5.24212E+01 +3.73503E+00
 -4.84519E+01 -2.12700E+01 -3.34139E+01 -4.17525E+01 -1.05461E+01 -5.31581E+01 +1.51971E+01 -5.28803E+01
 +3.82041E+01 -4.08263E+01 +5.34069E+01 -1.94481E+01 +5.73690E+01 +6.76807E+00 +4.90300E+01 +3.22473E+01
 +2.99486E+01 +5.15064E+01 +3.99127E+00 +6.03199E+01 -2.34696E+01 +5.66255E+01 -4.66785E+01 +4.09765E+01
 -6.07061E+01 +1.64455E+01 -6.24905E+01 -1.20022E+01 -5.14907E+01 -3.85353E+01 -2.98148E+01 -5.76684E+01
 -1.79492E+00 -6.54052E+01 +2.69024E+01 -6.00753E+01 +5.04462E+01 -4.26868E+01 +6.40462E+01 -1.67239E+01
 +6.49425E+01 +1.25706E+01 +5.29730E+01 +3.92768E+01 +3.06028E+01 +5.80176E+01 +2.40853E+00 +6.50642E+01
 -2.58724E+01 +5.90951E+01 -4.85283E+01 +4.14553E+01 -6.10489E+01 +1.58608E+01 -6.10447E+01 -1.23854E+01
 -4.87205E+01 -3.75013E+01 -2.68069E+01 -5.44244E+01 +3.13829E-02 -5.98513E+01 +2.61853E+01 -5.29022E+01
 +4.62785E+01 -3.52739E+01 +5.62840E+01 -1.08540E+01 +5.43488E+01 +1.51191E+01 +4.11533E+01 +3.71720E+01
 +1.97369E+01 +5.07494E+01 -5.17319E+00 +5.31635E+01 -2.81816E+01 +4.41406E+01 -4.43778E+01 +2.58523E+01
 -5.03759E+01 +2.42801E+00 -4.50246E+01 -2.09436E+01 -2.96357E+01 -3.91337E+01 -7.68742E+00 -4.81729E+01
 +1.59327E+01 -4.60981E+01 +3.59840E+01 -3.33691E+01 +4.80009E+01 -1.27653E+01 +4.92544E+01 +1.12121E+01
 +3.93419E+01 +3.33063E+01 +2.02810E+01 +4.86329E+01 -3.91439E+00 +5.37300E+01 -2.80832E+01 +4.73079E+01
 -4.70143E+01 +3.05379E+01 -5.65580E+01 +6.81921E+00 -5.45165E+01 -1.89283E+01 -4.11251E+01 -4.12966E+01
 -1.90205E+01 -5.55300E+01 +7.29750E+00 -5.85334E+01 +3.23990E+01 -4.95349E+01 +5.10570E+01 -3.02634E+01
 +5.93420E+01 -4.60236E+00 +5.54486E+01 +2.22092E+01 +4.00812E+01 +4.46606E+01 +1.63169E+01 +5.81131E+01
 -1.10262E+01 +5.97636E+01 -3.63828E+01 +4.92273E+01 -5.45901E+01 +2.86183E+01 -6.19522E+01 +2.11125E+00
 -5.69992E+01 -2.49229E+01 -4.07827E+01 -4.70276E+01 -1.66477E+01 -5.97846E+01 +1.04692E+01 -6.07180E+01
 +3.50685E+01 -4.97911E+01 +5.22261E+01 -2.93946E+01 +5.86055E+01 -3.83065E+00 +5.31320E+01 +2.15957E+01
 +3.71916E+01 +4.16871E+01 +1.43150E+01 +5.24321E+01 -1.05825E+01 +5.18271E+01 -3.22439E+01 +4.02707E+01
 -4.61756E+01 +2.04520E+01 -4.95824E+01 -3.24160E+00 -4.19370E+01 -2.56672E+01 -2.50672E+01 -4.20212E+01
 -2.74465E+00 -4.88535E+01 +2.01335E+01 -4.47874E+01 +3.85958E+01 -3.07954E+01 +4.86573E+01 -9.97528E+00
 +4.81641E+01 +1.31241E+01 +3.72454E+01 +3.34825E+01 +1.82770E+01 +4.66846E+01 -4.63230E+00 +4.98632E+01
 -2.65236E+01 +4.23121E+01 -4.26497E+01 +2.56363E+01 -4.94916E+01 +3.41083E+00 -4.55135E+01 -1.95806E+01
 -3.14968E+01 -3.83644E+01 -1.03812E+01 -4.88382E+01 +1.33523E+01 -4.86483E+01 +3.46272E+01 -3.76993E+01
 +4.88461E+01 -1.81857E+01 +5.28671E+01 +5.85993E+00 +4.56757E+01 +2.94092E+01 +2.86107E+01 +4.74921E+01
 +5.09534E+00 +5.62423E+01 -2.00711E+01 +5.37142E+01 -4.17109E+01 +4.02978E+01 -5.53480E+01 +1.86465E+01
 -5.81428E+01 -6.86934E+00 -4.94857E+01 -3.10678E+01 -3.11269E+01 -4.90308E+01 -6.81287E+00 -5.71238E+01
 +1.84910E+01 -5.37483E+01 +3.96317E+01 -3.96689E+01 +5.23355E+01 -1.78480E+01 +5.40898E+01 +7.17586E+00
 +4.46552E+01 +3.02352E+01 +2.61024E+01 +4.66081E+01 +2.36860E+00 +5.29945E+01 -2.15727E+01 +4.81918E+01
 -4.07528E+01 +3.33289E+01 -5.12421E+01 +1.16136E+01 -5.09604E+01 -1.23535E+01 -4.00954E+01 -3.35504E+01
 -2.10440E+01 -4.75875E+01 +2.10846E+00 -5.16216E+01 +2.44601E+01 -4.49382E+01 +4.13291E+01 -2.90844E+01
 +4.92379E+01 -7.52402E+00 +4.66365E+01 +1.51080E+01 +3.42155E+01 +3.39932E+01 +1.47444E+01 +4.51507E+01
 -7.52847E+00 +4.62751E+01 -2.77861E+01 +3.72161E+01 -4.16686E+01 +2.00002E+01 -4.61984E+01 -1.60981E+00
 -4.04094E+01 -2.29205E+01 -2.55477E+01 -3.93097E+01 -4.80290E+00 -4.72097E+01 +1.73724E+01 -4.48665E+01
 +3.62099E+01 -3.27126E+01 +4.76392E+01 -1.32765E+01 +4.91530E+01 +9.35197E+00 +4.03421E+01 +3.03868E+01
 +2.29858E+01 +4.53585E+01 +6.80178E-01 +5.10605E+01 -2.19172E+01 +4.62300E+01 -4.00677E+01 +3.18182E+01
 -4.99502E+01 +1.07956E+01 -4.94663E+01 -1.24694E+01 -3.86847E+01 -3.31255E+01 -1.98302E+01 -4.68562E+01
 +3.18064E+00 -5.07848E+01 +2.55578E+01 -4.40783E+01 +4.26400E+01 -2.81219E+01 +5.08687E+01 -6.22978E+00
 +4.85312E+01 +1.70487E+01 +3.61160E+01 +3.68798E+01 +1.62076E+01 +4.91549E+01 -7.05712E+00 +5.13455E+01
 -2.88552E+01 +4.30271E+01 -4.46857E+01 +2.59610E+01 -5.13073E+01 +3.71979E+00 -4.74094E+01 -1.90655E+01
 -3.38773E+01 -3.76759E+01 -1.35969E+01 -4.82903E+01 +9.15807E+00 -4.87792E+01 +2.96270E+01 -3.91409E+01
 +4.35608E+01 -2.14899E+01 +4.81095E+01 +3.97499E-01 +4.24107E+01 +2.18845E+01 +2.77600E+01 +3.84514E+01
 +7.32624E+00 +4.66444E+01 -1.45246E+01 +4.47957E+01 -3.31549E+01 +3.33650E+01 -4.46329E+01 +1.48318E+01
 -4.65584E+01 -6.83658E+00 -3.85620E+01 -2.70286E+01 -2.23743E+01 -4.14640E+01 -1.45305E+00 -4.70964E+01
 +1.97532E+01 -4.27521E+01 +3.67481E+01 -2.93724E+01 +4.59371E+01 -9.80834E+00 +4.53848E+01 +1.17858E+01
 +3.52202E+01 +3.08334E+01 +1.76053E+01 +4.33029E+01 -3.72511E+00 +4.65586E+01 -2.42541E+01 +3.99143E+01
 -3.96373E+01 +2.47763E+01 -4.66192E+01 +4.34403E+00 -4.37187E+01 -1.70669E+01 -3.15397E+01 -3.49354E+01
