 Created: 16-Jan-2021
 $NMID
 ID='D:\BASISSIMULATI'
 FMTDAT='(8E13.5)'
 VOLUME=   1.00000E+00
 TRAMP=   1.00000E+00
 $END
 +5.89804E+01 +2.94089E-01 +5.06664E+01 +5.46778E+00 +2.93873E+01 +1.31382E+01 +3.69357E+00 +2.32157E+01
 -1.70741E+01 +3.22290E+01 -2.70917E+01 +3.52306E+01 -2.60458E+01 +2.91096E+01 -1.80151E+01 +1.50872E+01
 -8.34942E+00 -1.35369E+00 -7.14981E-01 -1.32014E+01 +3.94798E+00 -1.56778E+01 +6.32416E+00 -8.72977E+00
 +6.76732E+00 +3.21957E+00 +4.25643E+00 +1.39707E+01 -2.81607E+00 +1.89067E+01 -1.46241E+01 +1.69394E+01
 -2.83325E+01 +1.00599E+01 -3.84750E+01 +1.17309E+00 -3.94675E+01 -8.01623E+00 -2.88640E+01 -1.75113E+01
 -9.25591E+00 -2.76942E+01 +1.25766E+01 -3.73929E+01 +2.89546E+01 -4.31163E+01 +3.51462E+01 -4.04377E+01
 +3.14831E+01 -2.69039E+01 +2.25355E+01 -4.56832E+00 +1.39840E+01 +1.97789E+01 +9.24233E+00 +3.72752E+01
 +7.95177E+00 +4.12791E+01 +7.14525E+00 +3.08661E+01 +4.08075E+00 +1.14421E+01 -1.33572E+00 -7.95089E+00
 -6.26390E+00 -1.91115E+01 -6.98234E+00 -1.84139E+01 -1.83450E+00 -7.83067E+00 +7.02862E+00 +7.00648E+00
 +1.44210E+01 +2.02075E+01 +1.50321E+01 +2.83100E+01 +6.65075E+00 +3.08318E+01 -8.36201E+00 +2.88650E+01
 -2.42825E+01 +2.31896E+01 -3.51238E+01 +1.35248E+01 -3.76582E+01 -5.15071E-01 -3.25442E+01 -1.76402E+01
 -2.30758E+01 -3.39279E+01 -1.26559E+01 -4.38448E+01 -2.85088E+00 -4.29835E+01 +6.67916E+00 -3.08835E+01
 +1.65374E+01 -1.20039E+01 +2.56994E+01 +6.05846E+00 +3.10556E+01 +1.62793E+01 +2.90271E+01 +1.57304E+01
 +1.83175E+01 +6.83575E+00 +1.85926E+00 -4.35353E+00 -1.36619E+01 -1.17456E+01 -2.08238E+01 -1.24323E+01
 -1.54410E+01 -7.65395E+00 +8.61134E-01 -1.13540E+00 +2.11082E+01 +3.87357E+00 +3.63280E+01 +6.76461E+00
 +3.99190E+01 +9.51716E+00 +3.05960E+01 +1.45980E+01 +1.24009E+01 +2.24212E+01 -7.93417E+00 +3.02722E+01
 -2.44715E+01 +3.35740E+01 -3.43256E+01 +2.87328E+01 -3.76594E+01 +1.56776E+01 -3.59817E+01 -1.63857E+00
 -3.03491E+01 -1.71764E+01 -2.08937E+01 -2.59906E+01 -7.89891E+00 -2.66571E+01 +6.67291E+00 -2.14925E+01
 +1.87466E+01 -1.45940E+01 +2.35909E+01 -9.14825E+00 +1.85199E+01 -5.84429E+00 +5.09805E+00 -3.35019E+00
 -1.08187E+01 -2.96627E-01 -2.16066E+01 +2.87371E+00 -2.17011E+01 +3.72281E+00 -1.05276E+01 -4.02376E-01
 +7.22442E+00 -9.82778E+00 +2.41627E+01 -2.11529E+01 +3.40557E+01 -2.82722E+01 +3.47175E+01 -2.55147E+01
 +2.83293E+01 -1.11101E+01 +1.92759E+01 +1.11925E+01 +1.11088E+01 +3.35015E+01 +4.66820E+00 +4.75013E+01
 -1.54066E+00 +4.84319E+01 -9.22845E+00 +3.71051E+01 -1.81589E+01 +1.89578E+01 -2.56080E+01 +9.25126E-01
 -2.79135E+01 -1.18879E+01 -2.30661E+01 -1.78628E+01 -1.25065E+01 -1.82502E+01 -7.87846E-01 -1.51923E+01
 +6.80834E+00 -1.00444E+01 +7.22231E+00 -3.17530E+00 +1.25003E+00 +4.86107E+00 -7.15783E+00 +1.20335E+01
 -1.34120E+01 +1.48158E+01 -1.49255E+01 +9.88377E+00 -1.21767E+01 -3.41864E+00 -7.62915E+00 -2.15861E+01
 -3.43951E+00 -3.77647E+01 +2.97537E-01 -4.47839E+01 +5.44161E+00 -3.88214E+01 +1.38834E+01 -2.15514E+01
 +2.52189E+01 +5.70086E-01 +3.58315E+01 +1.95367E+01 +4.03082E+01 +2.96836E+01 +3.45283E+01 +3.00279E+01
 +1.85307E+01 +2.38602E+01 -2.74949E+00 +1.61106E+01 -2.15349E+01 +1.03164E+01 -3.09811E+01 +7.09118E+00
 -2.85220E+01 +4.84014E+00 -1.68881E+01 +1.90562E+00 -2.32980E+00 -1.58531E+00 +8.75931E+00 -3.57063E+00
 +1.27770E+01 -1.70057E+00 +9.83880E+00 +4.46126E+00 +2.54074E+00 +1.23735E+01 -6.22748E+00 +1.75186E+01
 -1.47801E+01 +1.59597E+01 -2.25459E+01 +6.81718E+00 -2.88130E+01 -6.98565E+00 -3.16526E+01 -2.02521E+01
 -2.82282E+01 -2.83648E+01 -1.65922E+01 -2.96461E+01 +2.19359E+00 -2.57650E+01 +2.32718E+01 -2.00542E+01
 +3.94940E+01 -1.50025E+01 +4.46963E+01 -1.06990E+01 +3.69523E+01 -5.29334E+00 +1.98289E+01 +2.91811E+00
 +7.67770E-01 +1.33533E+01 -1.25796E+01 +2.26201E+01 -1.60008E+01 +2.61866E+01 -1.03287E+01 +2.12889E+01
 -2.56643E-01 +9.17289E+00 +8.69902E+00 -4.92023E+00 +1.31247E+01 -1.42259E+01 +1.28277E+01 -1.40106E+01
 +9.76946E+00 -4.11489E+00 +5.89156E+00 +1.10066E+01 +1.53765E+00 +2.47056E+01 -4.41474E+00 +3.15134E+01
 -1.29345E+01 +2.94903E+01 -2.30826E+01 +2.03665E+01 -3.16046E+01 +7.76007E+00 -3.43945E+01 -5.08772E+00
 -2.89819E+01 -1.65233E+01 -1.63789E+01 -2.60587E+01 -9.52593E-01 -3.30247E+01 +1.17442E+01 -3.56866E+01
 +1.78900E+01 -3.18077E+01 +1.72452E+01 -2.04542E+01 +1.28059E+01 -3.72904E+00 +8.56688E+00 +1.30658E+01
 +6.92691E+00 +2.34161E+01 +7.45547E+00 +2.28482E+01 +7.77093E+00 +1.15693E+01 +5.81038E+00 -5.20547E+00
 +1.80812E+00 -1.96278E+01 -1.49870E+00 -2.50566E+01 -6.82673E-01 -1.92220E+01 +5.73009E+00 -4.97808E+00
 +1.56220E+01 +1.16278E+01 +2.38982E+01 +2.46664E+01 +2.51448E+01 +3.10117E+01 +1.67623E+01 +3.09742E+01
 +6.47341E-01 +2.68788E+01 -1.76248E+01 +2.08818E+01 -3.16157E+01 +1.36485E+01 -3.71386E+01 +4.71108E+00
 -3.38779E+01 -5.99215E+00 -2.47611E+01 -1.67870E+01 -1.37711E+01 -2.43777E+01 -3.77934E+00 -2.55522E+01
 +4.25092E+00 -1.93941E+01 +1.04572E+01 -8.41635E+00 +1.46275E+01 +2.34471E+00 +1.54858E+01 +7.90010E+00
 +1.14501E+01 +6.01608E+00 +2.38281E+00 -1.63194E+00 -9.06261E+00 -1.05910E+01 -1.77957E+01 -1.63193E+01
 -1.85531E+01 -1.67144E+01 -8.91389E+00 -1.29075E+01 +8.79098E+00 -7.92930E+00 +2.80285E+01 -4.27200E+00
 +4.09925E+01 -2.08419E+00 +4.23632E+01 +7.44799E-01 +3.18007E+01 +6.68533E+00 +1.38141E+01 +1.62097E+01
 -4.79548E+00 +2.66892E+01 -1.83268E+01 +3.34433E+01 -2.44569E+01 +3.23890E+01 -2.43104E+01 +2.26343E+01
 -2.06864E+01 +7.33683E+00 -1.58954E+01 -7.77037E+00 -1.06983E+01 -1.73092E+01 -4.86554E+00 -1.88770E+01
 +1.37396E+00 -1.38460E+01 +6.36461E+00 -6.03775E+00 +7.50258E+00 +6.93160E-01 +2.98093E+00 +4.35263E+00
 -6.42767E+00 +5.08569E+00 -1.69654E+01 +3.96585E+00 -2.34281E+01 +1.46401E+00 -2.18930E+01 -3.09131E+00
 -1.19933E+01 -1.05882E+01 +2.72483E+00 -2.04684E+01 +1.66588E+01 -2.97441E+01 +2.51191E+01 -3.37576E+01
 +2.66079E+01 -2.85580E+01 +2.30657E+01 -1.35409E+01 +1.80713E+01 +7.38899E+00 +1.42890E+01 +2.71052E+01
 +1.18871E+01 +3.84930E+01 +8.92637E+00 +3.78811E+01 +3.33987E+00 +2.67367E+01 -4.96729E+00 +1.06928E+01
 -1.34469E+01 -3.45388E+00 -1.82232E+01 -1.09949E+01 -1.65748E+01 -1.10205E+01 -8.93087E+00 -5.87050E+00
 +9.96085E-01 +9.63626E-01 +8.11193E+00 +6.93371E+00 +8.72764E+00 +1.12179E+01 +2.51469E+00 +1.39741E+01
 -7.52781E+00 +1.49805E+01 -1.69586E+01 +1.29672E+01 -2.23420E+01 +6.32795E+00 -2.27109E+01 -5.23981E+00
 -1.92729E+01 -1.94535E+01 -1.38365E+01 -3.17055E+01 -7.27460E+00 -3.70451E+01 +7.86541E-01 -3.28308E+01
 +1.08619E+01 -2.04087E+01 +2.20240E+01 -4.66483E+00 +3.12339E+01 +8.41002E+00 +3.43968E+01 +1.47452E+01
 +2.87193E+01 +1.40224E+01 +1.49037E+01 +9.28184E+00 -2.37859E+00 +4.67482E+00 -1.63180E+01 +2.87110E+00
 -2.12449E+01 +3.76741E+00 -1.55239E+01 +5.20448E+00 -2.38507E+00 +5.03333E+00 +1.17866E+01 +2.99278E+00
 +2.06913E+01 +1.04806E+00 +2.10217E+01 +1.94723E+00 +1.34935E+01 +7.01393E+00 +1.68431E+00 +1.47492E+01
 -1.03072E+01 +2.12887E+01 -1.98037E+01 +2.25145E+01 -2.60143E+01 +1.64986E+01 -2.91009E+01 +4.71621E+00
 -2.89048E+01 -8.73323E+00 -2.45292E+01 -1.93696E+01 -1.51936E+01 -2.45929E+01 -1.69226E+00 -2.45803E+01
 +1.28160E+01 -2.14113E+01 +2.36029E+01 -1.72159E+01 +2.65765E+01 -1.27463E+01 +2.06430E+01 -7.37097E+00
 +8.68796E+00 -3.94753E-01 -3.61763E+00 +7.41251E+00 -1.06353E+01 +1.34013E+01 -9.60678E+00 +1.42927E+01
 -1.87221E+00 +8.41631E+00 +8.20644E+00 -2.56747E+00 +1.58771E+01 -1.37885E+01 +1.85273E+01 -1.93428E+01
 +1.66131E+01 -1.53952E+01 +1.25963E+01 -2.40303E+00 +8.80098E+00 +1.48942E+01 +5.74466E+00 +2.97595E+01
 +2.07146E+00 +3.67109E+01 -3.95809E+00 +3.39128E+01 -1.25724E+01 +2.34780E+01 -2.16256E+01 +9.77182E+00
 -2.74806E+01 -3.03290E+00 -2.71289E+01 -1.26244E+01 -2.01548E+01 -1.86373E+01 -9.21580E+00 -2.15189E+01
 +1.32395E+00 -2.13335E+01 +7.75399E+00 -1.75517E+01 +8.87964E+00 -9.98691E+00 +6.25499E+00 -3.89452E-02
 +2.76091E+00 +8.95205E+00 +5.92902E-01 +1.28769E+01 +5.81472E-02 +9.07594E+00 -5.54967E-02 -1.75300E+00
 -9.30053E-01 -1.53100E+01 -2.23947E+00 -2.55149E+01 -1.95524E+00 -2.74978E+01 +2.27640E+00 -2.00660E+01
 +1.10707E+01 -6.20962E+00 +2.20395E+01 +8.62336E+00 +3.03919E+01 +1.94144E+01 +3.12767E+01 +2.39011E+01
 +2.25547E+01 +2.30606E+01 +6.30932E+00 +1.96876E+01 -1.18952E+01 +1.61976E+01 -2.56513E+01 +1.31752E+01
 -3.07433E+01 +9.55334E+00 -2.68836E+01 +4.11774E+00 -1.72953E+01 -2.89233E+00 -6.60564E+00 -9.34906E+00
 +1.53826E+00 -1.23665E+01 +5.73828E+00 -1.02534E+01 +6.49920E+00 -3.91803E+00 +4.89440E+00 +3.31876E+00
 +1.44822E+00 +7.48498E+00 -3.89259E+00 +6.20524E+00 -1.07852E+01 +2.63642E-03 -1.74689E+01 -8.16104E+00
 -2.07782E+01 -1.47603E+01 -1.75452E+01 -1.77320E+01 -6.67274E+00 -1.73338E+01 +9.50034E+00 -1.53585E+01
 +2.56445E+01 -1.33745E+01 +3.57191E+01 -1.13331E+01 +3.59155E+01 -7.60121E+00 +2.65825E+01 -4.46947E-01
 +1.19893E+01 +1.00762E+01 -1.93992E+00 +2.12632E+01 -1.05900E+01 +2.87080E+01 -1.26169E+01 +2.86546E+01
 -9.90250E+00 +2.03401E+01 -5.77132E+00 +6.82064E+00 -2.77409E+00 -6.33694E+00 -1.47233E+00 -1.38064E+01
 -8.52559E-01 -1.31146E+01 +1.65929E-01 -5.63958E+00 +1.38739E+00 +4.46702E+00 +1.22241E+00 +1.26402E+01
 -2.08747E+00 +1.60644E+01 -8.80675E+00 +1.44479E+01 -1.68786E+01 +9.23811E+00 -2.26656E+01 +2.12803E+00
 -2.29070E+01 -5.94410E+00 -1.66663E+01 -1.46368E+01 -5.98851E+00 -2.32058E+01 +5.19671E+00 -2.96891E+01
 +1.32430E+01 -3.12127E+01 +1.66489E+01 -2.55064E+01 +1.64573E+01 -1.27304E+01 +1.50308E+01 +3.71149E+00
 +1.41305E+01 +1.81895E+01 +1.36664E+01 +2.53753E+01 +1.19903E+01 +2.29255E+01 +7.49674E+00 +1.27464E+01
 +3.51101E-01 +4.36308E-02 -6.96640E+00 -9.33352E+00 -1.08320E+01 -1.17406E+01 -8.71096E+00 -7.19319E+00
 -1.01867E+00 +1.25473E+00 +8.66616E+00 +9.62078E+00 +1.52963E+01 +1.51713E+01 +1.50111E+01 +1.73662E+01
 +7.18546E+00 +1.72132E+01 -5.31404E+00 +1.57641E+01 -1.77412E+01 +1.29976E+01 -2.58997E+01 +7.93677E+00
 -2.79342E+01 -1.33636E-01 -2.45572E+01 -1.03452E+01 -1.78652E+01 -1.99438E+01 -9.77596E+00 -2.54265E+01
 -1.21890E+00 -2.44973E+01 +7.48378E+00 -1.75708E+01 +1.55756E+01 -7.76953E+00 +2.12229E+01 +6.87095E-01
