 Created: 16-Jan-2021
 $NMID
 ID='D:\BASISSIMULATI'
 FMTDAT='(8E13.5)'
 VOLUME=   1.00000E+00
 TRAMP=   1.00000E+00
 $END
 +2.17168E+01 +1.09805E-01 +1.99847E+01 +7.14221E+00 +1.58574E+01 +1.28606E+01 +1.01170E+01 +1.64579E+01
 +3.79355E+00 +1.75457E+01 -2.04329E+00 +1.62124E+01 -6.49417E+00 +1.29841E+01 -8.99809E+00 +8.69801E+00
 -9.42545E+00 +4.31799E+00 -8.07912E+00 +7.30754E-01 -5.60598E+00 -1.43346E+00 -2.84012E+00 -1.91977E+00
 -6.12628E-01 -8.83879E-01 +4.31359E-01 +1.16120E+00 -3.01952E-02 +3.47330E+00 -1.93251E+00 +5.25496E+00
 -4.84540E+00 +5.83513E+00 -8.07334E+00 +4.81989E+00 -1.08112E+01 +2.18106E+00 -1.23216E+01 -1.73497E+00
 -1.20963E+01 -6.27850E+00 -9.96722E+00 -1.06315E+01 -6.14551E+00 -1.39767E+01 -1.18126E+00 -1.56655E+01
 +4.14632E+00 -1.53485E+01 +8.98398E+00 -1.30445E+01 +1.25721E+01 -9.13198E+00 +1.43899E+01 -4.26999E+00
 +1.42493E+01 +7.36442E-01 +1.23197E+01 +5.09573E+00 +9.07981E+00 +8.18124E+00 +5.21030E+00 +9.64412E+00
 +1.44944E+00 +9.46563E+00 -1.55594E+00 +7.94046E+00 -3.37401E+00 +5.59716E+00 -3.86145E+00 +3.07446E+00
 -3.17358E+00 +9.80928E-01 -1.71163E+00 -2.32083E-01 -2.07386E-02 -3.58310E-01 +1.33793E+00 +5.31720E-01
 +1.91301E+00 +2.11959E+00 +1.46017E+00 +3.92008E+00 -8.88685E-03 +5.39538E+00 -2.23420E+00 +6.07698E+00
 -4.76869E+00 +5.66920E+00 -7.07792E+00 +4.11284E+00 -8.65609E+00 +1.59697E+00 -9.13339E+00 -1.48227E+00
 -8.35233E+00 -4.60536E+00 -6.39801E+00 -7.23690E+00 -3.57753E+00 -8.93350E+00 -3.54501E-01 -9.42987E+00
 +2.74615E+00 -8.68581E+00 +5.24242E+00 -6.88603E+00 +6.78649E+00 -4.39459E+00 +7.22503E+00 -1.67537E+00
 +6.61721E+00 +8.03622E-01 +5.20911E+00 +2.66158E+00 +3.37169E+00 +3.67334E+00 +1.51726E+00 +3.80188E+00
 +1.28410E-02 +3.19026E+00 -8.91264E-01 +2.11692E+00 -1.10379E+00 +9.25820E-01 -6.98407E-01 -5.23814E-02
 +1.15710E-01 -5.70889E-01 +1.05040E+00 -5.14655E-01 +1.80832E+00 +8.33111E-02 +2.15028E+00 +1.05878E+00
 +1.94589E+00 +2.16070E+00 +1.19742E+00 +3.11194E+00 +3.34180E-02 +3.67236E+00 -1.32484E+00 +3.69029E+00
 -2.61527E+00 +3.13214E+00 -3.59284E+00 +2.08487E+00 -4.08072E+00 +7.32415E-01 -4.00381E+00 -6.87245E-01
 -3.39883E+00 -1.93394E+00 -2.39996E+00 -2.81434E+00 -1.20501E+00 -3.21776E+00 -3.06592E-02 -3.13200E+00
 +9.32780E-01 -2.63711E+00 +1.55716E+00 -1.88034E+00 +1.79589E+00 -1.03900E+00 +1.68399E+00 -2.80607E-01
 +1.32059E+00 +2.70837E-01 +8.39235E-01 +5.55340E-01 +3.74030E-01 +5.80881E-01 +2.95812E-02 +4.11546E-01
 -1.38515E-01 +1.44143E-01 -1.29191E-01 -1.19992E-01 +1.25224E-02 -3.00741E-01 +2.14367E-01 -3.56405E-01
 +4.00422E-01 -2.88910E-01 +5.12850E-01 -1.36796E-01 +5.26272E-01 +4.10588E-02 +4.51508E-01 +1.85843E-01
 +3.28438E-01 +2.57434E-01 +2.10641E-01 +2.46116E-01 +1.46608E-01 +1.74397E-01 +1.63093E-01 +8.87192E-02
 +2.55419E-01 +4.37046E-02 +3.87566E-01 +8.35932E-02 +5.02113E-01 +2.26324E-01 +5.37345E-01 +4.54995E-01
 +4.46761E-01 +7.19458E-01 +2.15465E-01 +9.48043E-01 -1.31429E-01 +1.06660E+00 -5.31241E-01 +1.01993E+00
 -8.97032E-01 +7.89728E-01 -1.13889E+00 +4.03972E-01 -1.18795E+00 -6.55442E-02 -1.01697E+00 -5.17639E-01
 -6.51757E-01 -8.45273E-01 -1.69668E-01 -9.62703E-01 +3.15220E-01 -8.29535E-01 +6.77677E-01 -4.65302E-01
 +8.11879E-01 +4.98395E-02 +6.59740E-01 +5.89499E-01 +2.29809E-01 +1.00810E+00 -3.98563E-01 +1.17490E+00
 -1.08789E+00 +1.00720E+00 -1.67022E+00 +4.94712E-01 -1.98420E+00 -2.91297E-01 -1.91354E+00 -1.20740E+00
 -1.41780E+00 -2.06488E+00 -5.47981E-01 -2.66899E+00 +5.57695E-01 -2.86237E+00 +1.69806E+00 -2.56284E+00
 +2.64891E+00 -1.78670E+00 +3.21042E+00 -6.51500E-01 +3.25185E+00 +6.43513E-01 +2.74328E+00 +1.85593E+00
 +1.76685E+00 +2.75005E+00 +5.03963E-01 +3.14755E+00 -7.99682E-01 +2.96776E+00 -1.88439E+00 +2.24823E+00
 -2.53169E+00 +1.14032E+00 -2.61243E+00 -1.20098E-01 -2.11701E+00 -1.26130E+00 -1.16053E+00 -2.03372E+00
 +3.92417E-02 -2.26478E+00 +1.20678E+00 -1.89862E+00 +2.06781E+00 -1.01141E+00 +2.40965E+00 +2.01821E-01
 +2.12990E+00 +1.46670E+00 +1.26234E+00 +2.48756E+00 -2.61454E-02 +3.01188E+00 -1.46777E+00 +2.88722E+00
 -2.74910E+00 +2.09800E+00 -3.57781E+00 +7.73649E-01 -3.74693E+00 -8.34465E-01 -3.18238E+00 -2.40323E+00
 -1.96331E+00 -3.60481E+00 -3.10016E-01 -4.17659E+00 +1.45876E+00 -3.97901E+00 +2.99056E+00 -3.02848E+00
 +3.97282E+00 -1.49795E+00 +4.19949E+00 +3.15837E-01 +3.61658E+00 +2.05213E+00 +2.33632E+00 +3.36055E+00
 +6.16359E-01 +3.97471E+00 -1.19204E+00 +3.76924E+00 -2.71648E+00 +2.78785E+00 -3.64125E+00 +1.23614E+00
 -3.77430E+00 -5.60032E-01 -3.08871E+00 -2.22200E+00 -1.72975E+00 -3.39767E+00 +1.44829E-02 -3.83608E+00
 +1.77297E+00 -3.44121E+00 +3.16977E+00 -2.29346E+00 +3.90381E+00 -6.33820E-01 +3.81339E+00 +1.18622E+00
 +2.91158E+00 +2.77860E+00 +1.38480E+00 +3.80110E+00 -4.45548E-01 +4.03060E+00 -2.19049E+00 +3.41165E+00
 -3.47586E+00 +2.06976E+00 -4.02218E+00 +2.86252E-01 -3.70517E+00 -1.56019E+00 -2.58370E+00 -3.07326E+00
 -8.89178E-01 -3.92314E+00 +1.02186E+00 -3.91728E+00 +2.74201E+00 -3.04271E+00 +3.89874E+00 -1.47065E+00
 +4.23334E+00 +4.77661E-01 +3.65663E+00 +2.39715E+00 +2.26926E+00 +3.88312E+00 +3.42302E-01 +4.61602E+00
 -1.73801E+00 +4.42874E+00 -3.54993E+00 +3.34243E+00 -4.72358E+00 +1.56292E+00 -5.01770E+00 -5.61235E-01
 -4.36964E+00 -2.61072E+00 -2.90818E+00 -4.18204E+00 -9.26398E-01 -4.97081E+00 +1.17967E+00 -4.83404E+00
 +2.99359E+00 -3.81867E+00 +4.16497E+00 -2.15023E+00 +4.48160E+00 -1.84178E-01 +3.91227E+00 +1.66956E+00
 +2.61123E+00 +3.03314E+00 +8.83605E-01 +3.63988E+00 -8.80704E-01 +3.38951E+00 -2.29071E+00 +2.36780E+00
 -3.03772E+00 +8.26739E-01 -2.96089E+00 -8.70383E-01 -2.08117E+00 -2.32739E+00 -5.96447E-01 -3.20029E+00
 +1.16068E+00 -3.27119E+00 +2.79381E+00 -2.49526E+00 +3.92699E+00 -1.01121E+00 +4.28473E+00 +8.87163E-01
 +3.75083E+00 +2.81192E+00 +2.39380E+00 +4.36184E+00 +4.53607E-01 +5.20586E+00 -1.70726E+00 +5.15196E+00
 -3.67810E+00 +4.18678E+00 -5.08391E+00 +2.47825E+00 -5.66153E+00 +3.40653E-01 -5.31205E+00 -1.83015E+00
 -4.11892E+00 -3.63769E+00 -2.32834E+00 -4.76502E+00 -2.96332E-01 -5.03730E+00 +1.58588E+00 -4.45415E+00
 +2.97257E+00 -3.18540E+00 +3.63320E+00 -1.53160E+00 +3.49681E+00 +1.41839E-01 +2.66227E+00 +1.48273E+00
 +1.37258E+00 +2.22588E+00 -4.04985E-02 +2.24709E+00 -1.22971E+00 +1.58636E+00 -1.90747E+00 +4.35866E-01
 -1.90725E+00 -9.04198E-01 -1.21831E+00 -2.09222E+00 +1.31794E-02 -2.81975E+00 +1.51635E+00 -2.87830E+00
 +2.95417E+00 -2.20436E+00 +3.99548E+00 -8.93309E-01 +4.38533E+00 +8.20224E-01 +3.99888E+00 +2.61112E+00
 +2.86775E+00 +4.13110E+00 +1.17361E+00 +5.08038E+00 -7.89145E-01 +5.26856E+00 -2.67351E+00 +4.65238E+00
 -4.14996E+00 +3.34277E+00 -4.97180E+00 +1.58030E+00 -5.02239E+00 -3.15307E-01 -4.33488E+00 -2.01075E+00
 -3.08083E+00 -3.22578E+00 -1.53101E+00 -3.78719E+00 +3.03459E-03 -3.65932E+00 +1.23386E+00 -2.94527E+00
 +1.95593E+00 -1.85943E+00 +2.08437E+00 -6.77897E-01 +1.66731E+00 +3.22409E-01 +8.69704E-01 +9.22656E-01
 -6.68827E-02 +1.00687E+00 -8.79596E-01 +5.83456E-01 -1.34255E+00 -2.20413E-01 -1.31565E+00 -1.18967E+00
 -7.73904E-01 -2.07029E+00 +1.88487E-01 -2.62557E+00 +1.37960E+00 -2.68756E+00 +2.55164E+00 -2.19311E+00
 +3.45393E+00 -1.19703E+00 +3.88572E+00 +1.39702E-01 +3.73759E+00 +1.58372E+00 +3.01331E+00 +2.87755E+00
 +1.82781E+00 +3.79186E+00 +3.82481E-01 +4.17085E+00 -1.07658E+00 +3.96144E+00 -2.30821E+00 +3.22090E+00
 -3.12325E+00 +2.10173E+00 -3.41939E+00 +8.17907E-01 -3.19709E+00 -4.00031E-01 -2.55395E+00 -1.35129E+00
 -1.65956E+00 -1.90299E+00 -7.16899E-01 -2.01251E+00 +8.12093E-02 -1.73019E+00 +5.91250E-01 -1.18260E+00
 +7.45774E-01 -5.40744E-01 +5.62742E-01 +1.93457E-02 +1.36274E-01 +3.55057E-01 -3.88395E-01 +3.86574E-01
 -8.49725E-01 +1.11352E-01 -1.10661E+00 -3.98717E-01 -1.06912E+00 -1.01610E+00 -7.16997E-01 -1.58768E+00
 -1.02372E-01 -1.96921E+00 +6.63120E-01 -2.05662E+00 +1.43353E+00 -1.80765E+00 +2.06018E+00 -1.24963E+00
 +2.42275E+00 -4.72258E-01 +2.45327E+00 +3.92372E-01 +2.14825E+00 +1.19779E+00 +1.56703E+00 +1.81295E+00
 +8.17258E-01 +2.14748E+00 +3.12572E-02 +2.16734E+00 -6.61367E-01 +1.89805E+00 -1.15887E+00 +1.41568E+00
 -1.40517E+00 +8.28036E-01 -1.39707E+00 +2.50693E-01 -1.17999E+00 -2.16695E-01 -8.34035E-01 -5.08937E-01
 -4.53988E-01 -6.05061E-01 -1.27926E-01 -5.27880E-01 +8.07512E-02 -3.34270E-01 +1.44320E-01 -9.89764E-02
 +7.28974E-02 +1.03960E-01 -9.19837E-02 +2.17890E-01 -2.90241E-01 +2.14784E-01 -4.59145E-01 +9.89450E-02
 -5.48401E-01 -9.70302E-02 -5.31033E-01 -3.22475E-01 -4.07913E-01 -5.22218E-01 -2.05386E-01 -6.50076E-01
 +3.29069E-02 -6.79126E-01 +2.57624E-01 -6.06604E-01 +4.25738E-01 -4.52683E-01 +5.10062E-01 -2.53902E-01
 +5.04212E-01 -5.32370E-02 +4.22145E-01 +1.10516E-01 +2.92830E-01 +2.11414E-01 +1.51733E-01 +2.41089E-01
 +3.15098E-02 +2.08680E-01 -4.56757E-02 +1.36339E-01 -7.23594E-02 +5.18409E-02 -5.56577E-02 -1.95632E-02
 -1.31653E-02 -6.17964E-02 +3.37473E-02 -7.13869E-02 +6.72095E-02 -5.68939E-02 +7.85822E-02 -3.46669E-02
 +7.10111E-02 -2.22915E-02 +5.80775E-02 -3.17011E-02 +5.89269E-02 -6.40296E-02 +9.12595E-02 -1.07808E-01
 +1.64202E-01 -1.41194E-01 +2.73185E-01 -1.37824E-01 +3.98486E-01 -7.48106E-02 +5.08157E-01 +5.92180E-02
 +5.64920E-01 +2.58319E-01 +5.35493E-01 +4.97475E-01 +4.00080E-01 +7.35738E-01 +1.59538E-01 +9.23895E-01
 -1.61811E-01 +1.01512E+00 -5.18823E-01 +9.76185E-01 -8.53425E-01 +7.96482E-01 -1.10623E+00 +4.92560E-01
 -1.22936E+00 +1.06696E-01 -1.19755E+00 -3.00501E-01 -1.01474E+00 -6.62102E-01 -7.14487E-01 -9.18938E-01
 -3.53633E-01 -1.03258E+00 -5.44019E-04 -9.94187E-01 +2.79772E-01 -8.26942E-01 +4.40253E-01 -5.81326E-01
 +4.62747E-01 -3.23956E-01 +3.62680E-01 -1.22336E-01 +1.86086E-01 -2.88968E-02 -5.95887E-04 -6.79505E-02
 -1.25914E-01 -2.28704E-01 -1.30633E-01 -4.66186E-01 +1.70662E-02 -7.10205E-01 +3.12002E-01 -8.80638E-01
 +7.10436E-01 -9.05829E-01 +1.13727E+00 -7.40079E-01 +1.50078E+00 -3.76228E-01 +1.71180E+00 +1.49696E-01
 +1.70353E+00 +7.63125E-01 +1.44729E+00 +1.36426E+00 +9.60915E-01 +1.84744E+00 +3.07511E-01 +2.12259E+00
 -4.15409E-01 +2.13418E+00 -1.09433E+00 +1.87347E+00 -1.62198E+00 +1.38136E+00 -1.91867E+00 +7.40961E-01
