 Created: 16-Jan-2021
 $NMID
 ID='D:\BASISSIMULATI'
 FMTDAT='(8E13.5)'
 VOLUME=   1.00000E+00
 TRAMP=   1.00000E+00
 $END
 +3.13183E+01 +1.55843E-01 +2.85649E+01 +1.30206E+01 +2.07383E+01 +2.36261E+01 +9.22498E+00 +3.00683E+01
 -3.92025E+00 +3.11916E+01 -1.63483E+01 +2.68005E+01 -2.58437E+01 +1.76937E+01 -3.07275E+01 +5.51637E+00
 -3.01597E+01 -7.54312E+00 -2.42863E+01 -1.91538E+01 -1.42052E+01 -2.72660E+01 -1.75707E+00 -3.04805E+01
 +1.08159E+01 -2.82939E+01 +2.12820E+01 -2.11783E+01 +2.78230E+01 -1.04804E+01 +2.93560E+01 +1.83624E+00
 +2.57156E+01 +1.35576E+01 +1.76645E+01 +2.26246E+01 +6.73544E+00 +2.75006E+01 -5.06415E+00 +2.74368E+01
 -1.56264E+01 +2.25865E+01 -2.31258E+01 +1.39521E+01 -2.63403E+01 +3.17984E+00 -2.48521E+01 -7.75773E+00
 -1.90962E+01 -1.69280E+01 -1.02518E+01 -2.27851E+01 -2.16502E-03 -2.44342E+01 +9.78908E+00 -2.17669E+01
 +1.74209E+01 -1.54485E+01 +2.16549E+01 -6.76392E+00 +2.19171E+01 +2.64192E+00 +1.83701E+01 +1.10785E+01
 +1.18468E+01 +1.71170E+01 +3.66466E+00 +1.98350E+01 -4.63899E+00 +1.89553E+01 -1.15978E+01 +1.48597E+01
 -1.60780E+01 +8.48014E+00 -1.74634E+01 +1.09542E+00 -1.57340E+01 -5.92354E+00 -1.14295E+01 -1.13698E+01
 -5.51103E+00 -1.44090E+01 +8.45116E-01 -1.47050E+01 +6.47999E+00 -1.24432E+01 +1.04639E+01 -8.25541E+00
 +1.22491E+01 -3.06581E+00 +1.17389E+01 +2.10536E+00 +9.26488E+00 +6.34083E+00 +5.48514E+00 +8.98863E+00
 +1.22826E+00 +9.75947E+00 -2.68142E+00 +8.74510E+00 -5.58145E+00 +6.36078E+00 -7.08196E+00 +3.22953E+00
 -7.11119E+00 +3.65220E-02 -5.89239E+00 -2.61429E+00 -3.86291E+00 -4.31215E+00 -1.55752E+00 -4.89959E+00
 +5.16345E-01 -4.47279E+00 +1.98392E+00 -3.32737E+00 +2.66811E+00 -1.86647E+00 +2.60324E+00 -4.94433E-01
 +1.99888E+00 +4.78667E-01 +1.16610E+00 +9.00904E-01 +4.26000E-01 +7.98291E-01 +2.34479E-02 +3.48929E-01
 +6.62980E-02 -1.79483E-01 +5.03526E-01 -5.11654E-01 +1.14600E+00 -4.45237E-01 +1.72336E+00 +9.00358E-02
 +1.96210E+00 +1.00889E+00 +1.66511E+00 +2.08827E+00 +7.72911E-01 +3.02183E+00 -6.08827E-01 +3.49822E+00
 -2.22291E+00 +3.28412E+00 -3.71310E+00 +2.29212E+00 -4.70408E+00 +6.16589E-01 -4.89096E+00 -1.47223E+00
 -4.11772E+00 -3.57596E+00 -2.42612E+00 -5.24862E+00 -6.25815E-02 -6.09285E+00 +2.56004E+00 -5.85101E+00
 +4.93951E+00 -4.47088E+00 +6.58463E+00 -2.13051E+00 +7.11849E+00 +7.84663E-01 +6.36261E+00 +3.74935E+00
 +4.38359E+00 +6.19795E+00 +1.49140E+00 +7.63646E+00 -1.81189E+00 +7.74396E+00 -4.92381E+00 +6.44274E+00
 -7.25596E+00 +3.92194E+00 -8.34894E+00 +6.09034E-01 -7.96457E+00 -2.90634E+00 -6.13679E+00 -5.98177E+00
 -3.17066E+00 -8.04372E+00 +4.11139E-01 -8.69767E+00 +3.96421E+00 -7.80510E+00 +6.84255E+00 -5.51225E+00
 +8.51972E+00 -2.22474E+00 +8.68777E+00 +1.46707E+00 +7.31494E+00 +4.89776E+00 +4.65121E+00 +7.45049E+00
 +1.18102E+00 +8.67099E+00 -2.46771E+00 +8.35040E+00 -5.64046E+00 +6.56155E+00 -7.77663E+00 +3.64238E+00
 -8.51098E+00 +1.30370E-01 -7.73733E+00 -3.33896E+00 -5.62309E+00 -6.14981E+00 -2.57321E+00 -7.81790E+00
 +8.48915E-01 -8.07544E+00 +4.02762E+00 -6.91438E+00 +6.40794E+00 -4.58080E+00 +7.59425E+00 -1.52298E+00
 +7.41668E+00 +1.69589E+00 +5.95429E+00 +4.50311E+00 +3.51199E+00 +6.41989E+00 +5.57364E-01 +7.14401E+00
 -2.36974E+00 +6.59714E+00 -4.75697E+00 +4.92971E+00 -6.21007E+00 +2.48409E+00 -6.51812E+00 -2.75226E-01
 -5.68265E+00 -2.85033E+00 -3.90711E+00 -4.80040E+00 -1.55036E+00 -5.81737E+00 +9.45204E-01 -5.77391E+00
 +3.13689E+00 -4.73630E+00 +4.66031E+00 -2.94195E+00 +5.28957E+00 -7.47492E-01 +4.96912E+00 +1.44145E+00
 +3.81330E+00 +3.24495E+00 +2.07560E+00 +4.37440E+00 +9.50240E-02 +4.67758E+00 -1.76920E+00 +4.15663E+00
 -3.20221E+00 +2.95738E+00 -3.98587E+00 +1.33395E+00 -4.03028E+00 -4.03433E-01 -3.38046E+00 -1.94671E+00
 -2.19876E+00 -3.04379E+00 -7.27830E-01 -3.53841E+00 +7.57628E-01 -3.39029E+00 +2.00112E+00 -2.67327E+00
 +2.80747E+00 -1.55380E+00 +3.07190E+00 -2.54833E-01 +2.79102E+00 +9.87159E-01 +2.05533E+00 +1.96402E+00
 +1.02613E+00 +2.52948E+00 -9.78574E-02 +2.61920E+00 -1.11754E+00 +2.25520E+00 -1.86744E+00 +1.53498E+00
 -2.24108E+00 +6.08822E-01 -2.20420E+00 -3.49988E-01 -1.79466E+00 -1.17632E+00 -1.11025E+00 -1.74031E+00
 -2.87389E-01 -1.96630E+00 +5.24653E-01 -1.84113E+00 +1.18966E+00 -1.41144E+00 +1.60600E+00 -7.71282E-01
 +1.72083E+00 -4.30084E-02 +1.53512E+00 +6.44964E-01 +1.09964E+00 +1.17964E+00 +5.03219E-01 +1.48083E+00
 -1.44315E-01 +1.51204E+00 -7.31319E-01 +1.28355E+00 -1.16256E+00 +8.47945E-01 -1.37367E+00 +2.89114E-01
 -1.33992E+00 -2.93012E-01 -1.07818E+00 -7.99443E-01 -6.42278E-01 -1.14811E+00 -1.12619E-01 -1.28645E+00
 +4.17866E-01 -1.19878E+00 +8.59332E-01 -9.07522E-01 +1.13960E+00 -4.68364E-01 +1.21552E+00 +3.98555E-02
 +1.07934E+00 +5.28716E-01 +7.59230E-01 +9.15079E-01 +3.13916E-01 +1.13485E+00 -1.77677E-01 +1.15339E+00
 -6.30008E-01 +9.70979E-01 -9.65508E-01 +6.22309E-01 -1.12773E+00 +1.70231E-01 -1.09085E+00 -3.05296E-01
 -8.63864E-01 -7.21141E-01 -4.88789E-01 -1.00545E+00 -3.30839E-02 -1.11012E+00 +4.22347E-01 -1.01903E+00
 +7.97514E-01 -7.50724E-01 +1.02749E+00 -3.54797E-01 +1.07384E+00 +9.71388E-02 +9.31240E-01 +5.24463E-01
 +6.28063E-01 +8.52085E-01 +2.20902E-01 +1.02389E+00 -2.16046E-01 +1.01261E+00 -6.04681E-01 +8.24305E-01
 -8.77255E-01 +4.96711E-01 -9.88508E-01 +9.17091E-02 -9.23442E-01 -3.16489E-01 -6.99320E-01 -6.55246E-01
 -3.61614E-01 -8.66791E-01 +2.52196E-02 -9.18408E-01 +3.90274E-01 -8.07640E-01 +6.69548E-01 -5.61635E-01
 +8.17547E-01 -2.30924E-01 +8.14943E-01 +1.20994E-01 +6.70943E-01 +4.30121E-01 +4.20108E-01 +6.43959E-01
 +1.14461E-01 +7.30734E-01 -1.87353E-01 +6.84154E-01 -4.31585E-01 +5.22966E-01 -5.79256E-01 +2.85679E-01
 -6.12507E-01 +2.17692E-02 -5.36372E-01 -2.18675E-01 -3.75885E-01 -3.94658E-01 -1.69439E-01 -4.81427E-01
 +3.99858E-02 -4.73762E-01 +2.13754E-01 -3.85030E-01 +3.24785E-01 -2.42534E-01 +3.61670E-01 -8.04460E-02
 +3.29092E-01 +6.79633E-02 +2.44805E-01 +1.77046E-01 +1.34152E-01 +2.33090E-01 +2.36023E-02 +2.35516E-01
 -6.51345E-02 +1.94999E-01 -1.19138E-01 +1.29308E-01 -1.35705E-01 +5.80793E-02 -1.21141E-01 -2.08588E-03
 -8.75440E-02 -4.10377E-02 -4.86188E-02 -5.63235E-02 -1.57629E-02 -5.22092E-02 +4.56809E-03 -3.70180E-02
 +1.16199E-02 -1.97445E-02 +9.22103E-03 -7.02547E-03 +3.33490E-03 -1.36773E-03 -8.00655E-04 -1.09288E-03
 -9.37529E-04 -1.90000E-03 +1.30406E-03 +5.77978E-04 +1.26994E-03 +8.18056E-03 -6.42907E-03 +1.85844E-02
 -2.49230E-02 +2.53478E-02 -5.24696E-02 +1.98322E-02 -8.12857E-02 -5.42827E-03 -9.85334E-02 -5.28931E-02
 -8.95553E-02 -1.17004E-01 -4.27252E-02 -1.83229E-01 +4.53447E-02 -2.29941E-01 +1.65844E-01 -2.33181E-01
 +2.96571E-01 -1.73465E-01 +4.04486E-01 -4.30557E-02 +4.52102E-01 +1.48346E-01 +4.06712E-01 +3.71427E-01
 +2.50514E-01 +5.79968E-01 -1.09193E-02 +7.18688E-01 -3.44401E-01 +7.35196E-01 -6.91014E-01 +5.93753E-01
 -9.74817E-01 +2.87707E-01 -1.11744E+00 -1.52730E-01 -1.05603E+00 -6.60097E-01 -7.60897E-01 -1.13804E+00
 -2.48446E-01 -1.47787E+00 +4.14168E-01 -1.58087E+00 +1.11519E+00 -1.38187E+00 +1.71538E+00 -8.69250E-01
 +2.07386E+00 -9.60119E-02 +2.07820E+00 +8.21621E-01 +1.67258E+00 +1.71956E+00 +8.77764E-01 +2.41363E+00
 -2.02640E-01 +2.73542E+00 -1.39265E+00 +2.56942E+00 -2.47091E+00 +1.88374E+00 -3.21044E+00 +7.47069E-01
 -3.42429E+00 -6.73146E-01 -3.00807E+00 -2.13316E+00 -1.97039E+00 -3.35349E+00 -4.43431E-01 -4.07107E+00
 +1.33041E+00 -4.09354E+00 +3.03544E+00 -3.34471E+00 +4.33790E+00 -1.89110E+00 +4.95003E+00 +5.75147E-02
 +4.69084E+00 +2.17602E+00 +3.53106E+00 +4.07728E+00 +1.61200E+00 +5.38215E+00 -7.67598E-01 +5.79391E+00
 -3.19666E+00 +5.16232E+00 -5.22231E+00 +3.52420E+00 -6.43392E+00 +1.11050E+00 -6.54502E+00 -1.68380E+00
 -5.45697E+00 -4.36363E+00 -3.29071E+00 -6.42158E+00 -3.78222E-01 -7.43374E+00 +2.78702E+00 -7.14564E+00
 +5.63372E+00 -5.53097E+00 +7.61622E+00 -2.81019E+00 +8.31908E+00 +5.76930E-01 +7.54258E+00 +4.04210E+00
 +5.35183E+00 +6.95122E+00 +2.07813E+00 +8.74119E+00 -1.72997E+00 +9.02894E+00 -5.39910E+00 +7.69172E+00
 -8.25116E+00 +4.90186E+00 -9.72969E+00 +1.10751E+00 -9.50861E+00 -3.03931E+00 -7.56206E+00 -6.79593E+00
 -4.18071E+00 -9.46347E+00 +7.07149E-02 -1.05181E+01 +4.44857E+00 -9.71430E+00 +8.16205E+00 -7.13912E+00
 +1.05179E+01 -3.20671E+00 +1.10511E+01 +1.40866E+00 +9.61722E+00 +5.88973E+00 +6.42713E+00 +9.42310E+00
 +2.01679E+00 +1.13490E+01 -2.84384E+00 +1.12859E+01 -7.28737E+00 +9.20666E+00 -1.05062E+01 +5.44999E+00
 -1.19016E+01 +6.64961E-01 -1.11968E+01 -4.30295E+00 -8.49192E+00 -8.56381E+00 -4.25062E+00 -1.13454E+01
 +7.80683E-01 -1.21354E+01 +5.70654E+00 -1.07775E+01 +9.64461E+00 -7.50268E+00 +1.18866E+01 -2.88890E+00
 +1.20282E+01 +2.24220E+00 +1.00429E+01 +6.97457E+00 +6.28786E+00 +1.04642E+01 +1.43803E+00 +1.20927E+01
 -3.63705E+00 +1.15789E+01 -8.03219E+00 +9.02855E+00 -1.09711E+01 +4.91282E+00 -1.19462E+01 -2.02046E-02
 -1.08082E+01 -4.88384E+00 -7.78918E+00 -8.81527E+00 -3.45525E+00 -1.11317E+01 +1.40105E+00 -1.14513E+01
 +5.90824E+00 -9.75759E+00 +9.27537E+00 -6.39517E+00 +1.09337E+01 -1.99996E+00 +1.06347E+01 +2.62272E+00
 +8.48715E+00 +6.64842E+00 +4.92790E+00 +9.38347E+00 +6.33012E-01 +1.03871E+01 -3.61224E+00 +9.54331E+00
 -7.05958E+00 +7.07148E+00 -9.13232E+00 +3.47427E+00 -9.52370E+00 -5.64297E-01 -8.24181E+00 -4.31064E+00
 -5.59472E+00 -7.11730E+00 -2.12069E+00 -8.53714E+00 +1.52105E+00 -8.39543E+00 +4.67708E+00 -6.80805E+00
 +6.81923E+00 -4.14480E+00 +7.63459E+00 -9.47163E-01 +7.07043E+00 +2.18156E+00 +5.32777E+00 +4.69161E+00
 +2.80749E+00 +6.18523E+00 +2.19304E-02 +6.48024E+00 -2.50904E+00 +5.62861E+00 -4.35637E+00 +3.88887E+00
 -5.25585E+00 +1.66072E+00 -5.14473E+00 -6.02931E-01 -4.15620E+00 -2.48780E+00 -2.57554E+00 -3.69514E+00
 -7.69540E-01 -4.08939E+00 +8.94681E-01 -3.70887E+00 +2.12396E+00 -2.74000E+00 +2.75149E+00 -1.46293E+00
 +2.75783E+00 -1.82185E-01 +2.25831E+00 +8.41644E-01 +1.46188E+00 +1.44458E+00 +6.12492E-01 +1.58551E+00
 -7.26092E-02 +1.34193E+00 -4.53452E-01 +8.77961E-01 -4.95472E-01 +3.93653E-01 -2.69690E-01 +6.85216E-02
 +7.40231E-02 +1.30956E-02 +3.53241E-01 +2.40130E-01 +4.07020E-01 +6.62190E-01 +1.44139E-01 +1.11601E+00
