 Created: 16-Jan-2021
 $NMID
 ID='D:\BASISSIMULATI'
 FMTDAT='(8E13.5)'
 VOLUME=   1.00000E+00
 TRAMP=   1.00000E+00
 $END
 +3.53849E+01 +1.13061E-01 +2.26547E+01 +2.32342E+01 -2.14932E+00 +2.48894E+01 -1.45256E+01 +6.03711E+00
 -3.66051E+00 -1.16339E+01 +1.66557E+01 -8.50384E+00 +2.27481E+01 +1.25580E+01 +5.93926E+00 +2.93274E+01
 -1.83171E+01 +2.34969E+01 -2.64393E+01 -2.08276E-01 -1.11005E+01 -1.88853E+01 +1.13452E+01 -1.50951E+01
 +1.79626E+01 +5.33942E+00 +2.94927E+00 +1.97608E+01 -1.66629E+01 +1.24536E+01 -1.90631E+01 -9.03846E+00
 -5.36751E-01 -2.19182E+01 +2.06203E+01 -1.19640E+01 +2.30740E+01 +1.16599E+01 +4.47212E+00 +2.59074E+01
 -1.63242E+01 +1.76291E+01 -1.89315E+01 -3.11333E+00 -2.46056E+00 -1.38767E+01 +1.39160E+01 -3.34337E+00
 +1.12249E+01 +1.69833E+01 -9.43023E+00 +2.49115E+01 -2.79919E+01 +1.07264E+01 -2.62313E+01 -1.27264E+01
 -6.48898E+00 -2.33724E+01 +1.10019E+01 -1.26350E+01 +9.21768E+00 +6.04810E+00 -8.16800E+00 +1.15692E+01
 -2.09704E+01 -2.76116E+00 -1.37708E+01 -2.23520E+01 +7.95415E+00 -2.66482E+01 +2.35181E+01 -1.05257E+01
 +1.84228E+01 +1.04576E+01 -8.38212E-01 +1.62243E+01 -1.38049E+01 +2.80169E+00 -7.37558E+00 -1.39667E+01
 +1.08037E+01 -1.52405E+01 +2.06361E+01 +1.13927E+00 +1.06910E+01 +1.85266E+01 -9.88509E+00 +1.88925E+01
 -2.08963E+01 +1.52791E+00 -1.19603E+01 -1.63433E+01 +7.00158E+00 -1.74571E+01 +1.63475E+01 -2.18024E+00
 +7.14475E+00 +1.22920E+01 -9.81250E+00 +1.01110E+01 -1.55561E+01 -6.72458E+00 -2.82676E+00 -2.05977E+01
 +1.64055E+01 -1.66762E+01 +2.34064E+01 +1.75901E+00 +1.19782E+01 +1.68680E+01 -5.43283E+00 +1.47517E+01
 -1.09275E+01 -4.21397E-01 +2.79371E-01 -1.11756E+01 +1.51828E+01 -5.15105E+00 +1.68121E+01 +1.20729E+01
 +1.97513E+00 +2.29315E+01 -1.54887E+01 +1.61700E+01 -1.90959E+01 -1.61018E+00 -6.62464E+00 -1.29733E+01
 +7.94493E+00 -7.69763E+00 +9.19757E+00 +6.95465E+00 -3.77446E+00 +1.41995E+01 -1.67329E+01 +5.37563E+00
 -1.53468E+01 -1.11274E+01 -1.13394E-01 -1.87355E+01 +1.42659E+01 -9.89372E+00 +1.41505E+01 +6.29084E+00
 +8.68061E-01 +1.36829E+01 -1.10434E+01 +5.78025E+00 -9.13920E+00 -7.90212E+00 +4.13032E+00 -1.20985E+01
 +1.42751E+01 -1.78221E+00 +1.00219E+01 +1.27376E+01 -5.01445E+00 +1.66653E+01 -1.62207E+01 +6.01987E+00
 -1.31263E+01 -8.47377E+00 +2.37942E-02 -1.26796E+01 +9.05156E+00 -3.58296E+00 +4.71730E+00 +7.96975E+00
 -7.86281E+00 +8.87830E+00 -1.48369E+01 -2.54313E+00 -8.14909E+00 -1.49758E+01 +6.19204E+00 -1.59638E+01
 +1.44937E+01 -4.72163E+00 +9.51535E+00 +7.32297E+00 -2.35648E+00 +8.52304E+00 -8.10017E+00 -1.09092E+00
 -1.67140E+00 -1.02417E+01 +9.93869E+00 -8.40508E+00 +1.42450E+01 +3.26927E+00 +6.30491E+00 +1.33343E+01
 -6.30558E+00 +1.20013E+01 -1.14953E+01 +1.11355E+00 -5.08306E+00 -8.05882E+00 +5.23158E+00 -6.61184E+00
 +8.19012E+00 +2.98764E+00 +6.88745E-01 +9.85036E+00 -9.25052E+00 +6.18890E+00 -1.10533E+01 -4.67697E+00
 -2.56858E+00 -1.19641E+01 +7.90081E+00 -8.64434E+00 +1.03375E+01 +1.49901E+00 +3.23329E+00 +8.08706E+00
 -5.22682E+00 +4.95906E+00 -5.93830E+00 -3.71262E+00 +1.71850E+00 -8.11778E+00 +9.51061E+00 -3.13552E+00
 +9.09842E+00 +6.49154E+00 +6.20323E-01 +1.12745E+01 -7.68019E+00 +6.79708E+00 -8.09591E+00 -1.98019E+00
 -1.23084E+00 -6.13746E+00 +5.00861E+00 -2.03394E+00 +3.83709E+00 +5.22557E+00 -3.47874E+00 +7.41640E+00
 -9.21731E+00 +1.79638E+00 -7.35764E+00 -6.23846E+00 +3.10427E-01 -8.92824E+00 +6.28562E+00 -4.11329E+00
 +5.18140E+00 +2.83430E+00 -9.50567E-01 +4.82180E+00 -5.11479E+00 +3.17951E-01 -2.77916E+00 -5.38727E+00
 +3.59249E+00 -5.94654E+00 +7.37141E+00 -5.27538E-01 +4.71853E+00 +5.55138E+00 -1.62831E+00 +6.48349E+00
 -5.43436E+00 +1.85513E+00 -3.42943E+00 -3.24711E+00 +1.59625E+00 -3.70202E+00 +4.01761E+00 +4.70097E-01
 +1.28105E+00 +4.46162E+00 -3.66753E+00 +3.87669E+00 -5.69293E+00 -7.97807E-01 -2.80809E+00 -4.94716E+00
 +2.00354E+00 -4.71893E+00 +4.10128E+00 -8.27314E-01 +1.93908E+00 +2.50444E+00 -1.64764E+00 +2.05273E+00
 -2.66561E+00 -1.25439E+00 -9.81663E-02 -3.62295E+00 +3.29873E+00 -2.46963E+00 +4.07433E+00 +1.05421E+00
 +1.60648E+00 +3.51049E+00 -1.51988E+00 +2.79301E+00 -2.37656E+00 +7.94748E-02 -6.13012E-01 -1.68556E+00
 +1.50253E+00 -9.05900E-01 +1.65735E+00 +1.24733E+00 -1.90272E-01 +2.34733E+00 -2.04817E+00 +1.29424E+00
 -2.12920E+00 -7.54716E-01 -5.87514E-01 -1.82766E+00 +9.19610E-01 -1.18228E+00 +1.08664E+00 +1.84076E-01
 +1.49110E-01 +8.26802E-01 -6.72103E-01 +3.43152E-01 -5.87649E-01 -4.79298E-01 +9.42221E-02 -7.36597E-01
 +5.74418E-01 -3.36181E-01 +5.11240E-01 +1.58102E-01 +2.06262E-01 +3.27337E-01 +1.98507E-02 +2.78826E-01
 -8.32846E-02 +2.63308E-01 -2.92806E-01 +2.08927E-01 -4.70947E-01 -1.25767E-01 -2.20995E-01 -6.13303E-01
 +4.90240E-01 -6.82818E-01 +1.01966E+00 +8.04255E-03 +6.52058E-01 +9.43702E-01 -4.51424E-01 +1.10657E+00
 -1.17202E+00 +1.33171E-01 -5.72294E-01 -1.04173E+00 +8.98587E-01 -1.01096E+00 +1.62587E+00 +5.03632E-01
 +5.06508E-01 +2.07091E+00 -1.65114E+00 +1.88625E+00 -2.70998E+00 -2.15686E-01 -1.41377E+00 -2.30873E+00
 +1.08014E+00 -2.23991E+00 +2.19044E+00 -1.94603E-03 +6.26454E-01 +2.01241E+00 -2.02560E+00 +1.41741E+00
 -2.75483E+00 -1.49503E+00 -3.24457E-01 -3.77718E+00 +3.16031E+00 -2.79601E+00 +4.21380E+00 +8.45812E-01
 +1.62908E+00 +3.66415E+00 -2.03363E+00 +2.82407E+00 -2.94075E+00 -7.52928E-01 -5.31931E-02 -3.13280E+00
 +3.54808E+00 -1.44583E+00 +3.72456E+00 +2.89857E+00 -2.85568E-01 +5.41694E+00 -4.77885E+00 +3.17661E+00
 -5.24766E+00 -1.93780E+00 -1.14226E+00 -4.93236E+00 +3.33148E+00 -2.85052E+00 +3.46909E+00 +1.97942E+00
 -9.15295E-01 +4.19460E+00 -5.06272E+00 +1.02573E+00 -4.13732E+00 -4.56398E+00 +1.56041E+00 -6.73063E+00
 +6.60813E+00 -2.84302E+00 +5.95105E+00 +3.54396E+00 +2.62729E-01 +6.16464E+00 -4.55050E+00 +2.55399E+00
 -3.43050E+00 -3.21577E+00 +2.41294E+00 -4.65151E+00 +6.55054E+00 +2.95626E-01 +3.99948E+00 +6.82355E+00
 -3.36792E+00 +8.07983E+00 -8.48338E+00 +2.34965E+00 -6.32414E+00 -4.91865E+00 +7.42327E-01 -6.59684E+00
 +5.24937E+00 -1.32229E+00 +2.39175E+00 +4.92317E+00 -4.79232E+00 +4.97254E+00 -8.40211E+00 -1.90683E+00
 -3.92696E+00 -8.97100E+00 +4.80814E+00 -8.85955E+00 +9.35434E+00 -1.34771E+00 +5.35564E+00 +6.18664E+00
 -2.79345E+00 +6.29710E+00 -6.38846E+00 -7.25106E-01 -1.51501E+00 -7.01329E+00 +6.68309E+00 -5.30196E+00
 +9.21343E+00 +3.30966E+00 +2.67417E+00 +1.02295E+01 -6.93813E+00 +8.19730E+00 -1.02276E+01 -1.03982E+00
 -4.13454E+00 -8.32949E+00 +4.76076E+00 -6.53577E+00 +6.99810E+00 +1.96029E+00 +1.68438E-01 +7.62920E+00
 -8.38374E+00 +3.75698E+00 -9.10296E+00 -6.33199E+00 -2.92844E-01 -1.24764E+01 +9.84404E+00 -8.17308E+00
 +1.15293E+01 +2.52187E+00 +3.56424E+00 +9.02455E+00 -5.32195E+00 +5.17483E+00 -5.52090E+00 -4.27086E+00
 +3.32904E+00 -8.51867E+00 +1.17755E+01 -2.07054E+00 +1.03278E+01 +9.29471E+00 -5.09884E-01 +1.42956E+01
 -1.04964E+01 +7.83758E+00 -1.01317E+01 -3.55272E+00 -5.38813E-01 -8.36820E+00 +7.63019E+00 -2.07349E+00
 +5.29436E+00 +8.09036E+00 -5.44895E+00 +1.06082E+01 -1.33292E+01 +1.81535E+00 -9.60717E+00 -1.00224E+01
 +2.65484E+00 -1.30998E+01 +1.15326E+01 -4.33413E+00 +8.50372E+00 +7.30075E+00 -2.67719E+00 +9.99831E+00
 -9.84065E+00 +1.41153E+00 -5.12304E+00 -8.83046E+00 +6.67819E+00 -9.15188E+00 +1.29448E+01 +1.74660E+00
 +6.38371E+00 +1.32704E+01 -7.19276E+00 +1.37733E+01 -1.46859E+01 +2.67217E+00 -9.21927E+00 -8.83488E+00
 +2.70606E+00 -9.34258E+00 +7.97256E+00 +8.69357E-01 +5.97460E-01 +1.00747E+01 -1.18568E+01 +7.35774E+00
 -1.60220E+01 -5.81861E+00 -6.67705E+00 -1.68719E+01 +7.62865E+00 -1.50288E+01 +1.32677E+01 -2.53253E+00
 +5.61337E+00 +7.61315E+00 -6.16106E+00 +5.13976E+00 -8.66658E+00 -6.75684E+00 +1.62942E+00 -1.47066E+01
 +1.45360E+01 -9.16380E+00 +1.66323E+01 +5.43918E+00 +5.28658E+00 +1.50588E+01 -8.43126E+00 +1.05129E+01
 -1.11011E+01 -2.96914E+00 -8.37191E-01 -1.11403E+01 +1.07760E+01 -5.55934E+00 +1.08077E+01 +7.57504E+00
 -1.40625E+00 +1.38616E+01 -1.33948E+01 +5.79368E+00 -1.24468E+01 -9.20816E+00 +1.09251E+00 -1.62956E+01
 +1.40188E+01 -8.52437E+00 +1.38626E+01 +5.92840E+00 +1.78769E+00 +1.22505E+01 -8.67313E+00 +4.42450E+00
 -5.80497E+00 -8.47114E+00 +7.92478E+00 -1.17301E+01 +1.82671E+01 -4.63132E-01 +1.39573E+01 +1.50859E+01
 -1.49071E+00 +1.99868E+01 -1.32960E+01 +1.00393E+01 -1.06623E+01 -3.89104E+00 +2.07261E+00 -7.19688E+00
 +1.00378E+01 +3.22822E+00 +3.44649E+00 +1.57196E+01 -1.20283E+01 +1.60194E+01 -2.09933E+01 +2.26450E+00
 -1.42927E+01 -1.28584E+01 +1.41130E+00 -1.51183E+01 +1.04626E+01 -3.42823E+00 +4.40244E+00 +9.08534E+00
 -9.31092E+00 +8.79366E+00 -1.51668E+01 -4.19140E+00 -5.89787E+00 -1.61012E+01 +9.77430E+00 -1.38876E+01
 +1.60716E+01 +1.05457E+00 +6.52854E+00 +1.41475E+01 -9.23840E+00 +1.26295E+01 -1.54514E+01 -1.28089E+00
 -6.49959E+00 -1.27688E+01 +7.31685E+00 -9.90384E+00 +1.06303E+01 +3.89142E+00 -8.37761E-01 +1.33955E+01
 -1.56522E+01 +7.50036E+00 -1.84380E+01 -9.07894E+00 -5.83574E+00 -2.05258E+01 +9.97190E+00 -1.62100E+01
 +1.38629E+01 -1.61397E+00 +3.41497E+00 +7.47954E+00 -8.69598E+00 +1.49825E+00 -8.04354E+00 -1.29029E+01
 +6.35306E+00 -1.97704E+01 +2.08315E+01 -1.05316E+01 +2.11718E+01 +6.94282E+00 +7.32656E+00 +1.63568E+01
 -6.53470E+00 +9.77212E+00 -6.72630E+00 -4.29157E+00 +5.79969E+00 -9.86306E+00 +1.65735E+01 -2.49325E-01
 +1.28278E+01 +1.49382E+01 -3.04140E+00 +1.97857E+01 -1.58073E+01 +8.69844E+00 -1.31302E+01 -7.66754E+00
 +1.68432E+00 -1.33508E+01 +1.31560E+01 -3.53149E+00 +9.71136E+00 +1.06202E+01 -4.36188E+00 +1.37147E+01
 -1.35143E+01 +2.25869E+00 -7.27508E+00 -1.16691E+01 +8.69567E+00 -1.30029E+01 +1.83581E+01 +5.72545E-01
 +1.18652E+01 +1.61143E+01 -4.27999E+00 +1.87516E+01 -1.40304E+01 +6.98423E+00 -8.45738E+00 -5.94623E+00
 +5.07210E+00 -5.99575E+00 +1.07244E+01 +6.97053E+00 +8.48215E-01 +1.90096E+01 -1.59062E+01 +1.66298E+01
 -2.34442E+01 +8.80890E-01 -1.48335E+01 -1.36514E+01 +6.06486E-01 -1.38793E+01 +7.06821E+00 -1.63033E+00
 -1.32240E+00 +8.47566E+00 -1.45129E+01 +4.42161E+00 -1.71505E+01 -1.05979E+01 -4.71857E+00 -2.14651E+01
 +1.16220E+01 -1.68679E+01 +1.65044E+01 -1.08345E+00 +6.18465E+00 +1.04188E+01 -7.71729E+00 +6.94525E+00
