 Created: 16-Jan-2021
 $NMID
 ID='D:\BASISSIMULATI'
 FMTDAT='(8E13.5)'
 VOLUME=   1.00000E+00
 TRAMP=   1.00000E+00
 $END
 +4.64189E+01 +9.53486E-01 +3.29351E+01 -2.09686E+01 +2.54013E+00 -2.45770E+01 -2.37605E+01 -5.46819E+00
 -2.88820E+01 +2.32043E+01 -1.19433E+01 +4.07325E+01 +1.19009E+01 +3.43748E+01 +2.35023E+01 +8.55688E+00
 +1.41136E+01 -1.89021E+01 -8.71320E+00 -3.01527E+01 -2.76165E+01 -1.99010E+01 -2.87128E+01 +1.92895E+00
 -1.14400E+01 +1.86247E+01 +1.19434E+01 +1.91378E+01 +2.59313E+01 +5.21267E+00 +2.26793E+01 -1.13398E+01
 +6.39783E+00 -1.81348E+01 -1.10253E+01 -1.09180E+01 -1.89336E+01 +4.49833E+00 -1.45716E+01 +1.74120E+01
 -3.41108E+00 +1.98723E+01 +5.89985E+00 +1.12696E+01 +7.58350E+00 -2.51496E+00 +1.70777E+00 -1.37070E+01
 -7.00752E+00 -1.73092E+01 -1.27666E+01 -1.31317E+01 -1.20089E+01 -4.84160E+00 -4.86189E+00 +2.57786E+00
 +5.34455E+00 +5.35451E+00 +1.37999E+01 +2.52569E+00 +1.64340E+01 -3.71978E+00 +1.19453E+01 -9.08372E+00
 +2.75723E+00 -9.42450E+00 -5.93480E+00 -3.36137E+00 -9.00870E+00 +6.36314E+00 -4.71794E+00 +1.40718E+01
 +3.81489E+00 +1.46459E+01 +1.03589E+01 +7.18804E+00 +9.78525E+00 -3.87524E+00 +1.87196E+00 -1.14453E+01
 -8.21559E+00 -1.05831E+01 -1.34094E+01 -2.08730E+00 -9.82139E+00 +7.93749E+00 +3.16590E-01 +1.23800E+01
 +1.01217E+01 +8.20859E+00 +1.29312E+01 -1.40187E+00 +7.00484E+00 -9.45892E+00 -3.36825E+00 -1.02457E+01
 -1.10723E+01 -3.34848E+00 -1.12180E+01 +6.24415E+00 -4.36546E+00 +1.18540E+01 +4.23610E+00 +9.79220E+00
 +8.57109E+00 +1.67427E+00 +5.97871E+00 -7.03236E+00 -1.34318E+00 -1.09027E+01 -8.19182E+00 -8.05279E+00
 -9.98981E+00 -9.99864E-01 -5.65603E+00 +5.35557E+00 +1.99323E+00 +7.01375E+00 +8.26288E+00 +3.26474E+00
 +9.53752E+00 -3.13284E+00 +5.36795E+00 -7.84822E+00 -1.41746E+00 -7.68445E+00 -6.51108E+00 -2.51895E+00
 -6.76151E+00 +4.59586E+00 -2.13833E+00 +9.24607E+00 +4.16690E+00 +8.39367E+00 +7.69864E+00 +2.41637E+00
 +5.68313E+00 -4.93083E+00 -9.13393E-01 -8.83364E+00 -7.75211E+00 -6.67327E+00 -9.94090E+00 -9.22597E-03
 -5.53075E+00 +6.29291E+00 +2.83015E+00 +7.43962E+00 +9.51303E+00 +2.29718E+00 +9.87353E+00 -5.52014E+00
 +3.73708E+00 -1.01036E+01 -4.29942E+00 -7.62199E+00 -8.18197E+00 +6.37466E-01 -4.96607E+00 +8.99592E+00
 +2.84479E+00 +1.15082E+01 +9.09539E+00 +6.43913E+00 +8.65353E+00 -2.36084E+00 +1.40816E+00 -8.32703E+00
 -7.53227E+00 -7.15735E+00 -1.16589E+01 -7.34091E-02 -7.98744E+00 +7.16304E+00 +7.01930E-01 +8.71842E+00
 +8.02014E+00 +3.17765E+00 +8.82446E+00 -5.39882E+00 +3.02351E+00 -1.06134E+01 -4.53632E+00 -8.58874E+00
 -7.90111E+00 -8.12099E-01 -4.53301E+00 +7.11773E+00 +2.90598E+00 +9.74922E+00 +8.72704E+00 +5.73556E+00
 +8.53631E+00 -1.42493E+00 +2.39777E+00 -6.22765E+00 -5.41273E+00 -5.28030E+00 -9.66639E+00 +3.75992E-01
 -7.90252E+00 +6.28622E+00 -1.93389E+00 +7.96114E+00 +3.73992E+00 +4.04444E+00 +5.24174E+00 -2.92183E+00
 +1.92305E+00 -8.45234E+00 -3.43356E+00 -9.22987E+00 -6.72950E+00 -5.19785E+00 -5.38160E+00 +6.42160E-01
 +2.67076E-02 +4.39196E+00 +6.23432E+00 +3.83686E+00 +9.47339E+00 -2.10301E-01 +7.87299E+00 -4.56396E+00
 +2.59857E+00 -5.82052E+00 -2.94251E+00 -2.62806E+00 -5.31316E+00 +3.35880E+00 -3.28648E+00 +8.46790E+00
 +1.33140E+00 +9.36677E+00 +4.89294E+00 +5.30091E+00 +4.41276E+00 -1.29237E+00 -2.64212E-01 -6.30971E+00
 -6.17411E+00 -6.72155E+00 -9.15964E+00 -2.67299E+00 -6.77628E+00 +2.58495E+00 -1.39664E-01 +4.99396E+00
 +6.68805E+00 +2.64483E+00 +9.44523E+00 -2.75373E+00 +6.63234E+00 -7.03670E+00 +5.36704E-01 -6.60199E+00
 -4.45621E+00 -1.10200E+00 -5.04494E+00 +6.18686E+00 -1.35357E+00 +1.06160E+01 +3.27260E+00 +9.40131E+00
 +4.82200E+00 +3.49718E+00 +1.60101E+00 -3.20043E+00 -4.53329E+00 -6.65353E+00 -9.51752E+00 -5.40746E+00
 -9.93741E+00 -1.33645E+00 -5.31769E+00 +1.96384E+00 +1.68737E+00 +1.83202E+00 +7.16611E+00 -1.66803E+00
 +8.46265E+00 -5.95183E+00 +5.64871E+00 -7.78647E+00 +1.15400E+00 -5.45240E+00 -1.98510E+00 +1.91150E-01
 -2.03321E+00 +6.27135E+00 +5.10710E-01 +9.61075E+00 +3.37921E+00 +8.52615E+00 +4.02707E+00 +3.73863E+00
 +1.27779E+00 -2.05321E+00 -3.79586E+00 -5.70481E+00 -8.31264E+00 -5.45854E+00 -9.22496E+00 -2.03754E+00
 -5.30268E+00 +1.75132E+00 +1.78909E+00 +2.83709E+00 +8.20782E+00 +7.84983E-02 +1.02460E+01 -4.68233E+00
 +6.83408E+00 -7.65683E+00 +4.41243E-01 -5.76802E+00 -4.48942E+00 +8.68094E-01 -4.66835E+00 +8.57235E+00
 -4.29380E-01 +1.23951E+01 +4.40601E+00 +9.60621E+00 +5.36334E+00 +1.82381E+00 +8.27816E-01 -5.95137E+00
 -6.46981E+00 -8.84817E+00 -1.12746E+01 -5.62579E+00 -9.68317E+00 +5.03902E-01 -2.15383E+00 +4.40542E+00
 +6.68852E+00 +2.98342E+00 +1.13520E+01 -2.47051E+00 +9.38298E+00 -7.34410E+00 +2.93295E+00 -7.31366E+00
 -3.10765E+00 -1.67049E+00 -4.84426E+00 +6.16627E+00 -2.07590E+00 +1.12242E+01 +1.97952E+00 +1.05466E+01
 +3.46414E+00 +5.04918E+00 +8.39925E-01 -1.52829E+00 -4.19137E+00 -5.48365E+00 -8.23078E+00 -5.52791E+00
 -8.71228E+00 -3.07507E+00 -5.44970E+00 -6.54632E-01 -3.20927E-01 +1.28416E-02 +4.24207E+00 -1.14428E+00
 +6.61258E+00 -3.02518E+00 +6.38836E+00 -4.33460E+00 +4.09058E+00 -4.20037E+00 +7.94941E-01 -2.29366E+00
 -2.06160E+00 +1.11772E+00 -3.03507E+00 +4.95430E+00 -1.47128E+00 +7.34484E+00 +1.68333E+00 +6.44065E+00
 +4.00615E+00 +1.86781E+00 +3.12308E+00 -4.31205E+00 -1.21087E+00 -8.35949E+00 -6.25119E+00 -7.32948E+00
 -7.81963E+00 -1.57602E+00 -3.53409E+00 +4.92492E+00 +4.76246E+00 +7.21408E+00 +1.16737E+01 +3.25227E+00
 +1.20218E+01 -4.03448E+00 +5.01613E+00 -8.58210E+00 -4.62873E+00 -5.85833E+00 -9.92636E+00 +3.20941E+00
 -6.98392E+00 +1.24088E+01 +1.72035E+00 +1.47680E+01 +8.99139E+00 +8.06799E+00 +8.47631E+00 -3.09796E+00
 -1.79439E-01 -1.06087E+01 -1.07867E+01 -9.05614E+00 -1.53060E+01 -3.40649E-02 -1.01642E+01 +9.02887E+00
 +8.44043E-01 +1.06774E+01 +9.45383E+00 +3.30240E+00 +9.36961E+00 -7.60371E+00 +1.13175E+00 -1.38067E+01
 -8.43814E+00 -1.08010E+01 -1.16987E+01 -1.23614E+00 -6.14330E+00 +7.34641E+00 +3.85393E+00 +8.52308E+00
 +1.07218E+01 +1.88711E+00 +9.68331E+00 -6.96042E+00 +2.25074E+00 -1.10780E+01 -5.36204E+00 -7.59773E+00
 -7.34019E+00 +3.84715E-01 -2.65619E+00 +6.66095E+00 +4.60534E+00 +6.90805E+00 +8.87352E+00 +1.76928E+00
 +7.46926E+00 -4.17829E+00 +2.26583E+00 -6.33002E+00 -2.33382E+00 -3.48439E+00 -3.07129E+00 +1.77960E+00
 -9.43997E-02 +5.63258E+00 +3.72334E+00 +6.03113E+00 +5.39344E+00 +3.83297E+00 +3.99176E+00 +1.48778E+00
 +8.16324E-01 +8.17806E-01 -2.13763E+00 +1.83309E+00 -3.76210E+00 +3.26860E+00 -4.19718E+00 +3.94370E+00
 -4.06271E+00 +3.56727E+00 -3.64658E+00 +2.47130E+00 -2.88541E+00 +9.18434E-01 -1.92371E+00 -1.08478E+00
 -1.36905E+00 -3.30329E+00 -1.76140E+00 -4.85552E+00 -2.77488E+00 -4.62437E+00 -3.15255E+00 -2.33865E+00
 -1.74019E+00 +7.36812E-01 +1.20021E+00 +2.42900E+00 +3.73812E+00 +1.34330E+00 +3.62537E+00 -1.79956E+00
 +2.92855E-01 -4.51372E+00 -4.26814E+00 -4.53136E+00 -6.73512E+00 -1.83141E+00 -4.99444E+00 +1.11081E+00
 +7.02206E-02 +1.26598E+00 +5.13355E+00 -2.31668E+00 +7.00790E+00 -7.41910E+00 +5.17496E+00 -1.01563E+01
 +2.15339E+00 -7.96271E+00 +1.35103E+00 -1.65575E+00 +4.15631E+00 +5.12657E+00 +8.67707E+00 +8.67429E+00
 +1.11721E+01 +7.91927E+00 +8.99791E+00 +4.96683E+00 +2.68218E+00 +3.13162E+00 -4.48494E+00 +4.18424E+00
 -8.89675E+00 +7.04576E+00 -9.09660E+00 +8.85122E+00 -6.40828E+00 +7.34209E+00 -3.49600E+00 +2.59738E+00
 -2.24509E+00 -3.14480E+00 -2.65926E+00 -7.17826E+00 -3.38109E+00 -8.04469E+00 -3.06268E+00 -6.06221E+00
 -1.34007E+00 -2.63600E+00 +1.17506E+00 +7.58112E-01 +3.49457E+00 +3.10648E+00 +4.72113E+00 +3.86535E+00
 +4.15024E+00 +2.93765E+00 +1.38020E+00 +8.75725E-01 -3.23525E+00 -1.05980E+00 -8.11836E+00 -1.51495E+00
 -1.07761E+01 -2.01485E-01 -9.22158E+00 +1.38865E+00 -3.68814E+00 +7.29307E-01 +2.90866E+00 -3.66081E+00
 +6.64799E+00 -1.03626E+01 +5.52904E+00 -1.52726E+01 +1.35370E+00 -1.42887E+01 -1.30083E+00 -6.68038E+00
 +1.34283E+00 +3.65714E+00 +8.81621E+00 +1.05291E+01 +1.60778E+01 +9.95792E+00 +1.70295E+01 +3.42672E+00
 +9.40767E+00 -2.97061E+00 -2.87455E+00 -3.17055E+00 -1.21331E+01 +3.91288E+00 -1.25326E+01 +1.31616E+01
 -4.62354E+00 +1.70030E+01 +4.90054E+00 +1.13899E+01 +8.25902E+00 -7.04227E-01 +2.61163E+00 -1.12051E+01
 -7.68916E+00 -1.29506E+01 -1.44702E+01 -5.15940E+00 -1.21375E+01 +5.95012E+00 -2.08112E+00 +1.19111E+01
 +8.36944E+00 +8.42772E+00 +1.15865E+01 -1.52242E+00 +5.43357E+00 -1.02219E+01 -5.27117E+00 -1.12626E+01
 -1.26049E+01 -4.33379E+00 -1.15493E+01 +4.86163E+00 -3.48633E+00 +9.24025E+00 +5.30473E+00 +5.71991E+00
 +8.66002E+00 -2.78112E+00 +5.00481E+00 -9.97443E+00 -2.00514E+00 -1.10833E+01 -6.75440E+00 -6.11120E+00
 -5.96954E+00 +7.50450E-01 -7.33343E-01 +4.66185E+00 +4.95579E+00 +3.61446E+00 +7.48644E+00 -6.80313E-01
 +6.06039E+00 -4.69075E+00 +2.63578E+00 -5.83606E+00 -4.92030E-02 -3.93835E+00 -4.85852E-01 -6.32565E-01
 +1.02539E+00 +2.26672E+00 +3.20281E+00 +3.91242E+00 +4.90066E+00 +4.40623E+00 +5.54082E+00 +4.13432E+00
 +4.86163E+00 +3.37520E+00 +2.69337E+00 +2.48259E+00 -7.66607E-01 +2.12541E+00 -4.51712E+00 +2.96390E+00
 -6.91558E+00 +4.85974E+00 -6.69748E+00 +6.45881E+00 -4.13576E+00 +5.87555E+00 -1.19666E+00 +2.21592E+00
 -2.40035E-01 -3.29281E+00 -2.11585E+00 -7.73526E+00 -5.24126E+00 -8.46374E+00 -6.62059E+00 -5.15805E+00
 -4.19413E+00 -2.74289E-01 +1.31580E+00 +2.65862E+00 +6.64592E+00 +1.68527E+00 +8.29235E+00 -2.05782E+00
 +5.15170E+00 -5.21202E+00 -5.71755E-01 -4.83311E+00 -4.94935E+00 -7.41926E-01 -5.20599E+00 +4.26442E+00
 -1.68396E+00 +6.51388E+00 +2.58184E+00 +4.23562E+00 +4.27849E+00 -1.12403E+00 +2.31263E+00 -6.00418E+00
 -1.49421E+00 -7.33546E+00 -3.93297E+00 -4.64797E+00 -2.88063E+00 -1.72397E-01 +1.17450E+00 +2.98248E+00
 +5.60190E+00 +3.09087E+00 +7.58919E+00 +8.47407E-01 +6.06240E+00 -1.42402E+00 +2.22838E+00 -1.61916E+00
 -1.47197E+00 +6.63116E-01 -3.08679E+00 +3.98329E+00 -2.31374E+00 +6.18897E+00 -4.26004E-01 +5.88929E+00
 +7.93296E-01 +3.27412E+00 +2.79818E-01 -1.42484E-01 -1.70090E+00 -2.54521E+00 -3.83570E+00 -2.89968E+00
 -4.65939E+00 -1.47072E+00 -3.48821E+00 +4.50085E-01 -8.58269E-01 +1.39345E+00 +1.77167E+00 +6.37595E-01
