 Created: 16-Jan-2021
 $NMID
 ID='D:\BASISSIMULATI'
 FMTDAT='(8E13.5)'
 VOLUME=   1.00000E+00
 TRAMP=   1.00000E+00
 $END
 +4.57743E+01 +2.21987E-01 +3.62409E+01 -1.23491E+01 +1.22818E+01 -1.56589E+01 -1.41577E+01 -5.78515E+00
 -3.03577E+01 +1.27890E+01 -2.96245E+01 +2.95863E+01 -1.45793E+01 +3.42312E+01 +4.82877E+00 +2.26537E+01
 +1.72950E+01 -2.59797E-01 +1.65730E+01 -2.31513E+01 +4.65201E+00 -3.43951E+01 -9.98475E+00 -2.84618E+01
 -1.77869E+01 -8.83454E+00 -1.39182E+01 +1.40898E+01 -9.88853E-01 +2.87925E+01 +1.27464E+01 +2.87544E+01
 +1.84897E+01 +1.55028E+01 +1.21818E+01 -2.91253E+00 -3.13694E+00 -1.68505E+01 -1.91559E+01 -2.04080E+01
 -2.70932E+01 -1.41330E+01 -2.25830E+01 -3.83538E+00 -7.87328E+00 +3.44955E+00 +9.74267E+00 +3.73776E+00
 +2.21201E+01 -1.90061E+00 +2.45391E+01 -8.56666E+00 +1.76903E+01 -1.09484E+01 +6.52004E+00 -6.68002E+00
 -3.03990E+00 +2.36611E+00 -7.34321E+00 +1.14480E+01 -6.44899E+00 +1.59227E+01 -3.16755E+00 +1.38944E+01
 -6.93093E-01 +6.99771E+00 -5.04990E-01 -9.40414E-01 -1.81167E+00 -6.30694E+00 -2.64858E+00 -7.59544E+00
 -1.64101E+00 -5.71852E+00 +8.89880E-01 -2.80650E+00 +3.21258E+00 -5.23665E-01 +3.55555E+00 +8.83483E-01
 +1.49619E+00 +2.24561E+00 -1.66921E+00 +4.26372E+00 -3.84837E+00 +6.47929E+00 -3.69710E+00 +7.29676E+00
 -1.65148E+00 +5.12041E+00 +3.39123E-01 -2.04258E-01 +2.48251E-01 -6.75868E+00 -2.40699E+00 -1.13456E+01
 -5.93966E+00 -1.13462E+01 -7.41294E+00 -6.47959E+00 -4.60878E+00 +7.46854E-01 +2.22561E+00 +6.33402E+00
 +1.00823E+01 +7.14646E+00 +1.47045E+01 +2.89365E+00 +1.30939E+01 -3.55196E+00 +5.48921E+00 -7.80291E+00
 -4.47649E+00 -6.64277E+00 -1.16675E+01 -1.22091E-01 -1.23452E+01 +8.26904E+00 -6.36722E+00 +1.35454E+01
 +2.66275E+00 +1.21834E+01 +9.44400E+00 +4.32727E+00 +1.00536E+01 -6.11196E+00 +4.23868E+00 -1.35841E+01
 -4.44000E+00 -1.40408E+01 -1.07093E+01 -7.25765E+00 -1.06967E+01 +3.02660E+00 -4.22037E+00 +1.12352E+01
 +5.08603E+00 +1.31005E+01 +1.18765E+01 +8.00763E+00 +1.21796E+01 -7.96057E-01 +5.66931E+00 -8.19125E+00
 -4.17555E+00 -1.01675E+01 -1.20714E+01 -6.04980E+00 -1.38942E+01 +1.28122E+00 -8.89908E+00 +7.22099E+00
 +2.47739E-02 +8.18651E+00 +8.11642E+00 +3.65620E+00 +1.14302E+01 -3.63685E+00 +8.89267E+00 -9.38644E+00
 +2.62490E+00 -1.02220E+01 -3.52341E+00 -5.57923E+00 -6.26794E+00 +2.08998E+00 -4.65616E+00 +8.79100E+00
 -3.55221E-01 +1.12186E+01 +3.57345E+00 +8.46199E+00 +4.58489E+00 +2.28934E+00 +2.09850E+00 -4.02275E+00
 -2.30324E+00 -7.54090E+00 -5.93323E+00 -7.13589E+00 -6.60973E+00 -3.80733E+00 -3.86329E+00 +1.65672E-01
 +8.99407E-01 +2.63545E+00 +5.27227E+00 +2.71283E+00 +7.18901E+00 +1.03118E+00 +5.95466E+00 -8.75506E-01
 +2.45369E+00 -1.60712E+00 -1.47558E+00 -7.05788E-01 -4.06505E+00 +1.18609E+00 -4.45522E+00 +2.82056E+00
 -2.94908E+00 +3.13039E+00 -6.49950E-01 +1.83375E+00 +1.22535E+00 -4.52006E-01 +1.95402E+00 -2.59059E+00
 +1.54812E+00 -3.54316E+00 +5.82167E-01 -2.87899E+00 -2.24415E-01 -9.41245E-01 -4.16212E-01 +1.36829E+00
 -3.56141E-03 +3.03918E+00 +6.05614E-01 +3.40814E+00 +8.72107E-01 +2.42284E+00 +4.41298E-01 +6.20967E-01
 -6.44120E-01 -1.14480E+00 -1.93307E+00 -2.10744E+00 -2.76764E+00 -1.93741E+00 -2.61419E+00 -8.88563E-01
 -1.37119E+00 +3.37365E-01 +5.10247E-01 +9.58452E-01 +2.18824E+00 +5.41591E-01 +2.83305E+00 -7.31724E-01
 +2.08538E+00 -2.12752E+00 +3.16418E-01 -2.74935E+00 -1.49400E+00 -2.06389E+00 -2.24934E+00 -2.63023E-01
 -1.36198E+00 +1.77600E+00 +8.41325E-01 +2.95348E+00 +3.20533E+00 +2.59441E+00 +4.33282E+00 +8.98041E-01
 +3.37802E+00 -1.11106E+00 +5.94497E-01 -2.15078E+00 -2.71261E+00 -1.46368E+00 -4.85262E+00 +6.56383E-01
 -4.68501E+00 +2.94817E+00 -2.28813E+00 +3.88221E+00 +1.04905E+00 +2.59497E+00 +3.53715E+00 -5.01187E-01
 +3.90201E+00 -3.83556E+00 +2.10977E+00 -5.50964E+00 -6.37648E-01 -4.38880E+00 -2.64399E+00 -8.17358E-01
 -2.75501E+00 +3.48701E+00 -1.05908E+00 +6.33185E+00 +1.18229E+00 +6.24178E+00 +2.33870E+00 +3.26017E+00
 +1.45827E+00 -1.10024E+00 -1.09138E+00 -4.71882E+00 -3.79521E+00 -6.02655E+00 -4.88373E+00 -4.78736E+00
 -3.40868E+00 -2.07265E+00 +1.52193E-01 +5.01359E-01 +4.12750E+00 +1.76500E+00 +6.57770E+00 +1.59920E+00
 +6.35456E+00 +8.15225E-01 +3.67230E+00 +4.51064E-01 -1.12857E-01 +9.90963E-01 -3.32628E+00 +2.03575E+00
 -4.86463E+00 +2.62568E+00 -4.62191E+00 +1.96874E+00 -3.26452E+00 +5.67114E-02 -1.60488E+00 -2.26176E+00
 -6.05103E-02 -3.80244E+00 +1.42826E+00 -3.80035E+00 +3.02176E+00 -2.37711E+00 +4.50542E+00 -4.02559E-01
 +5.16084E+00 +1.14059E+00 +4.16923E+00 +1.82572E+00 +1.30788E+00 +1.99322E+00 -2.58339E+00 +2.34110E+00
 -5.80298E+00 +3.19740E+00 -6.66367E+00 +4.04593E+00 -4.55448E+00 +3.73891E+00 -4.83098E-01 +1.35020E+00
 +3.35086E+00 -2.88309E+00 +4.80084E+00 -7.25004E+00 +3.11371E+00 -9.27143E+00 -5.05021E-01 -7.14418E+00
 -3.55084E+00 -1.07828E+00 -3.78991E+00 +6.39270E+00 -7.90641E-01 +1.15086E+01 +3.59900E+00 +1.13068E+01
 +6.25169E+00 +5.43548E+00 +4.73400E+00 -3.38248E+00 -9.37761E-01 -1.06554E+01 -7.92865E+00 -1.25674E+01
 -1.19967E+01 -8.18295E+00 -9.98083E+00 -7.69712E-02 -1.91259E+00 +7.07094E+00 +8.59786E+00 +9.17681E+00
 +1.61009E+01 +5.18198E+00 +1.63007E+01 -2.26003E+00 +8.60870E+00 -8.31861E+00 -3.28426E+00 -8.89279E+00
 -1.32643E+01 -3.17348E+00 -1.61136E+01 +5.71049E+00 -1.04256E+01 +1.24287E+01 +5.76584E-01 +1.26057E+01
 +1.08278E+01 +5.54327E+00 +1.48188E+01 -5.15010E+00 +1.06597E+01 -1.34761E+01 +1.04609E+00 -1.44577E+01
 -8.40911E+00 -7.07584E+00 -1.24820E+01 +5.00048E+00 -9.33245E+00 +1.53591E+01 -1.44447E+00 +1.83776E+01
 +5.99768E+00 +1.23314E+01 +8.28974E+00 +3.10071E-01 +4.03054E+00 -1.15491E+01 -4.08018E+00 -1.74602E+01
 -1.09076E+01 -1.50620E+01 -1.19805E+01 -6.45714E+00 -6.16462E+00 +3.26530E+00 +3.65909E+00 +9.04612E+00
 +1.22668E+01 +8.60424E+00 +1.50839E+01 +3.37485E+00 +1.07272E+01 -2.75513E+00 +1.65881E+00 -5.99367E+00
 -7.33175E+00 -4.86529E+00 -1.18315E+01 -8.15878E-01 -1.00904E+01 +3.02161E+00 -3.64567E+00 +3.99061E+00
 +3.90214E+00 +1.59296E+00 +9.05808E+00 -2.32202E+00 +1.01958E+01 -4.87428E+00 +7.96150E+00 -4.04743E+00
 +4.30695E+00 +6.65989E-02 +9.83517E-01 +5.40723E+00 -1.44314E+00 +9.27963E+00 -3.48626E+00 +9.95322E+00
 -5.79091E+00 +7.50178E+00 -8.18182E+00 +3.44002E+00 -9.49613E+00 -4.59809E-01 -8.37288E+00 -3.27430E+00
 -4.42803E+00 -5.19556E+00 +1.09104E+00 -6.85939E+00 +5.75768E+00 -8.34920E+00 +7.34155E+00 -8.74179E+00
 +5.23559E+00 -6.66263E+00 +9.44687E-01 -1.53937E+00 -2.78250E+00 +5.36715E+00 -3.69355E+00 +1.10555E+01
 -1.52386E+00 +1.22101E+01 +1.79209E+00 +7.23704E+00 +3.42329E+00 -2.36792E+00 +1.67520E+00 -1.23363E+01
 -2.59292E+00 -1.76799E+01 -6.21216E+00 -1.54176E+01 -5.62718E+00 -6.38219E+00 +6.12105E-01 +5.05931E+00
 +1.03943E+01 +1.33387E+01 +1.87176E+01 +1.47874E+01 +2.03178E+01 +9.68650E+00 +1.28214E+01 +2.00710E+00
 -1.46783E+00 -3.05603E+00 -1.63551E+01 -2.30826E+00 -2.48524E+01 +3.42197E+00 -2.29252E+01 +9.74062E+00
 -1.17568E+01 +1.14185E+01 +2.82062E+00 +5.78072E+00 +1.34699E+01 -5.32356E+00 +1.53141E+01 -1.62538E+01
 +8.47334E+00 -2.06985E+01 -2.25409E+00 -1.54076E+01 -1.03385E+01 -2.33207E+00 -1.13403E+01 +1.21576E+01
 -5.36885E+00 +2.06138E+01 +3.22420E+00 +1.85554E+01 +8.66688E+00 +6.92264E+00 +7.37170E+00 -8.44440E+00
 +1.53382E-01 -1.99866E+01 -8.25207E+00 -2.24475E+01 -1.20552E+01 -1.54815E+01 -7.94006E+00 -3.46542E+00
 +2.84656E+00 +7.23660E+00 +1.50688E+01 +1.18755E+01 +2.23829E+01 +9.70620E+00 +2.08394E+01 +3.89946E+00
 +1.09999E+01 -7.80930E-01 -2.47728E+00 -1.01314E+00 -1.34466E+01 +3.17282E+00 -1.75179E+01 +8.66241E+00
 -1.41082E+01 +1.13933E+01 -6.27608E+00 +8.95904E+00 +1.35828E+00 +2.08479E+00 +5.24990E+00 -5.84921E+00
 +4.58869E+00 -1.08427E+01 +1.17557E+00 -1.05730E+01 -2.15958E+00 -5.59146E+00 -3.45250E+00 +1.19494E+00
 -2.62225E+00 +6.30567E+00 -1.11129E+00 +7.58114E+00 -5.74146E-01 +5.08770E+00 -1.60307E+00 +6.46025E-01
 -3.35034E+00 -3.52825E+00 -4.22578E+00 -6.10504E+00 -3.10221E+00 -7.06192E+00 -1.48944E-01 -7.13931E+00
 +3.28081E+00 -6.89193E+00 +5.59551E+00 -6.12092E+00 +6.04719E+00 -4.11816E+00 +5.17114E+00 -5.02671E-01
 +4.27355E+00 +4.04825E+00 +4.34509E+00 +7.82908E+00 +5.20371E+00 +9.01312E+00 +5.53033E+00 +6.88820E+00
 +3.83892E+00 +2.55548E+00 -2.62324E-01 -1.49443E+00 -5.43153E+00 -2.79267E+00 -9.13183E+00 -4.60201E-01
 -9.12861E+00 +4.08949E+00 -5.03440E+00 +7.85707E+00 +1.14116E+00 +8.04111E+00 +5.92201E+00 +3.84190E+00
 +6.33762E+00 -2.86178E+00 +1.78336E+00 -8.47039E+00 -5.40884E+00 -9.76187E+00 -1.11456E+01 -5.89171E+00
 -1.18938E+01 +9.49596E-01 -6.80730E+00 +6.69609E+00 +1.63576E+00 +7.75989E+00 +8.93611E+00 +3.19888E+00
 +1.11182E+01 -4.61903E+00 +7.04980E+00 -1.13048E+01 -8.38978E-01 -1.29745E+01 -7.89270E+00 -8.53776E+00
 -9.87673E+00 -3.82534E-01 -5.40467E+00 +6.97369E+00 +3.26142E+00 +9.49758E+00 +1.14991E+01 +5.99185E+00
 +1.49454E+01 -1.19583E+00 +1.19254E+01 -7.52713E+00 +4.29887E+00 -8.90305E+00 -3.72252E+00 -4.04155E+00
 -8.04950E+00 +4.76658E+00 -7.01369E+00 +1.29392E+01 -2.16957E+00 +1.61590E+01 +2.80720E+00 +1.27304E+01
 +4.40999E+00 +4.41870E+00 +1.39722E+00 -4.63904E+00 -4.52433E+00 -1.02538E+01 -9.77754E+00 -1.03795E+01
 -1.10632E+01 -5.97561E+00 -7.29305E+00 -1.57594E-01 -1.99570E-01 +3.74542E+00 +6.67286E+00 +4.03764E+00
 +9.95084E+00 +1.36962E+00 +8.22546E+00 -1.97825E+00 +2.67312E+00 -3.68223E+00 -3.75041E+00 -2.81193E+00
 -7.97872E+00 -2.75336E-01 -8.37321E+00 +1.90881E+00 -5.31422E+00 +1.97595E+00 -6.51856E-01 -4.56168E-01
 +3.51086E+00 -4.16054E+00 +5.91647E+00 -7.04973E+00 +6.53370E+00 -7.38937E+00 +6.13887E+00 -4.73541E+00
 +5.51514E+00 -8.53022E-02 +4.86082E+00 +4.75556E+00 +3.77477E+00 +8.13657E+00 +1.75115E+00 +9.26985E+00
 -1.23021E+00 +8.33955E+00 -4.46865E+00 +6.08545E+00 -6.84060E+00 +3.24353E+00 -7.42965E+00 +2.41774E-01
 -6.06266E+00 -2.70541E+00 -3.39903E+00 -5.28576E+00 -5.28513E-01 -6.90205E+00 +1.64016E+00 -6.84049E+00
 +2.79391E+00 -4.73257E+00 +3.18347E+00 -9.88590E-01 +3.21638E+00 +3.15355E+00 +3.00833E+00 +6.09387E+00
 +2.24798E+00 +6.63738E+00 +4.97111E-01 +4.62278E+00 -2.28070E+00 +1.02191E+00 -5.36458E+00 -2.57521E+00
