 Created: 16-Jan-2021
 $NMID
 ID='D:\BASISSIMULATI'
 FMTDAT='(8E13.5)'
 VOLUME=   1.00000E+00
 TRAMP=   1.00000E+00
 $END
 +5.45143E+01 -1.64608E+00 +2.90724E+01 +4.40307E+01 -2.14083E+01 +4.17792E+01 -3.94597E+01 -2.12832E+00
 -7.99853E+00 -3.35114E+01 +3.09026E+01 -1.60092E+01 +2.84233E+01 +2.63334E+01 -1.21203E+01 +4.02430E+01
 -4.10708E+01 +8.68745E+00 -2.42670E+01 -2.94647E+01 +1.55318E+01 -2.84412E+01 +2.77928E+01 +7.92631E+00
 -2.84260E+00 +3.14943E+01 -3.74119E+01 +9.74498E+00 -3.05052E+01 -3.35520E+01 +1.37337E+01 -4.67174E+01
 +4.58860E+01 -1.27655E+01 +3.03970E+01 +2.99743E+01 -1.23081E+01 +3.38513E+01 -3.12106E+01 -1.64312E+00
 -5.95872E+00 -3.08537E+01 +3.01811E+01 -1.79158E+01 +3.21663E+01 +2.08116E+01 -2.28698E+00 +3.83780E+01
 -3.15100E+01 +1.49849E+01 -2.19098E+01 -1.89816E+01 +1.13316E+01 -2.16161E+01 +2.41557E+01 +8.69391E+00
 -1.38101E+00 +3.18262E+01 -3.48158E+01 +1.58282E+01 -3.45544E+01 -2.34491E+01 +1.32301E+00 -4.12378E+01
 +3.25837E+01 -1.77645E+01 +2.51363E+01 +1.84025E+01 -8.79907E+00 +2.52018E+01 -2.66404E+01 -2.82786E+00
 -7.03270E+00 -2.95028E+01 +2.56186E+01 -2.17103E+01 +3.21306E+01 +1.12015E+01 +6.01622E+00 +3.03622E+01
 -2.01482E+01 +1.52642E+01 -1.57060E+01 -1.23111E+01 +1.08543E+01 -1.64695E+01 +2.34847E+01 +8.25370E+00
 +3.62238E+00 +3.05879E+01 -2.68825E+01 +2.13083E+01 -3.24403E+01 -1.09113E+01 -6.79088E+00 -3.00170E+01
 +1.98562E+01 -1.59293E+01 +1.74550E+01 +1.20821E+01 -8.42345E+00 +1.95013E+01 -2.46145E+01 -2.01176E+00
 -1.08489E+01 -2.58347E+01 +1.67286E+01 -2.34960E+01 +2.63743E+01 +1.44330E+00 +9.20565E+00 +1.92178E+01
 -1.14581E+01 +1.07369E+01 -9.85646E+00 -1.00493E+01 +1.07630E+01 -1.46450E+01 +2.30621E+01 +4.49849E+00
 +9.73150E+00 +2.50235E+01 -1.53706E+01 +2.23026E+01 -2.42581E+01 -7.40582E-01 -8.47033E+00 -1.76104E+01
 +1.15118E+01 -1.02694E+01 +1.15588E+01 +9.94683E+00 -7.46901E+00 +1.70321E+01 -2.18880E+01 +1.74607E+00
 -1.42555E+01 -1.82324E+01 +6.37830E+00 -2.04763E+01 +1.66047E+01 -4.42106E+00 +7.09848E+00 +9.39800E+00
 -7.32197E+00 +5.12194E+00 -7.04714E+00 -9.71049E+00 +8.22066E+00 -1.45461E+01 +1.97718E+01 -1.45301E+00
 +1.31580E+01 +1.54755E+01 -4.47006E+00 +1.75700E+01 -1.34811E+01 +3.90227E+00 -5.36138E+00 -8.35626E+00
 +7.88385E+00 -4.99221E+00 +8.98005E+00 +8.72260E+00 -3.97752E+00 +1.53130E+01 -1.61005E+01 +6.31260E+00
 -1.40554E+01 -8.34433E+00 -1.41772E+00 -1.30498E+01 +6.79335E+00 -4.98563E+00 +2.55567E+00 +3.75266E+00
 -6.35139E+00 +1.72624E+00 -6.90033E+00 -8.20322E+00 +3.08751E+00 -1.31841E+01 +1.27620E+01 -6.35898E+00
 +1.17008E+01 +5.16598E+00 +2.12228E+00 +9.30752E+00 -4.46055E+00 +3.30179E+00 -1.21000E+00 -3.80449E+00
 +6.49043E+00 -2.56834E+00 +8.23091E+00 +5.82228E+00 +1.04045E+00 +1.16712E+01 -7.71286E+00 +8.53689E+00
 -9.51586E+00 +2.63887E-01 -4.34476E+00 -4.36641E+00 +3.47337E-01 -2.04270E+00 -9.45851E-01 +2.05215E+00
 -5.64440E+00 +1.30637E+00 -6.95346E+00 -4.35180E+00 -2.25299E+00 -8.86347E+00 +4.11404E+00 -7.50896E+00
 +6.28715E+00 -2.15992E+00 +3.51557E+00 +1.43685E+00 +3.57036E-01 +4.12294E-01 +9.65099E-01 -2.45883E+00
 +4.52762E+00 -2.56528E+00 +6.73297E+00 +1.19407E+00 +4.85467E+00 +5.56354E+00 +4.58565E-01 +6.85758E+00
 -2.78556E+00 +4.76038E+00 -3.09312E+00 +2.03581E+00 -1.91217E+00 +1.16685E+00 -1.74384E+00 +1.93159E+00
 -3.31906E+00 +2.18741E+00 -5.07684E+00 +4.61083E-01 -5.02667E+00 -2.53725E+00 -2.79115E+00 -4.73998E+00
 +1.00891E-01 -4.75077E+00 +1.70625E+00 -3.08529E+00 +1.45530E+00 -1.59609E+00 +6.30781E-01 -1.66882E+00
 +1.07317E+00 -2.82425E+00 +3.22669E+00 -3.10798E+00 +5.43960E+00 -1.09184E+00 +5.46123E+00 +2.40931E+00
 +2.83839E+00 +4.85736E+00 -3.64287E-01 +4.51981E+00 -1.60097E+00 +2.38974E+00 -6.20949E-01 +1.17262E+00
 +2.18491E-01 +2.20081E+00 -1.26326E+00 +3.76845E+00 -4.27725E+00 +3.06037E+00 -5.71411E+00 -3.51485E-01
 -3.77185E+00 -3.64259E+00 -3.24152E-01 -3.84532E+00 +1.05222E+00 -1.42764E+00 -6.80732E-01 +8.40858E-02
 -2.60930E+00 -1.70118E+00 -1.26385E+00 -4.95312E+00 +3.04647E+00 -5.55779E+00 +6.26476E+00 -2.01706E+00
 +5.20521E+00 +2.54812E+00 +1.33322E+00 +3.88677E+00 -9.29582E-01 +1.55916E+00 +5.35944E-01 -6.35504E-01
 +3.05680E+00 +6.50845E-01 +2.52761E+00 +4.16716E+00 -1.43183E+00 +5.56072E+00 -4.86244E+00 +2.75440E+00
 -4.23345E+00 -1.38914E+00 -7.81388E-01 -2.46906E+00 +9.63649E-01 +8.79943E-02 -1.25617E+00 +2.30455E+00
 -4.57893E+00 +5.42582E-01 -4.44640E+00 -3.93667E+00 -1.73316E-01 -6.34842E+00 +4.12315E+00 -4.06335E+00
 +4.36571E+00 +2.98999E-01 +1.23916E+00 +2.07227E+00 -8.81150E-01 +7.41236E-02 +6.53279E-01 -2.24283E+00
 +3.67347E+00 -1.25724E+00 +4.08399E+00 +2.34975E+00 +9.97640E-01 +4.56033E+00 -2.24376E+00 +3.05166E+00
 -2.28010E+00 -1.36992E-02 +1.64465E-01 -7.99767E-01 +1.33249E+00 +1.41684E+00 -8.06186E-01 +3.43342E+00
 -4.04063E+00 +2.16283E+00 -4.65715E+00 -1.56622E+00 -1.91038E+00 -4.06179E+00 +1.24442E+00 -3.18616E+00
 +1.82066E+00 -6.56327E-01 +1.86035E-01 +3.61381E-01 -8.40044E-01 -9.01468E-01 +3.16801E-01 -2.26158E+00
 +2.23913E+00 -1.64535E+00 +2.63658E+00 +3.53330E-01 +1.30029E+00 +1.51780E+00 +1.16257E-01 +9.72103E-01
 +4.16790E-01 +1.24167E-01 +1.30938E+00 +5.73921E-01 +1.05607E+00 +1.95595E+00 -5.42257E-01 +2.53111E+00
 -1.95470E+00 +1.53629E+00 -1.99450E+00 +6.80297E-02 -1.22604E+00 -5.33453E-01 -8.94592E-01 -4.03997E-01
 -1.08454E+00 -6.19866E-01 -7.87386E-01 -1.35415E+00 +2.99208E-01 -1.53283E+00 +1.01309E+00 -5.69990E-01
 +3.40834E-01 +4.02470E-01 -8.19207E-01 -1.14139E-01 -5.24768E-01 -1.68974E+00 +1.50091E+00 -2.09144E+00
 +3.02653E+00 -1.46873E-01 +1.94607E+00 +2.32874E+00 -7.68479E-01 +2.48671E+00 -1.91731E+00 +1.63594E-01
 -1.19739E-01 -1.55851E+00 +2.09382E+00 -1.75360E-01 +1.29601E+00 +2.71030E+00 -2.18276E+00 +3.04926E+00
 -4.12916E+00 -3.88980E-01 -1.63273E+00 -3.86214E+00 +2.75701E+00 -2.95989E+00 +3.65177E+00 +1.59310E+00
 -4.22759E-01 +4.22006E+00 -4.61750E+00 +1.22706E+00 -3.37784E+00 -4.15681E+00 +2.40737E+00 -5.23471E+00
 +5.90295E+00 -1.57695E-01 +2.57050E+00 +5.23803E+00 -3.80922E+00 +4.25574E+00 -5.31510E+00 -2.14747E+00
 +2.66794E-01 -6.00137E+00 +6.15741E+00 -2.03940E+00 +4.61542E+00 +5.29872E+00 -3.16110E+00 +6.80169E+00
 -7.84137E+00 -6.02863E-02 -3.25472E+00 -7.36051E+00 +5.50812E+00 -6.01879E+00 +7.75876E+00 +2.75949E+00
 +3.73336E-01 +8.33575E+00 -7.78903E+00 +3.51327E+00 -6.38238E+00 -6.14851E+00 +3.40904E+00 -8.61941E+00
 +9.68508E+00 -2.57327E-01 +4.26359E+00 +9.07917E+00 -6.74840E+00 +7.70673E+00 -9.84295E+00 -3.22677E+00
 -7.38183E-01 -1.04628E+01 +9.70907E+00 -4.67202E+00 +8.34172E+00 +7.58215E+00 -3.88392E+00 +1.12357E+01
 -1.23631E+01 +1.16747E+00 -6.43168E+00 -1.09157E+01 +7.16689E+00 -1.03263E+01 +1.19855E+01 +2.44011E+00
 +2.00743E+00 +1.17743E+01 -1.04792E+01 +5.91815E+00 -9.62124E+00 -8.16471E+00 +4.21108E+00 -1.28117E+01
 +1.41981E+01 -1.44478E+00 +7.49623E+00 +1.26452E+01 -8.43949E+00 +1.20746E+01 -1.42658E+01 -3.03608E+00
 -2.40101E+00 -1.44344E+01 +1.30175E+01 -7.72351E+00 +1.28348E+01 +9.56775E+00 -3.54689E+00 +1.64830E+01
 -1.67801E+01 +4.09041E+00 -1.08318E+01 -1.31390E+01 +7.19373E+00 -1.45682E+01 +1.53375E+01 +1.30554E+00
 +3.65714E+00 +1.46457E+01 -1.31909E+01 +8.50597E+00 -1.36785E+01 -9.94047E+00 +3.80968E+00 -1.76935E+01
 +1.82708E+01 -4.24979E+00 +1.15655E+01 +1.47688E+01 -8.80241E+00 +1.61457E+01 -1.80794E+01 -2.28882E+00
 -4.39220E+00 -1.82111E+01 +1.61115E+01 -1.16202E+01 +1.83140E+01 +1.04012E+01 -1.23679E+00 +2.16465E+01
 -1.96156E+01 +8.45745E+00 -1.51062E+01 -1.33901E+01 +6.25976E+00 -1.76612E+01 +1.79147E+01 +2.61422E-01
 +5.35754E+00 +1.75485E+01 -1.57352E+01 +1.19578E+01 -1.85603E+01 -1.04149E+01 +1.54259E+00 -2.21024E+01
 +2.06383E+01 -8.02270E+00 +1.51955E+01 +1.53160E+01 -8.61609E+00 +1.93748E+01 -2.16716E+01 -1.37967E+00
 -7.22730E+00 -2.19552E+01 +1.81160E+01 -1.67784E+01 +2.39672E+01 +8.96959E+00 +2.96290E+00 +2.51127E+01
 -2.00352E+01 +1.28673E+01 -1.79877E+01 -1.23294E+01 +5.44379E+00 -1.96506E+01 +2.04801E+01 -6.19826E-01
 +7.91792E+00 +2.04680E+01 -1.70014E+01 +1.65008E+01 -2.31475E+01 -8.71012E+00 -2.04627E+00 -2.46060E+01
 +2.10405E+01 -1.13666E+01 +1.77013E+01 +1.51693E+01 -8.45843E+00 +2.22396E+01 -2.54516E+01 +2.40445E-01
 -1.15995E+01 -2.48710E+01 +1.76868E+01 -2.25912E+01 +2.80581E+01 +5.07169E+00 +7.64748E+00 +2.57503E+01
 -1.86092E+01 +1.57853E+01 -1.93597E+01 -1.12623E+01 +5.04892E+00 -2.14736E+01 +2.33099E+01 -2.23738E+00
 +1.18766E+01 +2.23191E+01 -1.58392E+01 +2.11530E+01 -2.58109E+01 -5.16280E+00 -5.43512E+00 -2.47079E+01
 +2.04311E+01 -1.33390E+01 +1.95710E+01 +1.51991E+01 -7.87206E+00 +2.54697E+01 -2.88501E+01 +3.55750E+00
 -1.72459E+01 -2.54255E+01 +1.42275E+01 -2.72854E+01 +2.90830E+01 +5.54838E-04 +1.09797E+01 +2.39045E+01
 -1.68562E+01 +1.67894E+01 -2.02666E+01 -1.08544E+01 +4.19708E+00 -2.37929E+01 +2.54767E+01 -5.48757E+00
 +1.65210E+01 +2.16767E+01 -1.22534E+01 +2.41211E+01 -2.57025E+01 -1.35355E+00 -7.32573E+00 -2.33279E+01
 +2.00341E+01 -1.42930E+01 +2.18543E+01 +1.52065E+01 -5.64421E+00 +2.88787E+01 -3.02637E+01 +8.77165E+00
 -2.25059E+01 -2.25580E+01 +8.75708E+00 -2.89695E+01 +2.70014E+01 -4.14281E+00 +1.20906E+01 +2.12127E+01
 -1.59027E+01 +1.68890E+01 -2.17959E+01 -1.04155E+01 +1.65654E+00 -2.60022E+01 +2.53509E+01 -1.00676E+01
 +1.99975E+01 +1.81021E+01 -7.75071E+00 +2.41230E+01 -2.35456E+01 +1.02171E+00 -7.75658E+00 -2.20254E+01
 +2.00768E+01 -1.55117E+01 +2.48726E+01 +1.38985E+01 -1.05017E+00 +3.09734E+01 -2.81722E+01 +1.45226E+01
 -2.51655E+01 -1.68382E+01 +3.51848E+00 -2.70697E+01 +2.33994E+01 -5.94470E+00 +1.17587E+01 +1.92915E+01
 -1.54368E+01 +1.75525E+01 -2.38187E+01 -8.48209E+00 -2.79041E+00 -2.64078E+01 +2.19841E+01 -1.42263E+01
 +2.05713E+01 +1.28477E+01 -4.38437E+00 +2.14983E+01 -2.11271E+01 +1.51484E+00 -8.07406E+00 -2.15794E+01
 +1.93926E+01 -1.78782E+01 +2.74537E+01 +1.00483E+01 +5.03959E+00 +2.98652E+01 -2.25454E+01 +1.84229E+01
 -2.40243E+01 -1.04557E+01 +4.89203E-01 -2.29010E+01 +2.03209E+01 -5.73971E+00 +1.16997E+01 +1.83792E+01
 -1.39401E+01 +1.92396E+01 -2.47724E+01 -4.26720E+00 -7.69323E+00 -2.35608E+01 +1.61826E+01 -1.58432E+01
