 Created: 19-Jan-2021
 $NMID
 ID='D:\BASISSIMULATI'
 FMTDAT='(8E13.5)'
 VOLUME=   1.00000E+00
 TRAMP=   1.00000E+00
 $END
 +2.91130E+01 +7.01881E-01 +2.61446E+01 +1.24060E+01 +1.80159E+01 +2.13366E+01 +6.74054E+00 +2.52860E+01
 -4.81319E+00 +2.33386E+01 -1.36873E+01 +1.61378E+01 -1.76336E+01 +5.72711E+00 -1.57268E+01 -4.99249E+00
 -8.62097E+00 -1.30439E+01 +1.62520E+00 -1.61789E+01 +1.21048E+01 -1.34860E+01 +1.98499E+01 -5.63328E+00
 +2.26316E+01 +5.31845E+00 +1.95550E+01 +1.64787E+01 +1.12867E+01 +2.49095E+01 -1.41099E-01 +2.84112E+01
 -1.18920E+01 +2.60966E+01 -2.10925E+01 +1.86033E+01 -2.55935E+01 +7.89111E+00 -2.45188E+01 -3.30894E+00
 -1.84590E+01 -1.22371E+01 -9.26741E+00 -1.68329E+01 +4.73651E-01 -1.62519E+01 +8.16157E+00 -1.10407E+01
 +1.18598E+01 -2.93410E+00 +1.07785E+01 +5.65456E+00 +5.42898E+00 +1.23004E+01 -2.57433E+00 +1.52056E+01
 -1.09936E+01 +1.36392E+01 -1.75867E+01 +8.07188E+00 -2.06927E+01 -1.45697E-02 -1.96284E+01 -8.57213E+00
 -1.48036E+01 -1.55523E+01 -7.54103E+00 -1.94337E+01 +3.28618E-01 -1.95744E+01 +6.97506E+00 -1.63078E+01
 +1.10353E+01 -1.07762E+01 +1.19196E+01 -4.56813E+00 +9.88943E+00 +7.28028E-01 +5.90602E+00 +3.92906E+00
 +1.31310E+00 +4.51609E+00 -2.54727E+00 +2.69460E+00 -4.67606E+00 -7.39881E-01 -4.63054E+00 -4.67350E+00
 -2.56783E+00 -7.99507E+00 +8.72102E-01 -9.87528E+00 +4.79192E+00 -9.93530E+00 +8.29603E+00 -8.27520E+00
 +1.07094E+01 -5.37510E+00 +1.17035E+01 -1.91529E+00 +1.13114E+01 +1.42281E+00 +9.84681E+00 +4.11746E+00
 +7.76910E+00 +5.89249E+00 +5.54120E+00 +6.71987E+00 +3.52382E+00 +6.75709E+00 +1.92707E+00 +6.25351E+00
 +8.19133E-01 +5.46262E+00 +1.72144E-01 +4.58676E+00 -8.29264E-02 +3.76334E+00 -1.76816E-02 +3.08363E+00
 +3.02984E-01 +2.62330E+00 +8.03751E-01 +2.46238E+00 +1.37128E+00 +2.67987E+00 +1.83746E+00 +3.32225E+00
 +1.99052E+00 +4.35939E+00 +1.61899E+00 +5.64935E+00 +5.78590E-01 +6.93397E+00 -1.14029E+00 +7.87691E+00
 -3.37109E+00 +8.14077E+00 -5.77697E+00 +7.48416E+00 -7.91142E+00 +5.84903E+00 -9.32302E+00 +3.40771E+00
 -9.67729E+00 +5.48931E-01 -8.86033E+00 -2.20073E+00 -7.03082E+00 -4.30323E+00 -4.60011E+00 -5.35042E+00
 -2.14049E+00 -5.18021E+00 -2.42900E-01 -3.93264E+00 +6.38349E-01 -2.02617E+00 +3.10794E-01 -5.69325E-02
 -1.09720E+00 +1.35392E+00 -3.16224E+00 +1.72452E+00 -5.27165E+00 +8.43060E-01 -6.78189E+00 -1.17107E+00
 -7.18720E+00 -3.89361E+00 -6.25327E+00 -6.70271E+00 -4.07971E+00 -8.93848E+00 -1.07492E+00 -1.00722E+01
 +2.14928E+00 -9.84023E+00 +4.93434E+00 -8.30709E+00 +6.74092E+00 -5.84329E+00 +7.28025E+00 -3.02482E+00
 +6.57772E+00 -4.83115E-01 +4.95427E+00 +1.25407E+00 +2.93339E+00 +1.88928E+00 +1.10087E+00 +1.41821E+00
 -4.45748E-02 +1.15559E-01 -2.11137E-01 -1.54877E+00 +6.24848E-01 -3.03781E+00 +2.22830E+00 -3.88500E+00
 +4.17870E+00 -3.80561E+00 +5.98451E+00 -2.75574E+00 +7.20715E+00 -9.27896E-01 +7.56286E+00 +1.31093E+00
 +6.97890E+00 +3.51871E+00 +5.59432E+00 +5.28762E+00 +3.70998E+00 +6.33533E+00 +1.70497E+00 +6.55795E+00
 -5.69007E-02 +6.03567E+00 -1.30700E+00 +4.99493E+00 -1.92076E+00 +3.74114E+00 -1.92768E+00 +2.58132E+00
 -1.48518E+00 +1.75623E+00 -8.27189E-01 +1.39637E+00 -2.03043E-01 +1.50844E+00 +1.78190E-01 +1.99075E+00
 +1.86322E-01 +2.66949E+00 -2.13848E-01 +3.34429E+00 -9.68273E-01 +3.83175E+00 -1.95584E+00 +3.99834E+00
 -3.01919E+00 +3.77832E+00 -3.99651E+00 +3.17649E+00 -4.74843E+00 +2.25898E+00 -5.17685E+00 +1.13615E+00
 -5.23504E+00 -5.77183E-02 -4.92984E+00 -1.18505E+00 -4.31742E+00 -2.12365E+00 -3.49382E+00 -2.78257E+00
 -2.58111E+00 -3.11416E+00 -1.70992E+00 -3.12124E+00 -9.99579E-01 -2.85785E+00 -5.38094E-01 -2.42236E+00
 -3.65179E-01 -1.94227E+00 -4.62194E-01 -1.55196E+00 -7.52302E-01 -1.36660E+00 -1.11259E+00 -1.45708E+00
 -1.39728E+00 -1.83175E+00 -1.46820E+00 -2.43012E+00 -1.22636E+00 -3.13134E+00 -6.37275E-01 -3.77715E+00
 +2.56473E-01 -4.20511E+00 +1.33960E+00 -4.28519E+00 +2.44549E+00 -3.95127E+00 +3.39075E+00 -3.21957E+00
 +4.01532E+00 -2.18909E+00 +4.21901E+00 -1.02281E+00 +3.98555E+00 +8.64451E-02 +3.38805E+00 +9.58237E-01
 +2.57397E+00 +1.46486E+00 +1.73254E+00 +1.56035E+00 +1.05216E+00 +1.29108E+00 +6.77366E-01 +7.84996E-01
 +6.75744E-01 +2.22014E-01 +1.02243E+00 -2.07916E-01 +1.60604E+00 -3.49149E-01 +2.25466E+00 -1.16854E-01
 +2.77591E+00 +4.82861E-01 +3.00174E+00 +1.35384E+00 +2.82763E+00 +2.33157E+00 +2.23708E+00 +3.22052E+00
 +1.30593E+00 +3.83857E+00 +1.85533E-01 +4.05816E+00 -9.31115E-01 +3.83486E+00 -1.85246E+00 +3.21687E+00
 -2.43078E+00 +2.33352E+00 -2.59420E+00 +1.36566E+00 -2.36132E+00 +5.04696E-01 -1.83518E+00 -9.00522E-02
 -1.17838E+00 -3.26266E-01 -5.75110E-01 -1.97830E-01 -1.88837E-01 +2.15730E-01 -1.25401E-01 +7.69209E-01
 -4.09701E-01 +1.28632E+00 -9.81161E-01 +1.60090E+00 -1.70876E+00 +1.59519E+00 -2.42195E+00 +1.22667E+00
 -2.95024E+00 +5.37216E-01 -3.16223E+00 -3.57005E-01 -2.99522E+00 -1.29259E+00 -2.46870E+00 -2.09630E+00
 -1.67892E+00 -2.62412E+00 -7.76013E-01 -2.79299E+00 +7.07213E-02 -2.59803E+00 +7.11094E-01 -2.11155E+00
 +1.04705E+00 -1.46441E+00 +1.05281E+00 -8.14594E-01 +7.77929E-01 -3.10470E-01 +3.32861E-01 -5.74697E-02
 -1.38843E-01 -9.58530E-02 -4.94926E-01 -3.94290E-01 -6.27097E-01 -8.60154E-01 -4.84496E-01 -1.36343E+00
 -8.29406E-02 -1.76809E+00 +5.01463E-01 -1.96328E+00 +1.15203E+00 -1.88726E+00 +1.73922E+00 -1.53892E+00
 +2.14966E+00 -9.75213E-01 +2.30968E+00 -2.95920E-01 +2.19878E+00 +3.79851E-01 +1.85062E+00 +9.39596E-01
 +1.34264E+00 +1.29998E+00 +7.77448E-01 +1.42153E+00 +2.60691E-01 +1.31325E+00 -1.19709E-01 +1.02726E+00
 -3.09086E-01 +6.45592E-01 -2.93993E-01 +2.62588E-01 -1.02027E-01 -3.34592E-02 +2.05521E-01 -1.76227E-01
 +5.46303E-01 -1.32511E-01 +8.32424E-01 +9.26851E-02 +9.86421E-01 +4.57451E-01 +9.55451E-01 +8.90290E-01
 +7.21678E-01 +1.30246E+00 +3.07210E-01 +1.60380E+00 -2.27673E-01 +1.71982E+00 -7.93438E-01 +1.60747E+00
 -1.28677E+00 +1.26643E+00 -1.61052E+00 +7.43045E-01 -1.69476E+00 +1.25051E-01 -1.51445E+00 -4.73378E-01
 -1.09921E+00 -9.34242E-01 -5.31746E-01 -1.16189E+00 +6.63819E-02 -1.10690E+00 +5.59732E-01 -7.81620E-01
 +8.29966E-01 -2.62282E-01 +8.05669E-01 +3.24247E-01 +4.83355E-01 +8.27540E-01 -6.66410E-02 +1.10896E+00
 -7.12360E-01 +1.07703E+00 -1.28898E+00 +7.13668E-01 -1.63811E+00 +8.37627E-02 -1.64829E+00 -6.75734E-01
 -1.28616E+00 -1.38588E+00 -6.09737E-01 -1.86847E+00 +2.40953E-01 -1.99116E+00 +1.07475E+00 -1.70336E+00
 +1.69490E+00 -1.05320E+00 +1.94821E+00 -1.80036E-01 +1.76545E+00 +7.16466E-01 +1.18198E+00 +1.42401E+00
 +3.32738E-01 +1.77030E+00 -5.78159E-01 +1.66748E+00 -1.32634E+00 +1.13670E+00 -1.72265E+00 +3.05937E-01
 -1.66138E+00 -6.19087E-01 -1.14879E+00 -1.40429E+00 -3.04353E-01 -1.84493E+00 +6.66318E-01 -1.81734E+00
 +1.52053E+00 -1.31160E+00 +2.03784E+00 -4.36677E-01 +2.07514E+00 +6.03791E-01 +1.60363E+00 +1.55953E+00
 +7.18468E-01 +2.19403E+00 -3.81815E-01 +2.34273E+00 -1.44152E+00 +1.95464E+00 -2.20876E+00 +1.10703E+00
 -2.49653E+00 -1.07348E-02 -2.22915E+00 -1.14086E+00 -1.46258E+00 -2.01807E+00 -3.73311E-01 -2.43341E+00
 +7.82030E-01 -2.28561E+00 +1.72710E+00 -1.60744E+00 +2.23215E+00 -5.60200E-01 +2.17033E+00 +6.02755E-01
 +1.55037E+00 +1.59551E+00 +5.17233E-01 +2.16811E+00 -6.80157E-01 +2.16782E+00 -1.74693E+00 +1.57835E+00
 -2.41279E+00 +5.26870E-01 -2.49813E+00 -7.43500E-01 -1.95980E+00 -1.92998E+00 -9.04741E-01 -2.74221E+00
 +4.32491E-01 -2.97305E+00 +1.74384E+00 -2.55068E+00 +2.72098E+00 -1.55896E+00 +3.13028E+00 -2.20219E-01
 +2.87103E+00 +1.15630E+00 +2.00228E+00 +2.24825E+00 +7.30998E-01 +2.79866E+00 -6.36462E-01 +2.67974E+00
 -1.76817E+00 +1.92587E+00 -2.38783E+00 +7.27050E-01 -2.34340E+00 -6.16306E-01 -1.64558E+00 -1.76640E+00
 -4.66469E-01 -2.43109E+00 +9.01964E-01 -2.43628E+00 +2.11939E+00 -1.76935E+00 +2.88084E+00 -5.82626E-01
 +2.99174E+00 +8.44043E-01 +2.41539E+00 +2.17233E+00 +1.28103E+00 +3.08857E+00 -1.49154E-01 +3.38013E+00
 -1.54556E+00 +2.98584E+00 -2.59225E+00 +2.00837E+00 -3.06307E+00 +6.85954E-01 -2.87399E+00 -6.68427E-01
 -2.09906E+00 -1.74447E+00 -9.47427E-01 -2.30874E+00 +2.91721E-01 -2.25748E+00 +1.32112E+00 -1.63574E+00
 +1.90594E+00 -6.19830E-01 +1.92563E+00 +5.30526E-01 +1.39561E+00 +1.53709E+00 +4.55670E-01 +2.16800E+00
 -6.69583E-01 +2.28730E+00 -1.72659E+00 +1.87862E+00 -2.49034E+00 +1.03988E+00 -2.81011E+00 -4.65349E-02
 -2.63462E+00 -1.15885E+00 -2.01357E+00 -2.08405E+00 -1.07873E+00 -2.65851E+00 -1.16626E-02 -2.79407E+00
 +9.93327E-01 -2.48681E+00 +1.76340E+00 -1.81047E+00 +2.17357E+00 -8.98611E-01 +2.16329E+00 +7.96111E-02
 +1.74329E+00 +9.45954E-01 +9.93770E-01 +1.53949E+00 +5.45668E-02 +1.74131E+00 -8.92753E-01 +1.49594E+00
 -1.65097E+00 +8.26939E-01 -2.04050E+00 -1.57427E-01 -1.93634E+00 -1.27260E+00 -1.30214E+00 -2.28339E+00
 -2.12462E-01 -2.94630E+00 +1.14574E+00 -3.06277E+00 +2.49829E+00 -2.53256E+00 +3.53544E+00 -1.39324E+00
 +3.98204E+00 +1.68088E-01 +3.67076E+00 +1.83951E+00 +2.59902E+00 +3.24560E+00 +9.51041E-01 +4.03464E+00
 -9.26558E-01 +3.97184E+00 -2.59575E+00 +3.01354E+00 -3.63135E+00 +1.33942E+00 -3.73378E+00 -6.71911E-01
 -2.82015E+00 -2.52347E+00 -1.06584E+00 -3.72079E+00 +1.11999E+00 -3.90345E+00 +3.18449E+00 -2.95201E+00
 +4.56780E+00 -1.03821E+00 +4.85214E+00 +1.39994E+00 +3.88327E+00 +3.75737E+00 +1.82839E+00 +5.41323E+00
 -8.49588E-01 +5.89602E+00 -3.49954E+00 +5.01781E+00 -5.44658E+00 +2.93878E+00 -6.17111E+00 +1.40535E-01
 -5.45391E+00 -2.68884E+00 -3.44600E+00 -4.83039E+00 -6.40904E-01 -5.72479E+00 +2.24648E+00 -5.12614E+00
 +4.46438E+00 -3.17572E+00 +5.42339E+00 -3.73220E-01 +4.85648E+00 +2.54912E+00 +2.89519E+00 +4.81736E+00
 +4.00619E-02 +5.82084E+00 -2.96837E+00 +5.27577E+00 -5.34394E+00 +3.30270E+00 -6.46237E+00 +3.96280E-01
 -6.02601E+00 -2.70488E+00 -4.14123E+00 -5.21311E+00 -1.28810E+00 -6.49855E+00 +1.80883E+00 -6.25244E+00
 +4.37281E+00 -4.56341E+00 +5.77787E+00 -1.88760E+00 +5.70813E+00 +1.07723E+00 +4.23200E+00 +3.57828E+00
 +1.77362E+00 +5.00351E+00 -1.00756E+00 +5.03463E+00 -3.39434E+00 +3.71834E+00 -4.79734E+00 +1.44008E+00
 -4.89964E+00 -1.18871E+00 -3.72431E+00 -3.49607E+00 -1.61142E+00 -4.92206E+00 +8.84576E-01 -5.15308E+00
