 Created: 19-Jan-2021
 $NMID
 ID='D:\BASISSIMULATI'
 FMTDAT='(8E13.5)'
 VOLUME=   1.00000E+00
 TRAMP=   1.00000E+00
 $END
 +2.52870E+01 +1.23678E-01 +2.14635E+01 +1.33328E+01 +1.12986E+01 +2.25784E+01 -2.19156E+00 +2.51325E+01
 -1.50125E+01 +2.02502E+01 -2.33737E+01 +9.38707E+00 -2.48096E+01 -4.23499E+00 -1.89064E+01 -1.65833E+01
 -7.42137E+00 -2.40081E+01 +6.24033E+00 -2.43214E+01 +1.80352E+01 -1.74418E+01 +2.44780E+01 -5.41501E+00
 +2.36720E+01 +8.19427E+00 +1.58668E+01 +1.93589E+01 +3.38166E+00 +2.47811E+01 -1.00839E+01 +2.28664E+01
 -2.05463E+01 +1.41925E+01 -2.49162E+01 +1.33514E+00 -2.19109E+01 -1.18969E+01 -1.24307E+01 -2.15899E+01
 +7.10745E-01 -2.48831E+01 +1.36213E+01 -2.08125E+01 +2.24835E+01 -1.05935E+01 +2.46828E+01 +2.74223E+00
 +1.95793E+01 +1.52461E+01 +8.69372E+00 +2.32216E+01 -4.74572E+00 +2.43174E+01 -1.67606E+01 +1.82202E+01
 -2.38002E+01 +6.74442E+00 -2.37903E+01 -6.70788E+00 -1.67451E+01 -1.81554E+01 -4.75894E+00 -2.42159E+01
 +8.61571E+00 -2.31056E+01 +1.94215E+01 -1.51642E+01 +2.44669E+01 -2.75078E+00 +2.22688E+01 +1.04566E+01
 +1.34888E+01 +2.05510E+01 +7.33569E-01 +2.45521E+01 -1.22186E+01 +2.12862E+01 -2.15371E+01 +1.17306E+01
 -2.44719E+01 -1.27909E+00 -2.01651E+01 -1.38901E+01 -9.90174E+00 -2.23736E+01 +3.27369E+00 -2.42274E+01
 +1.54603E+01 -1.89136E+01 +2.30558E+01 -8.01491E+00 +2.38212E+01 +5.23690E+00 +1.75408E+01 +1.69192E+01
 +6.08306E+00 +2.35798E+01 -7.15566E+00 +2.32567E+01 -1.82575E+01 +1.60566E+01 -2.39427E+01 +4.11938E+00
 -2.25385E+01 -9.01728E+00 -1.44713E+01 -1.94667E+01 -2.13723E+00 -2.41429E+01 +1.08095E+01 -2.16721E+01
 +2.05393E+01 -1.27962E+01 +2.41798E+01 -1.50024E-01 +2.06640E+01 +1.25206E+01 +1.10428E+01 +2.14687E+01
 -1.82884E+00 +2.40539E+01 -1.41395E+01 +1.95217E+01 -2.22494E+01 +9.22353E+00 -2.37669E+01 -3.78611E+00
 -1.82535E+01 -1.56557E+01 -7.35073E+00 -2.28768E+01 +5.70872E+00 -2.33214E+01 +1.70595E+01 -1.68685E+01
 +2.33475E+01 -5.43731E+00 +2.27212E+01 +7.58390E+00 +1.53766E+01 +1.83419E+01 +3.49633E+00 +2.36589E+01
 -9.39926E+00 +2.19710E+01 -1.94950E+01 +1.37883E+01 -2.38097E+01 +1.54095E+00 -2.10765E+01 -1.11429E+01
 -1.21148E+01 -2.05116E+01 +4.15592E-01 -2.37998E+01 +1.28034E+01 -2.00446E+01 +2.13854E+01 -1.03676E+01
 +2.36298E+01 +2.36014E+00 +1.88827E+01 +1.43700E+01 +8.55896E+00 +2.21114E+01 -4.27968E+00 +2.33017E+01
 -1.58326E+01 +1.75993E+01 -2.26852E+01 +6.70126E+00 -2.28185E+01 -6.16142E+00 -1.62036E+01 -1.71818E+01
 -4.80722E+00 -2.31038E+01 +7.99287E+00 -2.21841E+01 +1.84092E+01 -1.47055E+01 +2.33651E+01 -2.88977E+00
 +2.14035E+01 +9.76197E+00 +1.31155E+01 +1.95070E+01 +9.61893E-01 +2.34680E+01 -1.14571E+01 +2.04827E+01
 -2.04684E+01 +1.14448E+01 -2.34126E+01 -9.63386E-01 -1.94284E+01 -1.30672E+01 -9.70503E+00 -2.12877E+01
 +2.87314E+00 -2.32000E+01 +1.45819E+01 -1.82485E+01 +2.19600E+01 -7.90815E+00 +2.28325E+01 +4.75459E+00
 +1.69514E+01 +1.59914E+01 +6.06655E+00 +2.24815E+01 -6.59522E+00 +2.23131E+01 -1.72867E+01 +1.55464E+01
 -2.28493E+01 +4.19280E+00 -2.16461E+01 -8.38285E+00 -1.40434E+01 -1.84597E+01 -2.29967E+00 -2.30618E+01
 +1.01057E+01 -2.08367E+01 +1.95031E+01 -1.24531E+01 +2.31182E+01 -3.99980E-01 +1.98909E+01 +1.17525E+01
 +1.07865E+01 +2.04104E+01 -1.49347E+00 +2.30188E+01 -1.33125E+01 +1.88159E+01 -2.11762E+01 +9.05523E+00
 -2.27651E+01 -3.36798E+00 -1.76194E+01 -1.47757E+01 -7.27119E+00 -2.17959E+01 +5.21103E+00 -2.23596E+01
 +1.61326E+01 -1.63100E+01 +2.22662E+01 -5.44665E+00 +2.18055E+01 +7.01037E+00 +1.48971E+01 +1.73747E+01
 +3.59406E+00 +2.25846E+01 -8.75411E+00 +2.11075E+01 -1.84941E+01 +1.33907E+01 -2.27496E+01 +1.72600E+00
 -2.02708E+01 -1.04308E+01 -1.18013E+01 -1.94838E+01 +1.44872E-01 -2.27608E+01 +1.20294E+01 -1.93017E+01
 +2.03379E+01 -1.01400E+01 +2.26189E+01 +2.00598E+00 +1.82074E+01 +1.35397E+01 +8.41833E+00 +2.10512E+01
 -3.84485E+00 +2.23256E+01 -1.49518E+01 +1.69957E+01 -2.16196E+01 +6.64816E+00 -2.18835E+01 -5.64921E+00
 -1.56755E+01 -1.62567E+01 -4.84160E+00 -2.20400E+01 +7.40711E+00 -2.12964E+01 +1.74461E+01 -1.42561E+01
 +2.23101E+01 -3.01097E+00 +2.05688E+01 +9.10693E+00 +1.27475E+01 +1.85127E+01 +1.16871E+00 +2.24290E+01
 -1.07375E+01 +1.97063E+01 -1.94497E+01 +1.11602E+01 -2.23964E+01 -6.72758E-01 -1.87153E+01 -1.22882E+01
 -9.50542E+00 -2.02515E+01 +2.50104E+00 -2.22134E+01 +1.37490E+01 -1.76032E+01 +2.09134E+01 -7.79445E+00
 +2.18819E+01 +4.30391E+00 +1.63779E+01 +1.51105E+01 +6.03911E+00 +2.14316E+01 -6.06936E+00 +2.14049E+01
 -1.63640E+01 +1.50482E+01 -2.18032E+01 +4.25141E+00 -2.07861E+01 -7.78570E+00 -1.36236E+01 -1.75015E+01
 -2.44353E+00 -2.20264E+01 +9.44161E+00 -2.00304E+01 +1.85160E+01 -1.21141E+01 +2.21004E+01 -6.27715E-01
 +1.91436E+01 +1.10262E+01 +1.05302E+01 +1.94012E+01 -1.18378E+00 +2.20255E+01 -1.25293E+01 +1.81323E+01
 -2.01517E+01 +8.88292E+00 -2.18029E+01 -2.97881E+00 -1.70037E+01 -1.39410E+01 -7.18367E+00 -2.07633E+01
 +4.74536E+00 -2.14346E+01 +1.52523E+01 -1.57661E+01 +2.12323E+01 -5.44410E+00 +2.09240E+01 +6.47169E+00
 +1.44284E+01 +1.64549E+01 +3.67610E+00 +2.15564E+01 -8.14639E+00 +2.02750E+01 -1.75412E+01 +1.29998E+01
 -2.17339E+01 +1.89170E+00 -1.94928E+01 -9.75844E+00 -1.14906E+01 -1.85045E+01 -1.02957E-01 -2.17645E+01
 +1.12973E+01 -1.85831E+01 +1.93387E+01 -9.91123E+00 +2.16486E+01 +1.67806E+00 +1.75528E+01 +1.27529E+01
 +8.27262E+00 +2.00390E+01 -3.43943E+00 +2.13877E+01 -1.41160E+01 +1.64093E+01 -2.06013E+01 +6.58608E+00
 -2.09841E+01 -5.16938E+00 -1.51608E+01 -1.53777E+01 -4.86317E+00 -2.10224E+01 +6.85644E+00 -2.04414E+01
 +1.65300E+01 -1.38162E+01 +2.13001E+01 -3.11567E+00 +1.97637E+01 +8.48947E+00 +1.23851E+01 +1.75658E+01
 +1.35543E+00 +2.14333E+01 -1.00577E+01 +1.89563E+01 -1.84786E+01 +1.08773E+01 -2.14217E+01 -4.05653E-01
 -1.80252E+01 -1.15510E+01 -9.30356E+00 -1.92629E+01 +2.15573E+00 -2.12662E+01 +1.29595E+01 -1.69773E+01
 +1.99139E+01 -7.67462E+00 +2.09683E+01 +3.88308E+00 +1.58202E+01 +1.42743E+01 +6.00173E+00 +2.04280E+01
 -5.57619E+00 +2.05309E+01 -1.54869E+01 +1.45621E+01 -2.08022E+01 +4.29635E+00 -1.99574E+01 -7.22385E+00
 -1.32120E+01 -1.65897E+01 -2.57009E+00 -2.10348E+01 +8.81519E+00 -1.92525E+01 +1.75757E+01 -1.17794E+01
 +2.11249E+01 -8.34668E-01 +1.84214E+01 +1.03398E+01 +1.02744E+01 +1.84389E+01 -8.98210E-01 +2.10725E+01
 -1.17876E+01 +1.74703E+01 -1.91741E+01 +8.70730E+00 -2.08786E+01 -2.61690E+00 -1.64062E+01 -1.31494E+01
 -7.08903E+00 -1.97768E+01 +4.30992E+00 -2.05453E+01 +1.44164E+01 -1.52368E+01 +2.02438E+01 -5.43070E+00
 +2.00753E+01 +5.96599E+00 +1.39704E+01 +1.55805E+01 +3.74365E+00 +2.05724E+01 -7.57416E+00 +1.94726E+01
 -1.66343E+01 +1.26160E+01 -2.07611E+01 +2.03935E+00 -1.87418E+01 -9.12383E+00 -1.11832E+01 -1.75713E+01
 -3.29352E-01 -2.08093E+01 +1.06049E+01 -1.78883E+01 +1.83858E+01 -9.68191E+00 +2.07174E+01 +1.37482E+00
 +1.69186E+01 +1.20076E+01 +8.12255E+00 +1.90728E+01 -3.06174E+00 +2.04865E+01 -1.33230E+01 +1.58397E+01
 -1.96283E+01 +6.51591E+00 -2.01190E+01 -4.72013E+00 -1.46593E+01 -1.45427E+01 -4.87301E+00 -2.00492E+01
 +6.33899E+00 -1.96180E+01 +1.56588E+01 -1.33859E+01 +2.03333E+01 -3.20506E+00 +1.89873E+01 +7.90761E+00
 +1.20285E+01 +1.66644E+01 +1.52340E+00 +2.04793E+01 -9.41568E+00 +1.82320E+01 -1.75531E+01 +1.05965E+01
 -2.04869E+01 -1.60598E-01 -1.73576E+01 -1.08533E+01 -9.10007E+00 -1.83197E+01 +1.83560E+00 -2.03567E+01
 +1.22113E+01 -1.63706E+01 +1.89595E+01 -7.54945E+00 +2.00903E+01 +3.49038E+00 +1.52781E+01 +1.34807E+01
 +5.95535E+00 +1.94687E+01 -5.11392E+00 +1.96900E+01 -1.46535E+01 +1.40880E+01 -1.98447E+01 +4.32870E+00
 -1.91591E+01 -6.69543E+00 -1.28088E+01 -1.57222E+01 -2.68059E+00 -2.00854E+01 +8.22448E+00 -1.85020E+01
 +1.66802E+01 -1.14495E+01 +2.01900E+01 -1.02220E+00 +1.77235E+01 +9.69103E+00 +1.00196E+01 +1.75216E+01
 -6.35267E-01 +2.01582E+01 -1.10855E+01 +1.68295E+01 -1.82411E+01 +8.52900E+00 -1.99911E+01 -2.28067E+00
 -1.58265E+01 -1.23989E+01 -6.98807E+00 -1.88346E+01 +3.90300E+00 -1.96903E+01 +1.36228E+01 -1.47218E+01
 +1.92987E+01 -5.40739E+00 +1.92586E+01 +5.49146E+00 +1.35233E+01 +1.47492E+01 +3.79779E+00 +1.96308E+01
 -7.03552E+00 +1.86993E+01 -1.57712E+01 +1.22394E+01 -1.98293E+01 +2.17021E+00 -1.80169E+01 -8.52501E+00
 -1.08794E+01 -1.66824E+01 -5.35687E-01 -1.98935E+01 +9.95017E+00 -1.72166E+01 +1.74771E+01 -9.45252E+00
 +1.98237E+01 +1.09475E+00 +1.63043E+01 +1.13017E+01 +7.96882E+00 +1.81505E+01 -2.71016E+00 +1.96209E+01
 -1.25709E+01 +1.52866E+01 -1.86987E+01 +6.43851E+00 -1.92871E+01 -4.29976E+00 -1.41709E+01 -1.37496E+01
 -4.87209E+00 -1.91185E+01 +5.85296E+00 -1.88252E+01 +1.48303E+01 -1.29652E+01 +1.94079E+01 -3.28028E+00
 +1.82388E+01 +7.35951E+00 +1.16779E+01 +1.58062E+01 +1.67389E+00 +1.95653E+01 -8.80948E+00 +1.75326E+01
 -1.66712E+01 +1.03182E+01 -1.95905E+01 +6.37964E-02 -1.67118E+01 -1.01934E+01 -8.89549E+00 -1.74200E+01
 +1.53916E+00 -1.94838E+01 +1.15023E+01 -1.57824E+01 +1.80482E+01 -7.41963E+00 +1.92466E+01 +3.12422E+00
 +1.47513E+01 +1.27276E+01 +5.90082E+00 +1.85521E+01 -4.68083E+00 +1.88810E+01 -1.38616E+01 +1.36259E+01
 -1.89288E+01 +4.34947E+00 -1.83903E+01 -6.19864E+00 -1.24141E+01 -1.48971E+01 -2.77617E+00 -1.91764E+01
 +7.66763E+00 -1.77781E+01 +1.58275E+01 -1.11245E+01 +1.92940E+01 -1.19159E+00 +1.70493E+01 +9.07815E+00
 +9.76622E+00 +1.66471E+01 -3.93551E-01 +1.92812E+01 -1.04210E+01 +1.62093E+01 -1.73509E+01 +8.34862E+00
 -1.91389E+01 -1.96859E+00 -1.52642E+01 -1.16875E+01 -6.88154E+00 -1.79348E+01 +3.52299E+00 -1.88685E+01
 +1.28694E+01 -1.42209E+01 +1.83953E+01 -5.37509E+00 +1.84725E+01 +5.04639E+00 +1.30869E+01 +1.39592E+01
 +3.83957E+00 +1.87299E+01 -6.52870E+00 +1.79542E+01 -1.49500E+01 +1.18702E+01 -1.89370E+01 +2.28544E+00
 -1.73175E+01 -7.96013E+00 -1.05794E+01 -1.58356E+01 -7.23262E-01 -1.90157E+01 +9.33131E+00 -1.65674E+01
 +1.66106E+01 -9.22355E+00 +1.89663E+01 +8.36441E-01 +1.57094E+01 +1.06333E+01 +7.81204E+00 +1.72702E+01
 -2.38319E+00 +1.87895E+01 -1.18576E+01 +1.47498E+01 -1.78106E+01 +6.35463E+00 -1.84872E+01 -3.90663E+00
 -1.36956E+01 -1.29965E+01 -4.86134E+00 -1.82287E+01 +5.39665E+00 -1.80620E+01 +1.40426E+01 -1.25542E+01
