 Created: 19-Jan-2021
 $NMID
 ID='D:\BASISSIMULATI'
 FMTDAT='(8E13.5)'
 VOLUME=   1.00000E+00
 TRAMP=   1.00000E+00
 $END
 +2.88540E+01 +1.14017E-01 +2.44060E+01 +1.47599E+01 +1.25393E+01 +2.41341E+01 -2.19284E+00 +2.49393E+01
 -1.41934E+01 +1.72311E+01 -1.90208E+01 +4.36902E+00 -1.51215E+01 -8.32964E+00 -4.41615E+00 -1.56982E+01
 +8.48526E+00 -1.47565E+01 +1.81221E+01 -5.87435E+00 +2.03473E+01 +7.39158E+00 +1.39626E+01 +1.97152E+01
 +1.18471E+00 +2.61091E+01 -1.32353E+01 +2.38887E+01 -2.38856E+01 +1.37227E+01 -2.68177E+01 -6.41804E-01
 -2.10841E+01 -1.38599E+01 -9.08917E+00 -2.10900E+01 +4.37855E+00 -1.98828E+01 +1.40436E+01 -1.11191E+01
 +1.62190E+01 +1.36842E+00 +1.02420E+01 +1.23298E+01 -1.28922E+00 +1.71808E+01 -1.35647E+01 +1.38087E+01
 -2.14757E+01 +3.39402E+00 -2.16339E+01 -1.00691E+01 -1.37021E+01 -2.13583E+01 -5.16406E-01 -2.60812E+01
 +1.30390E+01 -2.23966E+01 +2.19552E+01 -1.17223E+01 +2.30581E+01 +1.84100E+00 +1.62343E+01 +1.31347E+01
 +4.44587E+00 +1.79698E+01 -7.46105E+00 +1.47587E+01 -1.46793E+01 +5.11110E+00 -1.43324E+01 -6.83061E+00
 -6.59167E+00 -1.60476E+01 +5.41353E+00 -1.86326E+01 +1.68497E+01 -1.33259E+01 +2.30947E+01 -1.99942E+00
 +2.15566E+01 +1.10952E+01 +1.26825E+01 +2.10081E+01 -2.33338E-01 +2.40348E+01 -1.23584E+01 +1.91578E+01
 -1.92231E+01 +8.42133E+00 -1.84641E+01 -3.89734E+00 -1.07264E+01 -1.29854E+01 +6.23322E-01 -1.53868E+01
 +1.08502E+01 -1.03452E+01 +1.57290E+01 -7.25439E-02 +1.32053E+01 +1.11502E+01 +4.18829E+00 +1.86790E+01
 -7.82773E+00 +1.93412E+01 -1.81564E+01 +1.26760E+01 -2.27685E+01 +1.09983E+00 -1.98689E+01 -1.10603E+01
 -1.05824E+01 -1.92746E+01 +1.51064E+00 -2.05829E+01 +1.17982E+01 -1.47360E+01 +1.64505E+01 -4.26171E+00
 +1.39097E+01 +6.55722E+00 +5.47186E+00 +1.33844E+01 -5.25595E+00 +1.35339E+01 -1.38017E+01 +7.00882E+00
 -1.65993E+01 -3.52721E+00 -1.23861E+01 -1.38236E+01 -2.68154E+00 -1.97302E+01 +8.83087E+00 -1.88285E+01
 +1.77664E+01 -1.13684E+01 +2.07625E+01 -1.48336E-01 +1.67844E+01 +1.06027E+01 +7.50467E+00 +1.68924E+01
 -3.38153E+00 +1.65214E+01 -1.16271E+01 +9.92013E+00 -1.41025E+01 -5.49922E-02 -1.00078E+01 -9.27446E+00
 -1.15661E+00 -1.39743E+01 +8.76932E+00 -1.22326E+01 +1.56903E+01 -4.70560E+00 +1.67389E+01 +5.65679E+00
 +1.13767E+01 +1.47927E+01 +1.58381E+00 +1.91336E+01 -8.94030E+00 +1.69987E+01 -1.62423E+01 +9.23316E+00
 -1.76621E+01 -1.15058E+00 -1.28557E+01 -1.01761E+01 -3.89737E+00 -1.44686E+01 +5.56558E+00 -1.25658E+01
 +1.17639E+01 -5.46090E+00 +1.22862E+01 +3.82212E+00 +7.00607E+00 +1.14454E+01 -1.89800E+00 +1.42765E+01
 -1.08285E+01 +1.11121E+01 -1.61995E+01 +3.12808E+00 -1.58448E+01 -6.60816E+00 -9.85136E+00 -1.43616E+01
 -4.99391E-01 -1.71993E+01 +8.65600E+00 -1.41261E+01 +1.41898E+01 -6.44748E+00 +1.41417E+01 +2.77405E+00
 +8.75821E+00 +9.94161E+00 +3.60787E-01 +1.23383E+01 -7.59715E+00 +9.17580E+00 -1.19019E+01 +1.87214E+00
 -1.08371E+01 -6.53948E+00 -4.83534E+00 -1.26258E+01 +3.72182E+00 -1.39078E+01 +1.14649E+01 -9.82067E+00
 +1.53706E+01 -1.91004E+00 +1.39403E+01 +6.80129E+00 +7.76474E+00 +1.30155E+01 -7.38223E-01 +1.44507E+01
 -8.29555E+00 +1.07150E+01 -1.20700E+01 +3.42665E+00 -1.07596E+01 -4.45305E+00 -5.07763E+00 -9.80121E+00
 +2.56312E+00 -1.05578E+01 +9.02632E+00 -6.51329E+00 +1.16944E+01 +6.41702E-01 +9.48635E+00 +8.01148E+00
 +3.25692E+00 +1.26503E+01 -4.56916E+00 +1.27174E+01 -1.09707E+01 +8.17963E+00 -1.35202E+01 +7.95289E-01
 -1.13208E+01 -6.60238E+00 -5.32872E+00 -1.12287E+01 +2.05468E+00 -1.14314E+01 +7.94701E+00 -7.31216E+00
 +1.01188E+01 -6.50665E-01 +7.84988E+00 +5.82500E+00 +2.17971E+00 +9.52437E+00 -4.53579E+00 +9.00530E+00
 -9.57276E+00 +4.51556E+00 -1.09132E+01 -2.13701E+00 -8.02130E+00 -8.32179E+00 -2.02492E+00 -1.16295E+01
 +4.75658E+00 -1.08085E+01 +9.74011E+00 -6.23060E+00 +1.10903E+01 +2.87637E-01 +8.41772E+00 +6.22239E+00
 +2.89785E+00 +9.34060E+00 -3.22284E+00 +8.56225E+00 -7.52751E+00 +4.35348E+00 -8.37538E+00 -1.49250E+00
 -5.52349E+00 -6.58731E+00 -1.88316E-01 -8.89456E+00 +5.46373E+00 -7.51739E+00 +9.18462E+00 -3.02266E+00
 +9.52425E+00 +2.81376E+00 +6.37779E+00 +7.72731E+00 +9.95066E-01 +9.85817E+00 -4.53821E+00 +8.46501E+00
 -8.13187E+00 +4.18510E+00 -8.50318E+00 -1.24914E+00 -5.65325E+00 -5.71251E+00 -8.30795E-01 -7.52374E+00
 +3.98877E+00 -6.08665E+00 +6.89300E+00 -2.09112E+00 +6.77563E+00 +2.79236E+00 +3.74481E+00 +6.59165E+00
 -9.53194E-01 +7.81011E+00 -5.45142E+00 +5.99640E+00 -8.00636E+00 +1.89079E+00 -7.67227E+00 -2.89650E+00
 -4.64513E+00 -6.53586E+00 -1.52298E-01 -7.69441E+00 +4.05522E+00 -6.03694E+00 +6.39786E+00 -2.32350E+00
 +6.07364E+00 +1.92158E+00 +3.34231E+00 +5.02655E+00 -6.12330E-01 +5.82574E+00 -4.17437E+00 +4.09418E+00
 -5.93854E+00 +6.01831E-01 -5.24869E+00 -3.22056E+00 -2.42612E+00 -5.86042E+00 +1.38973E+00 -6.31313E+00
 +4.71231E+00 -4.45324E+00 +6.29610E+00 -1.05075E+00 +5.60893E+00 +2.56030E+00 +3.00959E+00 +5.01887E+00
 -4.26574E-01 +5.46306E+00 -3.35235E+00 +3.84158E+00 -4.67998E+00 +8.98599E-01 -3.98941E+00 -2.14857E+00
 -1.66039E+00 -4.10082E+00 +1.31074E+00 -4.23959E+00 +3.72448E+00 -2.58241E+00 +4.65107E+00 +1.58156E-01
 +3.77669E+00 +2.88238E+00 +1.49504E+00 +4.54592E+00 -1.27893E+00 +4.55926E+00 -3.48696E+00 +2.99130E+00
 -4.34104E+00 +5.08622E-01 -3.61077E+00 -1.91240E+00 -1.68010E+00 -3.37683E+00 +6.35481E-01 -3.40889E+00
 +2.42715E+00 -2.10865E+00 +3.04641E+00 -7.77822E-02 +2.33669E+00 +1.84290E+00 +6.61039E-01 +2.91107E+00
 -1.27169E+00 +2.76045E+00 -2.70168E+00 +1.51501E+00 -3.11185E+00 -2.92874E-01 -2.40726E+00 -1.95507E+00
 -9.19307E-01 -2.87010E+00 +7.53555E-01 -2.76278E+00 +1.99417E+00 -1.76129E+00 +2.40113E+00 -3.13713E-01
 +1.92020E+00 +1.00996E+00 +8.31206E-01 +1.74399E+00 -3.91027E-01 +1.69121E+00 -1.27569E+00 +9.68433E-01
 -1.53209E+00 -7.25919E-02 -1.13732E+00 -1.00457E+00 -3.11515E-01 -1.49370E+00 +5.95994E-01 -1.41169E+00
 +1.25428E+00 -8.54631E-01 +1.47004E+00 -7.39220E-02 +1.23610E+00 +6.40939E-01 +7.01049E-01 +1.07430E+00
 +8.53066E-02 +1.14765E+00 -4.13233E-01 +9.17807E-01 -6.83696E-01 +5.23607E-01 -7.16657E-01 +1.14208E-01
 -5.74211E-01 -2.06077E-01 -3.40568E-01 -3.96144E-01 -8.22898E-02 -4.61363E-01 +1.63763E-01 -4.21260E-01
 +3.75787E-01 -2.86142E-01 +5.23085E-01 -5.78894E-02 +5.55164E-01 +2.47517E-01 +4.17236E-01 +5.73970E-01
 +8.76913E-02 +8.18897E-01 -3.83571E-01 +8.60440E-01 -8.62927E-01 +6.12721E-01 -1.16436E+00 +8.46167E-02
 -1.12047E+00 -5.90929E-01 -6.66093E-01 -1.18148E+00 +1.05270E-01 -1.43480E+00 +9.46576E-01 -1.18681E+00
 +1.53417E+00 -4.51933E-01 +1.59415E+00 +5.49975E-01 +1.02871E+00 +1.45356E+00 -1.49237E-02 +1.88150E+00
 -1.17192E+00 +1.60296E+00 -1.98522E+00 +6.50586E-01 -2.08644E+00 -6.60635E-01 -1.36071E+00 -1.83264E+00
 -2.25834E-02 -2.37244E+00 +1.43909E+00 -1.99827E+00 +2.43722E+00 -7.77752E-01 +2.52074E+00 +8.66973E-01
 +1.57357E+00 +2.30175E+00 -1.08356E-01 +2.92368E+00 -1.90466E+00 +2.41189E+00 -3.09940E+00 +8.81687E-01
 -3.16709E+00 -1.12946E+00 -2.00139E+00 -2.85098E+00 +1.23173E-02 -3.57748E+00 +2.12127E+00 -2.96060E+00
 +3.48834E+00 -1.17381E+00 +3.52756E+00 +1.12607E+00 +2.15750E+00 +3.03717E+00 -1.36394E-01 +3.76515E+00
 -2.46701E+00 +2.95214E+00 -3.88382E+00 +8.46303E-01 -3.75527E+00 -1.76616E+00 -2.04174E+00 -3.85137E+00
 +6.57888E-01 -4.53367E+00 +3.31641E+00 -3.45768E+00 +4.87226E+00 -9.57083E-01 +4.65609E+00 +2.04760E+00
 +2.67817E+00 +4.39333E+00 -3.46092E-01 +5.13222E+00 -3.25434E+00 +3.92218E+00 -4.88683E+00 +1.18935E+00
 -4.55351E+00 -2.01274E+00 -2.33025E+00 -4.40286E+00 +9.41965E-01 -4.97938E+00 +3.96652E+00 -3.43442E+00
 +5.49588E+00 -3.04249E-01 +4.83546E+00 +3.21474E+00 +2.14335E+00 +5.72247E+00 -1.60224E+00 +6.16987E+00
 -4.96620E+00 +4.29199E+00 -6.61578E+00 +7.40854E-01 -5.85732E+00 -3.14526E+00 -2.93401E+00 -5.85550E+00
 +1.04273E+00 -6.30551E+00 +4.51216E+00 -4.28412E+00 +6.07612E+00 -5.63410E-01 +5.06395E+00 +3.38222E+00
 +1.82240E+00 +5.94686E+00 -2.39391E+00 +6.03322E+00 -5.89910E+00 +3.50737E+00 -7.23891E+00 -7.19668E-01
 -5.77944E+00 -5.02643E+00 -1.98367E+00 -7.70913E+00 +2.74328E+00 -7.65957E+00 +6.58969E+00 -4.82284E+00
 +8.04893E+00 -2.45759E-01 +6.52712E+00 +4.31352E+00 +2.60114E+00 +7.06964E+00 -2.18497E+00 +6.92142E+00
 -5.91462E+00 +3.90677E+00 -7.05608E+00 -7.86947E-01 -5.08361E+00 -5.27156E+00 -7.10896E-01 -7.69702E+00
 +4.36532E+00 -6.99194E+00 +8.11993E+00 -3.30995E+00 +8.99991E+00 +2.00298E+00 +6.55393E+00 +6.91763E+00
 +1.63628E+00 +9.51400E+00 -3.90527E+00 +8.74686E+00 -7.94383E+00 +4.87847E+00 -8.91315E+00 -6.00854E-01
 -6.44039E+00 -5.54297E+00 -1.51566E+00 -7.98500E+00 +3.87845E+00 -6.93462E+00 +7.53973E+00 -2.78315E+00
 +7.92127E+00 +2.82511E+00 +4.76138E+00 +7.62548E+00 -7.86888E-01 +9.62450E+00 -6.58761E+00 +7.89997E+00
 -1.03531E+01 +2.98900E+00 -1.05503E+01 -3.29778E+00 -7.02302E+00 -8.57189E+00 -1.07745E+00 -1.08044E+01
 +5.01268E+00 -9.13569E+00 +8.89302E+00 -4.23408E+00 +9.06181E+00 +1.94797E+00 +5.47852E+00 +6.93159E+00
 -3.99412E-01 +8.69036E+00 -6.17522E+00 +6.46425E+00 -9.45391E+00 +1.08202E+00 -8.79707E+00 -5.34359E+00
 -4.31200E+00 -1.02363E+01 +2.36502E+00 -1.15737E+01 +8.69334E+00 -8.69995E+00 +1.22213E+01 -2.60779E+00
 +1.15588E+01 +4.43008E+00 +6.94158E+00 +9.74278E+00 +1.59086E-01 +1.13131E+01 -6.13634E+00 +8.58358E+00
 -9.47097E+00 +2.69414E+00 -8.53377E+00 -3.95209E+00 -3.71094E+00 -8.62959E+00 +3.04709E+00 -9.37154E+00
 +8.98212E+00 -5.76326E+00 +1.16155E+01 +8.71008E-01 +9.73831E+00 +7.96981E+00 +3.91061E+00 +1.27341E+01
 -3.73577E+00 +1.32337E+01 -1.03198E+01 +9.18364E+00 -1.33413E+01 +2.07642E+00 -1.16726E+01 -5.38760E+00
 -6.01788E+00 -1.03555E+01 +1.34885E+00 -1.09487E+01 +7.47107E+00 -7.01536E+00 +9.87683E+00 -2.06001E-01
 +7.56577E+00 +6.66583E+00 +1.42246E+00 +1.07310E+01 -6.11431E+00 +1.02063E+01 -1.20028E+01 +5.11751E+00
 -1.37995E+01 -2.68783E+00 -1.06361E+01 -1.02499E+01 -3.58273E+00 -1.46546E+01 +4.75340E+00 -1.41862E+01
 +1.12414E+01 -9.01571E+00 +1.34578E+01 -1.15033E+00 +1.06481E+01 +6.34553E+00 +4.03624E+00 +1.05542E+01
 -3.64683E+00 +9.86079E+00 -9.23644E+00 +4.60321E+00 -1.03883E+01 -3.04721E+00 -6.51853E+00 -9.93293E+00
