 Created: 19-Jan-2021
 $NMID
 ID='D:\BASISSIMULATI'
 FMTDAT='(8E13.5)'
 VOLUME=   1.00000E+00
 TRAMP=   1.00000E+00
 $END
 +3.11650E+01 +9.40622E-02 +3.09299E+01 +4.17691E+00 +3.00361E+01 +8.17796E+00 +2.85061E+01 +1.19848E+01
 +2.63821E+01 +1.54907E+01 +2.37241E+01 +1.85978E+01 +2.06088E+01 +2.12201E+01 +1.71263E+01 +2.32869E+01
 +1.33783E+01 +2.47439E+01 +9.47393E+00 +2.55560E+01 +5.52680E+00 +2.57075E+01 +1.65133E+00 +2.52031E+01
 -2.04091E+00 +2.40675E+01 -5.44468E+00 +2.23444E+01 -8.46435E+00 +2.00953E+01 -1.10169E+01 +1.73972E+01
 -1.30343E+01 +1.43403E+01 -1.44659E+01 +1.10249E+01 -1.52794E+01 +7.55827E+00 -1.54622E+01 +4.05108E+00
 -1.50214E+01 +6.13987E-01 -1.39833E+01 -2.64592E+00 -1.23926E+01 -5.62850E+00 -1.03105E+01 -8.24362E+00
 -7.81284E+00 -1.04140E+01 -4.98738E+00 -1.20773E+01 -1.93083E+00 -1.31882E+01 +1.25431E+00 -1.37195E+01
 +4.46314E+00 -1.36628E+01 +7.59175E+00 -1.30283E+01 +1.05406E+01 -1.18443E+01 +1.32174E+01 -1.01564E+01
 +1.55405E+01 -8.02498E+00 +1.74409E+01 -5.52370E+00 +1.88643E+01 -2.73653E+00 +1.97729E+01 +2.45068E-01
 +2.01462E+01 +3.32527E+00 +1.99812E+01 +6.40709E+00 +1.92923E+01 +9.39561E+00 +1.81106E+01 +1.22011E+01
 +1.64825E+01 +1.47417E+01 +1.44676E+01 +1.69463E+01 +1.21367E+01 +1.87563E+01 +9.56920E+00 +2.01277E+01
 +6.85023E+00 +2.10320E+01 +4.06756E+00 +2.14568E+01 +1.30869E+00 +2.14062E+01 -1.34216E+00 +2.09000E+01
 -3.80684E+00 +1.99725E+01 -6.01581E+00 +1.86718E+01 -7.91037E+00 +1.70567E+01 -9.44440E+00 +1.51956E+01
 -1.05857E+01 +1.31629E+01 -1.13170E+01 +1.10370E+01 -1.16357E+01 +8.89697E+00 -1.15543E+01 +6.82020E+00
 -1.10993E+01 +4.87926E+00 -1.03099E+01 +3.13967E+00 -9.23660E+00 +1.65764E+00 -7.93878E+00 +4.78236E-01
 -6.48279E+00 -3.66031E-01 -4.93916E+00 -8.56141E-01 -3.38004E+00 -9.87014E-01 -1.87654E+00 -7.67458E-01
 -4.96118E-01 -2.19613E-01 +6.99812E-01 +6.22067E-01 +1.65807E+00 +1.71227E+00 +2.33556E+00 +2.99662E+00
 +2.70071E+00 +4.41386E+00 +2.73455E+00 +5.89814E+00 +2.43121E+00 +7.38153E+00 +1.79810E+00 +8.79656E+00
 +8.55425E-01 +1.00787E+01 -3.64587E-01 +1.11688E+01 -1.81900E+00 +1.20150E+01 -3.45581E+00 +1.25751E+01
 -5.21589E+00 +1.28174E+01 -7.03524E+00 +1.27225E+01 -8.84731E+00 +1.22833E+01 -1.05854E+01 +1.15060E+01
 -1.21854E+01 +1.04090E+01 -1.35875E+01 +9.02302E+00 -1.47390E+01 +7.38935E+00 -1.55959E+01 +5.55872E+00
 -1.61246E+01 +3.58934E+00 -1.63030E+01 +1.54485E+00 -1.61212E+01 -5.07949E-01 -1.55824E+01 -2.50150E+00
 -1.47021E+01 -4.36984E+00 -1.35082E+01 -6.05097E+00 -1.20395E+01 -7.48902E+00 -1.03450E+01 -8.63626E+00
 -8.48143E+00 -9.45475E+00 -6.51204E+00 -9.91769E+00 -4.50396E+00 -1.00104E+01 -2.52607E+00 -9.73082E+00
 -6.46592E-01 -9.08967E+00 +1.06922E+00 -8.11004E+00 +2.56134E+00 -6.82670E+00 +3.77701E+00 -5.28490E+00
 +4.67253E+00 -3.53888E+00 +5.21478E+00 -1.65004E+00 +5.38231E+00 +3.15075E-01 +5.16610E+00 +2.28705E+00
 +4.56988E+00 +4.19585E+00 +3.61001E+00 +5.97320E+00 +2.31495E+00 +7.55481E+00 +7.24298E-01 +8.88254E+00
 -1.11246E+00 +9.90626E+00 -3.13761E+00 +1.05855E+01 -5.28711E+00 +1.08909E+01 -7.49266E+00 +1.08048E+01
 -9.68392E+00 +1.03223E+01 -1.17908E+01 +9.45099E+00 -1.37458E+01 +8.21076E+00 -1.54861E+01 +6.63325E+00
 -1.69553E+01 +4.76070E+00 -1.81059E+01 +2.64456E+00 -1.89000E+01 +3.43792E-01 -1.93108E+01 -2.07700E+00
 -1.93237E+01 -4.54970E+00 -1.89359E+01 -7.00484E+00 -1.81573E+01 -9.37382E+00 -1.70093E+01 -1.15911E+01
 -1.55246E+01 -1.35961E+01 -1.37458E+01 -1.53353E+01 -1.17239E+01 -1.67637E+01 -9.51698E+00 -1.78461E+01
 -7.18774E+00 -1.85583E+01 -4.80194E+00 -1.88875E+01 -2.42609E+00 -1.88326E+01 -1.25382E-01 -1.84044E+01
 +2.03833E+00 -1.76245E+01 +4.00841E+00 -1.65251E+01 +5.73519E+00 -1.51475E+01 +7.17735E+00 -1.35404E+01
 +8.30317E+00 -1.17590E+01 +9.09127E+00 -9.86226E+00 +9.53119E+00 -7.91167E+00 +9.62347E+00 -5.96892E+00
 +9.37944E+00 -4.09404E+00 +8.82067E+00 -2.34352E+00 +7.97807E+00 -7.68567E-01 +6.89073E+00 +5.86364E-01
 +5.60450E+00 +1.68489E+00 +4.17042E+00 +2.49968E+00 +2.64293E+00 +3.01311E+00 +1.07810E+00 +3.21765E+00
 -4.68238E-01 +3.11586E+00 -1.94223E+00 +2.72009E+00 -3.29372E+00 +2.05187E+00 -4.47777E+00 +1.14097E+00
 -5.45598E+00 +2.43048E-02 -6.19759E+00 -1.25548E+00 -6.68027E+00 -2.65150E+00 -6.89065E+00 -4.11425E+00
 -6.82454E+00 -5.59328E+00 -6.48684E+00 -7.03886E+00 -5.89114E+00 -8.40358E+00 -5.05906E+00 -9.64384E+00
 -4.01938E+00 -1.07212E+01 -2.80684E+00 -1.16033E+01 -1.46094E+00 -1.22653E+01 -2.44211E-02 -1.26897E+01
 +1.45813E+00 -1.28676E+01 +2.94188E+00 -1.27980E+01 +4.38315E+00 -1.24880E+01 +5.74091E+00 -1.19525E+01
 +6.97800E+00 -1.12131E+01 +8.06230E+00 -1.02974E+01 +8.96764E+00 -9.23802E+00 +9.67448E+00 -8.07116E+00
 +1.01704E+01 -6.83547E+00 +1.04505E+01 -5.57060E+00 +1.05168E+01 -4.31590E+00 +1.03787E+01 -3.10906E+00
 +1.00520E+01 -1.98489E+00 +9.55830E+00 -9.74284E-01 +8.92408E+00 -1.03234E-01 +8.17977E+00 +6.07894E-01
 +7.35851E+00 +1.14490E+00 +6.49499E+00 +1.50004E+00 +5.62425E+00 +1.67216E+00 +4.78044E+00 +1.66652E+00
 +3.99569E+00 +1.49443E+00 +3.29911E+00 +1.17277E+00 +2.71579E+00 +7.23202E-01 +2.26616E+00 +1.71336E-01
 +1.96530E+00 -4.54238E-01 +1.82264E+00 -1.12301E+00 +1.84173E+00 -1.80363E+00 +2.02029E+00 -2.46501E+00
 +2.35040E+00 -3.07736E+00 +2.81892E+00 -3.61318E+00 +3.40806E+00 -4.04813E+00 +4.09606E+00 -4.36179E+00
 +4.85804E+00 -4.53826E+00 +5.66690E+00 -4.56660E+00 +6.49429E+00 -4.44108E+00 +7.31154E+00 -4.16126E+00
 +8.09067E+00 -3.73189E+00 +8.80530E+00 -3.16264E+00 +9.43147E+00 -2.46770E+00 +9.94838E+00 -1.66514E+00
 +1.03390E+01 -7.76335E-01 +1.05906E+01 +1.74890E-01 +1.06949E+01 +1.16305E+00 +1.06485E+01 +2.16186E+00
 +1.04527E+01 +3.14512E+00 +1.01133E+01 +4.08754E+00 +9.64056E+00 +4.96555E+00 +9.04843E+00 +5.75796E+00
 +8.35430E+00 +6.44664E+00 +7.57822E+00 +7.01698E+00 +6.74226E+00 +7.45824E+00 +5.86971E+00 +7.76383E+00
 +4.98439E+00 +7.93140E+00 +4.10982E+00 +7.96276E+00 +3.26856E+00 +7.86376E+00 +2.48151E+00 +7.64395E+00
 +1.76730E+00 +7.31622E+00 +1.14182E+00 +6.89627E+00 +6.17789E-01 +6.40207E+00 +2.04464E-01 +5.85322E+00
 -9.25222E-02 +5.27033E+00 -2.71224E-01 +4.67435E+00 -3.33325E-01 +4.08591E+00 -2.83966E-01 +3.52473E+00
 -1.31478E-01 +3.00906E+00 +1.12972E-01 +2.55517E+00 +4.35815E-01 +2.17694E+00 +8.21557E-01 +1.88553E+00
 +1.25331E+00 +1.68916E+00 +1.71333E+00 +1.59294E+00 +2.18357E+00 +1.59887E+00 +2.64622E+00 +1.70587E+00
 +3.08419E+00 +1.90995E+00 +3.48158E+00 +2.20438E+00 +3.82411E+00 +2.58006E+00 +4.09944E+00 +3.02579E+00
 +4.29742E+00 +3.52873E+00 +4.41034E+00 +4.07475E+00 +4.43299E+00 +4.64896E+00 +4.36274E+00 +5.23605E+00
 +4.19949E+00 +5.82077E+00 +3.94556E+00 +6.38836E+00 +3.60556E+00 +6.92484E+00 +3.18616E+00 +7.41742E+00
 +2.69579E+00 +7.85474E+00 +2.14444E+00 +8.22711E+00 +1.54326E+00 +8.52667E+00 +9.04264E-01 +8.74751E+00
 +2.40014E-01 +8.88577E+00 -4.36728E-01 +8.93959E+00 -1.11331E+00 +8.90908E+00 -1.77746E+00 +8.79626E+00
 -2.41760E+00 +8.60493E+00 -3.02303E+00 +8.34047E+00 -3.58417E+00 +8.00971E+00 -4.09269E+00 +7.62066E+00
 -4.54169E+00 +7.18234E+00 -4.92576E+00 +6.70455E+00 -5.24105E+00 +6.19758E+00 -5.48529E+00 +5.67202E+00
 -5.65783E+00 +5.13855E+00 -5.75953E+00 +4.60766E+00 -5.79277E+00 +4.08949E+00 -5.76134E+00 +3.59363E+00
 -5.67033E+00 +3.12890E+00 -5.52602E+00 +2.70323E+00 -5.33573E+00 +2.32350E+00 -5.10765E+00 +1.99540E+00
 -4.85068E+00 +1.72334E+00 -4.57428E+00 +1.51034E+00 -4.28822E+00 +1.35799E+00 -4.00239E+00 +1.26641E+00
 -3.72662E+00 +1.23421E+00 -3.47046E+00 +1.25851E+00 -3.24292E+00 +1.33502E+00 -3.05234E+00 +1.45804E+00
 -2.90610E+00 +1.62062E+00 -2.81047E+00 +1.81466E+00 -2.77043E+00 +2.03107E+00 -2.78951E+00 +2.26000E+00
 -2.86962E+00 +2.49099E+00 -3.01100E+00 +2.71331E+00 -3.21211E+00 +2.91612E+00 -3.46964E+00 +3.08883E+00
 -3.77850E+00 +3.22138E+00 -4.13189E+00 +3.30450E+00 -4.52144E+00 +3.33003E+00 -4.93734E+00 +3.29120E+00
 -5.36861E+00 +3.18285E+00 -5.80331E+00 +3.00169E+00 -6.22887E+00 +2.74643E+00 -6.63244E+00 +2.41796E+00
 -7.00124E+00 +2.01938E+00 -7.32296E+00 +1.55603E+00 -7.58615E+00 +1.03542E+00 -7.78061E+00 +4.67096E-01
 -7.89774E+00 -1.37554E-01 -7.93091E+00 -7.65579E-01 -7.87573E+00 -1.40279E+00 -7.73030E+00 -2.03417E+00
 -7.49535E+00 -2.64428E+00 -7.17437E+00 -3.21775E+00 -6.77360E+00 -3.73978E+00 -6.30193E+00 -4.19662E+00
 -5.77074E+00 -4.57607E+00 -5.19366E+00 -4.86792E+00 -4.58615E+00 -5.06439E+00 -3.96515E+00 -5.16047E+00
 -3.34853E+00 -5.15418E+00 -2.75455E+00 -5.04679E+00 -2.20129E+00 -4.84287E+00 -1.70602E+00 -4.55030E+00
 -1.28462E+00 -4.18011E+00 -9.50971E-01 -3.74626E+00 -7.16426E-01 -3.26525E+00 -5.89332E-01 -2.75570E+00
 -5.74634E-01 -2.23778E+00 -6.73578E-01 -1.73261E+00 -8.83535E-01 -1.26154E+00 -1.19794E+00 -8.45502E-01
 -1.60636E+00 -5.04231E-01 -2.09472E+00 -2.55575E-01 -2.64564E+00 -1.14818E-01 -3.23889E+00 -9.40618E-02
 -3.85197E+00 -2.01706E-01 -4.46083E+00 -4.42022E-01 -5.04058E+00 -8.14862E-01 -5.56630E+00 -1.31550E+00
 -6.01393E+00 -1.93463E+00 -6.36108E+00 -2.65852E+00 -6.58784E+00 -3.46931E+00 -6.67754E+00 -4.34547E+00
 -6.61744E+00 -5.26242E+00 -6.39928E+00 -6.19321E+00 -6.01971E+00 -7.10938E+00 -5.48055E+00 -7.98183E+00
 -4.78893E+00 -8.78180E+00 -3.95719E+00 -9.48182E+00 -3.00267E+00 -1.00567E+01 -1.94727E+00 -1.04843E+01
 -8.16849E-01 -1.07466E+01 +3.59477E-01 -1.08302E+01 +1.55022E+00 -1.07270E+01 +2.72250E+00 -1.04346E+01
 +3.84307E+00 -9.95662E+00 +4.87940E+00 -9.30253E+00 +5.80078E+00 -8.48772E+00 +6.57937E+00 -7.53304E+00
 +7.19118E+00 -6.46429E+00 +7.61697E+00 -5.31149E+00 +7.84297E+00 -4.10800E+00 +7.86148E+00 -2.88949E+00
 +7.67127E+00 -1.69288E+00 +7.27775E+00 -5.55076E-01 +6.69294E+00 +4.88143E-01 +5.93524E+00 +1.40339E+00
 +5.02894E+00 +2.16077E+00 +4.00356E+00 +2.73496E+00 +2.89302E+00 +3.10611E+00 +1.73455E+00 +3.26059E+00
 +5.67603E-01 +3.19157E+00 -5.67428E-01 +2.89939E+00 -1.63049E+00 +2.39162E+00 -2.58320E+00 +1.68302E+00
 -3.39012E+00 +7.95112E-01 -4.01995E+00 -2.44344E-01 -4.44664E+00 -1.40219E+00 -4.65031E+00 -2.64087E+00
 -4.61801E+00 -3.91953E+00 -4.34423E+00 -5.19536E+00 -3.83120E+00 -6.42493E+00 -3.08894E+00 -7.56558E+00
