 Created: 19-Jan-2021
 $NMID
 ID='D:\BASISSIMULATI'
 FMTDAT='(8E13.5)'
 VOLUME=   1.00000E+00
 TRAMP=   1.00000E+00
 $END
 +1.80031E+01 +6.34620E-01 +1.69244E+01 +6.04674E+00 +1.40708E+01 +1.07514E+01 +9.82262E+00 +1.41549E+01
 +4.75416E+00 +1.58486E+01 -4.50783E-01 +1.56688E+01 -5.09990E+00 +1.37198E+01 -8.59435E+00 +1.03563E+01
 -1.05165E+01 +6.12925E+00 -1.06899E+01 +1.70132E+00 -9.20272E+00 -2.25315E+00 -6.39132E+00 -5.14963E+00
 -2.78590E+00 -6.58053E+00 +9.72183E-01 -6.37483E+00 +4.22961E+00 -4.62141E+00 +6.42117E+00 -1.65269E+00
 +7.15568E+00 +2.00859E+00 +6.27467E+00 +5.73102E+00 +3.87531E+00 +8.87211E+00 +2.94228E-01 +1.08767E+01
 -3.94476E+00 +1.13613E+01 -8.21089E+00 +1.01719E+01 -1.18621E+01 +7.40610E+00 -1.43415E+01 +3.39794E+00
 -1.52600E+01 -1.33347E+00 -1.44529E+01 -6.16198E+00 -1.20026E+01 -1.04476E+01 -8.22309E+00 -1.36306E+01
 -3.61175E+00 -1.53120E+01 +1.22653E+00 -1.53089E+01 +5.66906E+00 -1.36770E+01 +9.16613E+00 -1.06968E+01
 +1.13188E+01 -6.82774E+00 +1.19328E+01 -2.63559E+00 +1.10402E+01 +1.29270E+00 +8.88760E+00 +4.43581E+00
 +5.89237E+00 +6.41242E+00 +2.57474E+00 +7.03258E+00 -5.23204E-01 +6.31902E+00 -2.91938E+00 +4.49601E+00
 -4.26208E+00 +1.94841E+00 -4.37851E+00 -8.42020E-01 -3.29501E+00 -3.37298E+00 -1.22667E+00 -5.19854E+00
 +1.46110E+00 -5.99527E+00 +4.31234E+00 -5.60790E+00 +6.85215E+00 -4.06826E+00 +8.65884E+00 -1.58562E+00
 +9.42595E+00 +1.48915E+00 +9.00507E+00 +4.71956E+00 +7.42386E+00 +7.65035E+00 +4.87730E+00 +9.87493E+00
 +1.69452E+00 +1.10935E+01 -1.71292E+00 +1.11532E+01 -4.91312E+00 +1.00654E+01 -7.51648E+00 +7.99849E+00
 -9.22967E+00 +5.24724E+00 -9.89347E+00 +2.18594E+00 -9.49924E+00 -7.88670E-01 -8.18291E+00 -3.31495E+00
 -6.19807E+00 -5.11614E+00 -3.87329E+00 -6.03538E+00 -1.56052E+00 -6.05150E+00 +4.17158E-01 -5.27415E+00
 +1.81097E+00 -3.92000E+00 +2.47850E+00 -2.27457E+00 +2.39846E+00 -6.45840E-01 +1.66677E+00 +6.82918E-01
 +4.75526E-01 +1.49420E+00 -9.21098E-01 +1.66543E+00 -2.24844E+00 +1.18261E+00 -3.25381E+00 +1.37142E-01
 -3.74362E+00 -1.29270E+00 -3.60995E+00 -2.87225E+00 -2.84322E+00 -4.34774E+00 -1.52991E+00 -5.48459E+00
 +1.63697E-01 -6.10115E+00 +2.01854E+00 -6.09314E+00 +3.79618E+00 -5.44578E+00 +5.27336E+00 -4.23250E+00
 +6.27283E+00 -2.60119E+00 +6.68601E+00 -7.50454E-01 +6.48502E+00 +1.10000E+00 +5.72257E+00 +2.74053E+00
 +4.52072E+00 +3.99958E+00 +3.05056E+00 +4.76503E+00 +1.50608E+00 +4.99600E+00 +7.64691E-02 +4.72417E+00
 -1.07951E+00 +4.04494E+00 -1.85337E+00 +3.10024E+00 -2.19866E+00 +2.05589E+00 -2.13347E+00 +1.07688E+00
 -1.73375E+00 +3.04129E-01 -1.11893E+00 -1.64063E-01 -4.32234E-01 -2.83713E-01 +1.81397E-01 -6.86010E-02
 +5.96575E-01 +4.14540E-01 +7.25049E-01 +1.05807E+00 +5.27370E-01 +1.73076E+00 +1.72829E-02 +2.29779E+00
 -7.41493E-01 +2.64061E+00 -1.64537E+00 +2.67394E+00 -2.56633E+00 +2.35777E+00 -3.37040E+00 +1.70277E+00
 -3.93668E+00 +7.68622E-01 -4.17421E+00 -3.44408E-01 -4.03463E+00 -1.50930E+00 -3.51882E+00 -2.58967E+00
 -2.67683E+00 -3.45829E+00 -1.60113E+00 -4.01423E+00 -4.14139E-01 -4.19634E+00 +7.48233E-01 -3.99135E+00
 +1.75478E+00 -3.43536E+00 +2.49654E+00 -2.60870E+00 +2.90124E+00 -1.62482E+00 +2.94272E+00 -6.14614E-01
 +2.64402E+00 +2.91592E-01 +2.07367E+00 +9.81919E-01 +1.33573E+00 +1.37831E+00 +5.54751E-01 +1.44719E+00
 -1.42043E-01 +1.20386E+00 -6.43133E-01 +7.10052E-01 -8.68888E-01 +6.47768E-02 -7.83303E-01 -6.10174E-01
 -3.99550E-01 -1.18821E+00 +2.21553E-01 -1.55679E+00 +9.80043E-01 -1.63452E+00 +1.75118E+00 -1.38385E+00
 +2.40368E+00 -8.17730E-01 +2.81931E+00 +1.23681E-03 +2.91087E+00 +9.68812E-01 +2.63606E+00 +1.95351E+00
 +2.00502E+00 +2.81531E+00 +1.08034E+00 +3.42596E+00 -3.06206E-02 +3.68813E+00 -1.19016E+00 +3.55034E+00
 -2.24935E+00 +3.01554E+00 -3.06914E+00 +2.14195E+00 -3.54056E+00 +1.03589E+00 -3.60070E+00 -1.62591E-01
 -3.24243E+00 -1.29906E+00 -2.51611E+00 -2.22652E+00 -1.52298E+00 -2.82636E+00 -4.01161E-01 -3.02541E+00
 +6.93792E-01 -2.80667E+00 +1.61107E+00 -2.21183E+00 +2.22616E+00 -1.33549E+00 +2.45875E+00 -3.11575E-01
 +2.28422E+00 +7.05979E-01 +1.73717E+00 +1.56544E+00 +9.06278E-01 +2.13926E+00 -7.86502E-02 +2.34251E+00
 -1.06562E+00 +2.14519E+00 -1.90258E+00 +1.57648E+00 -2.45957E+00 +7.20409E-01 -2.64758E+00 -2.96337E-01
 -2.43149E+00 -1.32289E+00 -1.83513E+00 -2.20602E+00 -9.37867E-01 -2.81229E+00 +1.36814E-01 -3.04724E+00
 +1.23899E+00 -2.86891E+00 +2.21366E+00 -2.29381E+00 +2.92272E+00 -1.39451E+00 +3.26436E+00 -2.89329E-01
 +3.18724E+00 +8.74341E-01 +2.69741E+00 +1.94066E+00 +1.85715E+00 +2.76689E+00 +7.76112E-01 +3.24293E+00
 -4.04100E-01 +3.30606E+00 -1.52939E+00 +2.94897E+00 -2.45409E+00 +2.22011E+00 -3.06037E+00 +1.21651E+00
 -3.27356E+00 +7.01298E-02 -3.07134E+00 -1.07018E+00 -2.48577E+00 -2.05860E+00 -1.59816E+00 -2.77146E+00
 -5.27398E-01 -3.12293E+00 +5.86203E-01 -3.07547E+00 +1.59959E+00 -2.64370E+00 +2.38548E+00 -1.89142E+00
 +2.84846E+00 -9.22363E-01 +2.93654E+00 +1.33952E-01 +2.64695E+00 +1.13930E+00 +2.02558E+00 +1.96455E+00
 +1.16020E+00 +2.50597E+00 +1.68740E-01 +2.69794E+00 -8.16189E-01 +2.52076E+00 -1.66416E+00 +2.00255E+00
 -2.26338E+00 +1.21524E+00 -2.53463E+00 +2.65242E-01 -2.44110E+00 -7.20076E-01 -1.99293E+00 -1.60837E+00
 -1.24612E+00 -2.27890E+00 -2.95743E-01 -2.63765E+00 +7.35544E-01 -2.62940E+00 +1.71248E+00 -2.24504E+00
 +2.50390E+00 -1.52348E+00 +2.99920E+00 -5.47718E-01 +3.12260E+00 +5.64641E-01 +2.84351E+00 +1.67521E+00
 +2.18156E+00 +2.64163E+00 +1.20558E+00 +3.33540E+00 +2.64108E-02 +3.65845E+00 -1.21576E+00 +3.55656E+00
 -2.36829E+00 +3.02769E+00 -3.28512E+00 +2.12399E+00 -3.84580E+00 +9.46950E-01 -3.97184E+00 -3.64013E-01
 -3.63845E+00 -1.64837E+00 -2.87950E+00 -2.74476E+00 -1.78514E+00 -3.51221E+00 -4.91635E-01 -3.84956E+00
 +8.35304E-01 -3.71027E+00 +2.02192E+00 -3.11049E+00 +2.90979E+00 -2.12886E+00 +3.37797E+00 -8.97772E-01
 +3.36095E+00 +4.13290E-01 +2.85950E+00 +1.62013E+00 +1.94264E+00 +2.54923E+00 +7.40064E-01 +3.06260E+00
 -5.74370E-01 +3.07854E+00 -1.80609E+00 +2.58512E+00 -2.76712E+00 +1.64419E+00 -3.30344E+00 +3.84823E-01
 -3.31843E+00 -1.01316E+00 -2.78884E+00 -2.34367E+00 -1.77055E+00 -3.40349E+00 -3.93063E-01 -4.02208E+00
 +1.15709E+00 -4.08749E+00 +2.66177E+00 -3.56460E+00 +3.90215E+00 -2.50262E+00 +4.69068E+00 -1.03038E+00
 +4.89939E+00 +6.60244E-01 +4.48017E+00 +2.34067E+00 +3.47377E+00 +3.77810E+00 +2.00591E+00 +4.76948E+00
 +2.70698E-01 +5.17173E+00 -1.49648E+00 +4.92395E+00 -3.05277E+00 +4.05764E+00 -4.18340E+00 +2.69355E+00
 -4.73365E+00 +1.02505E+00 -4.63242E+00 -7.09553E-01 -3.90357E+00 -2.26191E+00 -2.66319E+00 -3.41042E+00
 -1.10296E+00 -3.99348E+00 +5.38050E-01 -3.93410E+00 +2.00907E+00 -3.25196E+00 +3.08539E+00 -2.06094E+00
 +3.60250E+00 -5.52329E-01 +3.48137E+00 +1.03380E+00 +2.74089E+00 +2.44496E+00 +1.49549E+00 +3.45464E+00
 -6.19483E-02 +3.89707E+00 -1.68909E+00 +3.69287E+00 -3.13101E+00 +2.86155E+00 -4.15910E+00 +1.51906E+00
 -4.60604E+00 -1.39559E-01 -4.39159E+00 -1.86958E+00 -3.53506E+00 -3.41376E+00 -2.15256E+00 -4.54138E+00
 -4.39425E-01 -5.08333E+00 +1.35941E+00 -4.95772E+00 +2.98664E+00 -4.18204E+00 +4.21160E+00 -2.87018E+00
 +4.86496E+00 -1.21466E+00 +4.86397E+00 +5.43142E-01 +4.22414E+00 +2.14992E+00 +3.05589E+00 +3.37906E+00
 +1.54656E+00 +4.06467E+00 -6.91651E-02 +4.12609E+00 -1.54579E+00 +3.57891E+00 -2.66482E+00 +2.53107E+00
 -3.26788E+00 +1.16473E+00 -3.28014E+00 -2.93070E-01 -2.72042E+00 -1.60630E+00 -1.69671E+00 -2.56674E+00
 -3.87805E-01 -3.02587E+00 +9.85695E-01 -2.91703E+00 +2.19653E+00 -2.26452E+00 +3.04636E+00 -1.17831E+00
 +3.39631E+00 +1.64385E-01 +3.18777E+00 +1.54785E+00 +2.45028E+00 +2.75204E+00 +1.29569E+00 +3.58691E+00
 -1.00547E-01 +3.92149E+00 -1.52750E+00 +3.70323E+00 -2.77198E+00 +2.96483E+00 -3.65146E+00 +1.81773E+00
 -4.04155E+00 +4.33461E-01 -3.89395E+00 -9.83851E-01 -3.24220E+00 -2.22950E+00 -2.19467E+00 -3.12954E+00
 -9.16124E-01 -3.56664E+00 +3.98989E-01 -3.49655E+00 +1.55709E+00 -2.95284E+00 +2.39514E+00 -2.03950E+00
 +2.80472E+00 -9.12836E-01 +2.74698E+00 +2.44200E-01 +2.25645E+00 +1.25103E+00 +1.43327E+00 +1.95728E+00
 +4.25613E-01 +2.26504E+00 -5.94872E-01 +2.14235E+00 -1.46045E+00 +1.62602E+00 -2.03324E+00 +8.13773E-01
 -2.22570E+00 -1.52889E-01 -2.01268E+00 -1.11194E+00 -1.43350E+00 -1.90660E+00 -5.83956E-01 -2.40939E+00
 +4.00042E-01 -2.54100E+00 +1.36450E+00 -2.28107E+00 +2.16137E+00 -1.66967E+00 +2.67094E+00 -7.99481E-01
 +2.81909E+00 +1.99741E-01 +2.58714E+00 +1.18175E+00 +2.01292E+00 +2.00621E+00 +1.18343E+00 +2.55930E+00
 +2.20316E-01 +2.76976E+00 -7.39135E-01 +2.61782E+00 -1.56265E+00 +2.13631E+00 -2.14202E+00 +1.40390E+00
 -2.40779E+00 +5.31922E-01 -2.33776E+00 -3.52967E-01 -1.95818E+00 -1.12763E+00 -1.33791E+00 -1.68990E+00
 -5.76717E-01 -1.97225E+00 +2.10232E-01 -1.94982E+00 +9.09426E-01 -1.64205E+00 +1.42495E+00 -1.10788E+00
 +1.69118E+00 -4.35754E-01 +1.68068E+00 +2.70151E-01 +1.40632E+00 +9.05115E-01 +9.17849E-01 +1.37847E+00
 +2.93496E-01 +1.62557E+00 -3.71868E-01 +1.61568E+00 -9.80300E-01 +1.35495E+00 -1.44417E+00 +8.84361E-01
 -1.69767E+00 +2.73131E-01 -1.70497E+00 -3.91318E-01 -1.46430E+00 -1.01538E+00 -1.00743E+00 -1.51172E+00
 -3.94978E-01 -1.81054E+00 +2.91854E-01 -1.86840E+00 +9.61888E-01 -1.67353E+00 +1.52569E+00 -1.24713E+00
 +1.90692E+00 -6.40650E-01 +2.05200E+00 +7.07144E-02 +1.93700E+00 +7.97361E-01 +1.57089E+00 +1.44644E+00
 +9.94816E-01 +1.93349E+00 +2.77398E-01 +2.19323E+00 -4.93447E-01 +2.18816E+00 -1.22128E+00 +1.91388E+00
 -1.81325E+00 +1.40045E+00 -2.19216E+00 +7.09380E-01 -2.30690E+00 -7.35113E-02 -2.13991E+00 -8.48604E-01
 -1.71051E+00 -1.51527E+00 -1.07353E+00 -1.98532E+00 -3.13011E-01 -2.19533E+00 +4.68277E-01 -2.11623E+00
 +1.16246E+00 -1.75852E+00 +1.67151E+00 -1.17223E+00 +1.92156E+00 -4.41348E-01 +1.87445E+00 +3.27004E-01
 +1.53471E+00 +1.01716E+00 +9.50670E-01 +1.52158E+00 +2.09153E-01 +1.75711E+00 -5.75787E-01 +1.67850E+00
 -1.27882E+00 +1.28693E+00 -1.78177E+00 +6.32018E-01 -1.99200E+00 -1.93489E-01 -1.85771E+00 -1.06575E+00
 -1.37795E+00 -1.84730E+00 -6.05178E-01 -2.40749E+00 +3.60146E-01 -2.64287E+00 +1.38271E+00 -2.49438E+00
