 Created: 19-Jan-2021
 $NMID
 ID='D:\BASISSIMULATI'
 FMTDAT='(8E13.5)'
 VOLUME=   1.00000E+00
 TRAMP=   1.00000E+00
 $END
 +4.59811E+01 +3.12492E-01 +3.86205E+01 +2.29740E+01 +1.99893E+01 +3.70947E+01 -2.54279E+00 +3.78763E+01
 -2.03542E+01 +2.59917E+01 -2.71895E+01 +7.10829E+00 -2.16486E+01 -1.07126E+01 -7.48729E+00 -2.05434E+01
 +8.33574E+00 -1.94602E+01 +1.89170E+01 -9.50503E+00 +2.04615E+01 +3.61956E+00 +1.37552E+01 +1.34425E+01
 +3.44048E+00 +1.58163E+01 -4.49234E+00 +1.07651E+01 -5.76445E+00 +2.25341E+00 +5.09325E-02 -3.96580E+00
 +9.32370E+00 -3.36584E+00 +1.61895E+01 +4.94079E+00 +1.55270E+01 +1.75655E+01 +5.66115E+00 +2.83185E+01
 -1.05185E+01 +3.11303E+01 -2.66078E+01 +2.30587E+01 -3.54738E+01 +5.95477E+00 -3.25270E+01 -1.40379E+01
 -1.79745E+01 -2.89889E+01 +3.00686E+00 -3.26017E+01 +2.23098E+01 -2.30211E+01 +3.22769E+01 -3.75765E+00
 +2.89390E+01 +1.77070E+01 +1.36821E+01 +3.30356E+01 -7.38571E+00 +3.65029E+01 -2.60732E+01 +2.72999E+01
 -3.55701E+01 +9.68668E+00 -3.32062E+01 -9.02557E+00 -2.13180E+01 -2.17199E+01 -5.90441E+00 -2.44777E+01
 +6.25099E+00 -1.80181E+01 +1.06416E+01 -6.99224E+00 +6.89031E+00 +2.46256E+00 -1.40799E+00 +5.71763E+00
 -8.70777E+00 +1.78635E+00 -1.03884E+01 -6.38010E+00 -5.09526E+00 -1.35312E+01 +4.56989E+00 -1.48729E+01
 +1.33343E+01 -8.60038E+00 +1.58986E+01 +3.02001E+00 +9.67568E+00 +1.45658E+01 -3.69660E+00 +1.99674E+01
 -1.88277E+01 +1.54515E+01 -2.88656E+01 +1.53215E+00 -2.85881E+01 -1.69143E+01 -1.68841E+01 -3.25839E+01
 +2.53103E+00 -3.88582E+01 +2.25302E+01 -3.27128E+01 +3.55249E+01 -1.61133E+01 +3.66589E+01 +4.73940E+00
 +2.58383E+01 +2.19934E+01 +7.70993E+00 +2.94226E+01 -1.03826E+01 +2.49591E+01 -2.15434E+01 +1.13882E+01
 -2.21693E+01 -5.05529E+00 -1.32601E+01 -1.75151E+01 +3.30978E-01 -2.14726E+01 +1.22973E+01 -1.65203E+01
 +1.77877E+01 -6.20429E+00 +1.54878E+01 +3.91383E+00 +7.95486E+00 +9.01684E+00 +1.13980E-01 +7.30292E+00
 -3.31796E+00 +7.17526E-01 -2.31320E-01 -6.16286E+00 +7.80131E+00 -8.52925E+00 +1.62827E+01 -3.85421E+00
 +2.00176E+01 +6.69463E+00 +1.57476E+01 +1.86368E+01 +3.93065E+00 +2.62047E+01 -1.12039E+01 +2.50820E+01
 -2.33991E+01 +1.45756E+01 -2.71440E+01 -1.81333E+00 -2.02208E+01 -1.77272E+01 -4.85164E+00 -2.66338E+01
 +1.31024E+01 -2.46641E+01 +2.65625E+01 -1.23370E+01 +3.02118E+01 +5.60791E+00 +2.27218E+01 +2.22003E+01
 +7.24890E+00 +3.11717E+01 -9.99444E+00 +2.95388E+01 -2.24390E+01 +1.87139E+01 -2.59165E+01 +3.69372E+00
 -2.02665E+01 -9.26189E+00 -9.12253E+00 -1.53865E+01 +1.95690E+00 -1.33585E+01 +8.10889E+00 -5.60671E+00
 +7.32162E+00 +3.10111E+00 +1.15612E+00 +8.07058E+00 -6.24668E+00 +6.93965E+00 -1.03527E+01 +7.29582E-01
 -8.54870E+00 -6.77896E+00 -1.47490E+00 -1.10170E+01 +7.25532E+00 -8.98601E+00 +1.28137E+01 -8.66450E-01
 +1.15581E+01 +9.90428E+00 +2.93274E+00 +1.81457E+01 -1.00479E+01 +1.93496E+01 -2.19941E+01 +1.18761E+01
 -2.74965E+01 -2.10161E+00 -2.35799E+01 -1.73722E+01 -1.11351E+01 -2.78608E+01 +5.33763E+00 -2.92457E+01
 +1.95785E+01 -2.08479E+01 +2.62016E+01 -5.95062E+00 +2.29486E+01 +9.59361E+00 +1.15766E+01 +1.98454E+01
 -2.99135E+00 +2.12504E+01 -1.48461E+01 +1.40197E+01 -1.96165E+01 +1.84368E+00 -1.62179E+01 -9.88270E+00
 -7.08223E+00 -1.64875E+01 +3.17143E+00 -1.59972E+01 +9.96639E+00 -9.79436E+00 +1.08489E+01 -1.71488E+00
 +6.47334E+00 +3.93685E+00 +7.78868E-02 +4.49404E+00 -4.25491E+00 +1.63374E-01 -3.69503E+00 -6.17153E+00
 +1.88794E+00 -1.04584E+01 +9.81625E+00 -9.55902E+00 +1.58843E+01 -2.90186E+00 +1.64209E+01 +7.09185E+00
 +1.01555E+01 +1.60302E+01 -1.00255E+00 +1.95600E+01 -1.26633E+01 +1.54369E+01 -1.98393E+01 +4.69190E+00
 -1.91699E+01 -8.66467E+00 -1.04761E+01 -1.92923E+01 +3.06404E+00 -2.27991E+01 +1.62125E+01 -1.76371E+01
 +2.38707E+01 -5.77151E+00 +2.32102E+01 +8.16590E+00 +1.48023E+01 +1.88548E+01 +2.26990E+00 +2.25129E+01
 -9.35215E+00 +1.83950E+01 -1.57950E+01 +8.93076E+00 -1.52983E+01 -1.51112E+00 -9.16756E+00 -8.63256E+00
 -9.51408E-01 -1.00649E+01 +5.33057E+00 -6.25087E+00 +7.06177E+00 +4.58955E-03 +4.14122E+00 +5.04806E+00
 -1.14958E+00 +6.20952E+00 -5.41790E+00 +3.07986E+00 -5.93184E+00 -2.35618E+00 -2.03420E+00 -6.77167E+00
 +4.47904E+00 -7.21336E+00 +1.01961E+01 -2.65181E+00 +1.17463E+01 +5.38305E+00 +7.49228E+00 +1.33980E+01
 -1.54831E+00 +1.75035E+01 -1.20023E+01 +1.52323E+01 -1.95496E+01 +6.76921E+00 -2.08155E+01 -4.98856E+00
 -1.48940E+01 -1.55878E+01 -3.81338E+00 -2.08893E+01 +8.27322E+00 -1.88248E+01 +1.68146E+01 -1.02664E+01
 +1.87464E+01 +1.36631E+00 +1.37117E+01 +1.15738E+01 +4.10068E+00 +1.66601E+01 -6.07204E+00 +1.52037E+01
 -1.29258E+01 +8.49361E+00 -1.43152E+01 -2.16227E-01 -1.05809E+01 -7.25093E+00 -4.16198E+00 -1.01345E+01
 +1.69400E+00 -8.55790E+00 +4.49179E+00 -4.29326E+00 +3.58829E+00 -1.51260E-01 +3.43296E-01 +1.48638E+00
 -2.70868E+00 -1.52979E-01 -3.23516E+00 -3.89426E+00 -3.51817E-01 -7.26039E+00 +4.86654E+00 -7.77483E+00
 +9.85768E+00 -4.28407E+00 +1.18044E+01 +2.34351E+00 +9.04430E+00 +9.49063E+00 +1.98460E+00 +1.39265E+01
 -6.92181E+00 +1.32895E+01 -1.41533E+01 +7.23448E+00 -1.66226E+01 -2.29061E+00 -1.30357E+01 -1.17808E+01
 -4.49788E+00 -1.76085E+01 +5.90533E+00 -1.75290E+01 +1.43688E+01 -1.15991E+01 +1.79164E+01 -2.11893E+00
 +1.55674E+01 +7.36130E+00 +8.63176E+00 +1.35173E+01 +4.08310E-02 +1.45623E+01 -6.95676E+00 +1.08394E+01
 -1.01396E+01 +4.48023E+00 -9.11404E+00 -1.66768E+00 -5.25659E+00 -5.32606E+00 -8.83536E-01 -5.69959E+00
 +1.92292E+00 -3.63272E+00 +2.26934E+00 -9.90606E-01 +7.54070E-01 +3.95541E-01 -9.88610E-01 -3.09202E-01
 -1.24750E+00 -2.53656E+00 +7.91615E-01 -4.64626E+00 +4.54089E+00 -4.81905E+00 +8.22549E+00 -2.06627E+00
 +9.72123E+00 +3.14323E+00 +7.61786E+00 +8.95580E+00 +2.00012E+00 +1.28915E+01 -5.43474E+00 +1.29506E+01
 -1.19997E+01 +8.56244E+00 -1.51174E+01 +9.39267E-01 -1.34151E+01 -7.33932E+00 -7.32963E+00 -1.33386E+01
 +1.03982E+00 -1.49420E+01 +8.76729E+00 -1.16823E+01 +1.32574E+01 -4.88330E+00 +1.32296E+01 +2.92735E+00
 +9.12462E+00 +9.06144E+00 +2.79306E+00 +1.17098E+01 -3.35963E+00 +1.05444E+01 -7.37177E+00 +6.66164E+00
 -8.43290E+00 +1.94563E+00 -7.02170E+00 -1.82222E+00 -4.46959E+00 -3.69222E+00 -2.20283E+00 -3.80365E+00
 -1.04404E+00 -3.09859E+00 -8.98367E-01 -2.67870E+00 -9.46206E-01 -3.14791E+00 -2.13221E-01 -4.27160E+00
 +1.78998E+00 -5.11336E+00 +4.69130E+00 -4.57047E+00 +7.34086E+00 -2.03245E+00 +8.32425E+00 +2.17229E+00
 +6.66360E+00 +6.77596E+00 +2.37043E+00 +1.00387E+01 -3.42175E+00 +1.04828E+01 -8.82561E+00 +7.56535E+00
 -1.19214E+01 +1.98137E+00 -1.15230E+01 -4.54338E+00 -7.66063E+00 -9.88985E+00 -1.57661E+00 -1.23435E+01
 +4.75637E+00 -1.12206E+01 +9.38253E+00 -7.07211E+00 +1.10618E+01 -1.40348E+00 +9.64292E+00 +3.94630E+00
 +5.98777E+00 +7.49105E+00 +1.52074E+00 +8.56723E+00 -2.37198E+00 +7.42247E+00 -4.82834E+00 +4.93598E+00
 -5.69522E+00 +2.14104E+00 -5.38019E+00 -2.14277E-01 -4.49196E+00 -1.87819E+00 -3.47382E+00 -3.01784E+00
 -2.41310E+00 -3.93831E+00 -1.10300E+00 -4.77466E+00 +7.03117E-01 -5.33190E+00 +3.00167E+00 -5.15899E+00
 +5.38398E+00 -3.81570E+00 +7.11400E+00 -1.18850E+00 +7.41550E+00 +2.31632E+00 +5.83747E+00 +5.81629E+00
 +2.52252E+00 +8.23356E+00 -1.75603E+00 +8.69912E+00 -5.81911E+00 +6.90642E+00 -8.48217E+00 +3.26062E+00
 -8.96797E+00 -1.24113E+00 -7.16653E+00 -5.34771E+00 -3.64681E+00 -7.97099E+00 +5.68843E-01 -8.51877E+00
 +4.36256E+00 -7.02718E+00 +6.86445E+00 -4.06803E+00 +7.65989E+00 -4.98002E-01 +6.81152E+00 +2.83150E+00
 +4.72913E+00 +5.29155E+00 +1.97507E+00 +6.56148E+00 -9.02633E-01 +6.59452E+00 -3.45614E+00 +5.52430E+00
 -5.34617E+00 +3.58179E+00 -6.31847E+00 +1.06204E+00 -6.20082E+00 -1.66757E+00 -4.94500E+00 -4.16049E+00
 -2.69426E+00 -5.93179E+00 +1.74149E-01 -6.56163E+00 +3.08165E+00 -5.83249E+00 +5.37291E+00 -3.83826E+00
 +6.49977E+00 -1.00340E+00 +6.19494E+00 +2.01430E+00 +4.56120E+00 +4.51115E+00 +2.03518E+00 +5.94464E+00
 -7.60468E-01 +6.07885E+00 -3.21358E+00 +5.01435E+00 -4.88634E+00 +3.10243E+00 -5.58642E+00 +7.94991E-01
 -5.33522E+00 -1.49489E+00 -4.27456E+00 -3.46283E+00 -2.57883E+00 -4.90057E+00 -4.26347E-01 -5.63877E+00
 +1.96160E+00 -5.50854E+00 +4.25601E+00 -4.37187E+00 +5.99878E+00 -2.22301E+00 +6.67797E+00 +6.91727E-01
 +5.90019E+00 +3.81903E+00 +3.59659E+00 +6.37631E+00 +1.59526E-01 +7.57061E+00 -3.58230E+00 +6.89124E+00
 -6.57959E+00 +4.35456E+00 -7.90975E+00 +5.79085E-01 -7.12358E+00 -3.37010E+00 -4.44200E+00 -6.33004E+00
 -7.04426E-01 -7.45252E+00 +2.92648E+00 -6.51132E+00 +5.39105E+00 -3.97095E+00 +6.11369E+00 -7.82374E-01
 +5.17763E+00 +2.00843E+00 +3.22132E+00 +3.66872E+00 +1.10970E+00 +4.02507E+00 -4.63693E-01 +3.44349E+00
 -1.25665E+00 +2.56423E+00 -1.51131E+00 +1.92917E+00 -1.73218E+00 +1.69108E+00 -2.32864E+00 +1.55402E+00
 -3.31237E+00 +9.78614E-01 -4.21785E+00 -4.50179E-01 -4.30593E+00 -2.68554E+00 -2.96547E+00 -5.10125E+00
 -1.17819E-01 -6.68433E+00 +3.59072E+00 -6.47586E+00 +6.93620E+00 -4.06532E+00 +8.57473E+00 +1.02258E-01
 +7.62552E+00 +4.77886E+00 +4.11713E+00 +8.34083E+00 -9.23390E-01 +9.42979E+00 -5.80880E+00 +7.53424E+00
 -8.83618E+00 +3.24748E+00 -8.96989E+00 -1.93006E+00 -6.26523E+00 -6.17659E+00 -1.84039E+00 -8.07857E+00
 +2.59886E+00 -7.18839E+00 +5.47664E+00 -4.16514E+00 +5.99012E+00 -4.37763E-01 +4.39337E+00 +2.45465E+00
 +1.79972E+00 +3.54331E+00 -3.97845E-01 +2.81951E+00 -1.21151E+00 +1.15764E+00 -5.22522E-01 -1.84852E-01
 +8.98211E-01 -2.45669E-01 +1.82354E+00 +1.11887E+00 +1.24803E+00 +3.12800E+00 -1.02367E+00 +4.45304E+00
 -4.17875E+00 +3.90601E+00 -6.70904E+00 +1.10992E+00 -7.11026E+00 -3.18609E+00 -4.64805E+00 -7.32756E+00
 +1.78761E-01 -9.44249E+00 +5.72274E+00 -8.29869E+00 +9.81855E+00 -3.93646E+00 +1.07008E+01 +2.23389E+00
 +7.80331E+00 +7.94572E+00 +2.06977E+00 +1.09988E+01 -4.38484E+00 +1.01929E+01 -9.13335E+00 +5.85492E+00
 -1.04473E+01 -2.84134E-01 -8.01458E+00 -5.82084E+00 -3.04195E+00 -8.69991E+00 +2.30303E+00 -8.07188E+00
 +5.86118E+00 -4.60589E+00 +6.42225E+00 -1.21352E-01 +4.21151E+00 +3.28670E+00 +7.05337E-01 +4.22162E+00
 -2.13049E+00 +2.60615E+00 -2.81685E+00 -3.37400E-01 -1.08739E+00 -2.73499E+00 +1.98408E+00 -3.02659E+00
