 Created: 19-Jan-2021
 $NMID
 ID='D:\BASISSIMULATI'
 FMTDAT='(8E13.5)'
 VOLUME=   1.00000E+00
 TRAMP=   1.00000E+00
 $END
 +1.01704E+02 +5.09990E-01 +9.77358E+01 +2.69306E+01 +8.67225E+01 +5.11889E+01 +6.95664E+01 +7.14073E+01
 +4.76622E+01 +8.60438E+01 +2.27806E+01 +9.40182E+01 -3.07992E+00 +9.47991E+01 -2.78593E+01 +8.84445E+01
 -4.96069E+01 +7.55939E+01 -6.66420E+01 +5.74104E+01 -7.76916E+01 +3.54812E+01 -8.19930E+01 +1.16813E+01
 -7.93525E+01 -1.19851E+01 -7.01569E+01 -3.35528E+01 -5.53353E+01 -5.12602E+01 -3.62760E+01 -6.36951E+01
 -1.47054E+01 -6.99102E+01 +7.46116E+00 -6.94982E+01 +2.82833E+01 -6.26213E+01 +4.59600E+01 -4.99917E+01
 +5.89814E+01 -3.28059E+01 +6.62544E+01 -1.26385E+01 +6.71924E+01 +8.69575E+00 +6.17604E+01 +2.92985E+01
 +5.04735E+01 +4.73514E+01 +3.43484E+01 +6.12706E+01 +1.48121E+01 +6.98407E+01 -6.42368E+00 +7.23160E+01
 -2.75113E+01 +6.84810E+01 -4.66269E+01 +5.86650E+01 -6.21267E+01 +4.37098E+01 -7.26869E+01 +2.48935E+01
 -7.74150E+01 +3.81824E+00 -7.59237E+01 -1.77302E+01 -6.83605E+01 -3.79373E+01 -5.53908E+01 -5.51154E+01
 -3.81377E+01 -6.78487E+01 -1.80811E+01 -7.51128E+01 +3.07176E+00 -7.63600E+01 +2.35356E+01 -7.15632E+01
 +4.16020E+01 -6.12141E+01 +5.57861E+01 -4.62770E+01 +6.49541E+01 -2.81011E+01 +6.84183E+01 -8.30129E+00
 +6.59943E+01 +1.13847E+01 +5.80129E+01 +2.92485E+01 +4.52879E+01 +4.37599E+01 +2.90413E+01 +5.36995E+01
 +1.07944E+01 +5.82637E+01 -7.76815E+00 +5.71329E+01 -2.49472E+01 +5.04972E+01 -3.91786E+01 +3.90374E+01
 -4.91714E+01 +2.38628E+01 -5.40206E+01 +6.41262E+00 -5.32866E+01 -1.16728E+01 -4.70335E+01 -2.86970E+01
 -3.58234E+01 -4.30574E+01 -2.06669E+01 -5.33878E+01 -2.93403E+00 -5.86793E+01 +1.57658E+01 -5.83701E+01
 +3.37253E+01 -5.23970E+01 +4.92898E+01 -4.12023E+01 +6.10028E+01 -2.56972E+01 +6.77353E+01 -7.18402E+00
 +6.87861E+01 +1.27560E+01 +6.39461E+01 +3.23996E+01 +5.35190E+01 +5.00309E+01 +3.82980E+01 +6.40910E+01
 +1.95001E+01 +7.33142E+01 -1.33711E+00 +7.68399E+01 -2.24862E+01 +7.42887E+01 -4.21781E+01 +6.57985E+01
 -5.87537E+01 +5.20153E+01 -7.08075E+01 +3.40401E+01 -7.73089E+01 +1.33375E+01 -7.76926E+01 -8.38900E+00
 -7.19088E+01 -2.93409E+01 -6.04291E+01 -4.77783E+01 -4.42086E+01 -6.21685E+01 -2.46059E+01 -7.13173E+01
 -3.26816E+00 -7.44718E+01 +1.80082E+01 -7.13855E+01 +3.74303E+01 -6.23405E+01 +5.33612E+01 -4.81248E+01
 +6.44598E+01 -2.99655E+01 +6.97952E+01 -9.42569E+00 +6.89269E+01 +1.17286E+01 +6.19424E+01 +3.16782E+01
 +4.94510E+01 +4.87057E+01 +3.25320E+01 +6.13417E+01 +1.26437E+01 +6.84900E+01 -8.50035E+00 +6.95216E+01
 -2.90769E+01 +6.43285E+01 -4.73079E+01 +5.33332E+01 -6.16116E+01 +3.74536E+01 -7.07374E+01 +1.80256E+01
 -7.38719E+01 -3.31039E+00 -7.07085E+01 -2.47480E+01 -6.14737E+01 -4.44683E+01 -4.69081E+01 -6.07934E+01
 -2.82043E+01 -7.23289E+01 -6.90527E+00 -7.80820E+01 +1.52252E+01 -7.75448E+01 +3.63523E+01 -7.07377E+01
 +5.47244E+01 -5.82066E+01 +6.88213E+01 -4.09771E+01 +7.74818E+01 -2.04666E+01 +8.00010E+01 +1.63534E+00
 +7.61887E+01 +2.35101E+01 +6.63841E+01 +4.33635E+01 +5.14256E+01 +5.95771E+01 +3.25785E+01 +7.08439E+01
 +1.14270E+01 +7.62769E+01 -1.02611E+01 +7.54832E+01 -3.06846E+01 +6.85940E+01 -4.81603E+01 +5.62515E+01
 -6.12659E+01 +3.95519E+01 -6.89582E+01 +1.99504E+01 -7.06596E+01 -8.64518E-01 -6.63047E+01 -2.11152E+01
 -5.63428E+01 -3.90865E+01 -4.16963E+01 -5.32716E+01 -2.36800E+01 -6.24986E+01 -3.88619E+00 -6.60291E+01
 +1.59527E+01 -6.36183E+01 +3.41133E+01 -5.55332E+01 +4.90283E+01 -4.25271E+01 +5.94206E+01 -2.57722E+01
 +6.44105E+01 -6.75709E+00 +6.35902E+01 +1.28430E+01 +5.70558E+01 +3.13106E+01 +4.53970E+01 +4.70343E+01
 +2.96445E+01 +5.86467E+01 +1.11789E+01 +6.51410E+01 -8.38882E+00 +6.59565E+01 -2.73576E+01 +6.10252E+01
 -4.40825E+01 +5.07758E+01 -5.71168E+01 +3.60955E+01 -6.53356E+01 +1.82516E+01 -6.80317E+01 -1.21841E+00
 -6.49759E+01 -2.06401E+01 -5.64346E+01 -3.83469E+01 -4.31463E+01 -5.28234E+01 -2.62561E+01 -6.28354E+01
 -7.21675E+00 -6.75359E+01 +1.23379E+01 -6.65365E+01 +3.07335E+01 -5.99401E+01 +4.63996E+01 -4.83306E+01
 +5.80048E+01 -3.27217E+01 +6.45706E+01 -1.44685E+01 +6.55549E+01 +4.85024E+00 +6.08978E+01 +2.35680E+01
 +5.10256E+01 +4.00749E+01 +3.68130E+01 +5.29558E+01 +1.95066E+01 +6.11121E+01 +6.17082E-01 +6.38556E+01
 -1.82117E+01 +6.09671E+01 -3.53449E+01 +5.27146E+01 -4.92973E+01 +3.98288E+01 -5.88612E+01 +2.34400E+01
 -6.32105E+01 +4.97943E+00 -6.19709E+01 -1.39441E+01 -5.52518E+01 -3.16837E+01 -4.36364E+01 -4.66960E+01
 -2.81309E+01 -5.76744E+01 -1.00770E+01 -6.36612E+01 +8.96347E+00 -6.41304E+01 +2.73437E+01 -5.90321E+01
 +4.34738E+01 -4.87968E+01 +5.59574E+01 -3.42980E+01 +6.37121E+01 -1.67767E+01 +6.60624E+01 +2.26562E+00
 +6.27975E+01 +2.11960E+01 +5.41893E+01 +3.83909E+01 +4.09689E+01 +5.23755E+01 +2.42633E+01 +6.19505E+01
 +5.49881E+00 +6.62949E+01 -1.37219E+01 +6.50366E+01 -3.17574E+01 +5.82838E+01 -4.70683E+01 +4.66156E+01
 -5.83496E+01 +3.10319E+01 -6.46420E+01 +1.28676E+01 -6.54144E+01 -6.32240E+00 -6.06088E+01 -2.48966E+01
 -5.06452E+01 -4.12677E+01 -3.63848E+01 -5.40388E+01 -1.90560E+01 -6.21229E+01 -1.48777E-01 -6.48356E+01
 +1.87136E+01 -6.19538E+01 +3.59136E+01 -5.37338E+01 +4.99783E+01 -4.08895E+01 +5.97051E+01 -2.45297E+01
 +6.42652E+01 -6.06373E+00 +6.32735E+01 +1.29208E+01 +5.68216E+01 +3.07935E+01 +4.54690E+01 +4.60218E+01
 +3.01950E+01 +5.73014E+01 +1.23136E+01 +6.36687E+01 -6.63920E+00 +6.45824E+01 -2.50374E+01 +5.99698E+01
 -4.13050E+01 +5.02320E+01 -5.40505E+01 +3.62093E+01 -6.21866E+01 +1.91086E+01 -6.50230E+01 +3.98839E-01
 -6.23249E+01 -1.83148E+01 -5.43329E+01 -3.54291E+01 -4.17415E+01 -4.94803E+01 -2.56391E+01 -5.92697E+01
 -7.41439E+00 -6.39662E+01 +1.13638E+01 -6.31772E+01 +2.90809E+01 -5.69821E+01 +4.42156E+01 -4.59247E+01
 +5.54702E+01 -3.09663E+01 +6.18820E+01 -1.34028E+01 +6.29058E+01 +5.24713E+00 +5.84603E+01 +2.33722E+01
 +4.89351E+01 +3.94074E+01 +3.51565E+01 +5.19680E+01 +1.83169E+01 +5.99689E+01 -1.28067E-01 +6.27169E+01
 -1.85843E+01 +5.99710E+01 -3.54563E+01 +5.19625E+01 -4.92838E+01 +3.93753E+01 -5.88673E+01 +2.32870E+01
 -6.33705E+01 +5.07683E+00 -6.23926E+01 -1.36926E+01 -5.60020E+01 -3.14091E+01 -4.47311E+01 -4.65492E+01
 -2.95304E+01 -5.78082E+01 -1.16874E+01 -6.42118E+01 +7.28336E+00 -6.51996E+01 +2.57699E+01 -6.06727E+01
 +4.22002E+01 -5.10026E+01 +5.51767E+01 -3.69988E+01 +6.35951E+01 -1.98399E+01 +6.67386E+01 -9.73076E-01
 +6.43390E+01 +1.80095E+01 +5.65986E+01 +3.55066E+01 +4.41734E+01 +5.00440E+01 +2.81162E+01 +6.04002E+01
 +9.78682E+00 +6.57101E+01 -9.26414E+00 +6.55381E+01 -2.74276E+01 +5.99144E+01 -4.31731E+01 +4.93323E+01
 -5.51787E+01 +3.47047E+01 -6.24435E+01 +1.72862E+01 -6.43720E+01 -1.43471E+00 -6.08241E+01 -1.98627E+01
 -5.21260E+01 -3.64318E+01 -3.90413E+01 -4.97387E+01 -2.27054E+01 -5.86618E+01 -4.52723E+00 -6.24565E+01
 +1.39310E+01 -6.08172E+01 +3.10873E+01 -5.39029E+01 +4.54753E+01 -4.23221E+01 +5.58683E+01 -2.70798E+01
 +6.13837E+01 -9.49116E+00 +6.15574E+01 +8.93169E+00 +5.63820E+01 +2.66090E+01 +4.63064E+01 +4.20284E+01
 +3.21963E+01 +5.38733E+01 +1.52595E+01 +6.11351E+01 -3.05871E+00 +6.31977E+01 -2.11986E+01 +5.98895E+01
 -3.76197E+01 +5.14961E+01 -5.09322E+01 +3.87351E+01 -6.00144E+01 +2.26929E+01 -6.41079E+01 +4.73155E+00
 -6.28805E+01 -1.36289E+01 -5.64533E+01 -3.08402E+01 -4.53883E+01 -4.54582E+01 -3.06392E+01 -5.62655E+01
 -1.34675E+01 -6.23742E+01 +4.66563E+00 -6.33007E+01 +2.22255E+01 -5.90046E+01 +3.77352E+01 -4.98904E+01
 +4.99019E+01 -3.67708E+01 +5.77262E+01 -2.07948E+01 +6.05866E+01 -3.34821E+00 +5.82905E+01 +1.40671E+01
 +5.10891E+01 +2.99620E+01 +3.96532E+01 +4.29886E+01 +2.50132E+01 +5.20548E+01 +8.46940E+00 +5.64177E+01
 -8.52229E+00 +5.57456E+01 -2.44761E+01 +5.01448E+01 -3.80050E+01 +4.01486E+01 -4.79403E+01 +2.66690E+01
 -5.34319E+01 +1.09169E+01 -5.40207E+01 -5.70443E+00 -4.96771E+01 -2.17213E+01 -4.08021E+01 -3.57179E+01
 -2.81917E+01 -4.64586E+01 -1.29662E+01 -5.29950E+01 +3.52687E+00 -5.47479E+01 +1.98310E+01 -5.15562E+01
 +3.45069E+01 -4.36912E+01 +4.62573E+01 -3.18316E+01 +5.40399E+01 -1.70052E+01 +5.71571E+01 -4.98423E-01
 +5.53167E+01 +1.62544E+01 +4.86572E+01 +3.17962E+01 +3.77356E+01 +4.47729E+01 +2.34789E+01 +5.40509E+01
 +7.10468E+00 +5.88153E+01 -9.98478E+00 +5.86407E+01 -2.63235E+01 +5.35276E+01 -4.05084E+01 +4.39029E+01
 -5.13206E+01 +3.05835E+01 -5.78309E+01 +1.47054E+01 -5.94801E+01 -2.37390E+00 -5.61273E+01 -1.91924E+01
 -4.80624E+01 -3.43096E+01 -3.59815E+01 -4.64310E+01 -2.09271E+01 -5.45196E+01 -4.19833E+00 -5.78856E+01
 +1.27607E+01 -5.62460E+01 +2.84853E+01 -4.97496E+01 +4.16164E+01 -3.89643E+01 +5.10179E+01 -2.48286E+01
 +5.58744E+01 -8.57135E+00 +5.57622E+01 +8.39393E+00 +5.06862E+01 +2.45904E+01 +4.10799E+01 +3.86049E+01
 +2.77692E+01 +4.92097E+01 +1.19017E+01 +5.54686E+01 -5.15145E+00 +5.68173E+01 -2.19124E+01 +5.31135E+01
 -3.69236E+01 +4.46490E+01 -4.88727E+01 +3.21264E+01 -5.67055E+01 +1.65993E+01 -5.97164E+01 -6.16878E-01
 -5.76099E+01 -1.80571E+01 -5.05262E+01 -3.42311E+01 -3.90308E+01 -4.77508E+01 -2.40665E+01 -5.74490E+01
 -6.87433E+00 -6.24784E+01 +1.11120E+01 -6.23852E+01 +2.83871E+01 -5.71475E+01 +4.35020E+01 -4.71779E+01
 +5.51869E+01 -3.32889E+01 +6.24588E+01 -1.66244E+01 +6.47051E+01 +1.43713E+00 +6.17350E+01 +1.93991E+01
 +5.37959E+01 +3.57736E+01 +4.15519E+01 +4.92070E+01 +2.60276E+01 +5.85945E+01 +8.52063E+00 +6.31725E+01
 -9.50812E+00 +6.25832E+01 -2.65584E+01 +5.69035E+01 -4.12173E+01 +4.66380E+01 -5.22787E+01 +3.26746E+01
 -5.88446E+01 +1.62087E+01 -6.03999E+01 -1.35895E+00 -5.68547E+01 -1.85416E+01 -4.85508E+01 -3.38926E+01
 -3.62306E+01 -4.61281E+01 -2.09729E+01 -5.42351E+01 -4.09974E+00 -5.75563E+01 +1.29367E+01 -5.58445E+01
 +2.86780E+01 -4.92821E+01 +4.17840E+01 -3.84634E+01 +5.11457E+01 -2.43425E+01 +5.59792E+01 -8.15026E+00
 +5.58910E+01 +8.71126E+00 +5.09095E+01 +2.47896E+01 +4.14812E+01 +3.87056E+01 +2.84309E+01 +4.92710E+01
 +1.28891E+01 +5.55891E+01 -3.80525E+00 +5.71295E+01 -2.02202E+01 +5.37728E+01 -3.49537E+01 +4.58182E+01
 -4.67529E+01 +3.39565E+01 -5.46209E+01 +1.92095E+01 -5.79009E+01 +2.84086E+00 -5.63307E+01 -1.37528E+01
