 Created: 19-Jan-2021
 $NMID
 ID='D:\BASISSIMULATI'
 FMTDAT='(8E13.5)'
 VOLUME=   1.00000E+00
 TRAMP=   1.00000E+00
 $END
 +1.68547E+01 +8.58168E-02 +1.66451E+01 +2.56615E+00 +1.60727E+01 +4.98662E+00 +1.51507E+01 +7.29453E+00
 +1.38997E+01 +9.43972E+00 +1.23475E+01 +1.13757E+01 +1.05284E+01 +1.30605E+01 +8.48261E+00 +1.44578E+01
 +6.25499E+00 +1.55376E+01 +3.89445E+00 +1.62768E+01 +1.45267E+00 +1.66599E+01 -1.01696E+00 +1.66790E+01
 -3.46053E+00 +1.63343E+01 -5.82479E+00 +1.56339E+01 -8.05830E+00 +1.45936E+01 -1.01126E+01 +1.32367E+01
 -1.19430E+01 +1.15932E+01 -1.35102E+01 +9.69942E+00 -1.47802E+01 +7.59708E+00 -1.57258E+01 +5.33236E+00
 -1.63270E+01 +2.95488E+00 -1.65712E+01 +5.16698E-01 -1.64535E+01 -1.92893E+00 -1.59772E+01 -4.32865E+00
 -1.51532E+01 -6.63020E+00 -1.39999E+01 -8.78353E+00 -1.25432E+01 -1.07419E+01 -1.08152E+01 -1.24629E+01
 -8.85395E+00 -1.39094E+01 -6.70271E+00 -1.50503E+01 -4.40867E+00 -1.58611E+01 -2.02208E+00 -1.63248E+01
 +4.04875E-01 -1.64316E+01 +2.81919E+00 -1.61799E+01 +5.16822E+00 -1.55758E+01 +7.40085E+00 -1.46328E+01
 +9.46856E+00 -1.33722E+01 +1.13265E+01 -1.18219E+01 +1.29345E+01 -1.00163E+01 +1.42579E+01 -7.99497E+00
 +1.52682E+01 -5.80248E+00 +1.59440E+01 -3.48687E+00 +1.62710E+01 -1.09886E+00 +1.62425E+01 +1.30938E+00
 +1.58599E+01 +3.68528E+00 +1.51319E+01 +5.97708E+00 +1.40751E+01 +8.13491E+00 +1.27130E+01 +1.01119E+01
 +1.10757E+01 +1.18653E+01 +9.19941E+00 +1.33572E+01 +7.12544E+00 +1.45554E+01 +4.89933E+00 +1.54342E+01
 +2.56985E+00 +1.59751E+01 +1.87977E-01 +1.61666E+01 -2.19426E+00 +1.60053E+01 -4.52489E+00 +1.54952E+01
 -6.75318E+00 +1.46479E+01 -8.83069E+00 +1.34825E+01 -1.07123E+01 +1.20248E+01 -1.23574E+01 +1.03072E+01
 -1.37304E+01 +8.36747E+00 -1.48017E+01 +6.24829E+00 -1.55485E+01 +3.99616E+00 -1.59551E+01 +1.66041E+00
 -1.60130E+01 -7.07892E-01 -1.57216E+01 -3.05704E+00 -1.50878E+01 -5.33582E+00 -1.41259E+01 -7.49465E+00
 -1.28574E+01 -9.48663E+00 -1.13105E+01 -1.12686E+01 -9.51931E+00 -1.28020E+01 -7.52334E+00 -1.40537E+01
 -5.36641E+00 -1.49970E+01 -3.09583E+00 -1.56118E+01 -7.61298E-01 -1.58850E+01 +1.58618E+00 -1.58114E+01
 +3.89537E+00 -1.53931E+01 +6.11599E+00 -1.46396E+01 +8.19973E+00 -1.35681E+01 +1.01014E+01 -1.22024E+01
 +1.17797E+01 -1.05726E+01 +1.31985E+01 -8.71482E+00 +1.43272E+01 -6.66988E+00 +1.51416E+01 -4.48268E+00
 +1.56246E+01 -2.20115E+00 +1.57660E+01 +1.24815E-01 +1.55633E+01 +2.44440E+00 +1.50215E+01 +4.70704E+00
 +1.41529E+01 +6.86346E+00 +1.29771E+01 +8.86681E+00 +1.15200E+01 +1.06736E+01 +9.81396E+00 +1.22448E+01
 +7.89657E+00 +1.35465E+01 +5.80997E+00 +1.45506E+01 +3.59992E+00 +1.52359E+01 +1.31483E+00 +1.55878E+01
 -9.95355E-01 +1.55991E+01 -3.28020E+00 +1.52702E+01 -5.48992E+00 +1.46088E+01 -7.57644E+00 +1.36298E+01
 -9.49444E+00 +1.23551E+01 -1.12024E+01 +1.08129E+01 -1.26633E+01 +9.03730E+00 -1.38457E+01 +7.06738E+00
 -1.47243E+01 +4.94642E+00 -1.52804E+01 +2.72090E+00 -1.55023E+01 +4.39536E-01 -1.53858E+01 -1.84784E+00
 -1.49339E+01 -4.09132E+00 -1.41570E+01 -6.24204E+00 -1.30726E+01 -8.25326E+00 -1.17047E+01 -1.00813E+01
 -1.00837E+01 -1.16866E+01 -8.24537E+00 -1.30345E+01 -6.23006E+00 -1.40960E+01 -4.08203E+00 -1.48484E+01
 -1.84834E+00 -1.52758E+01 +4.22150E-01 -1.53693E+01 +2.67987E+00 -1.51275E+01 +4.87560E+00 -1.45562E+01
 +6.96155E+00 -1.36682E+01 +8.89239E+00 -1.24836E+01 +1.06263E+01 -1.10285E+01 +1.21256E+01 -9.33521E+00
 +1.33582E+01 -7.44096E+00 +1.42975E+01 -5.38739E+00 +1.49235E+01 -3.21955E+00 +1.52230E+01 -9.84890E-01
 +1.51901E+01 +1.26774E+00 +1.48259E+01 +3.48919E+00 +1.41389E+01 +5.63105E+00 +1.31446E+01 +7.64673E+00
 +1.18652E+01 +9.49248E+00 +1.03290E+01 +1.11283E+01 +8.56999E+00 +1.25188E+01 +6.62680E+00 +1.36342E+01
 +4.54213E+00 +1.44504E+01 +2.36166E+00 +1.49501E+01 +1.33114E-01 +1.51230E+01 -2.09484E+00 +1.49659E+01
 -4.27361E+00 +1.44825E+01 -6.35575E+00 +1.36841E+01 -8.29600E+00 +1.25884E+01 -1.00523E+01 +1.12199E+01
 -1.15866E+01 +9.60888E+00 -1.28657E+01 +7.79079E+00 -1.38623E+01 +5.80564E+00 -1.45549E+01 +3.69699E+00
 -1.49290E+01 +1.51101E+00 -1.49770E+01 -7.04491E-01 -1.46982E+01 -2.90115E+00 -1.40993E+01 -5.03109E+00
 -1.31938E+01 -7.04795E+00 -1.20019E+01 -8.90793E+00 -1.05502E+01 -1.05707E+01 -8.87069E+00 -1.20003E+01
 -7.00032E+00 -1.31660E+01 -4.98020E+00 -1.40427E+01 -2.85464E+00 -1.46117E+01 -6.70153E-01 -1.48611E+01
 +1.52552E+00 -1.47861E+01 +3.68448E+00 -1.43886E+01 +5.75969E+00 -1.36780E+01 +7.70602E+00 -1.26702E+01
 +9.48123E+00 -1.13876E+01 +1.10469E+01 -9.85867E+00 +1.23691E+01 -8.11711E+00 +1.34195E+01 -6.20126E+00
 +1.41756E+01 -4.15316E+00 +1.46213E+01 -2.01770E+00 +1.47474E+01 +1.58418E-01 +1.45517E+01 +2.32767E+00
 +1.40389E+01 +4.44274E+00 +1.32208E+01 +6.45760E+00 +1.21155E+01 +8.32846E+00 +1.07478E+01 +1.00147E+01
 +9.14779E+00 +1.14799E+01 +7.35079E+00 +1.26925E+01 +5.39629E+00 +1.36263E+01 +3.32716E+00 +1.42614E+01
 +1.18872E+00 +1.45845E+01 -9.72295E-01 +1.45890E+01 -3.10871E+00 +1.42754E+01 -5.17397E+00 +1.36508E+01
 -7.12315E+00 +1.27295E+01 -8.91391E+00 +1.15321E+01 -1.05074E+01 +1.00850E+01 -1.18693E+01 +8.42018E+00
 -1.29702E+01 +6.57436E+00 -1.37864E+01 +4.58805E+00 -1.43007E+01 +2.50480E+00 -1.45023E+01 +3.70183E-01
 -1.43873E+01 -1.76916E+00 -1.39586E+01 -3.86655E+00 -1.32262E+01 -5.87633E+00 -1.22065E+01 -7.75478E+00
 -1.09222E+01 -9.46116E+00 -9.40162E+00 -1.09585E+01 -7.67842E+00 -1.22145E+01 -5.79045E+00 -1.32021E+01
 -3.77916E+00 -1.39003E+01 -1.68860E+00 -1.42941E+01 +4.35502E-01 -1.43756E+01 +2.54678E+00 -1.41435E+01
 +4.59919E+00 -1.36032E+01 +6.54807E+00 -1.27671E+01 +8.35109E+00 -1.16538E+01 +9.96913E+00 -1.02882E+01
 +1.13672E+01 -8.70027E+00 +1.25152E+01 -6.92510E+00 +1.33884E+01 -5.00167E+00 +1.39682E+01 -2.97218E+00
 +1.42425E+01 -8.81054E-01 +1.42057E+01 +1.22601E+00 +1.38591E+01 +3.30302E+00 +1.32109E+01 +5.30474E+00
 +1.22755E+01 +7.18762E+00 +1.10738E+01 +8.91078E+00 +9.63254E+00 +1.04369E+01 +7.98343E+00 +1.17330E+01
 +6.16279E+00 +1.27711E+01 +4.21060E+00 +1.35291E+01 +2.16963E+00 +1.39908E+01 +8.45525E-02 +1.41467E+01
 -1.99910E+00 +1.39938E+01 -4.03588E+00 +1.35359E+01 -5.98144E+00 +1.27835E+01 -7.79349E+00 +1.17535E+01
 -9.43272E+00 +1.04687E+01 -1.08637E+01 +8.95769E+00 -1.20554E+01 +7.25364E+00 -1.29823E+01 +5.39406E+00
 -1.36247E+01 +3.41976E+00 -1.39689E+01 +1.37397E+00 -1.40079E+01 -6.98572E-01 -1.37413E+01 -2.75263E+00
 -1.31754E+01 -4.74342E+00 -1.23231E+01 -6.62764E+00 -1.12033E+01 -8.36435E+00 -9.84093E+00 -9.91591E+00
 -8.26608E+00 -1.12488E+01 -6.51342E+00 -1.23342E+01 -4.62146E+00 -1.31489E+01 -2.63167E+00 -1.36756E+01
 -5.87600E-01 -1.39031E+01 +1.46607E+00 -1.38271E+01 +3.48455E+00 -1.34496E+01 +5.42385E+00 -1.27794E+01
 +7.24182E+00 -1.18315E+01 +8.89900E+00 -1.06271E+01 +1.03595E+01 -9.19277E+00 +1.15917E+01 -7.56020E+00
 +1.25692E+01 -5.76530E+00 +1.32711E+01 -3.84748E+00 +1.36823E+01 -1.84875E+00 +1.37946E+01 +1.87159E-01
 +1.36058E+01 +2.21579E+00 +1.31205E+01 +4.19292E+00 +1.23499E+01 +6.07549E+00 +1.13111E+01 +7.82260E+00
 +1.00272E+01 +9.39635E+00 +8.52666E+00 +1.07627E+01 +6.84251E+00 +1.18922E+01 +5.01177E+00 +1.27605E+01
 +3.07460E+00 +1.33492E+01 +1.07341E+00 +1.36458E+01 -9.48054E-01 +1.36443E+01 -2.94567E+00 +1.33452E+01
 -4.87590E+00 +1.27555E+01 -6.69675E+00 +1.18886E+01 -8.36870E+00 +1.07637E+01 -9.85549E+00 +9.40588E+00
 -1.11250E+01 +7.84501E+00 -1.21499E+01 +6.11549E+00 -1.29082E+01 +4.25531E+00 -1.33837E+01 +2.30524E+00
 -1.35667E+01 +3.07951E-01 -1.34534E+01 -1.69292E+00 -1.30469E+01 -3.65373E+00 -1.23565E+01 -5.53177E+00
 -1.13977E+01 -7.28621E+00 -1.01918E+01 -8.87899E+00 -8.76548E+00 -1.02756E+01 -7.15024E+00 -1.14459E+01
 -5.38160E+00 -1.23648E+01 -3.49836E+00 -1.30125E+01 -1.54177E+00 -1.33754E+01 +4.45365E-01 -1.34461E+01
 +2.41967E+00 -1.32233E+01 +4.33811E+00 -1.27125E+01 +6.15892E+00 -1.19253E+01 +7.84254E+00 -1.08791E+01
 +9.35248E+00 -9.59739E+00 +1.06561E+01 -8.10834E+00 +1.17252E+01 -6.44478E+00 +1.25369E+01 -4.64327E+00
 +1.30740E+01 -2.74332E+00 +1.33250E+01 -7.86515E-01 +1.32850E+01 +1.18437E+00 +1.29554E+01 +3.12633E+00
 +1.23437E+01 +4.99706E+00 +1.14637E+01 +6.75586E+00 +1.03351E+01 +8.36456E+00 +8.98286E+00 +9.78830E+00
 +7.43683E+00 +1.09963E+01 +5.73103E+00 +1.19626E+01 +3.90291E+00 +1.26665E+01 +1.99254E+00 +1.30930E+01
 +4.17072E-02 +1.32333E+01 -1.90697E+00 +1.30847E+01 -3.81100E+00 +1.26510E+01 -5.62892E+00 +1.19421E+01
 -7.32122E+00 +1.09738E+01 -8.85119E+00 +9.76771E+00 -1.01857E+01 +8.35046E+00 -1.12960E+01 +6.75332E+00
 -1.21582E+01 +5.01139E+00 -1.27538E+01 +3.16290E+00 -1.30704E+01 +1.24832E+00 -1.31013E+01 -6.90473E-01
 -1.28465E+01 -2.61117E+00 -1.23120E+01 -4.47190E+00 -1.15097E+01 -6.23217E+00 -1.04576E+01 -7.85376E+00
 -9.17917E+00 -9.30152E+00 -7.70251E+00 -1.05441E+01 -6.06017E+00 -1.15548E+01 -4.28824E+00 -1.23119E+01
 -2.42556E+00 -1.27993E+01 -5.12910E-01 -1.30068E+01 +1.40793E+00 -1.29302E+01 +3.29505E+00 -1.25718E+01
 +5.10734E+00 -1.19398E+01 +6.80539E+00 -1.10483E+01 +8.35235E+00 -9.91726E+00 +9.71472E+00 -8.57170E+00
 +1.08631E+01 -7.04131E+00 +1.17727E+01 -5.35975E+00 +1.24241E+01 -3.56393E+00 +1.28036E+01 -1.69320E+00
 +1.29032E+01 +2.11526E-01 +1.27212E+01 +2.10864E+00 +1.22621E+01 +3.95680E+00 +1.15362E+01 +5.71575E+00
 +1.05599E+01 +7.34728E+00 +9.35478E+00 +8.81601E+00 +7.94754E+00 +1.00902E+01 +6.36918E+00 +1.11422E+01
 +4.65438E+00 +1.19496E+01 +2.84075E+00 +1.24952E+01 +9.68022E-01 +1.27673E+01 -9.22883E-01 +1.27606E+01
 -2.79069E+00 +1.24755E+01 -4.59470E+00 +1.19189E+01 -6.29568E+00 +1.11031E+01 -7.85667E+00 +1.00465E+01
 -9.24385E+00 +8.77238E+00 -1.04273E+01 +7.30896E+00 -1.13814E+01 +5.68843E+00 -1.20858E+01 +3.94638E+00
 -1.25255E+01 +2.12099E+00 -1.26913E+01 +2.52211E-01 -1.25801E+01 -1.61914E+00 -1.21947E+01 -3.45224E+00
 -1.15439E+01 -5.20716E+00 -1.06423E+01 -6.84577E+00 -9.51009E+00 -8.33249E+00 -8.17222E+00 -9.63515E+00
 -6.65821E+00 -1.07256E+01 -5.00137E+00 -1.15805E+01 -3.23804E+00 -1.21814E+01 -1.40686E+00 -1.25157E+01
 +4.52135E-01 -1.25765E+01 +2.29835E+00 -1.23629E+01 +4.09154E+00 -1.18800E+01 +5.79267E+00 -1.11388E+01
