 Created: 19-Jan-2021
 $NMID
 ID='D:\BASISSIMULATI'
 FMTDAT='(8E13.5)'
 VOLUME=   1.00000E+00
 TRAMP=   1.00000E+00
 $END
 +4.55879E+01 +6.97800E-01 +4.24578E+01 +1.46355E+01 +3.47051E+01 +2.63224E+01 +2.36364E+01 +3.42135E+01
 +1.10405E+01 +3.74569E+01 -1.15750E+00 +3.60153E+01 -1.12535E+01 +3.06240E+01 -1.80572E+01 +2.25998E+01
 -2.10642E+01 +1.35497E+01 -2.04802E+01 +5.04553E+00 -1.71005E+01 -1.66518E+00 -1.20842E+01 -5.85362E+00
 -6.67874E+00 -7.37622E+00 -1.96045E+00 -6.61136E+00 +1.35403E+00 -4.29337E+00 +2.99063E+00 -1.29255E+00
 +3.08786E+00 +1.60192E+00 +2.07472E+00 +3.84503E+00 +4.97407E-01 +5.21167E+00 -1.15517E+00 +5.77638E+00
 -2.58106E+00 +5.81358E+00 -3.71983E+00 +5.65425E+00 -4.72371E+00 +5.54352E+00 -5.86043E+00 +5.54080E+00
 -7.38074E+00 +5.48962E+00 -9.39202E+00 +5.06402E+00 -1.17764E+01 +3.87634E+00 -1.41784E+01 +1.61454E+00
 -1.60684E+01 -1.83119E+00 -1.68643E+01 -6.28962E+00 -1.60828E+01 -1.13018E+01 -1.34768E+01 -1.61919E+01
 -9.12419E+00 -2.01996E+01 -3.44191E+00 -2.26429E+01 +2.88041E+00 -2.30708E+01 +9.01297E+00 -2.13678E+01
 +1.41533E+01 -1.77838E+01 +1.76888E+01 -1.28822E+01 +1.93155E+01 -7.41739E+00 +1.90848E+01 -2.17244E+00
 +1.73694E+01 +2.20423E+00 +1.47566E+01 +5.32467E+00 +1.18980E+01 +7.12008E+00 +9.35218E+00 +7.82041E+00
 +7.46035E+00 +7.86244E+00 +6.28330E+00 +7.75158E+00 +5.61477E+00 +7.91357E+00 +5.06506E+00 +8.57405E+00
 +4.19205E+00 +9.69654E+00 +2.64483E+00 +1.09941E+01 +2.82280E-01 +1.20108E+01 -2.76431E+00 +1.22526E+01
 -6.10157E+00 +1.13331E+01 -9.15569E+00 +9.09686E+00 -1.13062E+01 +5.68959E+00 -1.20393E+01 +1.55426E+00
 -1.10837E+01 -2.64628E+00 -8.49511E+00 -6.16401E+00 -4.66851E+00 -8.32681E+00 -2.73498E-01 -8.68899E+00
 +3.87342E+00 -7.13646E+00 +6.97152E+00 -3.92244E+00 +8.39761E+00 +3.74261E-01 +7.83160E+00 +4.95912E+00
 +5.31930E+00 +8.97544E+00 +1.26053E+00 +1.16679E+01 -3.67289E+00 +1.25218E+01 -8.66919E+00 +1.13496E+01
 -1.29293E+01 +8.31015E+00 -1.58073E+01 +3.86008E+00 -1.69114E+01 -1.34731E+00 -1.61475E+01 -6.59102E+00
 -1.37028E+01 -1.12100E+01 -9.97884E+00 -1.47035E+01 -5.49427E+00 -1.67873E+01 -7.82586E-01 -1.73993E+01
 +3.69353E+00 -1.66625E+01 +7.59442E+00 -1.48200E+01 +1.07171E+01 -1.21633E+01 +1.29754E+01 -8.97212E+00
 +1.43587E+01 -5.47967E+00 +1.48883E+01 -1.86731E+00 +1.45842E+01 +1.71680E+00 +1.34559E+01 +5.12645E+00
 +1.15156E+01 +8.18923E+00 +8.81088E+00 +1.06947E+01 +5.46183E+00 +1.24071E+01 +1.68825E+00 +1.31022E+01
 -2.18567E+00 +1.26202E+01 -5.75661E+00 +1.09210E+01 -8.59613E+00 +8.12405E+00 -1.03234E+01 +4.52088E+00
 -1.06816E+01 +5.51016E-01 -9.59846E+00 -3.25688E+00 -7.21763E+00 -6.36905E+00 -3.88836E+00 -8.33917E+00
 -1.15284E-01 -8.88991E+00 +3.52421E+00 -7.96571E+00 +6.47848E+00 -5.74476E+00 +8.31618E+00 -2.60712E+00
 +8.79745E+00 +9.34582E-01 +7.90797E+00 +4.32756E+00 +5.84972E+00 +7.07513E+00 +2.99217E+00 +8.81750E+00
 -2.04342E-01 +9.38149E+00 -3.27581E+00 +8.79148E+00 -5.83383E+00 +7.24201E+00 -7.62150E+00 +5.04133E+00
 -8.53650E+00 +2.54040E+00 -8.62042E+00 +6.41144E-02 -8.02063E+00 -2.14067E+00 -6.93699E+00 -3.93081E+00
 -5.56804E+00 -5.26415E+00 -4.06971E+00 -6.17320E+00 -2.53532E+00 -6.72560E+00 -9.99315E-01 -6.98396E+00
 +5.39661E-01 -6.97691E+00 +2.08539E+00 -6.68891E+00 +3.61194E+00 -6.07086E+00 +5.04341E+00 -5.06729E+00
 +6.25241E+00 -3.65133E+00 +7.07879E+00 -1.85633E+00 +7.36413E+00 +2.05874E-01 +6.99319E+00 +2.34689E+00
 +5.93124E+00 +4.32503E+00 +4.24680E+00 +5.88561E+00 +2.11308E+00 +6.80933E+00 -2.13900E-01 +6.95738E+00
 -2.43622E+00 +6.30265E+00 -4.26563E+00 +4.93923E+00 -5.47444E+00 +3.06786E+00 -5.93458E+00 +9.60189E-01
 -5.63664E+00 -1.09030E+00 -4.68518E+00 -2.81977E+00 -3.27232E+00 -4.03707E+00 -1.63613E+00 -4.64958E+00
 -1.39240E-02 -4.66738E+00 +1.39934E+00 -4.18657E+00 +2.47863E+00 -3.35722E+00 +3.17771E+00 -2.34474E+00
 +3.51934E+00 -1.29415E+00 +3.57109E+00 -3.05691E-01 +3.41477E+00 +5.73601E-01 +3.11805E+00 +1.34193E+00
 +2.71600E+00 +2.02233E+00 +2.20698E+00 +2.63686E+00 +1.56335E+00 +3.18360E+00 +7.53130E-01 +3.62358E+00
 -2.34123E-01 +3.88202E+00 -1.36526E+00 +3.86403E+00 -2.55244E+00 +3.48107E+00 -3.65722E+00 +2.68125E+00
 -4.51039E+00 +1.47538E+00 -4.94372E+00 -4.88874E-02 -4.82669E+00 -1.72939E+00 -4.09976E+00 -3.34941E+00
 -2.79611E+00 -4.67193E+00 -1.04608E+00 -5.48139E+00 +9.37493E-01 -5.62452E+00 +2.89084E+00 -5.04140E+00
 +4.54171E+00 -3.78029E+00 +5.65452E+00 -1.99292E+00 +6.06924E+00 +8.88264E-02 +5.72677E+00 +2.19014E+00
 +4.67638E+00 +4.03715E+00 +3.06443E+00 +5.39894E+00 +1.10752E+00 +6.12021E+00 -9.43996E-01 +6.13918E+00
 -2.84489E+00 +5.48898E+00 -4.38905E+00 +4.28363E+00 -5.43317E+00 +2.69316E+00 -5.90741E+00 +9.13577E-01
 -5.81309E+00 -8.62019E-01 -5.21029E+00 -2.46644E+00 -4.19965E+00 -3.77244E+00 -2.90318E+00 -4.69752E+00
 -1.44803E+00 -5.20112E+00 +4.45489E-02 -5.27748E+00 +1.46461E+00 -4.94754E+00 +2.71481E+00 -4.25267E+00
 +3.71003E+00 -3.25167E+00 +4.37804E+00 -2.02064E+00 +4.66296E+00 -6.54017E-01 +4.53196E+00 +7.35924E-01
 +3.98405E+00 +2.02330E+00 +3.05831E+00 +3.07823E+00 +1.83851E+00 +3.78155E+00 +4.51031E-01 +4.04269E+00
 -9.45333E-01 +3.81731E+00 -2.17774E+00 +3.12060E+00 -3.08343E+00 +2.03239E+00 -3.53562E+00 +6.91647E-01
 -3.46627E+00 -7.20098E-01 -2.88072E+00 -2.00436E+00 -1.86076E+00 -2.97629E+00 -5.54493E-01 -3.49473E+00
 +8.45776E-01 -3.48607E+00 +2.13402E+00 -2.95706E+00 +3.12396E+00 -1.99389E+00 +3.67934E+00 -7.47375E-01
 +3.73534E+00 +5.93091E-01 +3.30704E+00 +1.83201E+00 +2.48373E+00 +2.80056E+00 +1.41004E+00 +3.38356E+00
 +2.58063E-01 +3.53569E+00 -8.04194E-01 +3.28424E+00 -1.64176E+00 +2.71841E+00 -2.17368E+00 +1.96781E+00
 -2.38231E+00 +1.17482E+00 -2.30976E+00 +4.66605E-01 -2.04300E+00 -6.77315E-02 -1.69111E+00 -3.90503E-01
 -1.35993E+00 -5.17296E-01 -1.12932E+00 -5.07549E-01 -1.03760E+00 -4.46517E-01 -1.07606E+00 -4.22823E-01
 -1.19402E+00 -5.06555E-01 -1.31307E+00 -7.32450E-01 -1.34688E+00 -1.09151E+00 -1.22240E+00 -1.53251E+00
 -8.97925E-01 -1.97264E+00 -3.74341E-01 -2.31512E+00 +3.02517E-01 -2.46961E+00 +1.04871E+00 -2.37175E+00
 +1.75672E+00 -1.99756E+00 +2.31469E+00 -1.37037E+00 +2.62675E+00 -5.58947E-01 +2.63057E+00 +3.32625E-01
 +2.30923E+00 +1.18126E+00 +1.69547E+00 +1.86445E+00 +8.67714E-01 +2.27981E+00 -6.09822E-02 +2.36128E+00
 -9.59326E-01 +2.08976E+00 -1.69675E+00 +1.49670E+00 -2.16215E+00 +6.60362E-01 -2.27982E+00 -3.04386E-01
 -2.02056E+00 -1.26128E+00 -1.40660E+00 -2.07068E+00 -5.09966E-01 -2.60827E+00 +5.55556E-01 -2.78196E+00
 +1.64796E+00 -2.54536E+00 +2.61457E+00 -1.90577E+00 +3.31172E+00 -9.25907E-01 +3.62445E+00 +2.81449E-01
 +3.48368E+00 +1.56562E+00 +2.87864E+00 +2.75616E+00 +1.86228E+00 +3.68508E+00 +5.48283E-01 +4.21066E+00
 -9.00907E-01 +4.23953E+00 -2.29423E+00 +3.74359E+00 -3.43819E+00 +2.76864E+00 -4.16565E+00 +1.43240E+00
 -4.36278E+00 -8.88371E-02 -3.98968E+00 -1.58379E+00 -3.09062E+00 -2.83707E+00 -1.79127E+00 -3.66279E+00
 -2.82516E-01 -3.93532E+00 +1.20737E+00 -3.61177E+00 +2.44809E+00 -2.74186E+00 +3.24449E+00 -1.46273E+00
 +3.46913E+00 +2.09775E-02 +3.08455E+00 +1.46893E+00 +2.15089E+00 +2.64362E+00 +8.17463E-01 +3.34900E+00
 -7.00618E-01 +3.46263E+00 -2.15679E+00 +2.95578E+00 -3.31239E+00 +1.89814E+00 -3.97439E+00 +4.46495E-01
 -4.02521E+00 -1.18031E+00 -3.43998E+00 -2.73567E+00 -2.28901E+00 -3.98279E+00 -7.25728E-01 -4.72944E+00
 +1.03704E+00 -4.85481E+00 +2.75828E+00 -4.32486E+00 +4.20225E+00 -3.19500E+00 +5.16959E+00 -1.60076E+00
 +5.52206E+00 +2.61239E-01 +5.19878E+00 +2.15867E+00 +4.22274E+00 +3.85188E+00 +2.69809E+00 +5.12214E+00
 +7.98867E-01 +5.79710E+00 -1.24931E+00 +5.77171E+00 -3.19323E+00 +5.02280E+00 -4.78020E+00 +3.61612E+00
 -5.78818E+00 +1.70449E+00 -6.05570E+00 -4.84124E-01 -5.50796E+00 -2.66886E+00 -4.17537E+00 -4.54808E+00
 -2.20037E+00 -5.83874E+00 +1.70772E-01 -6.31890E+00 +2.61306E+00 -5.86713E+00 +4.76356E+00 -4.49186E+00
 +6.27399E+00 -2.34385E+00 +6.86770E+00 +2.93246E-01 +6.39161E+00 +3.03580E+00 +4.85297E+00 +5.45420E+00
 +2.43225E+00 +7.14059E+00 -5.33195E-01 +7.77959E+00 -3.59488E+00 +7.20910E+00 -6.26264E+00 +5.45877E+00
 -8.08694E+00 +2.75678E+00 -8.73942E+00 -4.98937E-01 -8.07625E+00 -3.80217E+00 -6.17105E+00 -6.62305E+00
 -3.30916E+00 -8.50089E+00 +5.73025E-02 -9.12780E+00 +3.38689E+00 -8.40654E+00 +6.14473E+00 -6.47045E+00
 +7.89890E+00 -3.66056E+00 +8.39834E+00 -4.63369E-01 +7.61696E+00 +2.57912E+00 +5.75479E+00 +4.96964E+00
 +3.19601E+00 +6.34641E+00 +4.32199E-01 +6.54659E+00 -2.03344E+00 +5.62985E+00 -3.78160E+00 +3.85820E+00
 -4.55278E+00 +1.63696E+00 -4.28904E+00 -5.70126E-01 -3.13401E+00 -2.33358E+00 -1.39304E+00 -3.33944E+00
 +5.36700E-01 -3.44306E+00 +2.25018E+00 -2.68564E+00 +3.41434E+00 -1.27247E+00 +3.82749E+00 +4.80376E-01
 +3.44729E+00 +2.21726E+00 +2.38390E+00 +3.61573E+00 +8.62918E-01 +4.44524E+00 -8.30999E-01 +4.60063E+00
 -2.41556E+00 +4.10582E+00 -3.66314E+00 +3.09050E+00 -4.43348E+00 +1.74883E+00 -4.68223E+00 +2.92015E-01
 -4.44740E+00 -1.09270E+00 -3.82101E+00 -2.26788E+00 -2.91659E+00 -3.15273E+00 -1.84263E+00 -3.71335E+00
 -6.89243E-01 -3.94342E+00 +4.70208E-01 -3.84472E+00 +1.56600E+00 -3.41644E+00 +2.51538E+00 -2.65815E+00
 +3.21190E+00 -1.58635E+00 +3.52877E+00 -2.58685E-01 +3.33986E+00 +1.20400E+00 +2.55590E+00 +2.60867E+00
 +1.16706E+00 +3.70278E+00 -7.20522E-01 +4.21152E+00 -2.86826E+00 +3.89556E+00 -4.91887E+00 +2.61775E+00
 -6.44440E+00 +4.02400E-01 -7.02343E+00 -2.53007E+00 -6.33394E+00 -5.76729E+00 -4.24194E+00 -8.75406E+00
 -8.63774E-01 -1.08823E+01 +3.41616E+00 -1.16074E+01 +7.98303E+00 -1.05680E+01 +1.20829E+01 -7.68324E+00
 +1.49544E+01 -3.20277E+00 +1.59755E+01 +2.30561E+00 +1.47974E+01 +8.03429E+00 +1.14334E+01 +1.30692E+01
 +6.28350E+00 +1.65546E+01 +8.34553E-02 +1.78566E+01 -6.21456E+00 +1.66928E+01 -1.16091E+01 +1.31990E+01
 -1.52322E+01 +7.91754E+00 -1.65117E+01 +1.70660E+00 -1.52796E+01 -4.41271E+00 -1.18042E+01 -9.44224E+00
 -6.73935E+00 -1.25887E+01 -9.99907E-01 -1.34056E+01 +4.41050E+00 -1.18670E+01 +8.58484E+00 -8.35951E+00
 +1.08741E+01 -3.59657E+00 +1.09932E+01 +1.52693E+00 +9.05299E+00 +6.10713E+00 +5.51449E+00 +9.39605E+00
