 Created: 19-Jan-2021
 $NMID
 ID='D:\BASISSIMULATI'
 FMTDAT='(8E13.5)'
 VOLUME=   1.00000E+00
 TRAMP=   1.00000E+00
 $END
 +2.53855E+01 +1.27829E-01 +2.43493E+01 +5.94012E+00 +2.19153E+01 +1.12296E+01 +1.82913E+01 +1.56511E+01
 +1.37703E+01 +1.89349E+01 +8.70495E+00 +2.09071E+01 +3.47622E+00 +2.15017E+01 -1.53848E+00 +2.07628E+01
 -5.99697E+00 +1.88373E+01 -9.61989E+00 +1.59592E+01 -1.22121E+01 +1.24261E+01 -1.36762E+01 +8.57104E+00
 -1.40166E+01 +4.73184E+00 -1.33352E+01 +1.22111E+00 -1.18172E+01 -1.70084E+00 -9.71102E+00 -3.84742E+00
 -7.30191E+00 -5.11976E+00 -4.88359E+00 -5.51227E+00 -2.72957E+00 -5.10921E+00 -1.06724E+00 -4.07298E+00
 -5.69231E-02 -2.62517E+00 +2.22155E-01 -1.02246E+00 -2.22190E-01 +4.70436E-01 -1.29769E+00 +1.60816E+00
 -2.83839E+00 +2.18972E+00 -4.62243E+00 +2.07902E+00 -6.39521E+00 +1.21873E+00 -7.89548E+00 -3.63417E-01
 -8.88211E+00 -2.55681E+00 -9.15884E+00 -5.17802E+00 -8.59473E+00 -7.98798E+00 -7.13846E+00 -1.07145E+01
 -4.82510E+00 -1.30781E+01 -1.77475E+00 -1.48187E+01 +1.81678E+00 -1.57205E+01 +5.69438E+00 -1.56334E+01
 +9.56566E+00 -1.44875E+01 +1.31265E+01 -1.23020E+01 +1.60877E+01 -9.18422E+00 +1.82006E+01 -5.32222E+00
 +1.92793E+01 -9.69388E-01 +1.92168E+01 +3.57654E+00 +1.79946E+01 +7.99835E+00 +1.56849E+01 +1.19859E+01
 +1.24441E+01 +1.52620E+01 +8.49970E+00 +1.76051E+01 +4.13081E+00 +1.88672E+01 -3.55251E-01 +1.89850E+01
 -4.64878E+00 +1.79838E+01 -8.46311E+00 +1.59737E+01 -1.15577E+01 +1.31387E+01 -1.37566E+01 +9.71907E+00
 -1.49613E+01 +5.98998E+00 -1.51561E+01 +2.23736E+00 -1.44064E+01 -1.26665E+00 -1.28497E+01 -4.28624E+00
 -1.06812E+01 -6.64055E+00 -8.13356E+00 -8.21696E+00 -5.45526E+00 -8.97776E+00 -2.88723E+00 -8.95989E+00
 -6.41496E-01 -8.26789E+00 +1.11693E+00 -7.06094E+00 +2.28326E+00 -5.53524E+00 +2.82006E+00 -3.90353E+00
 +2.75784E+00 -2.37366E+00 +2.18910E+00 -1.12839E+00 +1.25675E+00 -3.07982E-01 +1.37885E-01 +2.48887E-03
 -9.75355E-01 -2.19713E-01 -1.89593E+00 -9.34088E-01 -2.46120E+00 -2.04219E+00 -2.54959E+00 -3.39847E+00
 -2.09292E+00 -4.82565E+00 -1.08350E+00 -6.13294E+00 +4.24785E-01 -7.13554E+00 +2.32135E+00 -7.67339E+00
 +4.44923E+00 -7.62752E+00 +6.61986E+00 -6.93237E+00 +8.63085E+00 -5.58310E+00 +1.02851E+01 -3.63711E+00
 +1.14094E+01 -1.20974E+00 +1.18708E+01 +1.53543E+00 +1.15896E+01 +4.40072E+00 +1.05470E+01 +7.17165E+00
 +8.78725E+00 +9.63570E+00 +6.41489E+00 +1.16009E+01 +3.58557E+00 +1.29127E+01 +4.93017E-01 +1.34668E+01
 -2.64743E+00 +1.32185E+01 -5.61707E+00 +1.21857E+01 -8.21214E+00 +1.04471E+01 -1.02606E+01 +8.13474E+00
 -1.16358E+01 +5.42230E+00 -1.22662E+01 +2.50968E+00 -1.21398E+01 -3.94085E-01 -1.13036E+01 -3.08846E+00
 -9.85749E+00 -5.39785E+00 -7.94453E+00 -7.18536E+00 -5.73677E+00 -8.36286E+00 -3.41964E+00 -8.89637E+00
 -1.17541E+00 -8.80650E+00 +8.32406E-01 -8.16408E+00 +2.47244E+00 -7.08141E+00 +3.65545E+00 -5.70013E+00
 +4.34011E+00 -4.17685E+00 +4.53415E+00 -2.66805E+00 +4.29095E+00 -1.31547E+00 +3.70201E+00 -2.33578E-01
 +2.88611E+00 +5.00057E-01 +1.97631E+00 +8.50427E-01 +1.10602E+00 +8.26516E-01 +3.95562E-01 +4.78434E-01
 -5.96278E-02 -1.09355E-01 -1.97930E-01 -8.27947E-01 +3.03538E-03 -1.55604E+00 +5.25004E-01 -2.17290E+00
 +1.31171E+00 -2.57096E+00 +2.27520E+00 -2.66691E+00 +3.30524E+00 -2.41016E+00 +4.28065E+00 -1.78800E+00
 +5.08171E+00 -8.26915E-01 +5.60221E+00 +4.09823E-01 +5.76008E+00 +1.82825E+00 +5.50565E+00 +3.31261E+00
 +4.82670E+00 +4.73634E+00 +3.75001E+00 +5.97401E+00 +2.33905E+00 +6.91301E+00 +6.88468E-01 +7.46402E+00
 -1.08448E+00 +7.56926E+00 -2.85035E+00 +7.20766E+00 -4.47903E+00 +6.39668E+00 -5.85118E+00 +5.19065E+00
 -6.86849E+00 +3.67566E+00 -7.46196E+00 +1.96181E+00 -7.59731E+00 +1.73320E-01 -7.27730E+00 -1.56230E+00
 -6.54057E+00 -3.12528E+00 -5.45737E+00 -4.41352E+00 -4.12259E+00 -5.35078E+00 -2.64676E+00 -5.89229E+00
 -1.14597E+00 -6.02735E+00 +2.68403E-01 -5.77878E+00 +1.49917E+00 -5.19945E+00 +2.47114E+00 -4.36611E+00
 +3.13667E+00 -3.37134E+00 +3.47839E+00 -2.31442E+00 +3.50910E+00 -1.29187E+00 +3.26882E+00 -3.88739E-01
 +2.81941E+00 +3.28677E-01 +2.23735E+00 +8.18048E-01 +1.60553E+00 +1.06366E+00 +1.00463E+00 +1.07642E+00
 +5.05216E-01 +8.91211E-01 +1.61119E-01 +5.62106E-01 +4.70078E-03 +1.55770E-01 +4.44898E-02 -2.56066E-01
 +2.65273E-01 -6.04397E-01 +6.30583E-01 -8.30177E-01 +1.08725E+00 -8.90325E-01 +1.57155E+00 -7.61922E-01
 +2.01618E+00 -4.44250E-01 +2.35753E+00 +4.14782E-02 +2.54235E+00 +6.54615E-01 +2.53324E+00 +1.33949E+00
 +2.31246E+00 +2.03128E+00 +1.88363E+00 +2.66266E+00 +1.27138E+00 +3.17063E+00 +5.18752E-01 +3.50280E+00
 -3.17034E-01 +3.62253E+00 -1.17027E+00 +3.51241E+00 -1.97313E+00 +3.17584E+00 -2.66217E+00 +2.63648E+00
 -3.18426E+00 +1.93583E+00 -3.50148E+00 +1.12903E+00 -3.59434E+00 +2.79483E-01 -3.46327E+00 -5.47255E-01
 -3.12803E+00 -1.28962E+00 -2.62538E+00 -1.89567E+00 -2.00507E+00 -2.32766E+00 -1.32476E+00 -2.56505E+00
 -6.44255E-01 -2.60585E+00 -1.97220E-02 -2.46607E+00 +5.01558E-01 -2.17737E+00 +8.85398E-01 -1.78333E+00
 +1.11348E+00 -1.33464E+00 +1.18448E+00 -8.83637E-01 +1.11338E+00 -4.78997E-01 +9.29237E-01 -1.60857E-01
 +6.71531E-01 +4.29937E-02 +3.85554E-01 +1.19547E-01 +1.17346E-01 +7.14192E-02 -9.13228E-02 -8.39669E-02
 -2.07391E-01 -3.16718E-01 -2.09938E-01 -5.88071E-01 -9.22559E-02 -8.54850E-01 +1.37614E-01 -1.07432E+00
 +4.57913E-01 -1.20889E+00 +8.35641E-01 -1.23024E+00 +1.23019E+00 -1.12243E+00 +1.59773E+00 -8.83583E-01
 +1.89595E+00 -5.26194E-01 +2.08853E+00 -7.58468E-02 +2.14903E+00 +4.31408E-01 +2.06369E+00 +9.52751E-01
 +1.83292E+00 +1.44299E+00 +1.47130E+00 +1.85915E+00 +1.00613E+00 +2.16490E+00 +4.74680E-01 +2.33413E+00
 -7.95945E-02 +2.35364E+00 -6.11418E-01 +2.22431E+00 -1.07825E+00 +1.96100E+00 -1.44450E+00 +1.59084E+00
 -1.68507E+00 +1.15044E+00 -1.78769E+00 +6.81998E-01 -1.75401E+00 +2.28965E-01 -1.59921E+00 -1.68438E-01
 -1.35019E+00 -4.77334E-01 -1.04260E+00 -6.75512E-01 -7.16939E-01 -7.53624E-01 -4.14149E-01 -7.16022E-01
 -1.71197E-01 -5.80153E-01 -1.70633E-02 -3.74578E-01 +3.04274E-02 -1.35802E-01 -3.33873E-02 +9.57434E-02
 -1.99389E-01 +2.80165E-01 -4.45515E-01 +3.82551E-01 -7.38970E-01 +3.76942E-01 -1.03961E+00 +2.49409E-01
 -1.30414E+00 -8.79694E-05 -1.49075E+00 -3.57261E-01 -1.56360E+00 -7.94538E-01 -1.49692E+00 -1.27350E+00
 -1.27802E+00 -1.74850E+00 -9.09112E-01 -2.17107E+00 -4.07667E-01 -2.49471E+00 +1.94778E-01 -2.67966E+00
 +8.55224E-01 -2.69696E+00 +1.52300E+00 -2.53170E+00 +2.14435E+00 -2.18479E+00 +2.66749E+00 -1.67335E+00
 +3.04740E+00 -1.02949E+00 +3.25019E+00 -2.97629E-01 +3.25641E+00 +4.69382E-01 +3.06293E+00 +1.21497E+00
 +2.68343E+00 +1.88398E+00 +2.14721E+00 +2.42763E+00 +1.49655E+00 +2.80800E+00 +7.82806E-01 +3.00139E+00
 +6.17250E-02 +3.00040E+00 -6.11733E-01 +2.81444E+00 -1.18843E+00 +2.46865E+00 -1.62952E+00 +2.00129E+00
 -1.90990E+00 +1.45995E+00 -2.02031E+00 +8.96858E-01 -1.96789E+00 +3.63731E-01 -1.77515E+00 -9.31994E-02
 -1.47741E+00 -4.37651E-01 -1.11898E+00 -6.46716E-01 -7.48553E-01 -7.12938E-01 -4.14086E-01 -6.44846E-01
 -1.57818E-01 -4.65865E-01 -1.18674E-02 -2.11739E-01 +5.15713E-03 +7.33074E-02 -1.09816E-01 +3.41278E-01
 -3.43861E-01 +5.45528E-01 -6.69225E-01 +6.45795E-01 -1.04601E+00 +6.12634E-01 -1.42611E+00 +4.30827E-01
 -1.75810E+00 +1.01395E-01 -1.99245E+00 -3.57971E-01 -2.08674E+00 -9.14145E-01 -2.01021E+00 -1.52136E+00
 -1.74732E+00 -2.12527E+00 -1.29987E+00 -2.66804E+00 -6.87484E-01 -3.09373E+00 +5.35883E-02 -3.35376E+00
 +8.73280E-01 -3.41173E+00 +1.71188E+00 -3.24717E+00 +2.50518E+00 -2.85792E+00 +3.19013E+00 -2.26081E+00
 +3.71050E+00 -1.49064E+00 +4.02196E+00 -5.97486E-01 +4.09612E+00 +3.57441E-01 +3.92327E+00 +1.30694E+00
 +3.51330E+00 +2.18355E+00 +2.89501E+00 +2.92535E+00 +2.11361E+00 +3.48128E+00 +1.22682E+00 +3.81540E+00
 +2.99845E-01 +3.90992E+00 -6.00281E-01 +3.76648E+00 -1.41052E+00 +3.40571E+00 -2.07715E+00 +2.86509E+00
 -2.56027E+00 +2.19535E+00 -2.83693E+00 +1.45564E+00 -2.90266E+00 +7.08089E-01 -2.77134E+00 +1.21328E-02
 -2.47333E+00 -5.80771E-01 -2.05210E+00 -1.03160E+00 -1.55972E+00 -1.31699E+00 -1.05166E+00 -1.43085E+00
 -5.81282E-01 -1.38440E+00 -1.94736E-01 -1.20445E+00 +7.34192E-02 -9.30303E-01 +2.03369E-01 -6.09376E-01
 +1.91703E-01 -2.92209E-01 +5.14441E-02 -2.71554E-02 -1.89556E-01 +1.44622E-01 -4.91675E-01 +1.93411E-01
 -8.07738E-01 +1.04039E-01 -1.08797E+00 -1.22492E-01 -1.28521E+00 -4.68982E-01 -1.35988E+00 -9.03622E-01
 -1.28420E+00 -1.38303E+00 -1.04533E+00 -1.85647E+00 -6.46953E-01 -2.27077E+00 -1.09429E-01 -2.57560E+00
 +5.31814E-01 -2.72848E+00 +1.22926E+00 -2.69911E+00 +1.92751E+00 -2.47256E+00 +2.56825E+00 -2.05109E+00
 +3.09555E+00 -1.45435E+00 +3.46103E+00 -7.17998E-01 +3.62833E+00 +1.09198E-01 +3.57648E+00 +9.69463E-01
 +3.30201E+00 +1.80095E+00 +2.81940E+00 +2.54304E+00 +2.15990E+00 +3.14161E+00 +1.36893E+00 +3.55359E+00
 +5.02228E-01 +3.75066E+00 -3.78989E-01 +3.72152E+00 -1.21318E+00 +3.47267E+00 -1.94369E+00 +3.02763E+00
 -2.52343E+00 +2.42463E+00 -2.91862E+00 +1.71308E+00 -3.11133E+00 +9.49066E-01 -3.10049E+00 +1.90407E-01
 -2.90146E+00 -5.08362E-01 -2.54408E+00 -1.10058E+00 -2.06949E+00 -1.55120E+00 -1.52604E+00 -1.83940E+00
 -9.64617E-01 -1.95978E+00 -4.33964E-01 -1.92212E+00 +2.37065E-02 -1.74976E+00 +3.76320E-01 -1.47674E+00
 +6.04469E-01 -1.14408E+00 +7.02661E-01 -7.95409E-01 +6.79186E-01 -4.72661E-01 +5.54659E-01 -2.11921E-01
 +3.59410E-01 -4.00603E-02 +1.29996E-01 +2.76604E-02 -9.48015E-02 -1.12393E-02 -2.78095E-01 -1.46583E-01
 -3.88728E-01 -3.56919E-01 -4.04452E-01 -6.12005E-01 -3.14154E-01 -8.76119E-01 -1.18939E-01 -1.11187E+00
 +1.68039E-01 -1.28411E+00 +5.22928E-01 -1.36361E+00 +9.13591E-01 -1.33005E+00 +1.30281E+00 -1.17419E+00
 +1.65198E+00 -8.98839E-01 +1.92489E+00 -5.18700E-01 +2.09127E+00 -5.90682E-02 +2.12975E+00 +4.46520E-01
 +2.02990E+00 +9.59386E-01 +1.79333E+00 +1.43928E+00 +1.43348E+00 +1.84808E+00 +9.74464E-01 +2.15323E+00
 +4.48857E-01 +2.33067E+00 -1.05286E-01 +2.36690E+00 -6.47830E-01 +2.26006E+00 -1.14011E+00 +2.01990E+00
 -1.54830E+00 +1.66675E+00 -1.84619E+00 +1.22947E+00 -2.01733E+00 +7.42720E-01 -2.05608E+00 +2.43775E-01
