 Created: 19-Jan-2021
 $NMID
 ID='D:\BASISSIMULATI'
 FMTDAT='(8E13.5)'
 VOLUME=   1.00000E+00
 TRAMP=   1.00000E+00
 $END
 +3.21197E+01 +1.62192E+00 +2.82477E+01 +1.52195E+01 +1.87419E+01 +2.56123E+01 +5.73947E+00 +3.05845E+01
 -7.84175E+00 +2.92064E+01 -1.90254E+01 +2.20432E+01 -2.55037E+01 +1.09826E+01 -2.61795E+01 -1.27023E+00
 -2.13862E+01 -1.18901E+01 -1.27348E+01 -1.86362E+01 -2.64066E+00 -2.03784E+01 +6.33637E+00 -1.73125E+01
 +1.21552E+01 -1.08210E+01 +1.37859E+01 -3.02947E+00 +1.14062E+01 +3.80778E+00 +6.26441E+00 +7.92137E+00
 +2.60777E-01 +8.47358E+00 -4.62393E+00 +5.72534E+00 -6.89029E+00 +8.92001E-01 -5.91851E+00 -4.25743E+00
 -2.10176E+00 -7.93460E+00 +3.30917E+00 -8.84629E+00 +8.59362E+00 -6.54809E+00 +1.20633E+01 -1.54760E+00
 +1.25361E+01 +4.85945E+00 +9.65300E+00 +1.09628E+01 +3.95995E+00 +1.51095E+01 -3.25578E+00 +1.61409E+01
 -1.03179E+01 +1.36815E+01 -1.55977E+01 +8.20932E+00 -1.79146E+01 +9.04758E-01 -1.68002E+01 -6.66876E+00
 -1.25653E+01 -1.29563E+01 -6.17291E+00 -1.67694E+01 +1.03524E+00 -1.75228E+01 +7.67297E+00 -1.53021E+01
 +1.26138E+01 -1.07669E+01 +1.51932E+01 -4.93337E+00 +1.52735E+01 +1.09047E+00 +1.31770E+01 +6.34366E+00
 +9.52923E+00 +1.01693E+01 +5.07084E+00 +1.22665E+01 +4.93583E-01 +1.26494E+01 -3.66045E+00 +1.15466E+01
 -7.02743E+00 +9.29061E+00 -9.39410E+00 +6.23283E+00 -1.06464E+01 +2.70616E+00 -1.07284E+01 -9.69900E-01
 -9.63387E+00 -4.46355E+00 -7.43352E+00 -7.41466E+00 -4.31931E+00 -9.45225E+00 -6.38190E-01 -1.02529E+01
 +3.11441E+00 -9.62685E+00 +6.35635E+00 -7.60200E+00 +8.53049E+00 -4.47041E+00 +9.23948E+00 -7.69177E-01
 +8.36310E+00 +2.81254E+00 +6.11712E+00 +5.58436E+00 +3.02662E+00 +7.02513E+00 -1.89052E-01 +6.92383E+00
 -2.79429E+00 +5.44574E+00 -4.23108E+00 +3.09794E+00 -4.27287E+00 +5.96769E-01 -3.09059E+00 -1.32988E+00
 -1.20679E+00 -2.15088E+00 +6.54327E-01 -1.69007E+00 +1.78138E+00 -1.85348E-01 +1.69418E+00 +1.77313E+00
 +3.01704E-01 +3.41246E+00 -2.04964E+00 +4.00865E+00 -4.65643E+00 +3.11493E+00 -6.64912E+00 +7.19210E-01
 -7.24262E+00 -2.71809E+00 -5.97645E+00 -6.36214E+00 -2.87498E+00 -9.21536E+00 +1.52086E+00 -1.03870E+01
 +6.26452E+00 -9.34717E+00 +1.02315E+01 -6.09460E+00 +1.24054E+01 -1.18841E+00 +1.21451E+01 +4.36728E+00
 +9.36376E+00 +9.35914E+00 +4.56702E+00 +1.26598E+01 -1.25749E+00 +1.35059E+01 -6.87368E+00 +1.16868E+01
 -1.10920E+01 +7.59519E+00 -1.30506E+01 +2.12880E+00 -1.24110E+01 -3.53041E+00 -9.42155E+00 -8.20033E+00
 -4.83656E+00 -1.09732E+01 +2.83602E-01 -1.14124E+01 +4.83593E+00 -9.62508E+00 +7.93308E+00 -6.20062E+00
 +9.09249E+00 -2.03569E+00 +8.31378E+00 +1.90132E+00 +6.03274E+00 +4.80442E+00 +2.97303E+00 +6.20396E+00
 -5.88299E-02 +6.04158E+00 -2.37854E+00 +4.63589E+00 -3.57701E+00 +2.55766E+00 -3.58724E+00 +4.55062E-01
 -2.65658E+00 -1.12110E+00 -1.24113E+00 -1.84699E+00 +1.41734E-01 -1.68116E+00 +1.05980E+00 -8.39318E-01
 +1.27276E+00 +2.96051E-01 +7.75561E-01 +1.30006E+00 -2.25944E-01 +1.82698E+00 -1.39297E+00 +1.69708E+00
 -2.35841E+00 +9.29823E-01 -2.82741E+00 -2.79106E-01 -2.64800E+00 -1.62388E+00 -1.83732E+00 -2.77524E+00
 -5.62446E-01 -3.46281E+00 +9.12667E-01 -3.53271E+00 +2.29597E+00 -2.96996E+00 +3.33226E+00 -1.88606E+00
 +3.84951E+00 -4.80969E-01 +3.77956E+00 +1.00628E+00 +3.15432E+00 +2.34454E+00 +2.08493E+00 +3.34547E+00
 +7.33379E-01 +3.88268E+00 -7.14963E-01 +3.89716E+00 -2.07326E+00 +3.39410E+00 -3.16943E+00 +2.43654E+00
 -3.85923E+00 +1.13881E+00 -4.03961E+00 -3.40502E-01 -3.66371E+00 -1.80914E+00 -2.75552E+00 -3.05902E+00
 -1.41919E+00 -3.89307E+00 +1.63230E-01 -4.15908E+00 +1.75065E+00 -3.78419E+00 +3.07905E+00 -2.80075E+00
 +3.91019E+00 -1.35425E+00 +4.08276E+00 +3.13052E-01 +3.55346E+00 +1.90299E+00 +2.41550E+00 +3.12012E+00
 +8.87235E-01 +3.73544E+00 -7.29466E-01 +3.63959E+00 -2.11305E+00 +2.87100E+00 -2.99377E+00 +1.61053E+00
 -3.21526E+00 +1.41875E-01 -2.77019E+00 -1.21353E+00 -1.80045E+00 -2.17142E+00 -5.60998E-01 -2.55074E+00
 +6.43703E-01 -2.31401E+00 +1.53467E+00 -1.57178E+00 +1.92559E+00 -5.50096E-01 +1.76516E+00 +4.70065E-01
 +1.14413E+00 +1.22565E+00 +2.66044E-01 +1.53746E+00 -6.10026E-01 +1.35241E+00 -1.23893E+00 +7.51817E-01
 -1.45281E+00 -7.54336E-02 -1.20201E+00 -8.86606E-01 -5.63770E-01 -1.45085E+00 +2.82486E-01 -1.60935E+00
 +1.10536E+00 -1.31449E+00 +1.68322E+00 -6.38683E-01 +1.86097E+00 +2.47970E-01 +1.58743E+00 +1.12412E+00
 +9.24652E-01 +1.77451E+00 +2.84980E-02 +2.04314E+00 -8.93256E-01 +1.86893E+00 -1.63317E+00 +1.29607E+00
 -2.03317E+00 +4.58223E-01 -2.01837E+00 -4.57763E-01 -1.60882E+00 -1.25801E+00 -9.07924E-01 -1.78569E+00
 -7.28133E-02 -1.95253E+00 +7.24644E-01 -1.75170E+00 +1.33589E+00 -1.25100E+00 +1.66405E+00 -5.70354E-01
 +1.67739E+00 +1.49004E-01 +1.40698E+00 +7.75564E-01 +9.31552E-01 +1.21169E+00 +3.55266E-01 +1.40675E+00
 -2.15524E-01 +1.35852E+00 -6.91216E-01 +1.10495E+00 -1.01068E+00 +7.10398E-01 -1.14526E+00 +2.50548E-01
 -1.09654E+00 -2.00658E-01 -8.90387E-01 -5.80255E-01 -5.69831E-01 -8.41634E-01 -1.88194E-01 -9.57018E-01
 +1.96867E-01 -9.18343E-01 +5.28940E-01 -7.37355E-01 +7.58708E-01 -4.44926E-01 +8.50372E-01 -8.88085E-02
 +7.88116E-01 +2.71175E-01 +5.81121E-01 +5.71105E-01 +2.65257E-01 +7.53684E-01 -1.00282E-01 +7.80010E-01
 -4.42016E-01 +6.39758E-01 -6.86041E-01 +3.56761E-01 -7.74170E-01 -1.23731E-02 -6.78709E-01 -3.87527E-01
 -4.11894E-01 -6.81103E-01 -2.69033E-02 -8.17745E-01 +3.90871E-01 -7.53278E-01 +7.41223E-01 -4.88063E-01
 +9.31804E-01 -7.08822E-02 +9.00978E-01 +4.08520E-01 +6.35310E-01 +8.37441E-01 +1.76933E-01 +1.10530E+00
 -3.81797E-01 +1.13033E+00 -9.16106E-01 +8.81456E-01 -1.29573E+00 +3.89985E-01 -1.41524E+00 -2.52735E-01
 -1.22080E+00 -9.11908E-01 -7.26790E-01 -1.43735E+00 -1.76542E-02 -1.69716E+00 +7.66406E-01 -1.60944E+00
 +1.45761E+00 -1.16459E+00 +1.89696E+00 -4.32343E-01 +1.97077E+00 +4.49002E-01 +1.63898E+00 +1.29965E+00
 +9.48153E-01 +1.93632E+00 +2.54973E-02 +2.21295E+00 -9.45752E-01 +2.05491E+00 -1.76465E+00 +1.47839E+00
 -2.25631E+00 +5.90117E-01 -2.31135E+00 -4.33502E-01 -1.91155E+00 -1.38350E+00 -1.13573E+00 -2.06379E+00
 -1.43678E-01 -2.33461E+00 +8.58450E-01 -2.14391E+00 +1.66370E+00 -1.53913E+00 +2.11036E+00 -6.56445E-01
 +2.11779E+00 +3.10317E-01 +1.70358E+00 +1.15401E+00 +9.77951E-01 +1.70134E+00 +1.16661E-01 +1.85182E+00
 -6.81169E-01 +1.59924E+00 -1.24016E+00 +1.03063E+00 -1.44949E+00 +3.03150E-01 -1.28758E+00 -3.95546E-01
 -8.24933E-01 -8.93631E-01 -2.04534E-01 -1.07693E+00 +3.95226E-01 -9.16099E-01 +8.05919E-01 -4.72694E-01
 +9.11668E-01 +1.17248E-01 +6.78604E-01 +6.77943E-01 +1.64089E-01 +1.03844E+00 -4.96452E-01 +1.07622E+00
 -1.12193E+00 +7.49362E-01 -1.52949E+00 +1.09574E-01 -1.57958E+00 -7.07000E-01 -1.21172E+00 -1.50916E+00
 -4.62586E-01 -2.09350E+00 +5.37655E-01 -2.29120E+00 +1.59014E+00 -2.00810E+00 +2.46792E+00 -1.24958E+00
 +2.96371E+00 -1.24453E-01 +2.93482E+00 +1.17277E+00 +2.33591E+00 +2.39796E+00 +1.23287E+00 +3.30438E+00
 -2.05015E-01 +3.69168E+00 -1.73332E+00 +3.44703E+00 -3.07604E+00 +2.57079E+00 -3.97646E+00 +1.18140E+00
 -4.24604E+00 -5.01525E-01 -3.80243E+00 -2.19363E+00 -2.68930E+00 -3.59544E+00 -1.07378E+00 -4.44687E+00
 +7.78910E-01 -4.57688E+00 +2.55031E+00 -3.93891E+00 +3.92562E+00 -2.62488E+00 +4.65292E+00 -8.53691E-01
 +4.59349E+00 +1.06516E+00 +3.75276E+00 +2.78757E+00 +2.28445E+00 +4.00073E+00 +4.64965E-01 +4.48618E+00
 -1.35883E+00 +4.16675E+00 -2.83927E+00 +3.12620E+00 -3.70111E+00 +1.59522E+00 -3.80235E+00 -9.55106E-02
 -3.16777E+00 -1.58684E+00 -1.98571E+00 -2.57233E+00 -5.66145E-01 -2.87056E+00 +7.32362E-01 -2.47046E+00
 +1.59082E+00 -1.53658E+00 +1.81213E+00 -3.70448E-01 +1.37613E+00 +6.65322E-01 +4.51106E-01 +1.24299E+00
 -6.44267E-01 +1.16210E+00 -1.52223E+00 +4.13417E-01 -1.83208E+00 -8.04822E-01 -1.36440E+00 -2.12667E+00
 -1.25092E-01 -3.10808E+00 +1.64361E+00 -3.34626E+00 +3.50541E+00 -2.59894E+00 +4.92971E+00 -8.71225E-01
 +5.42687E+00 +1.55649E+00 +4.68585E+00 +4.17197E+00 +2.67750E+00 +6.34086E+00 -3.06706E-01 +7.45881E+00
 -3.69603E+00 +7.10966E+00 -6.75730E+00 +5.18857E+00 -8.76239E+00 +1.95568E+00 -9.16671E+00 -1.99826E+00
 -7.75365E+00 -5.87097E+00 -4.70653E+00 -8.82713E+00 -5.85949E-01 -1.01940E+01 +3.78562E+00 -9.62591E+00
 +7.50689E+00 -7.19523E+00 +9.80473E+00 -3.38494E+00 +1.02141E+01 +1.01789E+00 +8.68611E+00 +5.10267E+00
 +5.59576E+00 +8.04615E+00 +1.64825E+00 +9.30097E+00 -2.29365E+00 +8.71512E+00 -5.41672E+00 +6.55294E+00
 -7.14651E+00 +3.41385E+00 -7.27118E+00 +7.13382E-02 -5.97011E+00 -2.72477E+00 -3.74262E+00 -4.43104E+00
 -1.25864E+00 -4.83122E+00 +8.26794E-01 -4.06589E+00 +2.04494E+00 -2.56643E+00 +2.22534E+00 -9.14902E-01
 +1.52053E+00 +3.29570E-01 +3.40272E-01 +7.89162E-01 -7.83280E-01 +3.67571E-01 -1.35962E+00 -7.33568E-01
 -1.08647E+00 -2.08382E+00 +6.14966E-02 -3.15662E+00 +1.82469E+00 -3.48654E+00 +3.73155E+00 -2.80674E+00
 +5.22970E+00 -1.12897E+00 +5.83779E+00 +1.25411E+00 +5.27579E+00 +3.84246E+00 +3.53965E+00 +6.05560E+00
 +9.02727E-01 +7.37689E+00 -2.15263E+00 +7.47639E+00 -5.05147E+00 +6.28193E+00 -7.25716E+00 +3.98401E+00
 -8.38278E+00 +9.79159E-01 -8.25700E+00 -2.22749E+00 -6.93436E+00 -5.13108E+00 -4.65563E+00 -7.31887E+00
 -1.77758E+00 -8.52561E+00 +1.30394E+00 -8.64681E+00 +4.21595E+00 -7.71817E+00 +6.64408E+00 -5.87790E+00
 +8.34274E+00 -3.33077E+00 +9.13071E+00 -3.26229E-01 +8.88761E+00 +2.84703E+00 +7.56379E+00 +5.85871E+00
 +5.20662E+00 +8.34200E+00 +1.99510E+00 +9.92085E+00 -1.73537E+00 +1.02658E+01 -5.49854E+00 +9.17210E+00
 -8.70805E+00 +6.64053E+00 -1.07749E+01 +2.93259E+00 -1.12358E+01 -1.42664E+00 -9.88122E+00 -5.71424E+00
 -6.84485E+00 -9.14079E+00 -2.62098E+00 -1.10228E+01 +2.00890E+00 -1.09544E+01 +6.13321E+00 -8.93001E+00
 +8.91854E+00 -5.37696E+00 +9.81769E+00 -1.07856E+00 +8.71939E+00 +3.00266E+00 +5.99306E+00 +5.96162E+00
 +2.40726E+00 +7.18650E+00 -1.06480E+00 +6.52748E+00 -3.50571E+00 +4.34647E+00 -4.31094E+00 +1.42588E+00
 -3.36879E+00 -1.24610E+00 -1.10716E+00 -2.75968E+00 +1.61459E+00 -2.55915E+00 +3.74660E+00 -6.29447E-01
 +4.36023E+00 +2.46610E+00 +2.94427E+00 +5.71738E+00 -4.01819E-01 +7.94110E+00 -4.94086E+00 +8.12631E+00
