 Created: 19-Jan-2021
 $NMID
 ID='D:\BASISSIMULATI'
 FMTDAT='(8E13.5)'
 VOLUME=   1.00000E+00
 TRAMP=   1.00000E+00
 $END
 +5.04642E+01 +5.68991E-01 +4.95292E+01 +9.52337E+00 +4.65250E+01 +1.80767E+01 +4.15964E+01 +2.57788E+01
 +3.49913E+01 +3.22259E+01 +2.70463E+01 +3.70836E+01 +1.81679E+01 +4.01062E+01 +8.80816E+00 +4.11502E+01
 -5.61050E-01 +4.01817E+01 -9.47512E+00 +3.72770E+01 -1.75030E+01 +3.26174E+01 -2.42711E+01 +2.64762E+01
 -2.94833E+01 +1.92022E+01 -3.29359E+01 +1.11977E+01 -3.45269E+01 +2.89421E+00 -3.42588E+01 -5.27320E+00
 -3.22351E+01 -1.28908E+01 -2.86507E+01 -1.95897E+01 -2.37774E+01 -2.50651E+01 -1.79449E+01 -2.90924E+01
 -1.15189E+01 -3.15363E+01 -4.87827E+00 -3.23554E+01 +1.60810E+00 -3.16006E+01 +7.60284E+00 -2.94071E+01
 +1.28186E+01 -2.59831E+01 +1.70327E+01 -2.15927E+01 +2.00970E+01 -1.65379E+01 +2.19427E+01 -1.11374E+01
 +2.25799E+01 -5.70684E+00 +2.20916E+01 -5.39210E-01 +2.06245E+01 +4.11162E+00 +1.83748E+01 +8.04429E+00
 +1.55725E+01 +1.11191E+01 +1.24640E+01 +1.32627E+01 +9.29463E+00 +1.44680E+01 +6.29227E+00 +1.47896E+01
 +3.65287E+00 +1.43361E+01 +1.52924E+00 +1.32582E+01 +2.32099E-02 +1.17352E+01 -8.18181E-01 +9.96026E+00
 -1.00254E+00 +8.12571E+00 -5.88167E-01 +6.40893E+00 +3.23212E-01 +4.96029E+00 +1.59642E+00 +3.89362E+00
 +3.07462E+00 +3.27978E+00 +4.59211E+00 +3.14364E+00 +5.98710E+00 +3.46449E+00 +7.11371E+00 +4.17966E+00
 +7.85224E+00 +5.19113E+00 +8.11730E+00 +6.37422E+00 +7.86308E+00 +7.58803E+00 +7.08581E+00 +8.68659E+00
 +5.82307E+00 +9.52998E+00 +4.15039E+00 +9.99479E+00 +2.17527E+00 +9.98304E+00 +2.92886E-02 +9.42925E+00
 -2.14128E+00 +8.30503E+00 -4.18546E+00 +6.62120E+00 -5.95775E+00 +4.42719E+00 -7.32759E+00 +1.80809E+00
 -8.18769E+00 -1.12066E+00 -8.46079E+00 -4.22027E+00 -8.10428E+00 -7.33694E+00 -7.11272E+00 -1.03109E+01
 -5.51804E+00 -1.29859E+01 -3.38754E+00 -1.52177E+01 -8.19950E-01 -1.68825E+01 +2.06032E+00 -1.78833E+01
 +5.11012E+00 -1.81557E+01 +8.17543E+00 -1.76702E+01 +1.10997E+01 -1.64343E+01 +1.37319E+01 -1.44916E+01
 +1.59346E+01 -1.19195E+01 +1.75906E+01 -8.82493E+00 +1.86086E+01 -5.33902E+00 +1.89280E+01 -1.61055E+00
 +1.85211E+01 +2.20125E+00 +1.73945E+01 +5.93425E+00 +1.55886E+01 +9.43100E+00 +1.31753E+01 +1.25459E+01
 +1.02546E+01 +1.51515E+01 +6.95000E+00 +1.71444E+01 +3.40221E+00 +1.84494E+01 -2.36815E-01 +1.90224E+01
 -3.81104E+00 +1.88524E+01 -7.16734E+00 +1.79613E+01 -1.01624E+01 +1.64028E+01 -1.26691E+01 +1.42592E+01
 -1.45821E+01 +1.16381E+01 -1.58227E+01 +8.66660E+00 -1.63419E+01 +5.48584E+00 -1.61232E+01 +2.24411E+00
 -1.51826E+01 -9.09976E-01 -1.35681E+01 -3.83436E+00 -1.13573E+01 -6.40019E+00 -8.65391E+00 -8.49781E+00
 -5.58249E+00 -1.00418E+01 -2.28278E+00 -1.09751E+01 +1.09711E+00 -1.12712E+01 +4.40782E+00 -1.09356E+01
 +7.50590E+00 -1.00047E+01 +1.02607E+01 -8.54438E+00 +1.25608E+01 -6.64573E+00 +1.43191E+01 -4.42038E+00
 +1.54770E+01 -1.99435E+00 +1.60069E+01 +4.98731E-01 +1.59130E+01 +2.92486E+00 +1.52305E+01 +5.15689E+00
 +1.40231E+01 +7.08136E+00 +1.23792E+01 +8.60452E+00 +1.04058E+01 +9.65723E+00 +8.22282E+00 +1.01984E+01
 +5.95567E+00 +1.02169E+01 +3.72799E+00 +9.73138E+00 +1.65461E+00 +8.78887E+00 -1.64907E-01 +7.46119E+00
 -1.65171E+00 +5.84018E+00 -2.75173E+00 +4.03177E+00 -3.43812E+00 +2.14915E+00 -3.71204E+00 +3.05636E-01
 -3.60149E+00 -1.39230E+00 -3.15863E+00 -2.85157E+00 -2.45544E+00 -3.99803E+00 -1.57819E+00 -4.78065E+00
 -6.21142E-01 -5.17422E+00 +3.20315E-01 -5.18028E+00 +1.15638E+00 -4.82622E+00 +1.80912E+00 -4.16275E+00
 +2.21786E+00 -3.25976E+00 +2.34326E+00 -2.20102E+00 +2.16987E+00 -1.07791E+00 +1.70705E+00 +1.71691E-02
 +9.88011E-01 +9.97474E-01 +6.72593E-02 +1.78807E+00 -9.83475E-01 +2.33110E+00 -2.08055E+00 +2.58980E+00
 -3.13453E+00 +2.55099E+00 -4.05677E+00 +2.22589E+00 -4.76590E+00 +1.64916E+00 -5.19387E+00 +8.76315E-01
 -5.29106E+00 -2.03926E-02 -5.03011E+00 -9.57242E-01 -4.40828E+00 -1.84518E+00 -3.44803E+00 -2.59632E+00
 -2.19595E+00 -3.13047E+00 -7.19991E-01 -3.38107E+00 +8.94833E-01 -3.30029E+00 +2.55185E+00 -2.86286E+00
 +4.14904E+00 -2.06838E+00 +5.58568E+00 -9.41934E-01 +6.76904E+00 +4.66981E-01 +7.62049E+00 +2.08724E+00
 +8.08084E+00 +3.83028E+00 +8.11433E+00 +5.59556E+00 +7.71122E+00 +7.27682E+00 +6.88862E+00 +8.76874E+00
 +5.68966E+00 +9.97372E+00 +4.18101E+00 +1.08081E+01 +2.44888E+00 +1.12074E+01 +5.93772E-01 +1.11310E+01
 -1.27561E+00 +1.05646E+01 -3.04902E+00 +9.52122E+00 -4.62132E+00 +8.04119E+00 -5.89890E+00 +6.18960E+00
 -6.80530E+00 +4.05277E+00 -7.28575E+00 +1.73333E+00 -7.31041E+00 -6.55669E-01 -6.87603E+00 -2.99719E+00
 -6.00609E+00 -5.17688E+00 -4.74920E+00 -7.08943E+00 -3.17617E+00 -8.64448E+00 -1.37572E+00 -9.77142E+00
 +5.50851E-01 -1.04231E+01 +2.49553E+00 -1.05782E+01 +4.34990E+00 -1.02416E+01 +6.01130E+00 -9.44426E+00
 +7.38858E+00 -8.24022E+00 +8.40704E+00 -6.70367E+00 +9.01243E+00 -4.92412E+00 +9.17360E+00 -3.00112E+00
 +8.88382E+00 -1.03848E+00 +8.16071E+00 +8.61565E-01 +7.04472E+00 +2.60398E+00 +5.59645E+00 +4.10592E+00
 +3.89280E+00 +5.30099E+00 +2.02236E+00 +6.14229E+00 +8.02815E-02 +6.60444E+00 -1.83713E+00 +6.68414E+00
 -3.63770E+00 +6.39959E+00 -5.23828E+00 +5.78865E+00 -6.56905E+00 +4.90594E+00 -7.57680E+00 +3.81905E+00
 -8.22737E+00 +2.60422E+00 -8.50679E+00 +1.34159E+00 -8.42129E+00 +1.10374E-01 -7.99623E+00 -1.01568E+00
 -7.27391E+00 -1.97242E+00 -6.31053E+00 -2.70874E+00 -5.17246E+00 -3.18912E+00 -3.93205E+00 -3.39520E+00
 -2.66327E+00 -3.32632E+00 -1.43737E+00 -2.99898E+00 -3.18852E-01 -2.44527E+00 +6.38033E-01 -1.71056E+00
 +1.39205E+00 -8.50251E-01 +1.91690E+00 +7.37661E-02 +2.20226E+00 +9.97124E-01 +2.25371E+00 +1.85696E+00
 +2.09184E+00 +2.59573E+00 +1.75037E+00 +3.16470E+00 +1.27359E+00 +3.52673E+00 +7.13199E-01 +3.65838E+00
 +1.24713E-01 +3.55118E+00 -4.36246E-01 +3.21193E+00 -9.17626E-01 +2.66208E+00 -1.27434E+00 +1.93624E+00
 -1.47119E+00 +1.07992E+00 -1.48513E+00 +1.46578E-01 -1.30677E+00 -8.05714E-01 -9.40989E-01 -1.71795E+00
 -4.06677E-01 -2.53384E+00 +2.64441E-01 -3.20334E+00 +1.02976E+00 -3.68572E+00 +1.83844E+00 -3.95212E+00
 +2.63460E+00 -3.98738E+00 +3.36085E+00 -3.79096E+00 +3.96192E+00 -3.37706E+00 +4.38823E+00 -2.77377E+00
 +4.59910E+00 -2.02140E+00 +4.56553E+00 -1.17008E+00 +4.27223E+00 -2.76665E-01 +3.71886E+00 +5.98723E-01
 +2.92040E+00 +1.39637E+00 +1.90659E+00 +2.06071E+00 +7.20471E-01 +2.54375E+00 -5.83896E-01 +2.80819E+00
 -1.94437E+00 +2.82976E+00 -3.29423E+00 +2.59896E+00 -4.56595E+00 +2.12178E+00 -5.69508E+00 +1.41955E+00
 -6.62400E+00 +5.27889E-01 -7.30533E+00 -5.05296E-01 -7.70470E+00 -1.62251E+00 -7.80283E+00 -2.76000E+00
 -7.59678E+00 -3.85150E+00 -7.10019E+00 -4.83217E+00 -6.34256E+00 -5.64246E+00 -5.36762E+00 -6.23177E+00
 -4.23085E+00 -6.56148E+00 -2.99630E+00 -6.60749E+00 -1.73287E+00 -6.36171E+00 -5.10305E-01 -5.83280E+00
 +6.04842E-01 -5.04576E+00 +1.55311E+00 -4.04066E+00 +2.28562E+00 -2.87044E+00 +2.76688E+00 -1.59788E+00
 +2.97691E+00 -2.92033E-01 +2.91233E+00 +9.75789E-01 +2.58652E+00 +2.13616E+00 +2.02875E+00 +3.12563E+00
 +1.28236E+00 +3.89042E+00 +4.02076E-01 +4.38966E+00 -5.49355E-01 +4.59779E+00 -1.50507E+00 +4.50609E+00
 -2.39822E+00 +4.12323E+00 -3.16613E+00 +3.47477E+00 -3.75422E+00 +2.60161E+00 -4.11945E+00 +1.55759E+00
 -4.23312E+00 +4.06240E-01 -4.08271E+00 -7.83053E-01 -3.67281E+00 -1.93924E+00 -3.02502E+00 -2.99393E+00
 -2.17672E+00 -3.88555E+00 -1.17892E+00 -4.56315E+00 -9.31885E-02 -4.98950E+00 +1.01200E+00 -5.14349E+00
 +2.06551E+00 -5.02138E+00 +2.99792E+00 -4.63716E+00 +3.74587E+00 -4.02170E+00 +4.25607E+00 -3.22091E+00
 +4.48876E+00 -2.29293E+00 +4.42038E+00 -1.30451E+00 +4.04522E+00 -3.26916E-01 +3.37609E+00 +5.68592E-01
 +2.44377E+00 +1.31525E+00 +1.29537E+00 +1.85507E+00 -8.25564E-03 +2.14263E+00 -1.39610E+00 +2.14806E+00
 -2.79113E+00 +1.85919E+00 -4.11493E+00 +1.28249E+00 -5.29238E+00 +4.42976E-01 -6.25629E+00 -6.17143E-01
 -6.95145E+00 -1.84083E+00 -7.33813E+00 -3.15961E+00 -7.39452E+00 -4.49761E+00 -7.11818E+00 -5.77623E+00
 -6.52626E+00 -6.91892E+00 -5.65452E+00 -7.85595E+00 -4.55519E+00 -8.52875E+00 -3.29380E+00 -8.89360E+00
 -1.94520E+00 -8.92447E+00 -5.88975E-01 -8.61469E+00 +6.95498E-01 -7.97754E+00 +1.83389E+00 -7.04548E+00
 +2.76152E+00 -5.86824E+00 +3.42730E+00 -4.50986E+00 +3.79686E+00 -3.04474E+00 +3.85454E+00 -1.55312E+00
 +3.60429E+00 -1.16166E-01 +3.06920E+00 +1.18903E+00 +2.28988E+00 +2.29409E+00 +1.32172E+00 +3.14353E+00
 +2.31163E-01 +3.69801E+00 -9.08681E-01 +3.93653E+00 -2.02282E+00 +3.85756E+00 -3.03928E+00 +3.47870E+00
 -3.89374E+00 +2.83532E+00 -4.53367E+00 +1.97790E+00 -4.92157E+00 +9.68511E-01 -5.03729E+00 -1.23491E-01
 -4.87908E+00 -1.22613E+00 -4.46345E+00 -2.26961E+00 -3.82377E+00 -3.19095E+00 -3.00779E+00 -3.93798E+00
 -2.07418E+00 -4.47263E+00 -1.08837E+00 -4.77320E+00 -1.17985E-01 -4.83543E+00 +7.71778E-01 -4.67237E+00
 +1.52262E+00 -4.31307E+00 +2.08701E+00 -3.80016E+00 +2.43131E+00 -3.18648E+00 +2.53785E+00 -2.53114E+00
 +2.40591E+00 -1.89508E+00 +2.05146E+00 -1.33663E+00 +1.50574E+00 -9.07334E-01 +8.12869E-01 -6.48247E-01
 +2.64490E-02 -5.87099E-01 -7.94331E-01 -7.36414E-01 -1.58898E+00 -1.09275E+00 -2.30002E+00 -1.63710E+00
 -2.87695E+00 -2.33639E+00 -3.27977E+00 -3.14598E+00 -3.48155E+00 -4.01297E+00 -3.47016E+00 -4.88001E+00
 -3.24880E+00 -5.68941E+00 -2.83549E+00 -6.38724E+00 -2.26150E+00 -6.92704E+00 -1.56884E+00 -7.27296E+00
 -8.07055E-01 -7.40211E+00 -2.95449E-02 -7.30594E+00 +7.10325E-01 -6.99054E+00 +1.36300E+00 -6.47594E+00
 +1.88612E+00 -5.79438E+00 +2.24739E+00 -4.98784E+00 +2.42649E+00 -4.10483E+00 +2.41619E+00 -3.19691E+00
 +2.22242E+00 -2.31505E+00 +1.86336E+00 -1.50616E+00 +1.36772E+00 -8.10018E-01 +7.72225E-01 -2.56895E-01
 +1.18648E-01 +1.34101E-01 -5.49444E-01 +3.55746E-01 -1.18995E+00 +4.12517E-01 -1.76524E+00 +3.19531E-01
 -2.24473E+00 +1.00731E-01 -2.60678E+00 -2.13528E-01 -2.83981E+00 -5.89271E-01 -2.94257E+00 -9.91848E-01
 -2.92364E+00 -1.38878E+00 -2.80010E+00 -1.75230E+00 -2.59558E+00 -2.06138E+00 -2.33785E+00 -2.30307E+00
 -2.05625E+00 -2.47314E+00 -1.77893E+00 -2.57593E+00 -1.53050E+00 -2.62339E+00 -1.32989E+00 -2.63362E+00
