 Created: 19-Jan-2021
 $NMID
 ID='D:\BASISSIMULATI'
 FMTDAT='(8E13.5)'
 VOLUME=   1.00000E+00
 TRAMP=   1.00000E+00
 $END
 +4.73150E+01 +6.68008E-01 +4.24069E+01 +4.67887E+00 +2.87757E+01 +8.42148E+00 +9.63208E+00 +1.14171E+01
 -1.05111E+01 +1.31214E+01 -2.69838E+01 +1.30518E+01 -3.61265E+01 +1.09705E+01 -3.61737E+01 +7.05997E+00
 -2.76294E+01 +2.00826E+00 -1.30515E+01 -3.05522E+00 +3.67422E+00 -6.79262E+00 +1.83605E+01 -8.01502E+00
 +2.75633E+01 -6.06775E+00 +2.93747E+01 -1.11946E+00 +2.37751E+01 +5.75628E+00 +1.24884E+01 +1.27656E+01
 -1.58177E+00 +1.78247E+01 -1.51538E+01 +1.91325E+01 -2.53765E+01 +1.57282E+01 -3.04389E+01 +7.85873E+00
 -2.98493E+01 -2.97042E+00 -2.43570E+01 -1.43073E+01 -1.55896E+01 -2.33649E+01 -5.54564E+00 -2.77734E+01
 +3.90046E+00 -2.62641E+01 +1.13558E+01 -1.90789E+01 +1.60652E+01 -7.97375E+00 +1.78765E+01 +4.20577E+00
 +1.70803E+01 +1.42730E+01 +1.42131E+01 +1.95689E+01 +9.90291E+00 +1.87075E+01 +4.79411E+00 +1.19799E+01
 -4.55274E-01 +1.29618E+00 -5.15040E+00 -1.03277E+01 -8.56691E+00 -1.95976E+01 -1.00289E+01 -2.38516E+01
 -9.05947E+00 -2.17938E+01 -5.56224E+00 -1.38458E+01 +3.62127E-02 -2.01619E+00 +6.75761E+00 +1.06701E+01
 +1.32020E+01 +2.10165E+01 +1.78325E+01 +2.65284E+01 +1.93522E+01 +2.60700E+01 +1.70726E+01 +2.01216E+01
 +1.11568E+01 +1.05780E+01 +2.65147E+00 +1.59894E-01 -6.72204E+00 -8.37901E+00 -1.49753E+01 -1.30139E+01
 -2.03530E+01 -1.29627E+01 -2.17858E+01 -8.81544E+00 -1.91647E+01 -2.26374E+00 -1.33548E+01 +4.47011E+00
 -5.94325E+00 +9.31724E+00 +1.20604E+00 +1.09511E+01 +6.45930E+00 +9.11170E+00 +8.83318E+00 +4.58609E+00
 +8.20829E+00 -1.12575E+00 +5.28117E+00 -6.33407E+00 +1.28187E+00 -9.69639E+00 -2.44441E+00 -1.05989E+01
 -4.85369E+00 -9.27221E+00 -5.48586E+00 -6.62338E+00 -4.53036E+00 -3.85766E+00 -2.66661E+00 -2.02946E+00
 -7.46808E-01 -1.67704E+00 +5.59178E-01 -2.66093E+00 +1.02637E+00 -4.25262E+00 +9.49086E-01 -5.43352E+00
 +9.99177E-01 -5.29403E+00 +1.91880E+00 -3.39079E+00 +4.16030E+00 +6.29300E-02 +7.60980E+00 +4.24008E+00
 +1.15076E+01 +7.96242E+00 +1.46137E+01 +1.00941E+01 +1.55828E+01 +9.93333E+00 +1.34349E+01 +7.46906E+00
 +7.96654E+00 +3.41452E+00 -4.60708E-02 -9.97311E-01 -8.94123E+00 -4.39232E+00 -1.65626E+01 -5.68670E+00
 -2.08482E+01 -4.43248E+00 -2.04481E+01 -9.65740E-01 -1.51825E+01 +3.68977E+00 -6.18708E+00 +8.13279E+00
 +4.31733E+00 +1.10095E+01 +1.35839E+01 +1.14187E+01 +1.90794E+01 +9.17210E+00 +1.91952E+01 +4.83108E+00
 +1.37233E+01 -4.84653E-01 +3.95200E+00 -5.44918E+00 -7.65303E+00 -8.92745E+00 -1.81004E+01 -1.02910E+01
 -2.46748E+01 -9.55736E+00 -2.56637E+01 -7.31823E+00 -2.08061E+01 -4.49382E+00 -1.13390E+01 -2.00350E+00
 +3.64203E-01 -4.68573E-01 +1.14542E+01 -4.54125E-02 +1.93722E+01 -4.38074E-01 +2.25048E+01 -1.07497E+00
 +2.05500E+01 -1.37625E+00 +1.45055E+01 -1.00815E+00 +6.30364E+00 -2.70077E-02 -1.78285E+00 +1.14210E+00
 -7.77984E+00 +1.88587E+00 -1.05102E+01 +1.67547E+00 -9.81975E+00 +3.27465E-01 -6.48804E+00 -1.85125E+00
 -1.88099E+00 -4.10102E+00 +2.52673E+00 -5.43238E+00 +5.59964E+00 -4.96931E+00 +6.82414E+00 -2.29868E+00
 +6.35367E+00 +2.29945E+00 +4.82784E+00 +7.83462E+00 +3.05038E+00 +1.28298E+01 +1.65265E+00 +1.57345E+01
 +8.64659E-01 +1.54069E+01 +4.70796E-01 +1.15153E+01 -4.36400E-02 +4.72160E+00 -1.21874E+00 -3.42675E+00
 -3.32884E+00 -1.08831E+01 -6.18965E+00 -1.56646E+01 -9.14388E+00 -1.64288E+01 -1.12413E+01 -1.28914E+01
 -1.15579E+01 -5.95156E+00 -9.54604E+00 +2.52380E+00 -5.29108E+00 +1.02021E+01 +4.23991E-01 +1.49344E+01
 +6.28255E+00 +1.53636E+01 +1.07883E+01 +1.13129E+01 +1.27048E+01 +3.83992E+00 +1.14435E+01 -5.06102E+00
 +7.27401E+00 -1.30210E+01 +1.28360E+00 -1.79592E+01 -4.91023E+00 -1.86519E+01 -9.61244E+00 -1.50468E+01
 -1.15333E+01 -8.23583E+00 -1.01557E+01 -1.05123E-01 -5.87633E+00 +7.22612E+00 +1.21444E-01 +1.20059E+01
 +6.22144E+00 +1.33119E+01 +1.08451E+01 +1.12474E+01 +1.28949E+01 +6.82605E+00 +1.20375E+01 +1.59894E+00
 +8.74749E+00 -2.84879E+00 +4.10909E+00 -5.36980E+00 -5.52472E-01 -5.55188E+00 -4.08522E+00 -3.76043E+00
 -5.83802E+00 -9.30574E-01 -5.80187E+00 +1.80612E+00 -4.53029E+00 +3.52646E+00 -2.87857E+00 +3.81463E+00
 -1.66067E+00 +2.85990E+00 -1.34685E+00 +1.32996E+00 -1.90729E+00 +7.45213E-02 -2.85368E+00 -2.28869E-01
 -3.45975E+00 +6.43156E-01 -3.07817E+00 +2.35276E+00 -1.43621E+00 +4.10955E+00 +1.20176E+00 +4.95926E+00
 +4.07150E+00 +4.15234E+00 +6.14314E+00 +1.46199E+00 +6.47930E+00 -2.66510E+00 +4.59662E+00 -7.18768E+00
 +7.02602E-01 -1.07641E+01 -4.28421E+00 -1.21733E+01 -8.95413E+00 -1.07283E+01 -1.18102E+01 -6.54364E+00
 -1.17359E+01 -5.62831E-01 -8.37859E+00 +5.67570E+00 -2.32166E+00 +1.04700E+01 +5.02148E+00 +1.24556E+01
 +1.17721E+01 +1.10227E+01 +1.61086E+01 +6.51759E+00 +1.67935E+01 +1.63319E-01 +1.35463E+01 -6.28215E+00
 +7.14597E+00 -1.10285E+01 -7.71827E-01 -1.27667E+01 -8.16608E+00 -1.10392E+01 -1.31594E+01 -6.35795E+00
 -1.45568E+01 -3.69465E-02 -1.21627E+01 +6.20411E+00 -6.80665E+00 +1.07425E+01 -7.50796E-02 +1.25081E+01
 +6.16337E+00 +1.12565E+01 +1.02942E+01 +7.58668E+00 +1.13938E+01 +2.70694E+00 +9.44244E+00 -1.96446E+00
 +5.25993E+00 -5.23460E+00 +1.98749E-01 -6.46895E+00 -4.29845E+00 -5.72454E+00 -7.13301E+00 -3.65336E+00
 -7.84176E+00 -1.22202E+00 -6.66348E+00 +6.48504E-01 -4.37452E+00 +1.39743E+00 -1.96291E+00 +9.88350E-01
 -2.60280E-01 -1.26614E-01 +3.40381E-01 -1.22163E+00 -1.24484E-02 -1.60798E+00 -7.34221E-01 -9.25399E-01
 -1.07321E+00 +6.93413E-01 -4.41351E-01 +2.64775E+00 +1.31588E+00 +4.07830E+00 +3.81206E+00 +4.19014E+00
 +6.21968E+00 +2.57590E+00 +7.54916E+00 -5.78510E-01 +7.01404E+00 -4.48622E+00 +4.35591E+00 -7.96539E+00
 +1.06132E-02 -9.80127E+00 -4.95289E+00 -9.15075E+00 -9.11585E+00 -5.85631E+00 -1.11348E+01 -5.59740E-01
 -1.01768E+01 +5.43269E+00 -6.22392E+00 +1.05037E+01 -1.42257E-01 +1.31948E+01 +6.51909E+00 +1.26509E+01
 +1.19476E+01 +8.89869E+00 +1.45852E+01 +2.87028E+00 +1.35899E+01 -3.84402E+00 +9.09916E+00 -9.44251E+00
 +2.21252E+00 -1.24271E+01 -5.30534E+00 -1.20322E+01 -1.15158E+01 -8.43820E+00 -1.48466E+01 -2.70769E+00
 -1.45232E+01 +3.53572E+00 -1.07647E+01 +8.58527E+00 -4.69264E+00 +1.11405E+01 +2.01417E+00 +1.06617E+01
 +7.61045E+00 +7.48644E+00 +1.07707E+01 +2.68228E+00 +1.09284E+01 -2.31058E+00 +8.37595E+00 -6.12808E+00
 +4.10685E+00 -7.88069E+00 -5.34207E-01 -7.38033E+00 -4.27660E+00 -5.13364E+00 -6.28750E+00 -2.11619E+00
 -6.36556E+00 +5.87863E-01 -4.91650E+00 +2.15585E+00 -2.73553E+00 +2.28328E+00 -6.83765E-01 +1.24580E+00
 +6.23770E-01 -2.46662E-01 +1.01120E+00 -1.34593E+00 +7.54394E-01 -1.40384E+00 +4.17434E-01 -2.31596E-01
 +5.80164E-01 +1.81251E+00 +1.56199E+00 +3.93994E+00 +3.24826E+00 +5.21501E+00 +5.08862E+00 +4.90715E+00
 +6.27513E+00 +2.78902E+00 +6.04243E+00 -7.27419E-01 +3.98521E+00 -4.67222E+00 +2.77157E-01 -7.79931E+00
 -4.29604E+00 -8.98324E+00 -8.51701E+00 -7.60347E+00 -1.10856E+01 -3.78811E+00 -1.10315E+01 +1.56970E+00
 -8.05871E+00 +7.03837E+00 -2.70359E+00 +1.10553E+01 +3.75549E+00 +1.23932E+01 +9.62413E+00 +1.05420E+01
 +1.32641E+01 +5.88430E+00 +1.35734E+01 -3.92489E-01 +1.03275E+01 -6.62656E+00 +4.27592E+00 -1.11564E+01
 -3.04409E+00 -1.27974E+01 -9.72429E+00 -1.11773E+01 -1.40148E+01 -6.83014E+00 -1.48103E+01 -1.02325E+00
 -1.19514E+01 +4.62637E+00 -6.25440E+00 +8.62697E+00 +7.36098E-01 +1.00330E+01 +7.19395E+00 +8.68714E+00
 +1.15232E+01 +5.21654E+00 +1.27841E+01 +7.94604E-01 +1.09117E+01 -3.24805E+00 +6.67487E+00 -5.83560E+00
 +1.39772E+00 -6.45189E+00 -3.45735E+00 -5.24721E+00 -6.71430E+00 -2.92336E+00 -7.78667E+00 -4.46274E-01
 -6.77645E+00 +1.30963E+00 -4.35425E+00 +1.86226E+00 -1.47642E+00 +1.26698E+00 +9.56339E-01 +6.06446E-02
 +2.38227E+00 -9.70596E-01 +2.71357E+00 -1.11435E+00 +2.28886E+00 -2.91199E-02 +1.67326E+00 +2.09265E+00
 +1.38887E+00 +4.55775E+00 +1.67975E+00 +6.39641E+00 +2.40062E+00 +6.70516E+00 +3.07138E+00 +4.99256E+00
 +3.07841E+00 +1.40671E+00 +1.94814E+00 -3.24114E+00 -4.10384E-01 -7.67718E+00 -3.58997E+00 -1.05361E+01
 -6.75096E+00 -1.07905E+01 -8.85952E+00 -8.10184E+00 -9.02739E+00 -2.97757E+00 -6.84184E+00 +3.32525E+00
 -2.56994E+00 +9.12990E+00 +2.84288E+00 +1.28110E+01 +7.99655E+00 +1.32671E+01 +1.14257E+01 +1.02529E+01
 +1.20406E+01 +4.46907E+00 +9.48368E+00 -2.62086E+00 +4.28310E+00 -9.19257E+00 -2.25246E+00 -1.35657E+01
 -8.37874E+00 -1.46625E+01 -1.24038E+01 -1.22892E+01 -1.31763E+01 -7.16042E+00 -1.04277E+01 -6.70219E-01
 -4.86245E+00 +5.51818E+00 +2.03340E+00 +9.93550E+00 +8.41146E+00 +1.16867E+01 +1.25850E+01 +1.06426E+01
 +1.35023E+01 +7.40046E+00 +1.10309E+01 +3.04107E+00 +5.97081E+00 -1.22685E+00 -2.02612E-01 -4.41892E+00
 -5.78344E+00 -6.01600E+00 -9.33145E+00 -6.03037E+00 -1.00705E+01 -4.89544E+00 -8.07354E+00 -3.23562E+00
 -4.18715E+00 -1.60916E+00 +2.70716E-01 -3.18769E-01 +3.93734E+00 +6.46050E-01 +5.81957E+00 +1.52331E+00
 +5.56823E+00 +2.59294E+00 +3.53391E+00 +3.97244E+00 +5.97822E-01 +5.48244E+00 -2.15668E+00 +6.64491E+00
 -3.81794E+00 +6.82716E+00 -3.94062E+00 +5.48745E+00 -2.66718E+00 +2.43554E+00 -6.42272E-01 -1.99256E+00
 +1.24354E+00 -6.92401E+00 +2.18870E+00 -1.11292E+01 +1.77693E+00 -1.33543E+01 +1.32966E-01 -1.27106E+01
 -2.11546E+00 -8.99889E+00 -4.05646E+00 -2.85506E+00 -4.81873E+00 +4.34486E+00 -3.89136E+00 +1.08121E+01
 -1.32823E+00 +1.48213E+01 +2.23542E+00 +1.52017E+01 +5.76457E+00 +1.16968E+01 +8.14842E+00 +5.07906E+00
 +8.56240E+00 -3.02264E+00 +6.74993E+00 -1.05443E+01 +3.12950E+00 -1.55398E+01 -1.31144E+00 -1.67090E+01
 -5.30622E+00 -1.37508E+01 -7.69273E+00 -7.43851E+00 -7.77112E+00 +6.02707E-01 -5.52225E+00 +8.34885E+00
 -1.61766E+00 +1.39292E+01 +2.78253E+00 +1.61175E+01 +6.38046E+00 +1.46254E+01 +8.13052E+00 +1.01215E+01
 +7.54703E+00 +3.98365E+00 +4.83605E+00 -2.13018E+00 +8.13425E-01 -6.75771E+00 -3.36023E+00 -9.01268E+00
 -6.54062E+00 -8.76413E+00 -7.94141E+00 -6.57646E+00 -7.35014E+00 -3.44823E+00 -5.15541E+00 -4.47634E-01
 -2.18422E+00 +1.63048E+00 +5.90205E-01 +2.47690E+00 +2.37004E+00 +2.28981E+00 +2.77764E+00 +1.61399E+00
 +1.94597E+00 +1.06729E+00 +4.31187E-01 +1.06041E+00 -1.01586E+00 +1.61500E+00 -1.73536E+00 +2.34756E+00
