 Created: 19-Jan-2021
 $NMID
 ID='D:\BASISSIMULATI'
 FMTDAT='(8E13.5)'
 VOLUME=   1.00000E+00
 TRAMP=   1.00000E+00
 $END
 +3.28734E+01 +6.54749E-01 +2.95939E+01 +1.41726E+01 +2.06147E+01 +2.47878E+01 +7.92210E+00 +3.01781E+01
 -5.62790E+00 +2.92251E+01 -1.69834E+01 +2.22888E+01 -2.36231E+01 +1.11278E+01 -2.41587E+01 -1.51788E+00
 -1.86670E+01 -1.25826E+01 -8.66885E+00 -1.94109E+01 +3.24011E+00 -2.03949E+01 +1.40179E+01 -1.53580E+01
 +2.09112E+01 -5.59329E+00 +2.21186E+01 +6.45338E+00 +1.72217E+01 +1.77765E+01 +7.28097E+00 +2.55358E+01
 -5.42402E+00 +2.77373E+01 -1.79458E+01 +2.37058E+01 -2.73748E+01 +1.42375E+01 -3.15285E+01 +1.39927E+00
 -2.94591E+01 -1.19727E+01 -2.16599E+01 -2.29497E+01 -9.92563E+00 -2.91984E+01 +3.09250E+00 -2.95146E+01
 +1.45256E+01 -2.40779E+01 +2.19621E+01 -1.43738E+01 +2.39977E+01 -2.80817E+00 +2.05312E+01 +7.88470E+00
 +1.27439E+01 +1.52941E+01 +2.77563E+00 +1.78877E+01 -6.81452E+00 +1.53400E+01 -1.36688E+01 +8.56349E+00
 -1.61808E+01 -5.54709E-01 -1.38467E+01 -9.63700E+00 -7.34268E+00 -1.63971E+01 +1.68118E+00 -1.91767E+01
 +1.10275E+01 -1.73121E+01 +1.84898E+01 -1.12499E+01 +2.23683E+01 -2.39669E+00 +2.18432E+01 +7.25005E+00
 +1.71230E+01 +1.55913E+01 +9.34554E+00 +2.09144E+01 +2.66940E-01 +2.22642E+01 -8.17481E+00 +1.96169E+01
 -1.43123E+01 +1.38263E+01 -1.71091E+01 +6.37056E+00 -1.63497E+01 -1.02927E+00 -1.26244E+01 -6.81983E+00
 -7.12979E+00 -9.95624E+00 -1.34221E+00 -1.00981E+01 +3.34621E+00 -7.62554E+00 +5.94155E+00 -3.48582E+00
 +6.04152E+00 +1.07896E+00 +3.87301E+00 +4.84845E+00 +1.78884E-01 +6.90588E+00 -4.00492E+00 +6.82145E+00
 -7.61843E+00 +4.70342E+00 -9.82411E+00 +1.11810E+00 -1.01744E+01 -3.08817E+00 -8.66933E+00 -7.01161E+00
 -5.70298E+00 -9.89990E+00 -1.92602E+00 -1.12988E+01 +1.93232E+00 -1.11094E+01 +5.23351E+00 -9.55497E+00
 +7.55070E+00 -7.07814E+00 +8.71901E+00 -4.20567E+00 +8.81467E+00 -1.41940E+00 +8.08137E+00 +9.34554E-01
 +6.83323E+00 +2.68237E+00 +5.36559E+00 +3.80624E+00 +3.89697E+00 +4.39188E+00 +2.55215E+00 +4.56420E+00
 +1.38141E+00 +4.43500E+00 +3.99896E-01 +4.07835E+00 -3.73884E-01 +3.53706E+00 -8.98066E-01 +2.85115E+00
 -1.11485E+00 +2.09131E+00 -9.82109E-01 +1.37857E+00 -5.15519E-01 +8.77051E-01 +1.77920E-01 +7.57112E-01
 +8.92913E-01 +1.13816E+00 +1.35528E+00 +2.02974E+00 +1.28544E+00 +3.29296E+00 +4.81108E-01 +4.64075E+00
 -1.10440E+00 +5.68456E+00 -3.31409E+00 +6.02147E+00 -5.78906E+00 +5.34199E+00 -8.02739E+00 +3.52990E+00
 -9.49112E+00 +7.24501E-01 -9.73785E+00 -2.67701E+00 -8.54347E+00 -6.08447E+00 -5.98249E+00 -8.83686E+00
 -2.44030E+00 -1.03547E+01 +1.45149E+00 -1.02855E+01 +4.94625E+00 -8.60482E+00 +7.35129E+00 -5.64274E+00
 +8.19420E+00 -2.02559E+00 +7.34465E+00 +1.45838E+00 +5.05876E+00 +4.03950E+00 +1.93133E+00 +5.15048E+00
 -1.23621E+00 +4.56844E+00 -3.62285E+00 +2.47816E+00 -4.58590E+00 -5.61676E-01 -3.82152E+00 -3.74405E+00
 -1.44745E+00 -6.20297E+00 +2.01424E+00 -7.22202E+00 +5.75265E+00 -6.41172E+00 +8.85569E+00 -3.81207E+00
 +1.05259E+01 +1.06194E-01 +1.02728E+01 +4.54325E+00 +8.03479E+00 +8.55209E+00 +4.20137E+00 +1.12577E+01
 -4.71737E-01 +1.20614E+01 -5.03396E+00 +1.07817E+01 -8.55787E+00 +7.69767E+00 -1.03519E+01 +3.48438E+00
 -1.01177E+01 -9.44145E-01 -8.01393E+00 -4.64680E+00 -4.61414E+00 -6.87204E+00 -7.66950E-01 -7.22782E+00
 +2.60555E+00 -5.76532E+00 +4.72375E+00 -2.95773E+00 +5.12955E+00 +4.19478E-01 +3.78683E+00 +3.47695E+00
 +1.08101E+00 +5.42312E+00 -2.28032E+00 +5.74868E+00 -5.44030E+00 +4.34120E+00 -7.59708E+00 +1.50420E+00
 -8.19082E+00 -2.12154E+00 -7.02979E+00 -5.71366E+00 -4.32774E+00 -8.46245E+00 -6.46008E-01 -9.75726E+00
 +3.24331E+00 -9.32159E+00 +6.53887E+00 -7.26697E+00 +8.59250E+00 -4.05576E+00 +9.05016E+00 -3.84407E-01
 +7.92000E+00 +2.98259E+00 +5.55473E+00 +5.38777E+00 +2.55559E+00 +6.42371E+00 -3.76299E-01 +6.01227E+00
 -2.60450E+00 +4.40429E+00 -3.69872E+00 +2.10373E+00 -3.52148E+00 -2.62683E-01 -2.24261E+00 -2.09724E+00
 -2.81769E-01 -2.96811E+00 +1.80364E+00 -2.70019E+00 +3.45633E+00 -1.40133E+00 +4.24913E+00 +5.78561E-01
 +3.97727E+00 +2.74226E+00 +2.69379E+00 +4.56850E+00 +6.83222E-01 +5.63350E+00 -1.61655E+00 +5.70245E+00
 -3.72275E+00 +4.77183E+00 -5.21925E+00 +3.05584E+00 -5.84526E+00 +9.23899E-01 -5.54207E+00 -1.19257E+00
 -4.45029E+00 -2.90054E+00 -2.86196E+00 -3.92889E+00 -1.14221E+00 -4.17719E+00 +3.58703E-01 -3.72124E+00
 +1.38189E+00 -2.77799E+00 +1.80793E+00 -1.64137E+00 +1.66811E+00 -6.06980E-01 +1.11964E+00 +9.58410E-02
 +3.94245E-01 +3.49315E-01 -2.65017E-01 +1.61485E-01 -6.62632E-01 -3.50670E-01 -6.91544E-01 -1.00191E+00
 -3.48428E-01 -1.59091E+00 +2.77480E-01 -1.95010E+00 +1.03623E+00 -1.98149E+00 +1.75950E+00 -1.67153E+00
 +2.30194E+00 -1.08394E+00 +2.57147E+00 -3.35172E-01 +2.54268E+00 +4.39345E-01 +2.25233E+00 +1.11837E+00
 +1.78064E+00 +1.61941E+00 +1.22518E+00 +1.90980E+00 +6.75235E-01 +2.00338E+00 +1.93231E-01 +1.94623E+00
 -1.93042E-01 +1.79686E+00 -4.87057E-01 +1.60738E+00 -7.11932E-01 +1.41079E+00 -8.95399E-01 +1.21707E+00
 -1.05654E+00 +1.01793E+00 -1.19832E+00 +7.97297E-01 -1.30765E+00 +5.43372E-01 -1.36220E+00 +2.57807E-01
 -1.34105E+00 -4.09606E-02 -1.23524E+00 -3.21231E-01 -1.05440E+00 -5.47072E-01 -8.27237E-01 -6.89787E-01
 -5.95377E-01 -7.38008E-01 -4.02448E-01 -7.03050E-01 -2.81584E-01 -6.17619E-01 -2.45140E-01 -5.27963E-01
 -2.79765E-01 -4.81487E-01 -3.48510E-01 -5.13222E-01 -3.99673E-01 -6.34918E-01 -3.80233E-01 -8.29839E-01
 -2.50415E-01 -1.05491E+00 +4.37331E-03 -1.24986E+00 +3.67384E-01 -1.35130E+00 +7.91875E-01 -1.30831E+00
 +1.20979E+00 -1.09566E+00 +1.54586E+00 -7.21661E-01 +1.73386E+00 -2.28451E-01 +1.73137E+00 +3.15233E-01
 +1.52961E+00 +8.27323E-01 +1.15623E+00 +1.22876E+00 +6.70474E-01 +1.45938E+00 +1.51759E-01 +1.48989E+00
 -3.15827E-01 +1.32763E+00 -6.59875E-01 +1.01483E+00 -8.33524E-01 +6.19986E-01 -8.24126E-01 +2.24119E-01
 -6.55081E-01 -9.52359E-02 -3.80602E-01 -2.79190E-01 -7.45244E-02 -2.98868E-01 +1.84640E-01 -1.60843E-01
 +3.29507E-01 +9.43338E-02 +3.17499E-01 +4.00238E-01 +1.39790E-01 +6.77783E-01 -1.76211E-01 +8.51086E-01
 -5.71415E-01 +8.63028E-01 -9.65923E-01 +6.87551E-01 -1.27433E+00 +3.36263E-01 -1.42266E+00 -1.42109E-01
 -1.36381E+00 -6.69576E-01 -1.08838E+00 -1.15288E+00 -6.28548E-01 -1.50118E+00 -5.39862E-02 -1.64419E+00
 +5.39964E-01 -1.54712E+00 +1.04986E+00 -1.21939E+00 +1.38427E+00 -7.14864E-01 +1.48256E+00 -1.23152E-01
 +1.32834E+00 +4.46854E-01 +9.54568E-01 +8.88207E-01 +4.38652E-01 +1.11778E+00 -1.11854E-01 +1.09427E+00
 -5.80603E-01 +8.28227E-01 -8.66639E-01 +3.81652E-01 -9.06401E-01 -1.43400E-01 -6.88721E-01 -6.25319E-01
 -2.59181E-01 -9.48567E-01 +2.87633E-01 -1.02914E+00 +8.26920E-01 -8.34316E-01 +1.22992E+00 -3.92028E-01
 +1.39222E+00 +2.12635E-01 +1.25798E+00 +8.53712E-01 +8.34535E-01 +1.39041E+00 +1.93598E-01 +1.69758E+00
 -5.41648E-01 +1.69407E+00 -1.22149E+00 +1.36255E+00 -1.70153E+00 +7.55988E-01 -1.87459E+00 -1.11925E-02
 -1.69569E+00 -7.85914E-01 -1.19402E+00 -1.40869E+00 -4.69004E-01 -1.74840E+00 +3.29499E-01 -1.73199E+00
 +1.03274E+00 -1.36213E+00 +1.48986E+00 -7.18607E-01 +1.60175E+00 +5.74970E-02 +1.34420E+00 +7.93717E-01
 +7.75056E-01 +1.32400E+00 +2.29466E-02 +1.52599E+00 -7.40024E-01 +1.34948E+00 -1.33614E+00 +8.29212E-01
 -1.62204E+00 +7.89193E-02 -1.52192E+00 -7.32706E-01 -1.04610E+00 -1.41895E+00 -2.90625E-01 -1.81691E+00
 +5.82582E-01 -1.82486E+00 +1.38087E+00 -1.42650E+00 +1.92361E+00 -6.96382E-01 +2.08308E+00 +2.14986E-01
 +1.81405E+00 +1.11355E+00 +1.16540E+00 +1.80436E+00 +2.70614E-01 +2.13515E+00 -6.80746E-01 +2.03084E+00
 -1.48459E+00 +1.51128E+00 -1.96755E+00 +6.87786E-01 -2.02580E+00 -2.60694E-01 -1.64865E+00 -1.12687E+00
 -9.21613E-01 -1.72095E+00 -7.87804E-03 -1.91293E+00 +8.87513E-01 -1.66176E+00 +1.56303E+00 -1.02486E+00
 +1.86542E+00 -1.45792E-01 +1.72385E+00 +7.77228E-01 +1.16598E+00 +1.53501E+00 +3.12231E-01 +1.95359E+00
 -6.50363E-01 +1.93270E+00 -1.50898E+00 +1.46817E+00 -2.07149E+00 +6.53268E-01 -2.20853E+00 -3.41252E-01
 -1.88184E+00 -1.30391E+00 -1.15293E+00 -2.02811E+00 -1.70236E-01 -2.35671E+00 +8.62472E-01 -2.21590E+00
 +1.72948E+00 -1.63134E+00 +2.24906E+00 -7.22950E-01 +2.31227E+00 +3.20257E-01 +1.90622E+00 +1.28000E+00
 +1.11723E+00 +1.95481E+00 +1.13056E-01 +2.20266E+00 -8.92087E-01 +1.97129E+00 -1.68230E+00 +1.30980E+00
 -2.08546E+00 +3.59213E-01 -2.00992E+00 -6.76221E-01 -1.46480E+00 -1.57122E+00 -5.59559E-01 -2.12649E+00
 +5.17236E-01 -2.21105E+00 +1.53595E+00 -1.79114E+00 +2.27319E+00 -9.39376E-01 +2.55881E+00 +1.77775E-01
 +2.31305E+00 +1.33249E+00 +1.56584E+00 +2.28160E+00 +4.53889E-01 +2.81718E+00 -8.04670E-01 +2.81137E+00
 -1.95342E+00 +2.24591E+00 -2.75042E+00 +1.21980E+00 -3.01983E+00 -6.74443E-02 -2.69162E+00 -1.35447E+00
 -1.82042E+00 -2.37132E+00 -5.78636E-01 -2.89686E+00 +7.75971E-01 -2.80810E+00 +1.95242E+00 -2.11070E+00
 +2.68824E+00 -9.43013E-01 +2.80780E+00 +4.48425E-01 +2.26453E+00 +1.75818E+00 +1.15684E+00 +2.68639E+00
 -2.87024E-01 +3.00519E+00 -1.75347E+00 +2.61241E+00 -2.90914E+00 +1.56016E+00 -3.47414E+00 +5.05048E-02
 -3.28683E+00 -1.60239E+00 -2.34554E+00 -3.03702E+00 -8.16379E-01 -3.92299E+00 +9.96054E-01 -4.03622E+00
 +2.71050E+00 -3.31385E+00 +3.95091E+00 -1.87538E+00 +4.43083E+00 -3.71770E-03 +4.02128E+00 +1.91149E+00
 +2.78598E+00 +3.45701E+00 +9.74358E-01 +4.28803E+00 -1.02768E+00 +4.20834E+00 -2.78002E+00 +3.21995E+00
 -3.88601E+00 +1.52958E+00 -4.08389E+00 -4.91305E-01 -3.31086E+00 -2.38533E+00 -1.72390E+00 -3.71056E+00
 +3.28718E-01 -4.14181E+00 +2.38076E+00 -3.54870E+00 +3.95065E+00 -2.03176E+00 +4.65100E+00 +9.30607E-02
 +4.28000E+00 +2.35963E+00 +2.87323E+00 +4.25320E+00 +7.02846E-01 +5.32606E+00 -1.77732E+00 +5.30119E+00
 -4.02943E+00 +4.13986E+00 -5.55111E+00 +2.05679E+00 -5.98971E+00 -5.22046E-01 -5.22528E+00 -3.05044E+00
 -3.40260E+00 -4.98240E+00 -9.03724E-01 -5.89494E+00 +1.73364E+00 -5.58546E+00 +3.93454E+00 -4.12083E+00
 +5.21563E+00 -1.82644E+00 +5.29527E+00 +7.83524E-01 +4.15966E+00 +3.11948E+00 +2.06933E+00 +4.64854E+00
 -4.96364E-01 +5.01548E+00 -2.94475E+00 +4.12514E+00 -4.70227E+00 +2.16702E+00 -5.34410E+00 -4.23873E-01
