 Created: 19-Jan-2021
 $NMID
 ID='D:\BASISSIMULATI'
 FMTDAT='(8E13.5)'
 VOLUME=   1.00000E+00
 TRAMP=   1.00000E+00
 $END
 +1.44109E+02 +7.07961E-01 +1.39709E+02 +3.27976E+01 +1.27540E+02 +6.26730E+01 +1.08479E+02 +8.83955E+01
 +8.38878E+01 +1.08340E+02 +5.55078E+01 +1.21317E+02 +2.53249E+01 +1.26653E+02 -4.58379E+00 +1.24243E+02
 -3.22079E+01 +1.14542E+02 -5.57562E+01 +9.85273E+01 -7.37892E+01 +7.76121E+01 -8.53225E+01 +5.35276E+01
 -8.98929E+01 +2.81833E+01 -8.75824E+01 +3.51363E+00 -7.89977E+01 -1.86737E+01 -6.52093E+01 -3.68374E+01
 -4.76530E+01 -4.98182E+01 -2.80053E+01 -5.69214E+01 -8.04016E+00 -5.79599E+01 +1.05188E+01 -5.32557E+01
 +2.61393E+01 -4.35988E+01 +3.76027E+01 -3.01684E+01 +4.40988E+01 -1.44235E+01 +4.52837E+01 +2.02860E+00
 +4.12986E+01 +1.75735E+01 +3.27460E+01 +3.07295E+01 +2.06283E+01 +4.02740E+01 +6.25244E+00 +4.53457E+01
 -8.89072E+00 +4.55153E+01 -2.32607E+01 +4.08174E+01 -3.54051E+01 +3.17423E+01 -4.40889E+01 +1.91890E+01
 -4.84033E+01 +4.38162E+00 -4.78466E+01 -1.12402E+01 -4.23682E+01 -2.61507E+01 -3.23750E+01 -3.88741E+01
 -1.86963E+01 -4.81162E+01 -2.51285E+00 -5.28809E+01 +1.47444E+01 -5.25604E+01 +3.15184E+01 -4.69925E+01
 +4.62612E+01 -3.64802E+01 +5.75691E+01 -2.17702E+01 +6.43060E+01 -3.99432E+00 +6.57052E+01 +1.54233E+01
 +6.14407E+01 +3.48842E+01 +5.16603E+01 +5.27494E+01 +3.69803E+01 +6.74783E+01 +1.84399E+01 +7.77593E+01
 -2.58050E+00 +8.26237E+01 -2.44702E+01 +8.15307E+01 -4.55191E+01 +7.44177E+01 -6.40584E+01 +6.17114E+01
 -7.85985E+01 +4.42979E+01 -8.79535E+01 +2.34545E+01 -9.13418E+01 +7.48875E-01 -8.84529E+01 -2.20865E+01
 -7.94772E+01 -4.32946E+01 -6.50940E+01 -6.12370E+01 -4.64195E+01 -7.45276E+01 -2.49187E+01 -8.21473E+01
 -2.28823E+00 -8.35284E+01 +1.96801E+01 -7.86031E+01 +3.92443E+01 -6.78114E+01 +5.48540E+01 -5.20667E+01
 +6.52765E+01 -3.26842E+01 +6.96980E+01 -1.12751E+01 +6.77907E+01 +1.03830E+01 +5.97409E+01 +3.04897E+01
 +4.62350E+01 +4.73680E+01 +2.84053E+01 +5.95999E+01 +7.73940E+00 +6.61421E+01 -1.40396E+01 +6.64111E+01
 -3.51117E+01 +6.03316E+01 -5.37068E+01 +4.83430E+01 -6.82475E+01 +3.13651E+01 -7.74761E+01 +1.07250E+01
 -8.05567E+01 -1.19498E+01 -7.71420E+01 -3.48610E+01 -6.74012E+01 -5.61842E+01 -5.20070E+01 -7.42144E+01
 -3.20805E+01 -8.75021E+01 -9.10208E+00 -9.49684E+01 +1.52079E+01 -9.59899E+01 +3.90264E+01 -9.04469E+01
 +6.05726E+01 -7.87307E+01 +7.82492E+01 -6.17100E+01 +9.07679E+01 -4.06590E+01 +9.72488E+01 -1.71533E+01
 +9.72874E+01 +7.05726E+00 +9.09815E+01 +3.01893E+01 +7.89182E+01 +5.05680E+01 +6.21217E+01 +6.67587E+01
 +4.19655E+01 +7.76789E+01 +2.00578E+01 +8.26791E+01 -1.89106E+00 +8.15891E+01 -2.22081E+01 +7.47236E+01
 -3.93922E+01 +6.28489E+01 -5.22335E+01 +4.71127E+01 -5.99068E+01 +2.89437E+01 -6.20327E+01 +9.92864E+00
 -5.87002E+01 -8.32142E+00 -5.04517E+01 -2.43057E+01 -3.82283E+01 -3.67572E+01 -2.32845E+01 -4.47457E+01
 -7.07594E+00 -4.77505E+01 +8.86787E+00 -4.56987E+01 +2.30758E+01 -3.89646E+01 +3.42615E+01 -2.83316E+01
 +4.14326E+01 -1.49190E+01 +4.39746E+01 -8.14888E-02 +4.17012E+01 +1.47119E+01 +3.48679E+01 +2.80070E+01
 +2.41482E+01 +3.84930E+01 +1.05729E+01 +4.51172E+01 -4.56095E+00 +4.71783E+01 -1.98033E+01 +4.43889E+01
 -3.36789E+01 +3.69029E+01 -4.48165E+01 +2.53040E+01 -5.20702E+01 +1.05588E+01 -5.46219E+01 -6.06467E+00
 -5.20558E+01 -2.31037E+01 -4.44002E+01 -3.90256E+01 -3.21300E+01 -5.23584E+01 -1.61333E+01 -6.18188E+01
 +2.35880E+00 -6.64237E+01 +2.18714E+01 -6.55784E+01 +4.08058E+01 -5.91328E+01 +5.75722E+01 -4.74004E+01
 +7.07215E+01 -3.11396E+01 +7.90678E+01 -1.14973E+01 +8.17893E+01 +1.00798E+01 +7.85005E+01 +3.19601E+01
 +6.92895E+01 +5.24568E+01 +5.47155E+01 +6.99645E+01 +3.57696E+01 +8.30890E+01 +1.37985E+01 +9.07619E+01
 -9.59984E+00 +9.23281E+01 -3.27021E+01 +8.76015E+01 -5.37961E+01 +7.68820E+01 -7.13167E+01 +6.09341E+01
 -8.39700E+01 +4.09275E+01 -9.08369E+01 +1.83453E+01 -9.14449E+01 -5.13319E+00 -8.58063E+01 -2.77653E+01
 -7.44149E+01 -4.78834E+01 -5.82064E+01 -6.40259E+01 -3.84817E+01 -7.50530E+01 -1.68019E+01 -8.02346E+01
 +5.13788E+00 -7.93062E+01 +2.56438E+01 -7.24864E+01 +4.31593E+01 -6.04552E+01 +5.63880E+01 -4.42960E+01
 +6.43959E+01 -2.54046E+01 +6.66827E+01 -5.37349E+00 +6.32181E+01 +1.41388E+01 +5.44390E+01 +3.15429E+01
 +4.12095E+01 +4.54472E+01 +2.47456E+01 +5.47696E+01 +6.51183E+00 +5.88227E+01 -1.19017E+01 +5.73665E+01
 -2.89115E+01 +5.06236E+01 -4.30716E+01 +3.92565E+01 -5.31924E+01 +2.43085E+01 -5.84371E+01 +7.11377E+00
 -5.83885E+01 -1.08160E+01 -5.30811E+01 -2.79193E+01 -4.29944E+01 -4.27154E+01 -2.90108E+01 -5.39280E+01
 -1.23388E+01 -6.05908E+01 +5.58987E+00 -6.21271E+01 +2.32410E+01 -5.83961E+01 +3.91072E+01 -4.97035E+01
 +5.18345E+01 -3.67740E+01 +6.03349E+01 -2.06892E+01 +6.38776E+01 -2.79653E+00 +6.21489E+01 +1.54048E+01
 +5.52782E+01 +3.23895E+01 +4.38263E+01 +4.67335E+01 +2.87381E+01 +5.72335E+01 +1.12628E+01 +6.30074E+01
 -7.14997E+00 +6.35670E+01 -2.49721E+01 +5.88592E+01 -4.07239E+01 +4.92700E+01 -5.30980E+01 +3.55917E+01
 -6.10676E+01 +1.89571E+01 -6.39724E+01 +7.44902E-01 -6.15731E+01 -1.75353E+01 -5.40713E+01 -3.43686E+01
 -4.20922E+01 -4.83607E+01 -2.66331E+01 -5.83541E+01 -8.97944E+00 -6.35239E+01 +9.40127E+00 -6.34463E+01
 +2.69821E+01 -5.81341E+01 +4.23032E+01 -4.80348E+01 +5.40935E+01 -3.39939E+01 +6.13760E+01 -1.71842E+01
 +6.35488E+01 +9.91574E-01 +6.04353E+01 +1.90173E+01 +5.22987E+01 +3.53894E+01 +3.98205E+01 +4.87416E+01
 +2.40434E+01 +5.79589E+01 +6.28528E+00 +6.22693E+01 -1.19700E+01 +6.13091E+01 -2.91961E+01 +5.51523E+01
 -4.39504E+01 +4.43053E+01 -5.49935E+01 +2.96651E+01 -6.13927E+01 +1.24451E+01 -6.25989E+01 -5.92487E+00
 -5.84927E+01 -2.39169E+01 -4.93947E+01 -4.00312E+01 -3.60392E+01 -5.29201E+01 -1.95141E+01 -6.14996E+01
 -1.17176E+00 -6.50391E+01 +1.74830E+01 -6.32216E+01 +3.49160E+01 -5.61709E+01 +4.96905E+01 -4.44411E+01
 +6.05854E+01 -2.89716E+01 +6.66954E+01 -1.10101E+01 +6.75061E+01 +7.98985E+00 +6.29356E+01 +2.64882E+01
 +5.33418E+01 +4.29845E+01 +3.94927E+01 +5.61414E+01 +2.25032E+01 +6.48934E+01 +3.74380E+00 +6.85348E+01
 -1.52721E+01 +6.67766E+01 -3.30122E+01 +5.97696E+01 -4.80507E+01 +4.80920E+01 -5.91849E+01 +3.27007E+01
 -6.55332E+01 +1.48524E+01 -6.66065E+01 -3.99961E+00 -6.23474E+01 -2.23254E+01 -5.31336E+01 -3.86439E+01
 -3.97460E+01 -5.16436E+01 -2.33028E+01 -6.02904E+01 -5.16745E+00 -6.39110E+01 +1.31647E+01 -6.22470E+01
 +3.01893E+01 -5.54750E+01 +4.45173E+01 -4.41904E+01 +5.49881E+01 -2.93567E+01 +6.07649E+01 -1.22251E+01
 +6.14023E+01 +5.76973E+00 +5.68815E+01 +2.31287E+01 +4.76106E+01 +3.84123E+01 +3.43893E+01 +5.03591E+01
 +1.83416E+01 +5.79899E+01 +8.21642E-01 +6.06872E+01 -1.66991E+01 +5.82456E+01 -3.27537E+01 +5.08878E+01
 -4.60016E+01 +3.92445E+01 -5.53393E+01 +2.43014E+01 -5.99913E+01 +7.31663E+00 -5.95734E+01 -1.02842E+01
 -5.41242E+01 -2.70266E+01 -4.41009E+01 -4.15093E+01 -3.03406E+01 -5.25206E+01 -1.39906E+01 -5.91385E+01
 +3.58738E+00 -6.08064E+01 +2.09302E+01 -5.73790E+01 +3.65946E+01 -4.91338E+01 +4.92766E+01 -3.67478E+01
 +5.79193E+01 -2.12407E+01 +6.18001E+01 -3.89056E+00 +6.05900E+01 +1.38723E+01 +5.43805E+01 +3.05837E+01
 +4.36757E+01 +4.48662E+01 +2.93498E+01 +5.55432E+01 +1.25750E+01 +6.17356E+01 -5.27571E+00 +6.29339E+01
 -2.27421E+01 +5.90395E+01 -3.83973E+01 +5.03728E+01 -5.09649E+01 +3.76456E+01 -5.94244E+01 +2.19018E+01
 -6.30945E+01 +4.43118E+00 -6.16883E+01 -1.33379E+01 -5.53366E+01 -2.99559E+01 -4.45759E+01 -4.40723E+01
 -3.03029E+01 -5.45458E+01 -1.37000E+01 -6.05385E+01 +3.86296E+00 -6.15839E+01 +2.09425E+01 -5.76244E+01
 +3.61408E+01 -4.90147E+01 +4.82206E+01 -3.64914E+01 +5.62076E+01 -2.11110E+01 +5.94696E+01 -4.16149E+00
 +5.77681E+01 +1.29450E+01 +5.12766E+01 +2.87893E+01 +4.05654E+01 +4.20630E+01 +2.65526E+01 +5.16764E+01
 +1.04272E+01 +5.68487E+01 -6.45025E+00 +5.71714E+01 -2.26613E+01 +5.26417E+01 -3.68477E+01 +4.36619E+01
 -4.78241E+01 +3.10045E+01 -5.46763E+01 +1.57476E+01 -5.68372E+01 -8.15502E-01 -5.41333E+01 -1.72843E+01
 -4.67986E+01 -3.22682E+01 -3.54548E+01 -4.45018E+01 -2.10594E+01 -5.29508E+01 -4.82526E+00 -5.68979E+01
 +1.18801E+01 -5.60024E+01 +2.76484E+01 -5.03286E+01 +4.11481E+01 -4.03407E+01 +5.12350E+01 -2.68642E+01
 +5.70477E+01 -1.10179E+01 +5.80796E+01 +5.87960E+00 +5.42209E+01 +2.24183E+01 +4.57687E+01 +3.72144E+01
 +3.34026E+01 +4.90248E+01 +1.81293E+01 +5.68503E+01 +1.19937E+00 +6.00186E+01 -1.59956E+01 +5.82407E+01
 -3.20376E+01 +5.16351E+01 -4.55995E+01 +4.07185E+01 -5.55539E+01 +2.63641E+01 -6.10671E+01 +9.73011E+00
 -6.16673E+01 -7.83528E+00 -5.72840E+01 -2.49044E+01 -4.82544E+01 -4.00872E+01 -3.52954E+01 -5.21452E+01
 -1.94458E+01 -6.00933E+01 -1.98058E+00 -6.32800E+01 +1.56929E+01 -6.14411E+01 +3.21502E+01 -5.47211E+01
 +4.60661E+01 -4.36608E+01 +5.63232E+01 -2.91532E+01 +6.21020E+01 -1.23697E+01 +6.29481E+01 +5.33559E+00
 +5.88084E+01 +2.25370E+01 +5.00343E+01 +3.78535E+01 +3.73520E+01 +5.00617E+01 +2.18026E+01 +5.81950E+01
 +4.65548E+00 +6.16218E+01 -1.26958E+01 +6.00958E+01 -2.88481E+01 +5.37751E+01 -4.25032E+01 +4.32069E+01
 -5.25738E+01 +2.92821E+01 -5.82717E+01 +1.31600E+01 -5.91710E+01 -3.82767E+00 -5.52412E+01 -2.02867E+01
 -4.68478E+01 -3.48755E+01 -3.47204E+01 -4.64147E+01 -1.98909E+01 -5.39839E+01 -3.60670E+00 -5.69958E+01
 +1.27730E+01 -5.52431E+01 +2.78902E+01 -4.89138E+01 +4.05001E+01 -3.85733E+01 +4.95740E+01 -2.51163E+01
 +5.43830E+01 -9.69083E+00 +5.45570E+01 +6.39827E+00 +5.01144E+01 +2.17981E+01 +4.14582E+01 +3.52203E+01
 +2.93416E+01 +4.55482E+01 +1.48031E+01 +5.19287E+01 -9.20116E-01 +5.38427E+01 -1.64966E+01 +5.11470E+01
 -3.06117E+01 +4.40849E+01 -4.20771E+01 +3.32655E+01 -4.99300E+01 +1.96108E+01 -5.35125E+01 +4.27925E+00
 -5.25263E+01 -1.14326E+01 -4.70568E+01 -2.61978E+01 -3.75654E+01 -3.87704E+01 -2.48505E+01 -4.80891E+01
 -9.98065E+00 -5.33659E+01 +5.79530E+00 -5.41516E+01 +2.11521E+01 -5.03732E+01 +3.47991E+01 -4.23398E+01
 +4.55875E+01 -3.07168E+01 +5.26068E+01 -1.64706E+01 +5.52603E+01 -7.87821E-01 +5.33151E+01 +1.50231E+01
 +4.69217E+01 +2.96412E+01 +3.66022E+01 +4.18425E+01 +2.32066E+01 +5.06024E+01 +7.84280E+00 +5.51808E+01
