 Created: 19-Jan-2021
 $NMID
 ID='D:\BASISSIMULATI'
 FMTDAT='(8E13.5)'
 VOLUME=   1.00000E+00
 TRAMP=   1.00000E+00
 $END
 +8.40128E+01 +8.32054E-01 +7.70067E+01 +1.03227E+01 +5.80255E+01 +2.09907E+01 +3.23454E+01 +3.27640E+01
 +6.72305E+00 +4.38792E+01 -1.28785E+01 +5.13355E+01 -2.31049E+01 +5.21438E+01 -2.39174E+01 +4.48057E+01
 -1.80325E+01 +3.03197E+01 -9.45907E+00 +1.21954E+01 -1.82704E+00 -4.60669E+00 +2.79167E+00 -1.54071E+01
 +4.16775E+00 -1.75026E+01 +3.34944E+00 -1.11209E+01 +1.67070E+00 +7.50687E-01 -1.03375E-01 +1.35649E+01
 -2.07389E+00 +2.29180E+01 -4.86688E+00 +2.60504E+01 -8.92416E+00 +2.25674E+01 -1.38851E+01 +1.41799E+01
 -1.84527E+01 +3.69672E+00 -2.08625E+01 -6.20375E+00 -1.97299E+01 -1.38671E+01 -1.48329E+01 -1.88954E+01
 -7.39011E+00 -2.17505E+01 +3.59806E-01 -2.30665E+01 +6.11819E+00 -2.31112E+01 +8.58028E+00 -2.16995E+01
 +8.06410E+00 -1.85674E+01 +6.38301E+00 -1.39277E+01 +5.99070E+00 -8.80619E+00 +8.78604E+00 -4.86213E+00
 +1.51454E+01 -3.68920E+00 +2.36574E+01 -5.90641E+00 +3.17066E+01 -1.05247E+01 +3.66462E+01 -1.49997E+01
 +3.70079E+01 -1.60801E+01 +3.31664E+01 -1.11650E+01 +2.71282E+01 +4.05838E-01 +2.15318E+01 +1.67416E+01
 +1.83312E+01 +3.38277E+01 +1.78000E+01 +4.68977E+01 +1.83554E+01 +5.22266E+01 +1.73194E+01 +4.85964E+01
 +1.22823E+01 +3.77977E+01 +2.43452E+00 +2.39262E+01 -1.07786E+01 +1.17507E+01 -2.40267E+01 +4.83588E+00
 -3.33672E+01 +4.20955E+00 -3.58792E+01 +8.12899E+00 -3.09324E+01 +1.30167E+01 -2.05186E+01 +1.51313E+01
 -8.48275E+00 +1.22309E+01 +1.01770E+00 +4.50918E+00 +5.15503E+00 -5.57059E+00 +3.46858E+00 -1.44245E+01
 -2.13242E+00 -1.89343E+01 -8.36242E+00 -1.77593E+01 -1.20733E+01 -1.18177E+01 -1.15999E+01 -3.78173E+00
 -7.35308E+00 +3.12543E+00 -1.44078E+00 +6.45398E+00 +3.45421E+00 +5.38585E+00 +5.38514E+00 +8.01684E-01
 +4.03037E+00 -5.37777E+00 +7.76933E-01 -1.11796E+01 -1.99230E+00 -1.53844E+01 -2.03120E+00 -1.77805E+01
 +1.76490E+00 -1.88162E+01 +8.93349E+00 -1.89202E+01 +1.77446E+01 -1.79275E+01 +2.60177E+01 -1.49751E+01
 +3.20157E+01 -8.95944E+00 +3.49798E+01 +6.73309E-01 +3.50880E+01 +1.32418E+01 +3.29426E+01 +2.66674E+01
 +2.89418E+01 +3.80072E+01 +2.29403E+01 +4.45051E+01 +1.44281E+01 +4.47018E+01 +3.15066E+00 +3.90793E+01
 -1.01881E+01 +2.99071E+01 -2.35912E+01 +2.03223E+01 -3.41060E+01 +1.30393E+01 -3.88071E+01 +9.27324E+00
 -3.60457E+01 +8.37305E+00 -2.63897E+01 +8.33187E+00 -1.27565E+01 +6.93012E+00 +4.34157E-01 +2.95926E+00
 +8.82116E+00 -3.07191E+00 +9.75930E+00 -9.10647E+00 +3.37273E+00 -1.25252E+01 -7.47129E+00 -1.14913E+01
 -1.82919E+01 -6.00659E+00 -2.47748E+01 +1.85176E+00 -2.44633E+01 +8.67487E+00 -1.76549E+01 +1.11479E+01
 -7.14156E+00 +7.53004E+00 +3.06731E+00 -1.48464E+00 +9.46540E+00 -1.29363E+01 +1.04657E+01 -2.27498E+01
 +6.92060E+00 -2.73807E+01 +1.56832E+00 -2.52442E+01 -2.29571E+00 -1.73140E+01 -2.29763E+00 -6.64443E+00
 +2.04348E+00 +2.95342E+00 +9.24570E+00 +8.49004E+00 +1.66624E+01 +8.94664E+00 +2.17251E+01 +5.52673E+00
 +2.30350E+01 +9.56317E-01 +2.08168E+01 -1.80210E+00 +1.65813E+01 -8.21871E-01 +1.22270E+01 +4.08009E+00
 +9.06109E+00 +1.14565E+01 +7.22846E+00 +1.90282E+01 +5.80268E+00 +2.47331E+01 +3.44798E+00 +2.75137E+01
 -7.24709E-01 +2.75117E+01 -6.56974E+00 +2.56555E+01 -1.28955E+01 +2.29357E+01 -1.80318E+01 +1.97993E+01
 -2.06716E+01 +1.59953E+01 -2.05415E+01 +1.09391E+01 -1.85367E+01 +4.36148E+00 -1.62386E+01 -3.15854E+00
 -1.50545E+01 -1.01309E+01 -1.54259E+01 -1.46678E+01 -1.65358E+01 -1.53602E+01 -1.66989E+01 -1.20832E+01
 -1.42732E+01 -6.28458E+00 -8.64915E+00 -5.39185E-01 -8.02177E-01 +2.49547E+00 +6.91736E+00 +1.27194E+00
 +1.17217E+01 -3.86716E+00 +1.16520E+01 -1.07266E+01 +6.58577E+00 -1.61549E+01 -1.51598E+00 -1.74355E+01
 -9.29163E+00 -1.35579E+01 -1.33341E+01 -5.77517E+00 -1.16365E+01 +2.83997E+00 -4.48256E+00 +8.68271E+00
 +5.63291E+00 +9.19794E+00 +1.50377E+01 +4.05798E+00 +2.04263E+01 -4.59840E+00 +2.02365E+01 -1.29917E+01
 +1.52508E+01 -1.72481E+01 +8.16499E+00 -1.50025E+01 +2.32682E+00 -6.37191E+00 +2.18026E-01 +6.10911E+00
 +2.36037E+00 +1.85407E+01 +7.12510E+00 +2.72221E+01 +1.15116E+01 +3.00478E+01 +1.25262E+01 +2.71581E+01
 +8.53173E+00 +2.06181E+01 -2.65434E-02 +1.33379E+01 -1.08196E+01 +7.76511E+00 -2.06306E+01 +4.94427E+00
 -2.66765E+01 +4.32429E+00 -2.76605E+01 +4.32553E+00 -2.41200E+01 +3.32223E+00 -1.79778E+01 +5.28836E-01
 -1.15714E+01 -3.63566E+00 -6.65073E+00 -7.84464E+00 -3.80428E+00 -1.06230E+01 -2.52582E+00 -1.11479E+01
 -1.80438E+00 -9.66905E+00 -8.67148E-01 -7.34153E+00 +3.42330E-01 -5.57510E+00 +1.19894E+00 -5.25923E+00
 +8.98412E-01 -6.28366E+00 -8.80424E-01 -7.61816E+00 -3.55587E+00 -7.91809E+00 -5.74406E+00 -6.33854E+00
 -5.87831E+00 -3.11688E+00 -3.05383E+00 +4.12873E-01 +2.34606E+00 +2.42559E+00 +8.60918E+00 +1.55708E+00
 +1.33320E+01 -2.27097E+00 +1.44860E+01 -7.59647E+00 +1.14225E+01 -1.19180E+01 +5.31763E+00 -1.27711E+01
 -1.20990E+00 -8.90204E+00 -5.19008E+00 -9.79146E-01 -4.64024E+00 +8.52904E+00 +4.57142E-01 +1.63077E+01
 +8.01041E+00 +1.95878E+01 +1.46184E+01 +1.73616E+01 +1.69958E+01 +1.08626E+01 +1.34100E+01 +3.06977E+00
 +4.49097E+00 -2.56786E+00 -6.95757E+00 -3.63113E+00 -1.70791E+01 +2.07380E-01 -2.25379E+01 +7.03532E+00
 -2.18641E+01 +1.35349E+01 -1.59933E+01 +1.64310E+01 -7.78270E+00 +1.39130E+01 -7.38240E-01 +6.40761E+00
 +2.47354E+00 -3.62161E+00 +1.07862E+00 -1.27400E+01 -3.62149E+00 -1.79826E+01 -8.97068E+00 -1.80328E+01
 -1.22154E+01 -1.36426E+01 -1.17122E+01 -7.15298E+00 -7.55516E+00 -1.38099E+00 -1.38678E+00 +1.59571E+00
 +4.46048E+00 +1.21403E+00 +8.04758E+00 -1.54602E+00 +8.62355E+00 -4.82270E+00 +6.79002E+00 -6.85318E+00
 +4.01903E+00 -6.78327E+00 +1.81895E+00 -4.93739E+00 +9.92844E-01 -2.47105E+00 +1.35474E+00 -6.39659E-01
 +2.01207E+00 -9.43068E-02 +2.02164E+00 -5.76246E-01 +1.03613E+00 -1.15310E+00 -4.26920E-01 -8.44543E-01
 -1.25239E+00 +7.24098E-01 -3.94974E-01 +3.01745E+00 +2.41526E+00 +4.82521E+00 +6.33049E+00 +4.93437E+00
 +9.63331E+00 +2.88861E+00 +1.05010E+01 -5.86432E-01 +7.93131E+00 -3.76460E+00 +2.36360E+00 -4.67837E+00
 -4.35202E+00 -2.12055E+00 -9.68045E+00 +3.60195E+00 -1.15235E+01 +1.05707E+01 -9.22299E+00 +1.59310E+01
 -3.95555E+00 +1.70871E+01 +1.70770E+00 +1.28972E+01 +4.91749E+00 +4.31060E+00 +3.85280E+00 -5.88149E+00
 -1.38011E+00 -1.41184E+01 -8.68905E+00 -1.75241E+01 -1.48388E+01 -1.51121E+01 -1.68453E+01 -8.20483E+00
 -1.33103E+01 +1.28783E-01 -5.09865E+00 +6.37993E+00 +4.95597E+00 +8.08140E+00 +1.31988E+01 +4.81788E+00
 +1.66610E+01 -1.66901E+00 +1.42714E+01 -8.30941E+00 +7.25359E+00 -1.20834E+01 -1.44418E+00 -1.13298E+01
 -8.41679E+00 -6.41331E+00 -1.11987E+01 +5.19254E-01 -9.18670E+00 +6.54933E+00 -3.72159E+00 +9.28445E+00
 +2.65333E+00 +7.85610E+00 +7.37409E+00 +3.19325E+00 +8.92729E+00 -2.50618E+00 +7.34705E+00 -6.81793E+00
 +3.96952E+00 -8.14546E+00 +6.30500E-01 -6.31145E+00 -1.26399E+00 -2.45878E+00 -1.33944E+00 +1.62928E+00
 -2.66733E-01 +4.41555E+00 +7.62703E-01 +5.26004E+00 +7.84550E-01 +4.54404E+00 -3.78955E-01 +3.26063E+00
 -2.04022E+00 +2.33746E+00 -3.07559E+00 +2.08040E+00 -2.61695E+00 +2.04313E+00 -6.18802E-01 +1.38480E+00
 +2.02233E+00 -4.95136E-01 +3.88398E+00 -3.41632E+00 +3.76998E+00 -6.30477E+00 +1.40876E+00 -7.62113E+00
 -2.28487E+00 -6.15047E+00 -5.55962E+00 -1.75973E+00 -6.65504E+00 +4.29169E+00 -4.71615E+00 +9.70930E+00
 -3.32818E-01 +1.20883E+01 +4.60030E+00 +1.00116E+01 +7.68860E+00 +3.80665E+00 +7.16226E+00 -4.42667E+00
 +2.79683E+00 -1.15883E+01 -3.82896E+00 -1.48475E+01 -9.90674E+00 -1.28628E+01 -1.25876E+01 -6.40037E+00
 -1.02720E+01 +1.94503E+00 -3.41318E+00 +8.82717E+00 +5.55177E+00 +1.15626E+01 +1.31482E+01 +9.26228E+00
 +1.62960E+01 +3.18097E+00 +1.36101E+01 -3.86711E+00 +6.00069E+00 -8.76310E+00 -3.68962E+00 -9.44762E+00
 -1.18555E+01 -5.79095E+00 -1.55945E+01 +4.05187E-01 -1.38400E+01 +6.25457E+00 -7.68934E+00 +9.08502E+00
 +1.78606E-01 +7.60078E+00 +6.70492E+00 +2.39982E+00 +9.72170E+00 -4.35696E+00 +8.74309E+00 -9.94091E+00
 +4.96996E+00 -1.22426E+01 +5.70271E-01 -1.06149E+01 -2.38355E+00 -6.02185E+00 -2.81312E+00 -4.74701E-01
 -9.76271E-01 +3.93376E+00 +1.84944E+00 +5.92751E+00 +4.12581E+00 +5.47205E+00 +4.84543E+00 +3.57494E+00
 +3.96245E+00 +1.62102E+00 +2.27833E+00 +6.15198E-01 +8.87518E-01 +7.23820E-01 +5.09131E-01 +1.32677E+00
 +1.07578E+00 +1.51450E+00 +1.80032E+00 +7.29994E-01 +1.67814E+00 -8.15025E-01 +1.42771E-01 -2.19411E+00
 -2.49702E+00 -2.27738E+00 -5.10369E+00 -4.32243E-01 -6.25241E+00 +2.97273E+00 -5.00984E+00 +6.56506E+00
 -1.54488E+00 +8.52252E+00 +2.77577E+00 +7.44891E+00 +5.91320E+00 +3.14875E+00 +6.09633E+00 -3.10489E+00
 +2.74183E+00 -8.99159E+00 -3.10653E+00 -1.21085E+01 -9.07884E+00 -1.10575E+01 -1.24402E+01 -6.14746E+00
 -1.13095E+01 +6.42324E-01 -5.58712E+00 +6.45965E+00 +2.85592E+00 +8.80700E+00 +1.08534E+01 +6.65362E+00
 +1.52251E+01 +9.21535E-01 +1.41200E+01 -5.89229E+00 +7.83346E+00 -1.08066E+01 -1.26554E+00 -1.16794E+01
 -9.67846E+00 -8.17168E+00 -1.41882E+01 -1.91229E+00 -1.31341E+01 +4.21710E+00 -7.01290E+00 +7.36311E+00
 +1.82639E+00 +5.97898E+00 +1.02291E+01 +5.32914E-01 +1.55392E+01 -6.66465E+00 +1.65902E+01 -1.24331E+01
 +1.39773E+01 -1.40610E+01 +9.55034E+00 -1.04296E+01 +5.41629E+00 -2.44712E+00 +2.94714E+00 +7.36139E+00
 +2.25034E+00 +1.58944E+01 +2.31375E+00 +2.06695E+01 +1.70347E+00 +2.06648E+01 -5.66370E-01 +1.64924E+01
 -4.43669E+00 +9.90789E+00 -8.77137E+00 +2.95402E+00 -1.18918E+01 -2.83400E+00 -1.23994E+01 -6.81662E+00
 -9.87193E+00 -9.12569E+00 -5.09039E+00 -1.01920E+01 +3.05817E-01 -1.02510E+01 +4.55623E+00 -9.13294E+00
 +6.53957E+00 -6.45712E+00 +6.18753E+00 -2.10186E+00 +4.36627E+00 +3.35260E+00 +2.31299E+00 +8.52087E+00
 +9.39497E-01 +1.15915E+01 +3.76481E-01 +1.10694E+01 +1.54289E-04 +6.54414E+00 -1.07583E+00 -9.14754E-01
 -3.31448E+00 -8.98801E+00 -6.26428E+00 -1.49324E+01 -8.56769E+00 -1.66773E+01 -8.52458E+00 -1.37109E+01
 -4.97186E+00 -7.34062E+00 +1.95032E+00 -1.75849E-01 +1.05603E+01 +4.96578E+00 +1.81139E+01 +6.25963E+00
 +2.18543E+01 +3.64886E+00 +2.01967E+01 -1.15871E+00 +1.35144E+01 -5.47703E+00 +4.13598E+00 -6.86203E+00
