 Created: 19-Jan-2021
 $NMID
 ID='D:\BASISSIMULATI'
 FMTDAT='(8E13.5)'
 VOLUME=   1.00000E+00
 TRAMP=   1.00000E+00
 $END
 +6.58756E+01 +1.77243E+00 +5.87817E+01 +9.05706E+00 +4.09984E+01 +1.63271E+01 +1.74075E+01 +2.34427E+01
 -5.84421E+00 +2.93891E+01 -2.33235E+01 +3.25238E+01 -3.19103E+01 +3.12943E+01 -3.14662E+01 +2.50866E+01
 -2.44110E+01 +1.47715E+01 -1.44730E+01 +2.63668E+00 -5.18009E+00 -8.32830E+00 +1.30187E+00 -1.55199E+01
 +4.57999E+00 -1.77119E+01 +5.65250E+00 -1.55023E+01 +6.03062E+00 -1.09933E+01 +6.83982E+00 -6.82555E+00
 +8.32312E+00 -4.98059E+00 +9.92722E+00 -5.88561E+00 +1.08450E+01 -8.22933E+00 +1.06648E+01 -9.58859E+00
 +9.74280E+00 -7.59988E+00 +9.07332E+00 -1.15776E+00 +9.71179E+00 +8.90404E+00 +1.20505E+01 +1.99747E+01
 +1.53491E+01 +2.86303E+01 +1.78173E+01 +3.20016E+01 +1.72859E+01 +2.89619E+01 +1.22070E+01 +2.06195E+01
 +2.53716E+00 +9.89455E+00 -9.93004E+00 +3.54888E-01 -2.19914E+01 -5.19838E+00 -3.01039E+01 -5.79607E+00
 -3.16835E+01 -2.57432E+00 -2.61002E+01 +1.84254E+00 -1.49486E+01 +4.56475E+00 -1.47022E+00 +3.72674E+00
 +1.06366E+01 -7.11493E-01 +1.85292E+01 -6.98103E+00 +2.11205E+01 -1.23064E+01 +1.92191E+01 -1.41224E+01
 +1.49007E+01 -1.11679E+01 +1.04320E+01 -3.99242E+00 +7.25113E+00 +5.31557E+00 +5.45967E+00 +1.40206E+01
 +4.02691E+00 +1.98351E+01 +1.56859E+00 +2.17313E+01 -2.70801E+00 +2.01427E+01 -8.37516E+00 +1.65202E+01
 -1.38014E+01 +1.25062E+01 -1.68326E+01 +9.14992E+00 -1.58323E+01 +6.53986E+00 -1.05891E+01 +4.00630E+00
 -2.64132E+00 +7.53163E-01 +5.18107E+00 -3.43726E+00 +9.84103E+00 -7.82248E+00 +9.35755E+00 -1.08762E+01
 +3.69819E+00 -1.09760E+01 -5.10451E+00 -7.28651E+00 -1.36912E+01 -3.97424E-01 -1.86801E+01 +7.63822E+00
 -1.80005E+01 +1.39572E+01 -1.17054E+01 +1.59998E+01 -1.92859E+00 +1.26197E+01 +7.98093E+00 +4.69380E+00
 +1.47746E+01 -5.07086E+00 +1.65169E+01 -1.30994E+01 +1.32061E+01 -1.63105E+01 +6.58304E+00 -1.33228E+01
 -7.37660E-01 -5.00711E+00 -6.39854E+00 +5.84901E+00 -9.19107E+00 +1.56229E+01 -9.34512E+00 +2.12349E+01
 -8.14571E+00 +2.12551E+01 -7.11609E+00 +1.63008E+01 -7.18987E+00 +8.59670E+00 -8.27422E+00 +9.31912E-01
 -9.39642E+00 -4.50836E+00 -9.33177E+00 -6.92697E+00 -7.37320E+00 -7.00320E+00 -3.83435E+00 -6.30021E+00
 -1.09376E-02 -6.31536E+00 +2.40509E+00 -7.64708E+00 +2.18640E+00 -9.67964E+00 -7.17625E-01 -1.09283E+01
 -4.99052E+00 -9.86695E+00 -8.41927E+00 -5.82543E+00 -8.85337E+00 +4.94000E-01 -5.23613E+00 +7.15655E+00
 +1.76826E+00 +1.17581E+01 +9.86948E+00 +1.24808E+01 +1.59744E+01 +8.95895E+00 +1.74183E+01 +2.54647E+00
 +1.30896E+01 -4.16649E+00 +3.96109E+00 -8.40048E+00 -7.21380E+00 -8.35490E+00 -1.69296E+01 -3.99052E+00
 -2.22595E+01 +2.91864E+00 -2.19376E+01 +9.49375E+00 -1.67509E+01 +1.29203E+01 -9.09610E+00 +1.15811E+01
 -1.91521E+00 +5.67820E+00 +2.51916E+00 -2.90337E+00 +3.44937E+00 -1.14047E+01 +1.76816E+00 -1.73045E+01
 -5.73570E-01 -1.92470E+01 -1.58355E+00 -1.74045E+01 -1.90560E-01 -1.31620E+01 +3.28235E+00 -8.32104E+00
 +7.32953E+00 -4.22833E+00 +1.00340E+01 -1.24478E+00 +1.00172E+01 +1.20908E+00 +7.11276E+00 +4.08737E+00
 +2.44760E+00 +7.94584E+00 -2.10168E+00 +1.23786E+01 -4.81301E+00 +1.59822E+01 -4.94857E+00 +1.69060E+01
 -3.10929E+00 +1.37558E+01 -9.35989E-01 +6.42430E+00 -2.88105E-01 -3.57146E+00 -2.28132E+00 -1.34587E+01
 -6.64175E+00 -2.01814E+01 -1.16975E+01 -2.15895E+01 -1.50408E+01 -1.73387E+01 -1.45831E+01 -9.09777E+00
 -9.53888E+00 +5.45982E-02 -8.90149E-01 +6.81193E+00 +8.89188E+00 +8.92140E+00 +1.67684E+01 +6.03461E+00
 +2.03121E+01 -2.20506E-01 +1.86438E+01 -6.96466E+00 +1.27306E+01 -1.12720E+01 +4.92975E+00 -1.13422E+01
 -2.01167E+00 -7.15587E+00 -6.05939E+00 -3.65206E-01 -6.62371E+00 +6.49325E+00 -4.62476E+00 +1.10902E+01
 -1.89984E+00 +1.22138E+01 -2.54271E-01 +1.01201E+01 -6.05345E-01 +6.21210E+00 -2.60950E+00 +2.24735E+00
 -4.92590E+00 -5.24701E-01 -5.96705E+00 -1.88251E+00 -4.75957E+00 -2.57793E+00 -1.49075E+00 -3.76232E+00
 +2.53058E+00 -6.20223E+00 +5.48848E+00 -9.69576E+00 +5.96064E+00 -1.30038E+01 +3.67214E+00 -1.43596E+01
 -2.72955E-01 -1.23333E+01 -3.81985E+00 -6.64400E+00 -4.88122E+00 +1.48759E+00 -2.33841E+00 +9.65206E+00
 +3.33654E+00 +1.51378E+01 +1.01439E+01 +1.60266E+01 +1.53105E+01 +1.20235E+01 +1.64304E+01 +4.64412E+00
 +1.25069E+01 -3.34457E+00 +4.44078E+00 -9.00958E+00 -5.25627E+00 -1.04123E+01 -1.34134E+01 -7.35461E+00
 -1.74210E+01 -1.40076E+00 -1.62120E+01 +4.82521E+00 -1.06020E+01 +8.75353E+00 -2.86757E+00 +8.91291E+00
 +4.23259E+00 +5.46486E+00 +8.55805E+00 +2.16788E-02 +9.34136E+00 -5.13966E+00 +7.30089E+00 -8.09528E+00
 +4.11179E+00 -8.06405E+00 +1.51969E+00 -5.63039E+00 +5.25509E-01 -2.33120E+00 +1.01378E+00 +1.68532E-01
 +1.97097E+00 +9.04745E-01 +2.15328E+00 +5.16631E-02 +8.50384E-01 -1.23373E+00 -1.64862E+00 -1.47400E+00
 -4.13143E+00 +2.90064E-01 -5.05700E+00 +3.90203E+00 -3.38515E+00 +8.04028E+00 +7.68998E-01 +1.07648E+01
 +5.99855E+00 +1.04225E+01 +1.00949E+01 +6.49349E+00 +1.09782E+01 -2.75910E-02 +7.66477E+00 -6.92138E+00
 +8.26960E-01 -1.16072E+01 -7.33323E+00 -1.22191E+01 -1.38806E+01 -8.42473E+00 -1.62986E+01 -1.61936E+00
 -1.35153E+01 +5.60522E+00 -6.36701E+00 +1.05006E+01 +2.70532E+00 +1.12708E+01 +1.06026E+01 +7.77993E+00
 +1.47634E+01 +1.56154E+00 +1.41117E+01 -4.86104E+00 +9.37610E+00 -9.04018E+00 +2.67232E+00 -9.59041E+00
 -3.43996E+00 -6.67875E+00 -7.00189E+00 -1.83075E+00 -7.35431E+00 +2.82997E+00 -5.21697E+00 +5.54575E+00
 -2.16309E+00 +5.65361E+00 +2.26242E-01 +3.76401E+00 +1.11379E+00 +1.33759E+00 +7.15428E-01 -1.12408E-01
 +4.37069E-02 +2.02361E-01 +2.39763E-01 +1.96261E+00 +1.84582E+00 +3.93257E+00 +4.39737E+00 +4.62611E+00
 +6.55750E+00 +3.11920E+00 +6.74990E+00 -3.93920E-01 +3.99724E+00 -4.58647E+00 -1.44353E+00 -7.55706E+00
 -7.98002E+00 -7.71613E+00 -1.32115E+01 -4.59124E+00 -1.48878E+01 +8.36185E-01 -1.18927E+01 +6.44669E+00
 -4.81408E+00 +9.84062E+00 +4.17269E+00 +9.37544E+00 +1.20869E+01 +4.92594E+00 +1.62790E+01 -1.97934E+00
 +1.54509E+01 -8.72493E+00 +1.01354E+01 -1.26510E+01 +2.43920E+00 -1.21336E+01 -4.83306E+00 -7.24445E+00
 -9.29459E+00 +2.86142E-01 -9.86184E+00 +7.78205E+00 -7.05214E+00 +1.26974E+01 -2.60137E+00 +1.35971E+01
 +1.39306E+00 +1.06355E+01 +3.40153E+00 +5.35590E+00 +3.05048E+00 -6.67285E-02 +1.13016E+00 -3.78025E+00
 -9.41202E-01 -4.98008E+00 -1.90995E+00 -4.09985E+00 -1.34048E+00 -2.42101E+00 +1.87305E-01 -1.32237E+00
 +1.42601E+00 -1.54808E+00 +1.17556E+00 -2.84900E+00 -9.95477E-01 -4.16197E+00 -4.39218E+00 -4.22665E+00
 -7.40113E+00 -2.32518E+00 -8.19688E+00 +1.23321E+00 -5.63550E+00 +5.14058E+00 +8.17045E-02 +7.64443E+00
 +7.30493E+00 +7.38233E+00 +1.34808E+01 +4.10493E+00 +1.61423E+01 -1.07083E+00 +1.39321E+01 -6.03138E+00
 +7.21768E+00 -8.52854E+00 -1.97670E+00 -7.16954E+00 -1.07088E+01 -2.09561E+00 -1.62270E+01 +4.96830E+00
 -1.69919E+01 +1.13421E+01 -1.31946E+01 +1.44502E+01 -6.57485E+00 +1.28708E+01 +3.58812E-01 +6.93211E+00
 +5.35346E+00 -1.39934E+00 +7.24169E+00 -9.29023E+00 +6.24196E+00 -1.41453E+01 +3.64359E+00 -1.45832E+01
 +1.06627E+00 -1.08855E+01 -3.37123E-01 -4.75722E+00 -3.61653E-01 +1.46512E+00 +2.89431E-01 +5.79133E+00
 +5.13273E-01 +7.31375E+00 -4.92538E-01 +6.40328E+00 -2.70347E+00 +4.32356E+00 -5.19097E+00 +2.48642E+00
 -6.54752E+00 +1.72397E+00 -5.61622E+00 +1.92623E+00 -2.16804E+00 +2.20415E+00 +2.81990E+00 +1.47777E+00
 +7.45436E+00 -8.19110E-01 +9.68891E+00 -4.28492E+00 +8.23459E+00 -7.59578E+00 +3.20630E+00 -9.05838E+00
 -3.80615E+00 -7.42872E+00 -1.03063E+01 -2.61317E+00 -1.38782E+01 +4.09565E+00 -1.31784E+01 +1.03964E+01
 -8.50468E+00 +1.38423E+01 -1.68982E+00 +1.28364E+01 +4.64385E+00 +7.33214E+00 +8.15520E+00 -1.07222E+00
 +7.72698E+00 -9.70028E+00 +3.88277E+00 -1.57985E+01 -1.49000E+00 -1.75586E+01 -5.97893E+00 -1.47435E+01
 -7.67645E+00 -8.67300E+00 -5.95544E+00 -1.60314E+00 -1.66747E+00 +4.21150E+00 +3.29955E+00 +7.36278E+00
 +6.88635E+00 +7.69212E+00 +7.75399E+00 +6.11790E+00 +5.80968E+00 +4.01723E+00 +2.15090E+00 +2.48635E+00
 -1.51909E+00 +1.84078E+00 -3.71488E+00 +1.58227E+00 -3.84376E+00 +8.22079E-01 -2.42482E+00 -1.07785E+00
 -7.65324E-01 -3.99371E+00 -2.62192E-01 -6.94473E+00 -1.66893E+00 -8.49543E+00 -4.67953E+00 -7.48504E+00
 -8.02811E+00 -3.73535E+00 -1.00587E+01 +1.62888E+00 -9.49830E+00 +6.45430E+00 -6.06977E+00 +8.36845E+00
 -6.56906E-01 +5.80859E+00 +5.05899E+00 -1.17218E+00 +9.32361E+00 -1.06978E+01 +1.10597E+01 -1.96002E+01
 +1.02946E+01 -2.45196E+01 +8.06713E+00 -2.31578E+01 +5.86086E+00 -1.51900E+01 +4.83419E+00 -2.46953E+00
 +5.21708E+00 +1.15629E+01 +6.17142E+00 +2.30342E+01 +6.19710E+00 +2.89137E+01 +3.90782E+00 +2.79317E+01
 -1.18098E+00 +2.08244E+01 -8.23047E+00 +9.87626E+00 -1.52461E+01 -2.00044E+00 -1.97955E+01 -1.22454E+01
 -1.99857E+01 -1.93144E+01 -1.52781E+01 -2.28276E+01 -6.78203E+00 -2.32515E+01 +3.11807E+00 -2.13568E+01
 +1.16546E+01 -1.77628E+01 +1.67176E+01 -1.27848E+01 +1.76069E+01 -6.61270E+00 +1.51830E+01 +3.42264E-01
 +1.13679E+01 +7.19141E+00 +8.22606E+00 +1.26156E+01 +7.03726E+00 +1.52608E+01 +7.76691E+00 +1.43285E+01
 +9.15855E+00 +1.00707E+01 +9.39344E+00 +3.90916E+00 +7.01139E+00 -1.95323E+00 +1.67405E+00 -5.32672E+00
 -5.57302E+00 -4.92692E+00 -1.26575E+01 -9.79070E-01 -1.72992E+01 +4.75814E+00 -1.79319E+01 +9.60813E+00
 -1.43284E+01 +1.10156E+01 -7.66670E+00 +7.59828E+00 -2.29982E-02 -2.23317E-01 +6.47237E+00 -1.02933E+01
 +1.04441E+01 -1.94735E+01 +1.17034E+01 -2.47892E+01 +1.11402E+01 -2.45089E+01 +1.01612E+01 -1.87303E+01
 +9.95541E+00 -9.25231E+00 +1.09308E+01 +1.18707E+00 +1.25702E+01 +9.96974E+00 +1.37457E+01 +1.55054E+01
 +1.33187E+01 +1.76270E+01 +1.07220E+01 +1.73493E+01 +6.24599E+00 +1.61496E+01 +9.00889E-01 +1.51317E+01
 -4.05766E+00 +1.44693E+01 -7.69263E+00 +1.33808E+01 -9.74933E+00 +1.06319E+01 -1.06359E+01 +5.31510E+00
 -1.10351E+01 -2.47467E+00 -1.13582E+01 -1.14038E+01 -1.13434E+01 -1.92380E+01 -1.00464E+01 -2.36302E+01
 -6.28150E+00 -2.30281E+01 +6.57672E-01 -1.73141E+01 +1.03382E+01 -7.90419E+00 +2.09390E+01 +2.73668E+00
 +2.96128E+01 +1.19566E+01 +3.33949E+01 +1.78009E+01 +3.03350E+01 +1.95681E+01 +2.03992E+01 +1.78457E+01
