 Created: 19-Jan-2021
 $NMID
 ID='D:\BASISSIMULATI'
 FMTDAT='(8E13.5)'
 VOLUME=   1.00000E+00
 TRAMP=   1.00000E+00
 $END
 +2.97718E+01 +1.27564E-01 +2.45927E+01 +1.51772E+01 +1.15766E+01 +2.39344E+01 -3.70080E+00 +2.29511E+01
 -1.47446E+01 +1.29790E+01 -1.69408E+01 -1.37540E+00 -9.53400E+00 -1.36538E+01 +4.06494E+00 -1.83387E+01
 +1.77684E+01 -1.32286E+01 +2.54481E+01 -3.74934E-01 +2.35776E+01 +1.48181E+01 +1.27430E+01 +2.59339E+01
 -2.62456E+00 +2.83097E+01 -1.61710E+01 +2.10358E+01 -2.23608E+01 +7.32933E+00 -1.88531E+01 -6.87034E+00
 -7.49109E+00 -1.54719E+01 +6.51507E+00 -1.48551E+01 +1.68515E+01 -5.41660E+00 +1.88281E+01 +8.62198E+00
 +1.13926E+01 +2.10523E+01 -2.43154E+00 +2.63645E+01 -1.68652E+01 +2.21181E+01 -2.58735E+01 +9.97924E+00
 -2.57630E+01 -5.01494E+00 -1.67576E+01 -1.66398E+01 -2.87997E+00 -2.01658E+01 +9.80162E+00 -1.43826E+01
 +1.57972E+01 -2.09803E+00 +1.25550E+01 +1.10969E+01 +1.54326E+00 +1.92532E+01 -1.24056E+01 +1.86296E+01
 -2.31949E+01 +9.29378E+00 -2.60964E+01 -4.92671E+00 -1.97786E+01 -1.81105E+01 -6.86136E+00 -2.48006E+01
 +7.23306E+00 -2.23476E+01 +1.66280E+01 -1.20302E+01 +1.75213E+01 +1.52064E+00 +9.80531E+00 +1.23373E+01
 -2.91266E+00 +1.56924E+01 -1.48896E+01 +1.01258E+01 -2.07343E+01 -1.94756E+00 -1.77280E+01 -1.53023E+01
 -6.97923E+00 -2.41690E+01 +7.07573E+00 -2.47209E+01 +1.86005E+01 -1.67075E+01 +2.28763E+01 -3.53917E+00
 +1.83212E+01 +9.20318E+00 +7.14619E+00 +1.61823E+01 -5.62408E+00 +1.45963E+01 -1.43349E+01 +5.36361E+00
 -1.51394E+01 -7.30119E+00 -7.64154E+00 -1.77266E+01 +4.95833E+00 -2.12366E+01 +1.72654E+01 -1.61571E+01
 +2.40265E+01 -4.51601E+00 +2.23880E+01 +8.85396E+00 +1.31045E+01 +1.84119E+01 +1.87474E-01 +2.02941E+01
 -1.08445E+01 +1.39594E+01 -1.53488E+01 +2.39323E+00 -1.15464E+01 -9.20600E+00 -1.26252E+00 -1.56820E+01
 +1.08897E+01 -1.41387E+01 +1.95170E+01 -5.16867E+00 +2.07730E+01 +7.42952E+00 +1.40011E+01 +1.83094E+01
 +1.99204E+00 +2.28872E+01 -1.02423E+01 +1.93045E+01 -1.76398E+01 +9.20374E+00 -1.72615E+01 -3.00861E+00
 -9.53341E+00 -1.20794E+01 +1.96837E+00 -1.41734E+01 +1.20853E+01 -8.50800E+00 +1.63093E+01 +2.33914E+00
 +1.27162E+01 +1.35696E+01 +2.77042E+00 +2.02481E+01 -9.33399E+00 +1.94256E+01 -1.84996E+01 +1.13899E+01
 -2.09227E+01 -4.87071E-01 -1.57142E+01 -1.12250E+01 -5.25244E+00 -1.63883E+01 +5.87046E+00 -1.39836E+01
 +1.28434E+01 -5.29006E+00 +1.27047E+01 +5.72484E+00 +5.59578E+00 +1.41385E+01 -5.33190E+00 +1.61993E+01
 -1.53016E+01 +1.09276E+01 -1.99804E+01 +5.10288E-01 -1.73367E+01 -1.06703E+01 -8.48908E+00 -1.79392E+01
 +2.80518E+00 -1.83378E+01 +1.17906E+01 -1.18750E+01 +1.47638E+01 -1.48985E+00 +1.06509E+01 +8.24288E+00
 +1.43677E+00 +1.30952E+01 -8.72200E+00 +1.09977E+01 -1.53083E+01 +2.90374E+00 -1.53894E+01 -7.65415E+00
 -8.85930E+00 -1.61102E+01 +1.54654E+00 -1.88374E+01 +1.14565E+01 -1.46942E+01 +1.67568E+01 -5.48537E+00
 +1.53518E+01 +4.84582E+00 +8.03841E+00 +1.19345E+01 -1.87263E+00 +1.28710E+01 -1.00087E+01 +7.42981E+00
 -1.28253E+01 -1.86789E+00 -9.11747E+00 -1.08718E+01 -5.07289E-01 -1.56049E+01 +9.28711E+00 -1.39694E+01
 +1.60734E+01 -6.62356E+00 +1.69894E+01 +3.33437E+00 +1.17136E+01 +1.17253E+01 +2.56971E+00 +1.50943E+01
 -6.50400E+00 +1.21812E+01 -1.16648E+01 +4.43015E+00 -1.08111E+01 -4.66750E+00 -4.45852E+00 -1.10994E+01
 +4.51822E+00 -1.20608E+01 +1.21520E+01 -7.14088E+00 +1.51009E+01 +1.53419E+00 +1.20726E+01 +1.02481E+01
 +4.35091E+00 +1.53101E+01 -4.79099E+00 +1.46361E+01 -1.15211E+01 +8.61808E+00 -1.30975E+01 -7.99807E-02
 -9.02599E+00 -7.69785E+00 -1.23658E+00 -1.10063E+01 +6.78170E+00 -8.68206E+00 +1.15007E+01 -1.84502E+00
 +1.08663E+01 +6.46056E+00 +5.15613E+00 +1.26011E+01 -3.17556E+00 +1.39205E+01 -1.05834E+01 +9.86315E+00
 -1.39664E+01 +2.17871E+00 -1.19883E+01 -5.86365E+00 -5.62007E+00 -1.08992E+01 +2.31430E+00 -1.09089E+01
 +8.37833E+00 -6.05985E+00 +1.00046E+01 +1.40442E+00 +6.57875E+00 +8.16142E+00 -3.32091E-01 +1.12517E+01
 -7.68874E+00 +9.33998E+00 -1.23075E+01 +3.25895E+00 -1.22258E+01 -4.38565E+00 -7.52057E+00 -1.03613E+01
 -2.38277E-01 -1.22029E+01 +6.51602E+00 -9.25207E+00 +9.92617E+00 -2.90504E+00 +8.66308E+00 +4.02434E+00
 +3.42375E+00 +8.53546E+00 -3.40709E+00 +8.72791E+00 -8.81084E+00 +4.59267E+00 -1.04393E+01 -2.02180E+00
 -7.60585E+00 -8.23735E+00 -1.54627E+00 -1.13978E+01 +5.14854E+00 -1.01999E+01 +9.66722E+00 -5.22315E+00
 +1.01835E+01 +1.35768E+00 +6.61481E+00 +6.73472E+00 +6.19799E-01 +8.67993E+00 -5.14896E+00 +6.48361E+00
 -8.20021E+00 +1.22338E+00 -7.26480E+00 -4.73682E+00 -2.81019E+00 -8.78611E+00 +3.19887E+00 -9.18803E+00
 +8.17402E+00 -5.80231E+00 +1.00230E+01 -1.07974E-01 +8.03102E+00 +5.46589E+00 +3.13292E+00 +8.59906E+00
 -2.52580E+00 +8.06704E+00 -6.53402E+00 +4.23583E+00 -7.24982E+00 -1.13455E+00 -4.48093E+00 -5.67677E+00
 +4.71155E-01 -7.44182E+00 +5.40571E+00 -5.71963E+00 +8.18553E+00 -1.30919E+00 +7.64684E+00 +3.86236E+00
 +4.06944E+00 +7.59183E+00 -9.81912E-01 +8.34640E+00 -5.35967E+00 +5.89798E+00 -7.26440E+00 +1.38331E+00
 -6.00063E+00 -3.21946E+00 -2.24021E+00 -5.95768E+00 +2.30492E+00 -5.73464E+00 +5.64338E+00 -2.75029E+00
 +6.36094E+00 +1.62399E+00 +4.20472E+00 +5.46586E+00 +1.54190E-01 +7.13783E+00 -4.03488E+00 +5.97497E+00
 -6.60238E+00 +2.53630E+00 -6.53217E+00 -1.67323E+00 -3.95881E+00 -4.87406E+00 -7.06301E-02 -5.77730E+00
 +3.43203E+00 -4.11473E+00 +5.07736E+00 -7.15908E-01 +4.23871E+00 +2.88442E+00 +1.36919E+00 +5.12447E+00
 -2.23153E+00 +5.07967E+00 -5.00156E+00 +2.83087E+00 -5.78991E+00 -6.09126E-01 -4.32844E+00 -3.76206E+00
 -1.30985E+00 -5.32973E+00 +1.94557E+00 -4.73652E+00 +4.07567E+00 -2.34243E+00 +4.25489E+00 +7.50065E-01
 +2.51963E+00 +3.19586E+00 -2.86534E-01 +3.98753E+00 -2.90760E+00 +2.86595E+00 -4.22628E+00 +3.94261E-01
 -3.72993E+00 -2.32028E+00 -1.69735E+00 -4.12149E+00 +9.59105E-01 -4.29536E+00 +3.11179E+00 -2.84851E+00
 +3.90497E+00 -4.66862E-01 +3.10070E+00 +1.81096E+00 +1.14389E+00 +3.05136E+00 -1.06513E+00 +2.81288E+00
 -2.57732E+00 +1.30228E+00 -2.79755E+00 -7.52828E-01 -1.71245E+00 -2.44370E+00 +1.42309E-01 -3.07477E+00
 +1.94457E+00 -2.44174E+00 +2.95125E+00 -8.82972E-01 +2.80453E+00 +9.01867E-01 +1.65293E+00 +2.17241E+00
 +4.94111E-02 +2.46090E+00 -1.31308E+00 +1.74572E+00 -1.90340E+00 +4.22359E-01 -1.55984E+00 -8.99132E-01
 -5.23270E-01 -1.66910E+00 +7.02763E-01 -1.62205E+00 +1.58916E+00 -8.58566E-01 +1.80490E+00 +2.35934E-01
 +1.33280E+00 +1.18409E+00 +4.39237E-01 +1.62652E+00 -4.72647E-01 +1.45653E+00 -1.04923E+00 +8.30388E-01
 -1.12636E+00 +6.41432E-02 -7.68104E-01 -5.22964E-01 -2.01335E-01 -7.42257E-01 +3.09339E-01 -5.90557E-01
 +5.80724E-01 -2.13986E-01 +5.70786E-01 +1.87570E-01 +3.61631E-01 +4.60180E-01 +8.82804E-02 +5.51055E-01
 -1.40567E-01 +5.00369E-01 -2.86595E-01 +3.86708E-01 -3.73046E-01 +2.65836E-01 -4.37842E-01 +1.40990E-01
 -4.84817E-01 -2.00436E-02 -4.68080E-01 -2.36429E-01 -3.22267E-01 -4.70190E-01 -2.10904E-02 -6.20946E-01
 +3.74167E-01 -5.71009E-01 +7.13122E-01 -2.60489E-01 +8.14349E-01 +2.50556E-01 +5.60803E-01 +7.75467E-01
 -1.61210E-02 +1.06672E+00 -7.14720E-01 +9.31985E-01 -1.22810E+00 +3.46393E-01 -1.27758E+00 -5.00239E-01
 -7.56444E-01 -1.25728E+00 +1.88263E-01 -1.55718E+00 +1.18649E+00 -1.19032E+00 +1.78932E+00 -2.28526E-01
 +1.67085E+00 +9.70526E-01 +7.97116E-01 +1.89497E+00 -5.23181E-01 +2.09939E+00 -1.74355E+00 +1.41913E+00
 -2.30717E+00 +7.61516E-02 -1.90219E+00 -1.38434E+00 -6.28214E-01 -2.31322E+00 +1.01180E+00 -2.24491E+00
 +2.30582E+00 -1.12566E+00 +2.63903E+00 +6.27639E-01 +1.78053E+00 +2.27878E+00 +1.72885E-02 +3.08078E+00
 -1.93714E+00 +2.61216E+00 -3.23366E+00 +9.89792E-01 -3.26005E+00 -1.14691E+00 -1.93115E+00 -2.88871E+00
 +2.39678E-01 -3.44689E+00 +2.33378E+00 -2.51362E+00 +3.41394E+00 -4.28000E-01 +2.94193E+00 +1.93819E+00
 +1.04092E+00 +3.53971E+00 -1.52344E+00 +3.61422E+00 -3.64983E+00 +2.03656E+00 -4.37360E+00 -5.92804E-01
 -3.30196E+00 -3.17826E+00 -8.15833E-01 -4.59105E+00 +2.06261E+00 -4.16793E+00 +4.09344E+00 -2.02611E+00
 +4.35816E+00 +9.53992E-01 +2.67994E+00 +3.48533E+00 -2.66738E-01 +4.42621E+00 -3.21895E+00 +3.29101E+00
 -4.85938E+00 +4.91467E-01 -4.39572E+00 -2.80930E+00 -1.93076E+00 -5.18059E+00 +1.54878E+00 -5.54456E+00
 +4.57404E+00 -3.66412E+00 +5.82311E+00 -2.77709E-01 +4.70785E+00 +3.19118E+00 +1.65786E+00 +5.23659E+00
 -2.03421E+00 +4.92963E+00 -4.75252E+00 +2.34604E+00 -5.25795E+00 -1.43438E+00 -3.24488E+00 -4.77010E+00
 +4.94903E-01 -6.16134E+00 +4.38571E+00 -4.91303E+00 +6.73540E+00 -1.46454E+00 +6.47405E+00 +2.76910E+00
 +3.64108E+00 +5.98894E+00 -6.00397E-01 +6.78943E+00 -4.44188E+00 +4.78510E+00 -6.20413E+00 +8.07235E-01
 -5.07630E+00 -3.42769E+00 -1.49416E+00 -6.04653E+00 +3.01807E+00 -5.83589E+00 +6.48696E+00 -2.79072E+00
 +7.34222E+00 +1.85240E+00 +5.11397E+00 +6.12485E+00 +6.65579E-01 +8.16868E+00 -4.15135E+00 +7.05128E+00
 -7.28258E+00 +3.19479E+00 -7.36392E+00 -1.77705E+00 -4.33274E+00 -5.72106E+00 +5.15675E-01 -6.89937E+00
 +5.06423E+00 -4.74778E+00 +7.28115E+00 -1.47954E-01 +6.10961E+00 +4.92630E+00 +1.95047E+00 +8.24756E+00
 -3.48155E+00 +8.30186E+00 -7.87847E+00 +4.96439E+00 -9.33344E+00 -4.17508E-01 -7.18018E+00 -5.58222E+00
 -2.30758E+00 -8.32187E+00 +3.19805E+00 -7.44576E+00 +6.94016E+00 -3.31861E+00 +7.25129E+00 +2.26963E+00
 +3.93384E+00 +6.85810E+00 -1.62651E+00 +8.37593E+00 -7.03590E+00 +6.05258E+00 -9.91724E+00 +7.77537E-01
 -8.94625E+00 -5.25717E+00 -4.44672E+00 -9.48845E+00 +1.72199E+00 -1.00914E+01 +6.94840E+00 -6.78579E+00
 +8.99310E+00 -9.83257E-01 +6.96945E+00 +4.80013E+00 +1.75097E+00 +8.02184E+00 -4.38124E+00 +7.21977E+00
 -8.70982E+00 +2.66616E+00 -9.25761E+00 -3.72339E+00 -5.66025E+00 -9.19787E+00 +6.49943E-01 -1.13549E+01
 +7.03927E+00 -9.19078E+00 +1.07995E+01 -3.55812E+00 +1.03240E+01 +3.17816E+00 +5.82111E+00 +8.14708E+00
 -7.51288E-01 +9.21266E+00 -6.51337E+00 +5.91255E+00 -8.90356E+00 -3.18167E-01 -6.79726E+00 -6.74554E+00
 -1.01582E+00 -1.05083E+01 +6.00381E+00 -9.86052E+00 +1.12464E+01 -4.94616E+00 +1.24208E+01 +2.23816E+00
 +8.96431E+00 +8.68589E+00 +2.30903E+00 +1.16730E+01 -4.71561E+00 +9.94379E+00 -9.09463E+00 +4.27363E+00
