 Created: 19-Jan-2021
 $NMID
 ID='D:\BASISSIMULATI'
 FMTDAT='(8E13.5)'
 VOLUME=   1.00000E+00
 TRAMP=   1.00000E+00
 $END
 +4.23138E+01 +4.79306E-01 +4.13815E+01 +9.21090E+00 +3.85677E+01 +1.75503E+01 +3.40050E+01 +2.50810E+01
 +2.79198E+01 +3.14274E+01 +2.06197E+01 +3.62767E+01 +1.24770E+01 +3.93960E+01 +3.90707E+00 +4.06456E+01
 -4.65455E+00 +3.99866E+01 -1.27768E+01 +3.74822E+01 -2.00575E+01 +3.32937E+01 -2.61449E+01 +2.76701E+01
 -3.07576E+01 +2.09336E+01 -3.36987E+01 +1.34597E+01 -3.48658E+01 +5.65592E+00 -3.42546E+01 -2.06190E+00
 -3.19573E+01 -9.29323E+00 -2.81553E+01 -1.56749E+01 -2.31067E+01 -2.09004E+01 -1.71297E+01 -2.47360E+01
 -1.05832E+01 -2.70315E+01 -3.84509E+00 -2.77260E+01 +2.70910E+00 -2.68491E+01 +8.72760E+00 -2.45156E+01
 +1.39011E+01 -2.09163E+01 +1.79786E+01 -1.63048E+01 +2.07792E+01 -1.09806E+01 +2.21995E+01 -5.27070E+00
 +2.22160E+01 +4.89623E-01 +2.08834E+01 +5.97583E+00 +1.83277E+01 +1.08915E+01 +1.47366E+01 +1.49836E+01
 +1.03460E+01 +1.80538E+01 +5.42508E+00 +1.99672E+01 +2.60220E-01 +2.06564E+01 -4.86138E+00 +2.01212E+01
 -9.66682E+00 +1.84259E+01 -1.39111E+01 +1.56920E+01 -1.73882E+01 +1.20889E+01 -1.99398E+01 +7.82269E+00
 -2.14600E+01 +3.12341E+00 -2.18979E+01 -1.76763E+00 -2.12568E+01 -6.61039E+00 -1.95905E+01 -1.11775E+01
 -1.69975E+01 -1.52644E+01 -1.36140E+01 -1.86967E+01 -9.60500E+00 -2.13370E+01 -5.15523E+00 -2.30874E+01
 -4.60023E-01 -2.38919E+01 +4.28351E+00 -2.37354E+01 +8.88444E+00 -2.26418E+01 +1.31650E+01 -2.06705E+01
 +1.69664E+01 -1.79119E+01 +2.01533E+01 -1.44821E+01 +2.26171E+01 -1.05175E+01 +2.42779E+01 -6.16934E+00
 +2.50860E+01 -1.59776E+00 +2.50219E+01 +3.03326E+00 +2.40955E+01 +7.56103E+00 +2.23456E+01 +1.18289E+01
 +1.98375E+01 +1.56906E+01 +1.66612E+01 +1.90145E+01 +1.29287E+01 +2.16871E+01 +8.77053E+00 +2.36168E+01
 +4.33240E+00 +2.47366E+01 -2.29331E-01 +2.50071E+01 -4.75232E+00 +2.44181E+01 -9.07354E+00 +2.29902E+01
 -1.30350E+01 +2.07747E+01 -1.64896E+01 +1.78534E+01 -1.93073E+01 +1.43365E+01 -2.13807E+01 +1.03592E+01
 -2.26307E+01 +6.07750E+00 -2.30103E+01 +1.66251E+00 -2.25087E+01 -2.70649E+00 -2.11523E+01 -6.84963E+00
 -1.90058E+01 -1.05946E+01 -1.61695E+01 -1.37848E+01 -1.27764E+01 -1.62874E+01 -8.98653E+00 -1.80008E+01
 -4.97973E+00 -1.88596E+01 -9.47192E-01 -1.88397E+01 +2.91802E+00 -1.79602E+01 +6.43089E+00 -1.62831E+01
 +9.42432E+00 -1.39110E+01 +1.17583E+01 -1.09825E+01 +1.33278E+01 -7.66484E+00 +1.40690E+01 -4.14575E+00
 +1.39632E+01 -6.22959E-01 +1.30383E+01 +2.70654E+00 +1.13677E+01 +5.65753E+00 +9.06618E+00 +8.06710E+00
 +6.28417E+00 +9.80405E+00 +3.19879E+00 +1.07766E+01 +3.98442E-03 +1.09376E+01 -3.10071E+00 +1.02879E+01
 -5.92175E+00 +8.87577E+00 -8.28291E+00 +6.79461E+00 -1.00356E+01 +4.17736E+00 -1.10676E+01 +1.18868E+00
 -1.13097E+01 -1.98468E+00 -1.07395E+01 -5.14492E+00 -9.38292E+00 -8.09481E+00 -7.31245E+00 -1.06493E+01
 -4.64272E+00 -1.26462E+01 -1.52365E+00 -1.39557E+01 +1.86839E+00 -1.44880E+01 +5.34105E+00 -1.41976E+01
 +8.69721E+00 -1.30864E+01 +1.17463E+01 -1.12029E+01 +1.43154E+01 -8.63870E+00 +1.62585E+01 -5.52341E+00
 +1.74648E+01 -2.01637E+00 +1.78643E+01 +1.70249E+00 +1.74313E+01 +5.44315E+00 +1.61847E+01 +9.01623E+00
 +1.41865E+01 +1.22434E+01 +1.15372E+01 +1.49672E+01 +8.36962E+00 +1.70587E+01 +4.84072E+00 +1.84243E+01
 +1.12251E+00 +1.90095E+01 -2.60764E+00 +1.88008E+01 -6.17664E+00 +1.78252E+01 -9.42477E+00 +1.61469E+01
 -1.22136E+01 +1.38633E+01 -1.44325E+01 +1.10979E+01 -1.60032E+01 +7.99314E+00 -1.68824E+01 +4.70186E+00
 -1.70626E+01 +1.37915E+00 -1.65706E+01 -1.82593E+00 -1.54643E+01 -4.77770E+00 -1.38282E+01 -7.36010E+00
 -1.17675E+01 -9.48151E+00 -9.40153E+00 -1.10780E+01 -6.85694E+00 -1.21151E+01 -4.26077E+00 -1.25872E+01
 -1.73400E+00 -1.25167E+01 +6.14120E-01 -1.19505E+01 +2.69077E+00 -1.09563E+01 +4.42310E+00 -9.61764E+00
 +5.76042E+00 -8.02877E+00 +6.67527E+00 -6.28911E+00 +7.16305E+00 -4.49806E+00 +7.24068E+00 -2.75005E+00
 +6.94429E+00 -1.13029E+00 +6.32605E+00 +2.88734E-01 +5.45063E+00 +1.44994E+00 +4.39120E+00 +2.31332E+00
 +3.22537E+00 +2.85677E+00 +2.03127E+00 +3.07604E+00 +8.83829E-01 +2.98381E+00 -1.48554E-01 +2.60818E+00
 -1.00682E+00 +1.99059E+00 -1.64349E+00 +1.18322E+00 -2.02436E+00 +2.46201E-01 -2.12949E+00 -7.55402E-01
 -1.95365E+00 -1.75467E+00 -1.50614E+00 -2.68582E+00 -8.10088E-01 -3.48711E+00 +9.87737E-02 -4.10344E+00
 +1.17378E+00 -4.48871E+00 +2.35939E+00 -4.60781E+00 +3.59359E+00 -4.43816E+00 +4.81049E+00 -3.97079E+00
 +5.94321E+00 -3.21095E+00 +6.92668E+00 -2.17811E+00 +7.70064E+00 -9.05449E-01 +8.21234E+00 +5.61241E-01
 +8.41911E+00 +2.16519E+00 +8.29065E+00 +3.84082E+00 +7.81073E+00 +5.51635E+00 +6.97854E+00 +7.11682E+00
 +5.80921E+00 +8.56733E+00 +4.33386E+00 +9.79644E+00 +2.59873E+00 +1.07396E+01 +6.63682E-01 +1.13424E+01
 -1.40003E+00 +1.15633E+01 -3.51264E+00 +1.13763E+01 -5.58922E+00 +1.07727E+01 -7.54351E+00 +9.76181E+00
 -9.29189E+00 +8.37144E+00 -1.07574E+01 +6.64708E+00 -1.18735E+01 +4.65030E+00 -1.25877E+01 +2.45629E+00
 -1.28641E+01 +1.50601E-01 -1.26860E+01 -2.17462E+00 -1.20564E+01 -4.42495E+00 -1.09988E+01 -6.50815E+00
 -9.55625E+00 -8.33865E+00 -7.78943E+00 -9.84176E+00 -5.77399E+00 -1.09575E+01 -3.59701E+00 -1.16435E+01
 -1.35276E+00 -1.18773E+01 +8.61852E-01 -1.16577E+01 +2.95209E+00 -1.10045E+01 +4.83012E+00 -9.95783E+00
 +6.41935E+00 -8.57602E+00 +7.65827E+00 -6.93256E+00 +8.50347E+00 -5.11234E+00 +8.93175E+00 -3.20724E+00
 +8.94109E+00 -1.31137E+00 +8.55059E+00 +4.83807E-01 +7.79926E+00 +2.09418E+00 +6.74372E+00 +3.44731E+00
 +5.45501E+00 +4.48610E+00 +4.01467E+00 +5.17160E+00 +2.51024E+00 +5.48487E+00 +1.03049E+00 +5.42768E+00
 -3.39359E-01 +5.02220E+00 -1.52222E+00 +4.30949E+00 -2.45323E+00 +3.34706E+00 -3.08315E+00 +2.20552E+00
 -3.38087E+00 +9.64582E-01 -3.33498E+00 -2.91425E-01 -2.95422E+00 -1.47823E+00 -2.26680E+00 -2.51626E+00
 -1.31879E+00 -3.33502E+00 -1.71451E-01 -3.87691E+00 +1.10217E+00 -4.10035E+00 +2.42127E+00 -3.98203E+00
 +3.70172E+00 -3.51821E+00 +4.86063E+00 -2.72486E+00 +5.82088E+00 -1.63688E+00 +6.51522E+00 -3.06292E-01
 +6.88999E+00 +1.20054E+00 +6.90794E+00 +2.80633E+00 +6.55039E+00 +4.42689E+00 +5.81821E+00 +5.97550E+00
 +4.73197E+00 +7.36741E+00 +3.33099E+00 +8.52420E+00 +1.67144E+00 +9.37783E+00 -1.76410E-01 +9.87417E+00
 -2.13159E+00 +9.97578E+00 -4.10646E+00 +9.66391E+00 -6.01094E+00 +8.93947E+00 -7.75701E+00 +7.82316E+00
 -9.26294E+00 +6.35444E+00 -1.04573E+01 +4.58977E+00 -1.12823E+01 +2.59986E+00 -1.16970E+01 +4.66365E-01
 -1.16785E+01 -1.72206E+00 -1.12237E+01 -3.87392E+00 -1.03492E+01 -5.89919E+00 -9.09018E+00 -7.71359E+00
 -7.49904E+00 -9.24244E+00 -5.64260E+00 -1.04241E+01 -3.59901E+00 -1.12127E+01 -1.45394E+00 -1.15803E+01
 +7.03389E-01 -1.15176E+01 +2.78444E+00 -1.10346E+01 +4.70541E+00 -1.01598E+01 +6.39102E+00 -8.93806E+00
 +7.77789E+00 -7.42912E+00 +8.81722E+00 -5.70397E+00 +9.47679E+00 -3.84155E+00 +9.74212E+00 -1.92495E+00
 +9.61674E+00 -3.74550E-02 +9.12165E+00 +1.74132E+00 +8.29391E+00 +3.33904E+00 +7.18454E+00 +4.69382E+00
 +5.85579E+00 +5.75686E+00 +4.37793E+00 +6.49434E+00 +2.82580E+00 +6.88865E+00 +1.27514E+00 +6.93872E+00
 -2.00915E-01 +6.65965E+00 -1.53522E+00 +6.08156E+00 -2.66958E+00 +5.24774E+00 -3.55721E+00 +4.21232E+00
 -4.16463E+00 +3.03741E+00 -4.47288E+00 +1.79003E+00 -4.47802E+00 +5.38883E-01 -4.19096E+00 -6.48889E-01
 -3.63662E+00 -1.71075E+00 -2.85251E+00 -2.59155E+00 -1.88676E+00 -3.24589E+00 -7.95794E-01 -3.64004E+00
 +3.58389E-01 -3.75325E+00 +1.51100E+00 -3.57857E+00 +2.59737E+00 -3.12302E+00 +3.55582E+00 -2.40719E+00
 +4.33031E+00 -1.46431E+00 +4.87291E+00 -3.38841E-01 +5.14584E+00 +9.15381E-01 +5.12324E+00 +2.23738E+00
 +4.79235E+00 +3.56150E+00 +4.15432E+00 +4.82012E+00 +3.22442E+00 +5.94643E+00 +2.03176E+00 +6.87723E+00
 +6.18490E-01 +7.55571E+00 -9.61509E-01 +7.93400E+00 -2.64447E+00 +7.97550E+00 -4.35898E+00 +7.65690E+00
 -6.02867E+00 +6.96972E+00 -7.57518E+00 +5.92142E+00 -8.92140E+00 +4.53584E+00 -9.99488E+00 +2.85309E+00
 -1.07312E+01 +9.28706E-01 -1.10771E+01 -1.16789E+00 -1.09940E+01 -3.35563E+00 -1.04599E+01 -5.54470E+00
 -9.47178E+00 -7.64004E+00 -8.04708E+00 -9.54538E+00 -6.22379E+00 -1.11675E+01 -4.06020E+00 -1.24209E+01
 -1.63334E+00 -1.32322E+01 +9.63436E-01 -1.35441E+01 +3.62401E+00 -1.33197E+01 +6.23377E+00 -1.25449E+01
 +8.67476E+00 -1.12308E+01 +1.08312E+01 -9.41442E+00 +1.25954E+01 -7.15828E+00 +1.38735E+01 -4.54889E+00
 +1.45910E+01 -1.69350E+00 +1.46976E+01 +1.28421E+00 +1.41705E+01 +4.24963E+00 +1.30177E+01 +7.06364E+00
 +1.12782E+01 +9.58955E+00 +9.02195E+00 +1.17004E+01 +6.34708E+00 +1.32859E+01 +3.37615E+00 +1.42591E+01
 +2.50426E-01 +1.45618E+01 -2.87686E+00 +1.41690E+01 -5.84838E+00 +1.30909E+01 -8.51106E+00 +1.13740E+01
 -1.07246E+01 +9.09973E+00 -1.23694E+01 +6.38090E+00 -1.33538E+01 +3.35650E+00 -1.36203E+01 +1.84756E-01
 -1.31489E+01 -2.96511E+00 -1.19597E+01 -5.92208E+00 -1.01129E+01 -8.52283E+00 -7.70572E+00 -1.06211E+01
 -4.86819E+00 -1.20965E+01 -1.75626E+00 -1.28613E+01 +1.45648E+00 -1.28666E+01 +4.58842E+00 -1.21058E+01
 +7.46013E+00 -1.06151E+01 +9.90464E+00 -8.47272E+00 +1.17772E+01 -5.79478E+00 +1.29638E+01 -2.72913E+00
 +1.33883E+01 +5.52685E-01 +1.30169E+01 +3.86500E+00 +1.18607E+01 +7.01854E+00 +9.97536E+00 +9.83127E+00
 +7.45848E+00 +1.21388E+01 +4.44397E+00 +1.38041E+01 +1.09474E+00 +1.47252E+01 -2.40653E+00 +1.48412E+01
 -5.86770E+00 +1.41361E+01 -9.09813E+00 +1.26393E+01 -1.19194E+01 +1.04242E+01 -1.41755E+01 +7.60383E+00
 -1.57413E+01 +4.32442E+00 -1.65294E+01 +7.56862E-01 -1.64951E+01 -2.91295E+00 -1.56377E+01 -6.49461E+00
 -1.40010E+01 -9.80381E+00 -1.16692E+01 -1.26724E+01 -8.76244E+00 -1.49574E+01 -5.42928E+00 -1.65482E+01
 -1.83791E+00 -1.73721E+01 +1.83321E+00 -1.73971E+01 +5.40528E+00 -1.66328E+01 +8.70873E+00 -1.51285E+01
 +1.15919E+01 -1.29694E+01 +1.39283E+01 -1.02710E+01 +1.56227E+01 -7.17147E+00 +1.66142E+01 -3.82426E+00
 +1.68784E+01 -3.88922E-01 +1.64267E+01 +2.97706E+00 +1.53039E+01 +6.12623E+00 +1.35844E+01 +8.92799E+00
 +1.13665E+01 +1.12741E+01 +8.76615E+00 +1.30828E+01 +5.91059E+00 +1.43007E+01 +2.93104E+00 +1.49039E+01
