 Created: 19-Jan-2021
 $NMID
 ID='D:\BASISSIMULATI'
 FMTDAT='(8E13.5)'
 VOLUME=   1.00000E+00
 TRAMP=   1.00000E+00
 $END
 +5.17749E+01 +6.73632E-01 +4.54873E+01 +1.35567E+01 +2.87343E+01 +2.40002E+01 +6.28696E+00 +2.99760E+01
 -1.55524E+01 +3.01597E+01 -3.08446E+01 +2.42566E+01 -3.57465E+01 +1.32194E+01 -2.95454E+01 -7.57691E-01
 -1.47042E+01 -1.45615E+01 +4.05304E+00 -2.48065E+01 +2.12763E+01 -2.86919E+01 +3.24319E+01 -2.48429E+01
 +3.51356E+01 -1.38586E+01 +2.96293E+01 +1.66373E+00 +1.84208E+01 +1.77140E+01 +5.28253E+00 +2.99525E+01
 -6.01086E+00 +3.49897E+01 -1.27827E+01 +3.14612E+01 -1.40694E+01 +2.05275E+01 -1.06254E+01 +5.59293E+00
 -4.40786E+00 -8.70965E+00 +2.21420E+00 -1.79671E+01 +7.22821E+00 -1.94038E+01 +9.48602E+00 -1.27938E+01
 +8.84448E+00 -5.45104E-01 +5.97710E+00 +1.30902E+01 +1.99867E+00 +2.34332E+01 -1.92615E+00 +2.69509E+01
 -4.86269E+00 +2.24545E+01 -6.23030E+00 +1.15104E+01 -5.80664E+00 -2.08097E+00 -3.68760E+00 -1.35684E+01
 -2.64537E-01 -1.88608E+01 +3.77166E+00 -1.59203E+01 +7.44697E+00 -5.46784E+00 +9.61319E+00 +9.23687E+00
 +9.19524E+00 +2.34594E+01 +5.55126E+00 +3.25382E+01 -1.16305E+00 +3.33958E+01 -9.78658E+00 +2.55186E+01
 -1.82485E+01 +1.10968E+01 -2.40262E+01 -5.69790E+00 -2.48862E+01 -2.00344E+01 -1.96959E+01 -2.79020E+01
 -9.01655E+00 -2.72728E+01 +4.77929E+00 -1.86051E+01 +1.79923E+01 -4.57334E+00 +2.66032E+01 +1.08328E+01
 +2.75237E+01 +2.35157E+01 +1.96895E+01 +3.03952E+01 +4.60420E+00 +3.01295E+01 -1.39021E+01 +2.32762E+01
 -3.06899E+01 +1.19244E+01 -4.08214E+01 -1.01473E+00 -4.11022E+01 -1.26054E+01 -3.11474E+01 -2.05456E+01
 -1.36042E+01 -2.35517E+01 +6.57459E+00 -2.14485E+01 +2.35993E+01 -1.50337E+01 +3.25991E+01 -5.81739E+00
 +3.11051E+01 +4.27698E+00 +1.97870E+01 +1.32118E+01 +2.20924E+00 +1.91364E+01 -1.63080E+01 +2.06979E+01
 -3.03466E+01 +1.73444E+01 -3.60334E+01 +9.55248E+00 -3.21479E+01 -1.12063E+00 -2.03665E+01 -1.22503E+01
 -4.60170E+00 -2.10487E+01 +1.03108E+01 -2.50798E+01 +2.01303E+01 -2.30021E+01 +2.24449E+01 -1.50962E+01
 +1.72558E+01 -3.36190E+00 +6.77784E+00 +8.91785E+00 -5.41695E+00 +1.80746E+01 -1.55882E+01 +2.11699E+01
 -2.09485E+01 +1.69781E+01 -2.03789E+01 +6.49243E+00 -1.45668E+01 -7.25598E+00 -5.59505E+00 -2.00598E+01
 +3.81928E+00 -2.78349E+01 +1.11578E+01 -2.79486E+01 +1.47493E+01 -2.01341E+01 +1.40795E+01 -6.66405E+00
 +9.74035E+00 +8.30340E+00 +3.11262E+00 +2.00203E+01 -4.06946E+00 +2.46732E+01 -1.01311E+01 +2.06369E+01
 -1.37619E+01 +9.03683E+00 -1.41938E+01 -6.57604E+00 -1.12796E+01 -2.13402E+01 -5.50501E+00 -3.06280E+01
 +2.05272E+00 -3.15152E+01 +9.84515E+00 -2.36983E+01 +1.60852E+01 -9.56739E+00 +1.91051E+01 +6.57636E+00
 +1.77951E+01 +1.98908E+01 +1.20120E+01 +2.64979E+01 +2.80816E+00 +2.46421E+01 -7.65417E+00 +1.51478E+01
 -1.65554E+01 +1.06433E+00 -2.11680E+01 -1.33516E+01 -1.97046E+01 -2.39619E+01 -1.19947E+01 -2.79531E+01
 +2.68219E-01 -2.45631E+01 +1.38513E+01 -1.51456E+01 +2.48417E+01 -2.61274E+00 +2.98109E+01 +9.51761E+00
 +2.69281E+01 +1.81460E+01 +1.66462E+01 +2.13810E+01 +1.70200E+00 +1.88991E+01 -1.36163E+01 +1.18364E+01
 -2.47380E+01 +2.31732E+00 -2.82259E+01 -7.18980E+00 -2.28858E+01 -1.44885E+01 -1.01960E+01 -1.80966E+01
 +6.10104E+00 -1.74544E+01 +2.11314E+01 -1.29156E+01 +3.03930E+01 -5.58471E+00 +3.11504E+01 +2.93247E+00
 +2.32715E+01 +1.08204E+01 +9.24305E+00 +1.63654E+01 -6.63612E+00 +1.82740E+01 -1.96129E+01 +1.59675E+01
 -2.59486E+01 +9.79092E+00 -2.40308E+01 +1.05522E+00 -1.47877E+01 -8.15493E+00 -1.30115E+00 -1.54237E+01
 +1.22260E+01 -1.86257E+01 +2.17959E+01 -1.65703E+01 +2.48058E+01 -9.46571E+00 +2.07416E+01 +9.82870E-01
 +1.11943E+01 +1.19311E+01 -7.56928E-01 +2.01577E+01 -1.15578E+01 +2.30305E+01 -1.82470E+01 +1.93792E+01
 -1.92547E+01 +9.97583E+00 -1.47224E+01 -2.57167E+00 -6.30108E+00 -1.45284E+01 +3.44929E+00 -2.21532E+01
 +1.18397E+01 -2.28888E+01 +1.67681E+01 -1.62342E+01 +1.71877E+01 -3.99401E+00 +1.32459E+01 +1.02042E+01
 +6.11722E+00 +2.19986E+01 -2.37188E+00 +2.76511E+01 -1.02009E+01 +2.52439E+01 -1.55877E+01 +1.53208E+01
 -1.73259E+01 +7.57774E-01 -1.49953E+01 -1.41055E+01 -9.03761E+00 -2.48010E+01 -6.95086E-01 -2.81103E+01
 +8.19241E+00 -2.30476E+01 +1.55274E+01 -1.11420E+01 +1.94011E+01 +4.05860E+00 +1.85719E+01 +1.80928E+01
 +1.28634E+01 +2.69393E+01 +3.34945E+00 +2.81954E+01 -7.77395E+00 +2.17242E+01 -1.76571E+01 +9.59925E+00
 -2.35245E+01 -4.60176E+00 -2.34783E+01 -1.69034E+01 -1.71384E+01 -2.40840E+01 -5.89266E+00 -2.45286E+01
 +7.36536E+00 -1.85585E+01 +1.89848E+01 -8.18831E+00 +2.55986E+01 +3.56518E+00 +2.51511E+01 +1.35797E+01
 +1.75840E+01 +1.94567E+01 +4.94089E+00 +2.00659E+01 -9.17581E+00 +1.56954E+01 -2.06531E+01 +7.82543E+00
 -2.61080E+01 -1.35986E+00 -2.39333E+01 -9.56312E+00 -1.48102E+01 -1.49108E+01 -1.51633E+00 -1.63282E+01
 +1.19223E+01 -1.37034E+01 +2.14713E+01 -7.84214E+00 +2.43290E+01 -2.50688E-01 +1.97776E+01 +7.20181E+00
 +9.37668E+00 +1.26852E+01 -3.55403E+00 +1.48116E+01 -1.49901E+01 +1.29715E+01 -2.14552E+01 +7.52652E+00
 -2.10743E+01 -2.05380E-01 -1.41062E+01 -8.20641E+00 -2.80464E+00 -1.42329E+01 +9.32463E+00 -1.64130E+01
 +1.86195E+01 -1.38166E+01 +2.23610E+01 -6.82168E+00 +1.95439E+01 +2.86401E+00 +1.11043E+01 +1.25806E+01
 -4.32281E-01 +1.94261E+01 -1.17434E+01 +2.11146E+01 -1.96836E+01 +1.67274E+01 -2.21482E+01 +7.10724E+00
 -1.85924E+01 -5.26083E+00 -1.00912E+01 -1.68889E+01 +1.03481E+00 -2.42817E+01 +1.18885E+01 -2.49991E+01
 +1.97577E+01 -1.84542E+01 +2.27694E+01 -6.18183E+00 +2.02895E+01 +8.53088E+00 +1.30039E+01 +2.15632E+01
 +2.69509E+00 +2.91619E+01 -8.20538E+00 +2.90615E+01 -1.71772E+01 +2.11773E+01 -2.21660E+01 +7.65324E+00
 -2.20266E+01 -7.75442E+00 -1.67742E+01 -2.07718E+01 -7.59494E+00 -2.78466E+01 +3.39436E+00 -2.71583E+01
 +1.36024E+01 -1.91013E+01 +2.05537E+01 -6.10976E+00 +2.24905E+01 +8.10320E+00 +1.88413E+01 +1.96462E+01
 +1.04240E+01 +2.55529E+01 -6.96113E-01 +2.45647E+01 -1.16908E+01 +1.73842E+01 -1.96930E+01 +6.35657E+00
 -2.25771E+01 -5.29012E+00 -1.95753E+01 -1.43991E+01 -1.15379E+01 -1.87464E+01 -7.38395E-01 -1.75756E+01
 +9.74698E+00 -1.16843E+01 +1.69187E+01 -3.07797E+00 +1.87388E+01 +5.67247E+00 +1.47498E+01 +1.21677E+01
 +6.22975E+00 +1.48053E+01 -4.18021E+00 +1.31402E+01 -1.32717E+01 +7.91302E+00 -1.82514E+01 +7.72598E-01
 -1.76053E+01 -6.21068E+00 -1.15736E+01 -1.11028E+01 -2.08254E+00 -1.25970E+01 +7.84947E+00 -1.03277E+01
 +1.50503E+01 -4.94408E+00 +1.71832E+01 +2.06393E+00 +1.34793E+01 +8.74407E+00 +4.98403E+00 +1.31779E+01
 -5.75570E+00 +1.39821E+01 -1.54664E+01 +1.06964E+01 -2.11425E+01 +3.95581E+00 -2.09558E+01 -4.61160E+00
 -1.48057E+01 -1.27572E+01 -4.34981E+00 -1.81815E+01 +7.48400E+00 -1.91657E+01 +1.73510E+01 -1.50948E+01
 +2.24499E+01 -6.71769E+00 +2.13112E+01 +3.95670E+00 +1.41933E+01 +1.41303E+01 +2.98838E+00 +2.09491E+01
 -9.31831E+00 +2.23082E+01 -1.94712E+01 +1.74971E+01 -2.48144E+01 +7.48665E+00 -2.39760E+01 -5.25256E+00
 -1.71945E+01 -1.73737E+01 -6.22053E+00 -2.55608E+01 +6.16297E+00 -2.74670E+01 +1.68639E+01 -2.24095E+01
 +2.32579E+01 -1.16098E+01 +2.38280E+01 +2.10487E+00 +1.85158E+01 +1.50652E+01 +8.71133E+00 +2.37755E+01
 -3.10716E+00 +2.58903E+01 -1.39916E+01 +2.08703E+01 -2.12493E+01 +1.01275E+01 -2.31034E+01 -3.38006E+00
 -1.91290E+01 -1.59839E+01 -1.03592E+01 -2.43281E+01 +9.69679E-01 -2.62858E+01 +1.19774E+01 -2.15133E+01
 +1.98700E+01 -1.14955E+01 +2.26586E+01 +9.15605E-01 +1.96825E+01 +1.23238E+01 +1.17923E+01 +1.97305E+01
 +1.13536E+00 +2.13325E+01 -9.40929E+00 +1.69609E+01 -1.70033E+01 +8.05948E+00 -1.96214E+01 -2.77336E+00
 -1.66093E+01 -1.25320E+01 -8.86785E+00 -1.86275E+01 +1.39705E+00 -1.95628E+01 +1.12928E+01 -1.52881E+01
 +1.80565E+01 -7.15514E+00 +1.98364E+01 +2.49690E+00 +1.62141E+01 +1.10023E+01 +8.31508E+00 +1.60918E+01
 -1.52531E+00 +1.64878E+01 -1.04434E+01 +1.22202E+01 -1.58774E+01 +4.58824E+00 -1.63033E+01 -4.21384E+00
 -1.16649E+01 -1.17037E+01 -3.37319E+00 -1.57879E+01 +6.11770E+00 -1.53299E+01 +1.40319E+01 -1.04585E+01
 +1.80766E+01 -2.53320E+00 +1.70974E+01 +6.22631E+00 +1.13975E+01 +1.33505E+01 +2.63576E+00 +1.68067E+01
 -6.66112E+00 +1.55742E+01 -1.38263E+01 +9.94677E+00 -1.68109E+01 +1.47185E+00 -1.47588E+01 -7.46534E+00
 -8.24040E+00 -1.43029E+01 +9.13987E-01 -1.70278E+01 +1.01291E+01 -1.47605E+01 +1.68018E+01 -8.02885E+00
 +1.90220E+01 +1.35441E+00 +1.61010E+01 +1.07838E+01 +8.76534E+00 +1.75882E+01 -1.03396E+00 +1.97900E+01
 -1.06448E+01 +1.66770E+01 -1.74304E+01 +9.02349E+00 -1.94870E+01 -1.10910E+00 -1.61711E+01 -1.09370E+01
 -8.29254E+00 -1.77277E+01 +2.08127E+00 -1.95628E+01 +1.21652E+01 -1.58766E+01 +1.91996E+01 -7.61849E+00
 +2.12009E+01 +3.00447E+00 +1.75168E+01 +1.31307E+01 +9.02921E+00 +2.00244E+01 -2.05647E+00 +2.18164E+01
 -1.27896E+01 +1.80055E+01 -2.02681E+01 +9.58630E+00 -2.24345E+01 -1.22363E+00 -1.86526E+01 -1.15803E+01
 -9.90109E+00 -1.87687E+01 +1.47803E+00 -2.09166E+01 +1.24117E+01 -1.74797E+01 +1.99378E+01 -9.37635E+00
 +2.20217E+01 +1.26050E+00 +1.81189E+01 +1.16440E+01 +9.32234E+00 +1.90610E+01 -1.94637E+00 +2.15781E+01
 -1.26147E+01 +1.85450E+01 -1.98130E+01 +1.07648E+01 -2.16624E+01 +2.87228E-01 -1.77756E+01 -1.01254E+01
 -9.33484E+00 -1.77239E+01 +1.26712E+00 -2.05015E+01 +1.11128E+01 -1.77349E+01 +1.75721E+01 -1.01895E+01
 +1.90118E+01 +7.39832E-02 +1.52091E+01 +1.02472E+01 +7.36544E+00 +1.75360E+01 -2.26798E+00 +1.99315E+01
 -1.10347E+01 +1.67765E+01 -1.66016E+01 +8.96293E+00 -1.75725E+01 -1.30377E+00 -1.38261E+01 -1.11165E+01
 -6.50435E+00 -1.76886E+01 +2.33279E+00 -1.91524E+01 +1.02786E+01 -1.51034E+01 +1.52215E+01 -6.72576E+00
 +1.58900E+01 +3.54229E+00 +1.21667E+01 +1.27132E+01 +5.09842E+00 +1.81197E+01 -3.38929E+00 +1.81944E+01
 -1.09997E+01 +1.29283E+01 -1.56635E+01 +3.87065E+00 -1.60808E+01 -6.32870E+00 -1.20703E+01 -1.46997E+01
 -4.63623E+00 -1.88206E+01 +4.27141E+00 -1.75181E+01 +1.22509E+01 -1.11941E+01 +1.70795E+01 -1.68860E+00
 +1.73218E+01 +8.27154E+00 +1.27515E+01 +1.58693E+01 +4.46470E+00 +1.90006E+01 -5.36625E+00 +1.68521E+01
 -1.40499E+01 +1.00969E+01 -1.91072E+01 +6.64341E-01 -1.89805E+01 -8.82979E+00 -1.35166E+01 -1.58210E+01
