 Created: 19-Jan-2021
 $NMID
 ID='D:\BASISSIMULATI'
 FMTDAT='(8E13.5)'
 VOLUME=   1.00000E+00
 TRAMP=   1.00000E+00
 $END
 +8.03614E+01 +8.75280E-01 +7.22901E+01 +3.26687E+01 +5.02093E+01 +5.68314E+01 +1.95518E+01 +6.75544E+01
 -1.21109E+01 +6.24161E+01 -3.70052E+01 +4.29924E+01 -4.91408E+01 +1.44341E+01 -4.58247E+01 -1.58783E+01
 -2.83120E+01 -4.02454E+01 -1.42943E+00 -5.26232E+01 +2.77215E+01 -5.01434E+01 +5.16308E+01 -3.37892E+01
 +6.43211E+01 -8.05822E+00 +6.28520E+01 +2.02807E+01 +4.80013E+01 +4.39976E+01 +2.39589E+01 +5.72895E+01
 -2.86653E+00 +5.72482E+01 -2.55931E+01 +4.45292E+01 -3.86883E+01 +2.30610E+01 -3.93829E+01 -1.10365E+00
 -2.83092E+01 -2.14685E+01 -9.21254E+00 -3.28436E+01 +1.21645E+01 -3.26940E+01 +2.97023E+01 -2.17336E+01
 +3.85816E+01 -3.62379E+00 +3.65607E+01 +1.61197E+01 +2.45171E+01 +3.16977E+01 +6.12304E+00 +3.86358E+01
 -1.32382E+01 +3.49939E+01 -2.80034E+01 +2.18520E+01 -3.39801E+01 +2.95693E+00 -2.94941E+01 -1.63604E+01
 -1.58247E+01 -3.06876E+01 +3.17784E+00 -3.60364E+01 +2.21790E+01 -3.09393E+01 +3.58431E+01 -1.68445E+01
 +4.03058E+01 +2.29190E+00 +3.42348E+01 +2.10950E+01 +1.91957E+01 +3.42414E+01 -7.68714E-01 +3.79081E+01
 -2.02265E+01 +3.08116E+01 -3.38139E+01 +1.45610E+01 -3.76692E+01 -6.76326E+00 -3.04620E+01 -2.76863E+01
 -1.37488E+01 -4.27797E+01 +8.43307E+00 -4.80832E+01 +3.06182E+01 -4.21335E+01 +4.73303E+01 -2.63357E+01
 +5.44896E+01 -4.58791E+00 +5.04469E+01 +1.77334E+01 +3.63796E+01 +3.51558E+01 +1.59607E+01 +4.34993E+01
 -5.60446E+00 +4.09135E+01 -2.29134E+01 +2.83061E+01 -3.17267E+01 +9.06354E+00 -3.00055E+01 -1.18481E+01
 -1.83715E+01 -2.91598E+01 +1.14413E-01 -3.86217E+01 +2.07801E+01 -3.80337E+01 +3.85504E+01 -2.77330E+01
 +4.92205E+01 -1.04309E+01 +5.04708E+01 +9.53920E+00 +4.23752E+01 +2.73554E+01 +2.72924E+01 +3.89231E+01
 +9.18843E+00 +4.18640E+01 -7.41822E+00 +3.60364E+01 -1.86089E+01 +2.34733E+01 -2.20190E+01 +7.77505E+00
 -1.73600E+01 -6.86826E+00 -6.39414E+00 -1.67617E+01 +7.61031E+00 -1.96181E+01 +2.07839E+01 -1.50728E+01
 +2.96744E+01 -4.68320E+00 +3.21140E+01 +8.56316E+00 +2.77168E+01 +2.10886E+01 +1.78952E+01 +2.96806E+01
 +5.40753E+00 +3.23118E+01 -6.42551E+00 +2.86162E+01 -1.46196E+01 +1.99103E+01 -1.73009E+01 +8.77139E+00
 -1.41565E+01 -1.70089E+00 -6.45417E+00 -8.73403E+00 +3.35950E+00 -1.06144E+01 +1.23629E+01 -7.11119E+00
 +1.79680E+01 +5.11561E-01 +1.86147E+01 +9.88536E+00 +1.41688E+01 +1.82156E+01 +5.92371E+00 +2.30581E+01
 -3.78603E+00 +2.29823E+01 -1.22453E+01 +1.79455E+01 -1.71109E+01 +9.28215E+00 -1.70497E+01 -6.82006E-01
 -1.20927E+01 -9.27985E+00 -3.61179E+00 -1.42378E+01 +6.06776E+00 -1.42947E+01 +1.43115E+01 -9.53862E+00
 +1.88978E+01 -1.37351E+00 +1.86221E+01 +7.87267E+00 +1.36207E+01 +1.55879E+01 +5.32695E+00 +1.95894E+01
 -3.92286E+00 +1.87168E+01 -1.15279E+01 +1.31448E+01 -1.53295E+01 +4.33249E+00 -1.41950E+01 -5.37428E+00
 -8.32188E+00 -1.33790E+01 +8.18136E-01 -1.75352E+01 +1.08792E+01 -1.67230E+01 +1.92743E+01 -1.11459E+01
 +2.38702E+01 -2.27005E+00 +2.35561E+01 +7.57611E+00 +1.85334E+01 +1.58311E+01 +1.02509E+01 +2.03879E+01
 +1.00496E+00 +2.01537E+01 -6.68421E+00 +1.53317E+01 -1.07511E+01 +7.35256E+00 -1.01340E+01 -1.52503E+00
 -5.04721E+00 -8.83157E+00 +3.09342E+00 -1.25541E+01 +1.20687E+01 -1.16719E+01 +1.94666E+01 -6.41726E+00
 +2.33365E+01 +1.80670E+00 +2.27094E+01 +1.08251E+01 +1.78437E+01 +1.82943E+01 +1.01323E+01 +2.23419E+01
 +1.70125E+00 +2.20691E+01 -5.18686E+00 +1.77776E+01 -8.75857E+00 +1.08632E+01 -8.21086E+00 +3.40855E+00
 -3.91694E+00 -2.40935E+00 +2.69832E+00 -4.93029E+00 +9.57559E+00 -3.47077E+00 +1.46125E+01 +1.49476E+00
 +1.62628E+01 +8.48054E+00 +1.39746E+01 +1.54213E+01 +8.34555E+00 +2.02673E+01 +9.50406E-01 +2.15745E+01
 -6.11003E+00 +1.89239E+01 -1.08130E+01 +1.30493E+01 -1.17999E+01 +5.63735E+00 -8.77942E+00 -1.14790E+00
 -2.63040E+00 -5.28296E+00 +4.82780E+00 -5.47335E+00 +1.13377E+01 -1.54511E+00 +1.48414E+01 +5.47420E+00
 +1.40777E+01 +1.36137E+01 +8.96768E+00 +2.04906E+01 +6.79466E-01 +2.39729E+01 -8.65628E+00 +2.27898E+01
 -1.65072E+01 +1.69203E+01 -2.06288E+01 +7.64674E+00 -1.96949E+01 -2.75095E+00 -1.36958E+01 -1.15830E+01
 -3.98694E+00 -1.64679E+01 +7.02990E+00 -1.59864E+01 +1.65187E+01 -1.00945E+01 +2.19532E+01 -1.76996E-01
 +2.17973E+01 +1.12799E+01 +1.59370E+01 +2.13168E+01 +5.74466E+00 +2.72690E+01 -6.24784E+00 +2.74714E+01
 -1.69880E+01 +2.17128E+01 -2.36880E+01 +1.13161E+01 -2.45517E+01 -1.18191E+00 -1.92518E+01 -1.26723E+01
 -9.02836E+00 -2.02699E+01 +3.61892E+00 -2.20586E+01 +1.55681E+01 -1.75878E+01 +2.38754E+01 -7.99101E+00
 +2.65311E+01 +4.30641E+00 +2.29726E+01 +1.62145E+01 +1.42202E+01 +2.47768E+01 +2.60212E+00 +2.79304E+01
 -8.85944E+00 +2.50290E+01 -1.72383E+01 +1.69930E+01 -2.04619E+01 +6.04997E+00 -1.78385E+01 -4.86494E+00
 -1.02156E+01 -1.28868E+01 +2.67716E-01 -1.59712E+01 +1.07664E+01 -1.34188E+01 +1.84944E+01 -6.03634E+00
 +2.14636E+01 +4.10382E+00 +1.90005E+01 +1.42390E+01 +1.19043E+01 +2.16684E+01 +2.20779E+00 +2.44798E+01
 -7.39209E+00 +2.20546E+01 -1.42767E+01 +1.52177E+01 -1.66198E+01 +5.99427E+00 -1.38801E+01 -2.95886E+00
 -6.93905E+00 -9.08992E+00 +2.15154E+00 -1.06565E+01 +1.07421E+01 -7.20530E+00 +1.63212E+01 +3.03861E-01
 +1.72143E+01 +9.76247E+00 +1.30515E+01 +1.84952E+01 +4.87926E+00 +2.40001E+01 -5.11932E+00 +2.46444E+01
 -1.42181E+01 +2.01259E+01 -1.98965E+01 +1.15720E+01 -2.05375E+01 +1.24568E+00 -1.58859E+01 -8.06219E+00
 -7.13708E+00 -1.37925E+01 +3.36944E+00 -1.43229E+01 +1.27726E+01 -9.42513E+00 +1.84627E+01 -3.48175E-01
 +1.87951E+01 +1.04992E+01 +1.35515E+01 +2.01853E+01 +4.01986E+00 +2.60422E+01 -7.33164E+00 +2.63903E+01
 -1.75042E+01 +2.10061E+01 -2.37685E+01 +1.12015E+01 -2.44017E+01 -5.08158E-01 -1.91629E+01 -1.10643E+01
 -9.37484E+00 -1.76786E+01 +2.41191E+00 -1.85824E+01 +1.30885E+01 -1.35111E+01 +1.98131E+01 -3.79059E+00
 +2.07733E+01 +8.00136E+00 +1.56805E+01 +1.87118E+01 +5.86177E+00 +2.54494E+01 -6.07924E+00 +2.63599E+01
 -1.69454E+01 +2.11313E+01 -2.37943E+01 +1.10924E+01 -2.47260E+01 -1.12484E+00 -1.94015E+01 -1.22746E+01
 -9.14882E+00 -1.93553E+01 +3.37156E+00 -2.04120E+01 +1.48600E+01 -1.50676E+01 +2.22467E+01 -4.64065E+00
 +2.35078E+01 +8.18506E+00 +1.82126E+01 +2.00557E+01 +7.65495E+00 +2.78255E+01 -5.46967E+00 +2.93884E+01
 -1.77584E+01 +2.42419E+01 -2.59867E+01 +1.36351E+01 -2.79543E+01 +2.57752E-01 -2.30678E+01 -1.24500E+01
 -1.25082E+01 -2.11877E+01 +1.06490E+00 -2.36527E+01 +1.41936E+01 -1.91426E+01 +2.35125E+01 -8.74346E+00
 +2.66163E+01 +4.94533E+00 +2.26796E+01 +1.84777E+01 +1.26683E+01 +2.84459E+01 -9.12823E-01 +3.23533E+01
 -1.46669E+01 +2.92486E+01 -2.51787E+01 +1.99591E+01 -2.98861E+01 +6.86380E+00 -2.77242E+01 -6.73006E+00
 -1.93770E+01 -1.74428E+01 -7.07626E+00 -2.26854E+01 +5.99597E+00 -2.13070E+01 +1.65397E+01 -1.38603E+01
 +2.19853E+01 -2.42303E+00 +2.11357E+01 +9.97250E+00 +1.44398E+01 +2.01451E+01 +3.83064E+00 +2.55915E+01
 -7.81955E+00 +2.51162E+01 -1.74773E+01 +1.91040E+01 -2.27489E+01 +9.36857E+00 -2.24909E+01 -1.37209E+00
 -1.70733E+01 -1.02475E+01 -8.23021E+00 -1.50076E+01 +1.45123E+00 -1.46094E+01 +9.26110E+00 -9.46212E+00
 +1.31127E+01 -1.27259E+00 +1.21021E+01 +7.46247E+00 +6.73088E+00 +1.41710E+01 -1.26392E+00 +1.69293E+01
 -9.42150E+00 +1.49948E+01 -1.52659E+01 +9.00347E+00 -1.70140E+01 +7.78014E-01 -1.40855E+01 -7.19665E+00
 -7.27482E+00 -1.24855E+01 +1.46567E+00 -1.34042E+01 +9.57026E+00 -9.51411E+00 +1.45844E+01 -1.77062E+00
 +1.48684E+01 +7.71759E+00 +1.00853E+01 +1.62581E+01 +1.33404E+00 +2.13188E+01 -9.11376E+00 +2.12445E+01
 -1.84085E+01 +1.57471E+01 -2.38914E+01 +6.03300E+00 -2.38314E+01 -5.47679E+00 -1.79292E+01 -1.57636E+01
 -7.44702E+00 -2.20066E+01 +5.07743E+00 -2.23460E+01 +1.64656E+01 -1.64085E+01 +2.37182E+01 -5.45167E+00
 +2.48072E+01 +7.92012E+00 +1.92298E+01 +2.03985E+01 +8.17512E+00 +2.88114E+01 -5.74554E+00 +3.09428E+01
 -1.91413E+01 +2.61188E+01 -2.86940E+01 +1.54042E+01 -3.20024E+01 +1.35547E+00 -2.81995E+01 -1.26107E+01
 -1.81840E+01 -2.30729E+01 -4.40326E+00 -2.74668E+01 +9.75820E+00 -2.47314E+01 +2.08274E+01 -1.55754E+01
 +2.61141E+01 -2.29507E+00 +2.43799E+01 +1.18094E+01 +1.61384E+01 +2.32675E+01 +3.50829E+00 +2.93093E+01
 -1.03368E+01 +2.85515E+01 -2.19796E+01 +2.13241E+01 -2.86223E+01 +9.55952E+00 -2.87793E+01 -3.72364E+00
 -2.26257E+01 -1.52045E+01 -1.19165E+01 -2.21075E+01 +4.95863E-01 -2.28942E+01 +1.14164E+01 -1.76259E+01
 +1.81342E+01 -7.90619E+00 +1.91075E+01 +3.57170E+00 +1.43303E+01 +1.37508E+01 +5.29324E+00 +2.00145E+01
 -5.44676E+00 +2.08584E+01 -1.49661E+01 +1.62561E+01 -2.07565E+01 +7.62797E+00 -2.13807E+01 -2.57201E+00
 -1.68310E+01 -1.15359E+01 -8.50016E+00 -1.68634E+01 +1.22287E+00 -1.72014E+01 +9.61892E+00 -1.25919E+01
 +1.43844E+01 -4.43818E+00 +1.42560E+01 +4.89712E+00 +9.34568E+00 +1.27511E+01 +1.09938E+00 +1.68963E+01
 -8.10975E+00 +1.61534E+01 -1.56399E+01 +1.07145E+01 -1.93121E+01 +2.09088E+00 -1.80154E+01 -7.30268E+00
 -1.20203E+01 -1.48115E+01 -2.91465E+00 -1.82744E+01 +6.82306E+00 -1.66259E+01 +1.44975E+01 -1.02032E+01
 +1.79365E+01 -6.70662E-01 +1.60950E+01 +9.41857E+00 +9.35870E+00 +1.73097E+01 -5.39422E-01 +2.07965E+01
 -1.09706E+01 +1.88313E+01 -1.91106E+01 +1.18289E+01 -2.27031E+01 +1.57725E+00 -2.06787E+01 -9.22455E+00
 -1.34621E+01 -1.76805E+01 -2.88033E+00 -2.14743E+01 +8.30788E+00 -1.94997E+01 +1.71384E+01 -1.21738E+01
 +2.12317E+01 -1.34472E+00 +1.94346E+01 +1.01844E+01 +1.21407E+01 +1.93916E+01 +1.20104E+00 +2.38371E+01
 -1.05552E+01 +2.23169E+01 -2.00634E+01 +1.51904E+01 -2.48342E+01 +4.29523E+00 -2.36152E+01 -7.53196E+00
 -1.67270E+01 -1.72024E+01 -5.98236E+00 -2.21914E+01 +5.79105E+00 -2.12070E+01 +1.54982E+01 -1.45317E+01
 +2.05954E+01 -3.94649E+00 +1.97624E+01 +7.74260E+00 +1.32481E+01 +1.74504E+01 +2.79894E+00 +2.26305E+01
 -8.81067E+00 +2.19470E+01 -1.85199E+01 +1.56226E+01 -2.37951E+01 +5.36886E+00 -2.32996E+01 -6.07834E+00
 -1.72389E+01 -1.56947E+01 -7.29369E+00 -2.09751E+01 +3.84190E+00 -2.05965E+01 +1.31890E+01 -1.47601E+01
 +1.82834E+01 -5.12316E+00 +1.78302E+01 +5.66000E+00 +1.20398E+01 +1.46594E+01 +2.55614E+00 +1.94598E+01
