 Created: 19-Jan-2021
 $NMID
 ID='D:\BASISSIMULATI'
 FMTDAT='(8E13.5)'
 VOLUME=   1.00000E+00
 TRAMP=   1.00000E+00
 $END
 +5.95657E+01 +5.84793E-01 +5.28265E+01 -1.67745E+01 +3.46324E+01 -2.82930E+01 +9.87965E+00 -2.97766E+01
 -1.48224E+01 -2.00915E+01 -3.30287E+01 -1.54089E+00 -4.02771E+01 +2.07738E+01 -3.53215E+01 +4.04257E+01
 -2.04281E+01 +5.15396E+01 -6.52169E-01 +5.05255E+01 +1.76864E+01 +3.71619E+01 +2.88804E+01 +1.47096E+01
 +2.95157E+01 -1.09809E+01 +1.94623E+01 -3.31122E+01 +1.89028E+00 -4.58601E+01 -1.76917E+01 -4.60148E+01
 -3.30905E+01 -3.38717E+01 -3.92878E+01 -1.31161E+01 -3.39565E+01 +1.02611E+01 -1.81899E+01 +2.96977E+01
 +3.77413E+00 +3.99406E+01 +2.57543E+01 +3.85272E+01 +4.14047E+01 +2.64404E+01 +4.60531E+01 +7.75551E+00
 +3.80652E+01 -1.16111E+01 +1.93359E+01 -2.56794E+01 -5.23174E+00 -3.01847E+01 -2.91121E+01 -2.38384E+01
 -4.60027E+01 -8.70152E+00 -5.15983E+01 +1.04341E+01 -4.47808E+01 +2.74730E+01 -2.78877E+01 +3.68302E+01
 -5.98661E+00 +3.51012E+01 +1.46243E+01 +2.20964E+01 +2.82505E+01 +9.38509E-01 +3.14349E+01 -2.28062E+01
 +2.39178E+01 -4.27101E+01 +8.65207E+00 -5.33206E+01 -9.12420E+00 -5.17168E+01 -2.34765E+01 -3.83391E+01
 -2.95556E+01 -1.68521E+01 -2.50474E+01 +6.91260E+00 -1.08686E+01 +2.66256E+01 +9.09297E+00 +3.72540E+01
 +2.91137E+01 +3.64633E+01 +4.33104E+01 +2.52270E+01 +4.73655E+01 +7.47489E+00 +3.97988E+01 -1.11072E+01
 +2.24155E+01 -2.47679E+01 -1.97181E-01 -2.93761E+01 -2.19753E+01 -2.36105E+01 -3.71051E+01 -9.31203E+00
 -4.16705E+01 +9.09567E+00 -3.47454E+01 +2.59403E+01 -1.86209E+01 +3.59928E+01 +1.89056E+00 +3.60192E+01
 +2.08660E+01 +2.57410E+01 +3.29817E+01 +7.92475E+00 +3.50270E+01 -1.24187E+01 +2.67850E+01 -2.94892E+01
 +1.10352E+01 -3.83779E+01 -7.31322E+00 -3.64858E+01 -2.26945E+01 -2.42692E+01 -3.05304E+01 -5.10026E+00
 -2.85647E+01 +1.57100E+01 -1.75031E+01 +3.24385E+01 -7.78450E-01 +4.05812E+01 +1.64812E+01 +3.81170E+01
 +2.89731E+01 +2.60438E+01 +3.27819E+01 +8.04156E+00 +2.65272E+01 -1.06312E+01 +1.17661E+01 -2.46780E+01
 -7.46146E+00 -3.02915E+01 -2.58045E+01 -2.62259E+01 -3.81460E+01 -1.41088E+01 -4.10699E+01 +2.08571E+00
 -3.38261E+01 +1.72402E+01 -1.85202E+01 +2.66146E+01 +5.18873E-01 +2.72374E+01 +1.80021E+01 +1.87650E+01
 +2.92025E+01 +3.56432E+00 +3.12942E+01 -1.39960E+01 +2.41240E+01 -2.88324E+01 +1.02012E+01 -3.66308E+01
 -6.07966E+00 -3.50954E+01 -1.97493E+01 -2.46020E+01 -2.67180E+01 -8.07332E+00 -2.49526E+01 +9.88007E+00
 -1.50373E+01 +2.42964E+01 +3.50094E-02 +3.12854E+01 +1.57687E+01 +2.91249E+01 +2.74985E+01 +1.87200E+01
 +3.17546E+01 +3.29985E+00 +2.72651E+01 -1.25493E+01 +1.53070E+01 -2.42261E+01 -6.84848E-01 -2.84384E+01
 -1.61318E+01 -2.41281E+01 -2.66443E+01 -1.27347E+01 -2.92850E+01 +2.26746E+00 -2.33982E+01 +1.64141E+01
 -1.07699E+01 +2.55657E+01 +4.91659E+00 +2.71078E+01 +1.91644E+01 +2.06899E+01 +2.79649E+01 +8.29700E+00
 +2.89381E+01 -6.35890E+00 +2.19872E+01 -1.89394E+01 +9.28326E+00 -2.57478E+01 -5.40220E+00 -2.47946E+01
 -1.78153E+01 -1.63547E+01 -2.44574E+01 -2.86232E+00 -2.35823E+01 +1.18163E+01 -1.56698E+01 +2.35134E+01
 -3.24583E+00 +2.89613E+01 +9.88670E+00 +2.67162E+01 +1.97756E+01 +1.75437E+01 +2.34720E+01 +4.16120E+00
 +1.98749E+01 -9.57630E+00 +1.00269E+01 -1.98035E+01 -3.21486E+00 -2.37551E+01 -1.60288E+01 -2.05387E+01
 -2.47456E+01 -1.13527E+01 -2.69046E+01 +9.03097E-01 -2.19461E+01 +1.25019E+01 -1.13453E+01 +1.99873E+01
 +1.84224E+00 +2.11731E+01 +1.38820E+01 +1.57573E+01 +2.14423E+01 +5.37960E+00 +2.25407E+01 -6.88535E+00
 +1.70852E+01 -1.74422E+01 +6.86134E+00 -2.32260E+01 -5.02166E+00 -2.25837E+01 -1.50549E+01 -1.57336E+01
 -2.03515E+01 -4.67755E+00 -1.94681E+01 +7.40118E+00 -1.27937E+01 +1.70702E+01 -2.40027E+00 +2.16377E+01
 +8.59153E+00 +1.99120E+01 +1.69386E+01 +1.25166E+01 +2.02212E+01 +1.67728E+00 +1.75337E+01 -9.44701E+00
 +9.72483E+00 -1.76894E+01 -8.74304E-01 -2.07842E+01 -1.11473E+01 -1.79980E+01 -1.81056E+01 -1.03068E+01
 -1.97504E+01 -7.59550E-02 -1.56353E+01 +9.65466E+00 -6.97147E+00 +1.60659E+01 +3.74574E+00 +1.73730E+01
 +1.34739E+01 +1.33238E+01 +1.95050E+01 +5.24236E+00 +2.02341E+01 -4.38445E+00 +1.55968E+01 -1.26518E+01
 +7.05477E+00 -1.70894E+01 -2.85733E+00 -1.63748E+01 -1.12847E+01 -1.07013E+01 -1.58816E+01 -1.70173E+00
 -1.54757E+01 +8.04279E+00 -1.03801E+01 +1.57612E+01 -2.26834E+00 +1.92924E+01 +6.34211E+00 +1.76972E+01
 +1.28411E+01 +1.15064E+01 +1.52892E+01 +2.54286E+00 +1.29727E+01 -6.62536E+00 +6.59206E+00 -1.34357E+01
 -1.96343E+00 -1.60652E+01 -1.01830E+01 -1.39357E+01 -1.56729E+01 -7.85138E+00 -1.68491E+01 +2.67498E-01
 -1.33856E+01 +7.96620E+00 -6.29078E+00 +1.29803E+01 +2.40158E+00 +1.38900E+01 +1.02329E+01 +1.05159E+01
 +1.50320E+01 +3.94700E+00 +1.55314E+01 -3.80165E+00 +1.17126E+01 -1.03940E+01 +4.78457E+00 -1.38617E+01
 -3.19130E+00 -1.31742E+01 -9.91362E+00 -8.52746E+00 -1.35103E+01 -1.27184E+00 -1.30693E+01 +6.49388E+00
 -8.88020E+00 +1.25392E+01 -2.32176E+00 +1.51471E+01 +4.56477E+00 +1.36009E+01 +9.68706E+00 +8.37432E+00
 +1.15167E+01 +9.74959E-01 +9.52885E+00 -6.50701E+00 +4.34197E+00 -1.20097E+01 -2.47856E+00 -1.40897E+01
 -8.88985E+00 -1.23223E+01 -1.29735E+01 -7.39772E+00 -1.34931E+01 -8.93661E-01 -1.02464E+01 +5.20593E+00
 -4.11255E+00 +9.09964E+00 +3.21364E+00 +9.69248E+00 +9.71897E+00 +6.90335E+00 +1.36530E+01 +1.67010E+00
 +1.40230E+01 -4.34387E+00 +1.08620E+01 -9.25147E+00 +5.19524E+00 -1.15022E+01 -1.27860E+00 -1.03370E+01
 -6.69393E+00 -6.00597E+00 -9.56225E+00 +3.10470E-01 -9.19449E+00 +6.85059E+00 -5.88117E+00 +1.17851E+01
 -7.82363E-01 +1.37446E+01 +4.43527E+00 +1.22067E+01 +8.10377E+00 +7.63477E+00 +9.05145E+00 +1.32930E+00
 +6.94682E+00 -4.95764E+00 +2.39048E+00 -9.53124E+00 -3.26884E+00 -1.12356E+01 -8.33677E+00 -9.76961E+00
 -1.12740E+01 -5.74815E+00 -1.11480E+01 -4.96358E-01 -7.90428E+00 +4.35849E+00 -2.38052E+00 +7.37422E+00
 +3.93764E+00 +7.71608E+00 +9.34538E+00 +5.39155E+00 +1.24053E+01 +1.23161E+00 +1.23503E+01 -3.37216E+00
 +9.28795E+00 -6.89386E+00 +4.14988E+00 -8.13531E+00 -1.59403E+00 -6.58732E+00 -6.37002E+00 -2.58484E+00
 -8.95416E+00 +2.78793E+00 -8.81352E+00 +8.01255E+00 -6.23722E+00 +1.15777E+01 -2.22333E+00 +1.24171E+01
 +1.84058E+00 +1.02167E+01 +4.60556E+00 +5.50276E+00 +5.17009E+00 -5.11598E-01 +3.34867E+00 -6.27495E+00
 -2.77269E-01 -1.03377E+01 -4.53914E+00 -1.17556E+01 -8.03617E+00 -1.03401E+01 -9.55921E+00 -6.68786E+00
 -8.45784E+00 -1.98217E+00 -4.84266E+00 +2.36838E+00 +4.35924E-01 +5.14759E+00 +6.02523E+00 +5.68150E+00
 +1.04539E+01 +4.01921E+00 +1.25493E+01 +8.94596E-01 +1.17674E+01 -2.51590E+00 +8.34068E+00 -4.96459E+00
 +3.20373E+00 -5.52069E+00 -2.28010E+00 -3.85951E+00 -6.70836E+00 -3.67294E-01 -9.03189E+00 +3.96850E+00
 -8.83654E+00 +7.84999E+00 -6.43480E+00 +1.00541E+01 -2.74492E+00 +9.79850E+00 +1.00294E+00 +6.98000E+00
 +3.64358E+00 +2.21663E+00 +4.42431E+00 -3.31932E+00 +3.22076E+00 -8.22771E+00 +5.59178E-01 -1.12713E+01
 -2.55856E+00 -1.17178E+01 -4.97275E+00 -9.53532E+00 -5.73003E+00 -5.38663E+00 -4.38456E+00 -4.27446E-01
 -1.14651E+00 +4.03078E+00 +3.16636E+00 +6.89333E+00 +7.35980E+00 +7.58186E+00 +1.02085E+01 +6.17591E+00
 +1.08144E+01 +3.35849E+00 +8.87331E+00 +1.86054E-01 +4.77143E+00 -2.24572E+00 -5.15584E-01 -3.13928E+00
 -5.69120E+00 -2.23536E+00 -9.49619E+00 +1.14578E-01 -1.10528E+01 +3.06329E+00 -1.00968E+01 +5.53406E+00
 -7.03225E+00 +6.55772E+00 -2.79639E+00 +5.57910E+00 +1.42224E+00 +2.64120E+00 +4.52923E+00 -1.60801E+00
 +5.83094E+00 -6.08891E+00 +5.21471E+00 -9.59328E+00 +3.15250E+00 -1.11286E+01 +5.31106E-01 -1.02038E+01
 -1.63724E+00 -6.97308E+00 -2.53557E+00 -2.19741E+00 -1.79761E+00 +2.96507E+00 +3.77877E-01 +7.27812E+00
 +3.28706E+00 +9.76385E+00 +5.93650E+00 +9.96026E+00 +7.34907E+00 +8.02796E+00 +6.86869E+00 +4.67843E+00
 +4.37300E+00 +9.48474E-01 +3.30364E-01 -2.11050E+00 -4.31654E+00 -3.73604E+00 -8.40718E+00 -3.66287E+00
 -1.08856E+01 -2.17678E+00 -1.10959E+01 -1.90264E-03 -8.96526E+00 +1.94179E+00 -5.02327E+00 +2.83592E+00
 -2.52952E-01 +2.22598E+00 +4.18261E+00 +1.69850E-01 +7.25821E+00 -2.77168E+00 +8.35826E+00 -5.69910E+00
 +7.42568E+00 -7.64412E+00 +4.94852E+00 -7.86484E+00 +1.79228E+00 -6.07873E+00 -1.06971E+00 -2.56413E+00
 -2.84643E+00 +1.90027E+00 -3.15460E+00 +6.24111E+00 -2.11444E+00 +9.38211E+00 -2.90325E-01 +1.05383E+01
 +1.50279E+00 +9.42859E+00 +2.46702E+00 +6.34712E+00 +2.08157E+00 +2.07431E+00 +2.76845E-01 -2.34450E+00
 -2.52972E+00 -5.88797E+00 -5.54691E+00 -7.83191E+00 -7.83872E+00 -7.92943E+00 -8.60147E+00 -6.44913E+00
 -7.40761E+00 -4.06475E+00 -4.34431E+00 -1.63234E+00 -6.17492E-03 +7.63303E-02 +4.65635E+00 +6.04708E-01
 +8.58957E+00 -6.08855E-02 +1.09178E+01 -1.50272E+00 +1.11734E+01 -3.01618E+00 +9.41170E+00 -3.84193E+00
 +6.17966E+00 -3.41483E+00 +2.35039E+00 -1.55431E+00 -1.12659E+00 +1.46104E+00 -3.48651E+00 +4.95745E+00
 -4.34726E+00 +8.05003E+00 -3.78933E+00 +9.89333E+00 -2.29857E+00 +9.92535E+00 -5.92881E-01 +8.03407E+00
 +6.12671E-01 +4.59837E+00 +8.31095E-01 +3.91649E-01 -4.79557E-02 -3.62376E+00 -1.72923E+00 -6.55255E+00
 -3.60939E+00 -7.80002E+00 -4.97005E+00 -7.21803E+00 -5.20761E+00 -5.12426E+00 -4.03041E+00 -2.19267E+00
 -1.56422E+00 +7.50384E-01 +1.66569E+00 +2.96322E+00 +4.87121E+00 +3.99049E+00 +7.21724E+00 +3.77247E+00
 +8.05427E+00 +2.63337E+00 +7.10092E+00 +1.15631E+00 +4.52422E+00 -1.47715E-02 +8.95654E-01 -3.85079E-01
 -2.96359E+00 +2.32322E-01 -6.20287E+00 +1.65600E+00 -8.16495E+00 +3.39077E+00 -8.54888E+00 +4.78004E+00
 -7.46871E+00 +5.20956E+00 -5.39491E+00 +4.30157E+00 -2.99887E+00 +2.04153E+00 -9.48669E-01 -1.20017E+00
 +2.83478E-01 -4.75806E+00 +5.46453E-01 -7.84718E+00 +3.38099E-02 -9.77373E+00 -7.97977E-01 -1.01205E+01
 -1.38917E+00 -8.85513E+00 -1.26456E+00 -6.33077E+00 -1.92187E-01 -3.18220E+00 +1.73435E+00 -1.47601E-01
 +4.11423E+00 +2.13126E+00 +6.35217E+00 +3.27369E+00 +7.83175E+00 +3.24422E+00 +8.09773E+00 +2.33519E+00
 +6.99368E+00 +1.05658E+00 +4.71482E+00 -3.15928E-02 +1.76101E+00 -4.93084E-01 -1.19618E+00 -1.44279E-01
 -3.49349E+00 +8.98811E-01 -4.65144E+00 +2.26702E+00 -4.49584E+00 +3.46177E+00 -3.19207E+00 +4.01719E+00
