 Created: 19-Jan-2021
 $NMID
 ID='D:\BASISSIMULATI'
 FMTDAT='(8E13.5)'
 VOLUME=   1.00000E+00
 TRAMP=   1.00000E+00
 $END
 +1.01374E+02 +5.08664E-01 +9.75222E+01 +2.55958E+01 +8.70820E+01 +4.86494E+01 +7.08847E+01 +6.79301E+01
 +5.02149E+01 +8.20035E+01 +2.67043E+01 +8.98548E+01 +2.19969E+00 +9.09687E+01 -2.13871E+01 +8.53696E+01
 -4.22340E+01 +7.36157E+01 -5.87550E+01 +5.67519E+01 -6.97274E+01 +3.62215E+01 -7.43881E+01 +1.37469E+01
 -7.24923E+01 -8.81247E+00 -6.43292E+01 -2.96125E+01 -5.06942E+01 -4.69742E+01 -3.28198E+01 -5.95198E+01
 -1.22708E+01 -6.62825E+01 +9.18666E+00 -6.67824E+01 +2.97325E+01 -6.10614E+01 +4.76425E+01 -4.96752E+01
 +6.14300E+01 -3.36428E+01 +6.99666E+01 -1.43579E+01 +7.25726E+01 +6.52929E+00 +6.90692E+01 +2.72521E+01
 +5.97893E+01 +4.60747E+01 +4.55452E+01 +6.14366E+01 +2.75570E+01 +7.20817E+01 +7.34736E+00 +7.71603E+01
 -1.33887E+01 +7.62977E+01 -3.29270E+01 +6.96215E+01 -4.96594E+01 +5.77475E+01 -6.22285E+01 +4.17245E+01
 -6.96402E+01 +2.29428E+01 -7.13454E+01 +3.01475E+00 -6.72840E+01 -1.63628E+01 -5.78870E+01 -3.35527E+01
 -4.40381E+01 -4.71161E+01 -2.69963E+01 -5.59339E+01 -8.28770E+00 -5.93003E+01 +1.04255E+01 -5.69819E+01
 +2.74864E+01 -4.92365E+01 +4.13853E+01 -3.67900E+01 +5.08875E+01 -2.07740E+01 +5.51390E+01 -2.62960E+00
 +5.37393E+01 +1.60160E+01 +4.67761E+01 +3.34875E+01 +3.48183E+01 +4.82044E+01 +1.88692E+01 +5.88156E+01
 +2.82300E-01 +6.43149E+01 -1.93524E+01 +6.41278E+01 -3.83422E+01 +5.81617E+01 -5.50344E+01 +4.68160E+01
 -6.79559E+01 +3.09506E+01 -7.59385E+01 +1.18160E+01 -7.82184E+01 -9.05003E+00 -7.45026E+01 -2.99498E+01
 -6.49958E+01 -4.91669E+01 -5.03860E+01 -6.51094E+01 -3.17897E+01 -7.64429E+01 -1.06616E+01 -8.22032E+01
 +1.13251E+01 -8.18776E+01 +3.24157E+01 -7.54497E+01 +5.09187E+01 -6.34027E+01 +6.53459E+01 -4.66814E+01
 +7.45353E+01 -2.66166E+01 +7.77479E+01 -4.81582E+00 +7.47296E+01 +1.69670E+01 +6.57332E+01 +3.69757E+01
 +5.14987E+01 +5.35957E+01 +3.31930E+01 +6.54864E+01 +1.23155E+01 +7.16916E+01 -9.42462E+00 +7.17176E+01
 -3.02484E+01 +6.55740E+01 -4.84522E+01 +5.37730E+01 -6.25470E+01 +3.72870E+01 -7.13800E+01 +1.74693E+01
 -7.42283E+01 -4.05750E+00 -7.08577E+01 -2.55337E+01 -6.15405E+01 -4.52073E+01 -4.70328E+01 -6.14763E+01
 -2.85108E+01 -7.30199E+01 -7.47420E+00 -7.89055E+01 +1.43776E+01 -7.86634E+01 +3.52851E+01 -7.23239E+01
 +5.35730E+01 -6.04131E+01 +6.77867E+01 -4.39076E+01 +7.68105E+01 -2.41526E+01 +7.99572E+01 -2.75033E+00
 +7.70230E+01 +1.85731E+01 +6.83009E+01 +3.81095E+01 +5.45543E+01 +5.43090E+01 +3.69518E+01 +6.59065E+01
 +1.69681E+01 +7.20242E+01 -3.73877E+00 +7.22416E+01 -2.34659E+01 +6.66273E+01 -4.06064E+01 +5.57304E+01
 -5.37813E+01 +4.05319E+01 -6.19532E+01 +2.23609E+01 -6.45096E+01 +2.78186E+00 -6.13115E+01 -1.65366E+01
 -5.27020E+01 -3.39616E+01 -3.94752E+01 -4.80316E+01 -2.28068E+01 -5.75775E+01 -4.15429E+00 -6.18190E+01
 +1.48666E+01 -6.04276E+01 +3.26181E+01 -5.35523E+01 +4.75778E+01 -4.18048E+01 +5.84659E+01 -2.62060E+01
 +6.43516E+01 -8.09946E+00 +6.47307E+01 +1.09634E+01 +5.95658E+01 +2.93540E+01 +4.92890E+01 +4.55034E+01
 +3.47641E+01 +5.80348E+01 +1.72129E+01 +6.58784E+01 -1.88760E+00 +6.83609E+01 -2.09305E+01 +6.52620E+01
 -3.83135E+01 +5.68317E+01 -5.25741E+01 +4.37694E+01 -6.25121E+01 +2.71648E+01 -6.72903E+01 +8.40580E+00
 -6.65047E+01 -1.09375E+01 -6.02184E+01 -2.92451E+01 -4.89563E+01 -4.49823E+01 -3.36611E+01 -5.68289E+01
 -1.56146E+01 -6.37898E+01 +3.66923E+00 -6.52780E+01 +2.25714E+01 -6.11644E+01 +3.95026E+01 -5.17888E+01
 +5.30366E+01 -3.79317E+01 +6.20289E+01 -2.07494E+01 +6.57131E+01 -1.67810E+00 +6.37647E+01 +1.76861E+01
 +5.63289E+01 +3.57197E+01 +4.40086E+01 +5.09074E+01 +2.78150E+01 +6.19683E+01 +9.08339E+00 +6.79625E+01
 -1.06373E+01 +6.83699E+01 -2.97131E+01 +6.31335E+01 -4.65607E+01 +5.26644E+01 -5.97792E+01 +3.78087E+01
 -6.82657E+01 +1.97768E+01 -7.13077E+01 +4.36780E-02 -6.86418E+01 -1.97734E+01 -6.04760E+01 -3.80484E+01
 -4.74723E+01 -5.32818E+01 -3.06924E+01 -6.42237E+01 -1.15093E+01 -6.99783E+01 +8.50577E+00 -7.00770E+01
 +2.77135E+01 -6.45174E+01 +4.45420E+01 -5.37633E+01 +5.76165E+01 -3.87058E+01 +6.58729E+01 -2.05899E+01
 +6.86452E+01 -9.10801E-01 +6.57204E+01 +1.87096E+01 +5.73551E+01 +3.66568E+01 +4.42541E+01 +5.14569E+01
 +2.75113E+01 +6.18986E+01 +8.51871E+00 +6.71320E+01 -1.11486E+01 +6.67393E+01 -2.98636E+01 +6.07675E+01
 -4.60812E+01 +4.97245E+01 -5.84661E+01 +3.45358E+01 -6.60030E+01 +1.64672E+01 -6.80793E+01 -2.98037E+00
 -6.45354E+01 -2.21954E+01 -5.56765E+01 -3.95895E+01 -4.22470E+01 -5.37286E+01 -2.53671E+01 -6.34513E+01
 -6.44023E+00 -6.79644E+01 +1.29646E+01 -6.69074E+01 +3.12426E+01 -6.03819E+01 +4.68861E+01 -4.89414E+01
 +5.86090E+01 -3.35452E+01 +6.54534E+01 -1.54773E+01 +6.68672E+01 +3.76027E+00 +6.27495E+01 +2.25724E+01
 +5.34576E+01 +3.94033E+01 +3.97763E+01 +5.28654E+01 +2.28517E+01 +6.18537E+01 +4.09566E+00 +6.56364E+01
 -1.49322E+01 +6.39151E+01 -3.26540E+01 +5.68478E+01 -4.76043E+01 +4.50351E+01 -5.85513E+01 +2.94688E+01
 -6.45985E+01 +1.14491E+01 -6.52577E+01 -7.52454E+00 -6.04888E+01 -2.58780E+01 -5.07014E+01 -4.20932E+01
 -3.67199E+01 -5.48340E+01 -1.97135E+01 -6.30565E+01 -1.09862E+00 -6.60947E+01 +1.75798E+01 -6.37147E+01
 +3.47769E+01 -5.61328E+01 +4.90759E+01 -4.39962E+01 +5.93056E+01 -2.83278E+01 +6.46373E+01 -1.04400E+01
 +6.46519E+01 +8.17505E+00 +5.93742E+01 +2.59705E+01 +4.92689E+01 +4.14733E+01 +3.52009E+01 +5.34070E+01
 +1.83619E+01 +6.07970E+01 +1.70128E-01 +6.30513E+01 -1.78484E+01 +6.00082E+01 -3.41875E+01 +5.19491E+01
 -4.74869E+01 +3.95733E+01 -5.66444E+01 +2.39388E+01 -6.09082E+01 +6.37286E+00 -5.99384E+01 -1.16395E+01
 -5.38344E+01 -2.85800E+01 -4.31255E+01 -4.30240E+01 -2.87262E+01 -5.37597E+01 -1.18584E+01 -5.98888E+01
 +6.05093E+00 -6.09012E+01 +2.34898E+01 -5.67172E+01 +3.89879E+01 -4.76934E+01 +5.12395E+01 -3.45922E+01
 +5.92124E+01 -1.85179E+01 +6.22347E+01 -8.23371E-01 +6.00501E+01 +1.70030E+01 +5.28396E+01 +3.34620E+01
 +4.12059E+01 +4.71695E+01 +2.61229E+01 +5.69718E+01 +8.85424E+00 +6.20424E+01 -9.15246E+00 +6.19512E+01
 -2.63866E+01 +5.67005E+01 -4.14011E+01 +4.67249E+01 -5.29329E+01 +3.28555E+01 -6.00092E+01 +1.62504E+01
 -6.20285E+01 -1.70173E+00 -5.88115E+01 -1.94971E+01 -5.06161E+01 -3.56422E+01 -3.81168E+01 -4.87786E+01
 -2.23487E+01 -5.77961E+01 -4.62212E+00 -6.19253E+01 +1.35865E+01 -6.08024E+01 +3.07566E+01 -5.44999E+01
 +4.54503E+01 -4.35212E+01 +5.64311E+01 -2.87593E+01 +6.27676E+01 -1.14238E+01 +6.39104E+01 +7.05982E+00
 +5.97382E+01 +2.51669E+01 +5.05688E+01 +4.14001E+01 +3.71326E+01 +5.44131E+01 +2.05135E+01 +6.31219E+01
 +2.05899E+00 +6.67943E+01 -1.67300E+01 +6.51104E+01 -3.43232E+01 +5.81894E+01 -4.92863E+01 +4.65797E+01
 -6.03995E+01 +3.12137E+01 -6.67572E+01 +1.33313E+01 -6.78424E+01 -5.62211E+00 -6.35686E+01 -2.41147E+01
 -5.42865E+01 -4.06538E+01 -4.07549E+01 -5.39080E+01 -2.40770E+01 -6.28164E+01 -5.61011E+00 -6.66751E+01
 +1.31468E+01 -6.51933E+01 +3.06763E+01 -5.85168E+01 +4.55666E+01 -4.72145E+01 +5.66275E+01 -3.22299E+01
 +6.29866E+01 -1.48028E+01 +6.41603E+01 +3.63353E+00 +6.00913E+01 +2.15714E+01 +5.11518E+01 +3.75524E+01
 +3.81105E+01 +5.02872E+01 +2.20678E+01 +5.87609E+01 +4.36326E+00 +6.23151E+01 -1.35361E+01 +6.07003E+01
 -3.01573E+01 +5.40942E+01 -4.41435E+01 +4.30848E+01 -5.43649E+01 +2.86190E+01 -6.00115E+01 +1.19227E+01
 -6.06581E+01 -5.60258E+00 -5.62971E+01 -2.24972E+01 -4.73370E+01 -3.73649E+01 -3.45660E+01 -4.89883E+01
 -1.90838E+01 -5.64296E+01 -2.20861E+00 -5.91068E+01 +1.46346E+01 -5.68406E+01 +3.00335E+01 -4.98670E+01
 +4.27064E+01 -3.88155E+01 +5.16094E+01 -2.46540E+01 +5.60225E+01 -8.60654E+00 +5.56087E+01 +7.95121E+00
 +5.04405E+01 +2.36080E+01 +4.09925E+01 +3.70360E+01 +2.80998E+01 +4.71024E+01 +1.28863E+01 +5.29641E+01
 -3.33087E+00 +5.41383E+01 -1.91529E+01 +5.05422E+01 -3.32180E+01 +4.24992E+01 -4.43160E+01 +3.07112E+01
 -5.14908E+01 +1.61982E+01 -5.41210E+01 +2.12601E-01 -5.19723E+01 -1.58674E+01 -4.52175E+01 -3.06538E+01
 -3.44218E+01 -4.28666E+01 -2.04961E+01 -5.14416E+01 -4.62011E+00 -5.56207E+01 +1.18566E+01 -5.50168E+01
 +2.75279E+01 -4.96467E+01 +4.10494E+01 -3.99312E+01 +5.12516E+01 -2.66605E+01 +5.72393E+01 -1.09293E+01
 +5.84666E+01 +5.95434E+00 +5.47851E+01 +2.25777E+01 +4.64567E+01 +3.75413E+01 +3.41342E+01 +4.95758E+01
 +1.88075E+01 +5.76484E+01 +1.72328E+00 +6.10498E+01 -1.57182E+01 +5.94547E+01 -3.20787E+01 +5.29498E+01
 -4.60006E+01 +4.20283E+01 -5.63204E+01 +2.75510E+01 -6.21645E+01 +1.06757E+01 -6.30230E+01 -7.23688E+00
 -5.87923E+01 -2.47346E+01 -4.97851E+01 -4.03932E+01 -3.67051E+01 -5.29334E+01 -2.05909E+01 -6.13261E+01
 -2.73073E+00 -6.48770E+01 +1.54424E+01 -6.32843E+01 +3.24675E+01 -5.66630E+01 +4.69754E+01 -4.55366E+01
 +5.78003E+01 -3.07935E+01 +6.40746E+01 -1.36152E+01 +6.52999E+01 +4.62066E+00 +6.13868E+01 +2.24530E+01
 +5.26616E+01 +3.84561E+01 +3.98388E+01 +5.13560E+01 +2.39621E+01 +6.01336E+01 +6.31804E+00 +6.41073E+01
 -1.16696E+01 +6.29869E+01 -2.85562E+01 +5.68964E+01 -4.29944E+01 +4.63612E+01 -5.38434E+01 +3.22642E+01
 -6.02615E+01 +1.57714E+01 -6.17726E+01 -1.76490E+00 -5.83035E+01 -1.89176E+01 -5.01874E+01 -3.43024E+01
 -3.81338E+01 -4.66907E+01 -2.31678E+01 -5.51096E+01 -6.54347E+00 -5.89202E+01 +1.03605E+01 -5.78675E+01
 +2.61558E+01 -5.20987E+01 +3.95592E+01 -4.21484E+01 +4.94977E+01 -2.88910E+01 +5.51957E+01 -1.34658E+01
 +5.62376E+01 +2.81947E+00 +5.25993E+01 +1.85985E+01 +4.46470E+01 +3.25612E+01 +3.31044E+01 +4.35619E+01
 +1.89892E+01 +5.07145E+01 +3.52571E+00 +5.34646E+01 -1.19588E+01 +5.16340E+01 -2.61468E+01 +4.54329E+01
 -3.78410E+01 +3.54403E+01 -4.60650E+01 +2.25528E+01 -5.01442E+01 +7.90723E+00 -4.97615E+01 -7.21644E+00
 -4.49831E+01 -2.15042E+01 -3.62507E+01 -3.37194E+01 -2.43435E+01 -4.28076E+01 -1.03109E+01 -4.79854E+01
 +4.61703E+00 -4.88065E+01 +1.91345E+01 -4.51993E+01 +3.19709E+01 -3.74724E+01 +4.19986E+01 -2.62888E+01
 +4.83290E+01 -1.26092E+01 +5.03884E+01 +2.38891E+00 +4.79665E+01 +1.74111E+01 +4.12359E+01 +3.11553E+01
 +3.07374E+01 +4.24222E+01 +1.73364E+01 +5.02172E+01 +2.14975E+00 +5.38348E+01 -1.35467E+01 +5.29194E+01
