 Created: 19-Jan-2021
 $NMID
 ID='D:\BASISSIMULATI'
 FMTDAT='(8E13.5)'
 VOLUME=   1.00000E+00
 TRAMP=   1.00000E+00
 $END
 +5.89804E+01 +2.94089E-01 +5.56352E+01 +3.33816E+00 +4.62872E+01 +7.09413E+00 +3.24916E+01 +1.20109E+01
 +1.64699E+01 +1.80245E+01 +6.60750E-01 +2.45004E+01 -1.27526E+01 +3.03509E+01 -2.22294E+01 +3.43008E+01
 -2.70917E+01 +3.52306E+01 -2.75400E+01 +3.25041E+01 -2.44787E+01 +2.61902E+01 -1.92112E+01 +1.71146E+01
 -1.30940E+01 +6.72185E+00 -7.23945E+00 -3.21987E+00 -2.33951E+00 -1.10014E+01 +1.36006E+00 -1.53453E+01
 +3.94798E+00 -1.56778E+01 +5.65172E+00 -1.22336E+01 +6.63194E+00 -5.97225E+00 +6.84010E+00 +1.66697E+00
 +5.98902E+00 +9.10443E+00 +3.64815E+00 +1.49650E+01 -5.66350E-01 +1.83419E+01 -6.76872E+00 +1.89202E+01
 -1.46241E+01 +1.69394E+01 -2.32798E+01 +1.30219E+01 -3.14444E+01 +7.92807E+00 -3.76108E+01 +2.31701E+00
 -4.03752E+01 -3.41526E+00 -3.87740E+01 -9.17390E+00 -3.25490E+01 -1.50749E+01 -2.22675E+01 -2.12615E+01
 -9.25591E+00 -2.76942E+01 +4.64385E+00 -3.39895E+01 +1.74433E+01 -3.93728E+01 +2.74129E+01 -4.27755E+01
 +3.34269E+01 -4.30639E+01 +3.51646E+01 -3.93476E+01 +3.31207E+01 -3.12826E+01 +2.84269E+01 -1.92827E+01
 +2.25355E+01 -4.56832E+00 +1.68488E+01 +1.09773E+01 +1.23908E+01 +2.51266E+01 +9.60427E+00 +3.57348E+01
 +8.31965E+00 +4.11800E+01 +7.89554E+00 +4.07107E+01 +7.48366E+00 +3.46182E+01 +6.33845E+00 +2.41882E+01
 +4.08075E+00 +1.14421E+01 +8.39835E-01 -1.27323E+00 -2.76682E+00 -1.17520E+01 -5.81018E+00 -1.83466E+01
 -7.33233E+00 -2.02425E+01 -6.65438E+00 -1.75384E+01 -3.62117E+00 -1.11268E+01 +1.28957E+00 -2.41897E+00
 +7.02862E+00 +7.00648E+00 +1.21965E+01 +1.57389E+01 +1.53692E+01 +2.27753E+01 +1.54453E+01 +2.76160E+01
 +1.19239E+01 +3.02128E+01 +5.04134E+00 +3.08060E+01 -4.26845E+00 +2.97163E+01 -1.45781E+01 +2.71661E+01
 -2.42825E+01 +2.31896E+01 -3.19429E+01 +1.76591E+01 -3.65749E+01 +1.04162E+01 -3.78076E+01 +1.45985E+00
 -3.58853E+01 -8.87663E+00 -3.15193E+01 -1.98288E+01 -2.56432E+01 -3.02315E+01 -1.91452E+01 -3.86881E+01
 -1.26559E+01 -4.38448E+01 -6.44931E+00 -4.47082E+01 -4.78410E-01 -4.09180E+01 +5.47284E+00 -3.29009E+01
 +1.15775E+01 -2.18515E+01 +1.77671E+01 -9.53497E+00 +2.36171E+01 +2.05177E+00 +2.83631E+01 +1.10836E+01
 +3.10556E+01 +1.62793E+01 +3.08161E+01 +1.71541E+01 +2.71278E+01 +1.40905E+01 +2.00745E+01 +8.21361E+00
 +1.04518E+01 +1.10279E+00 -2.93643E-01 -5.58494E+00 -1.03012E+01 -1.04862E+01 -1.76607E+01 -1.28060E+01
 -2.08238E+01 -1.24323E+01 -1.89634E+01 -9.87113E+00 -1.21905E+01 -6.02959E+00 -1.57246E+00 -1.91408E+00
 +1.10579E+01 +1.66942E+00 +2.34606E+01 +4.32953E+00 +3.34327E+01 +6.16157E+00 +3.92371E+01 +7.66228E+00
 +3.99190E+01 +9.51716E+00 +3.54437E+01 +1.23262E+01 +2.66344E+01 +1.63508E+01 +1.49361E+01 +2.13586E+01
 +2.07446E+00 +2.66152E+01 -1.03021E+01 +3.10297E+01 -2.09112E+01 +3.34173E+01 -2.89948E+01 +3.28105E+01
 -3.43256E+01 +2.87328E+01 -3.70825E+01 +2.13602E+01 -3.76509E+01 +1.15245E+01 -3.64189E+01 +5.55333E-01
 -3.36364E+01 -1.00015E+01 -2.93786E+01 -1.87149E+01 -2.36189E+01 -2.45666E+01 -1.63792E+01 -2.71400E+01
 -7.89891E+00 -2.66571E+01 +1.24439E+00 -2.38592E+01 +1.01179E+01 -1.97716E+01 +1.75435E+01 -1.54208E+01
 +2.23214E+01 -1.15831E+01 +2.35135E+01 -8.63233E+00 +2.07144E+01 -6.52381E+00 +1.42287E+01 -4.91072E+00
 +5.09805E+00 -3.35019E+00 -5.04572E+00 -1.53068E+00 -1.42785E+01 +5.53855E-01 -2.07689E+01 +2.54194E+00
 -2.31620E+01 +3.77985E+00 -2.08694E+01 +3.51785E+00 -1.41949E+01 +1.17346E+00 -4.26435E+00 -3.41559E+00
 +7.22442E+00 -9.82778E+00 +1.83697E+01 -1.70414E+01 +2.74638E+01 -2.35853E+01 +3.33255E+01 -2.78314E+01
 +3.54906E+01 -2.83627E+01 +3.42232E+01 -2.43277E+01 +3.03556E+01 -1.56903E+01 +2.50091E+01 -3.30717E+00
 +1.92759E+01 +1.11925E+01 +1.39487E+01 +2.57037E+01 +9.36767E+00 +3.80525E+01 +5.41739E+00 +4.64195E+01
 +1.66665E+00 +4.96835E+01 -2.40041E+00 +4.76094E+01 -7.13458E+00 +4.08426E+01 -1.25313E+01 +3.07208E+01
 -1.81589E+01 +1.89578E+01 -2.32293E+01 +7.28038E+00 -2.67930E+01 -2.89310E+00 -2.80046E+01 -1.06612E+01
 -2.63828E+01 -1.56988E+01 -2.19886E+01 -1.81725E+01 -1.54689E+01 -1.85553E+01 -7.94767E+00 -1.74073E+01
 -7.87846E-01 -1.51923E+01 +4.71407E+00 -1.21842E+01 +7.62319E+00 -8.48212E+00 +7.57400E+00 -4.11955E+00
 +4.83746E+00 +7.80299E-01 +2.31974E-01 +5.86665E+00 -5.09573E+00 +1.04994E+01 -9.95912E+00 +1.37999E+01
 -1.34120E+01 +1.48158E+01 -1.49465E+01 +1.27629E+01 -1.45596E+01 +7.28013E+00 -1.26762E+01 -1.37724E+00
 -9.95823E+00 -1.22714E+01 -7.06026E+00 -2.38768E+01 -4.40624E+00 -3.43296E+01 -2.05605E+00 -4.17821E+01
 +2.97537E-01 -4.47839E+01 +3.19900E+00 -4.25981E+01 +7.20482E+00 -3.53753E+01 +1.26301E+01 -2.41393E+01
 +1.93452E+01 -1.05848E+01 +2.66894E+01 +3.26643E+00 +3.35376E+01 +1.54716E+01 +3.85144E+01 +2.45391E+01
 +4.03082E+01 +2.96836E+01 +3.80073E+01 +3.09083E+01 +3.13712E+01 +2.89064E+01 +2.09612E+01 +2.48162E+01
 +8.09091E+00 +1.99006E+01 -5.40000E+00 +1.52373E+01 -1.75000E+01 +1.14974E+01 -2.64268E+01 +8.86254E+00
 -3.09811E+01 +7.09118E+00 -3.07725E+01 +5.70075E+00 -2.62661E+01 +4.20463E+00 -1.86466E+01 +2.32755E+00
 -9.53667E+00 +1.33753E-01 -6.44683E-01 -1.97068E+00 +6.57430E+00 -3.36114E+00 +1.11649E+01 -3.40585E+00
 +1.27770E+01 -1.70057E+00 +1.16203E+01 +1.74578E+00 +8.29881E+00 +6.43421E+00 +3.58434E+00 +1.14367E+01
 -1.80029E+00 +1.55857E+01 -7.32698E+00 +1.77454E+01 -1.27025E+01 +1.70936E+01 -1.78043E+01 +1.33397E+01
 -2.25459E+01 +6.81718E+00 -2.67299E+01 -1.57438E+00 -2.99492E+01 -1.05658E+01 -3.15812E+01 -1.88026E+01
 -3.08934E+01 -2.51428E+01 -2.72371E+01 -2.88931E+01 -2.02793E+01 -2.99222E+01 -1.02026E+01 -2.86268E+01
 +2.19359E+00 -2.57650E+01 +1.55355E+01 -2.22079E+01 +2.80689E+01 -1.86809E+01 +3.79724E+01 -1.55702E+01
 +4.37207E+01 -1.28470E+01 +4.44150E+01 -1.01303E+01 +3.99955E+01 -6.86731E+00 +3.12825E+01 -2.57701E+00
 +1.98289E+01 +2.91811E+00 +7.61425E+00 +9.34349E+00 -3.35017E+00 +1.59579E+01 -1.14152E+01 +2.16852E+01
 -1.55963E+01 +2.53646E+01 -1.57197E+01 +2.60556E+01 -1.23831E+01 +2.33168E+01 -6.75353E+00 +1.73808E+01
 -2.56643E-01 +9.17289E+00 +5.75756E+00 +1.59555E-01 +1.02914E+01 -7.94159E+00 +1.28544E+01 -1.35240E+01
 +1.34702E+01 -1.54400E+01 +1.25474E+01 -1.32501E+01 +1.06664E+01 -7.31551E+00 +8.35061E+00 +1.28762E+00
 +5.89156E+00 +1.10066E+01 +3.27967E+00 +2.01437E+01 +2.55681E-01 +2.71993E+01 -3.53741E+00 +3.11450E+01
 -8.35357E+00 +3.15694E+01 -1.41610E+01 +2.86722E+01 -2.05391E+01 +2.31246E+01 -2.66953E+01 +1.58449E+01
 -3.16046E+01 +7.76007E+00 -3.42407E+01 -3.83180E-01 -3.38376E+01 -8.10877E+00 -3.01098E+01 -1.51918E+01
 -2.33674E+01 -2.15500E+01 -1.44904E+01 -2.70943E+01 -4.76213E+00 -3.16002E+01 +4.39930E+00 -3.46516E+01
 +1.17442E+01 -3.56866E+01 +1.64532E+01 -3.41407E+01 +1.82913E+01 -2.96486E+01 +1.76159E+01 -2.22447E+01
 +1.52403E+01 -1.24933E+01 +1.21916E+01 -1.49934E+00 +9.43047E+00 +9.22540E+00 +7.60837E+00 +1.80219E+01
 +6.92691E+00 +2.34161E+01 +7.13496E+00 +2.44465E+01 +7.65963E+00 +2.09049E+01 +7.83021E+00 +1.34262E+01
 +7.12770E+00 +3.39731E+00 +5.38573E+00 -7.30092E+00 +2.88195E+00 -1.66628E+01 +2.89953E-01 -2.29559E+01
 -1.49870E+00 -2.50566E+01 -1.63547E+00 -2.26488E+01 +4.13021E-01 -1.62439E+01 +4.65879E+00 -7.02467E+00
 +1.05137E+01 +3.44222E+00 +1.68665E+01 +1.35510E+01 +2.23029E+01 +2.19744E+01 +2.54182E+01 +2.78812E+01
 +2.51448E+01 +3.10117E+01 +2.10143E+01 +3.16070E+01 +1.32868E+01 +3.02282E+01 +2.91619E+00 +2.75269E+01
 -8.64127E+00 +2.40373E+01 -1.97261E+01 +2.00490E+01 -2.88098E+01 +1.55916E+01 -3.47841E+01 +1.05270E+01
 -3.71386E+01 +4.71108E+00 -3.59936E+01 -1.83295E+00 -3.19907E+01 -8.79178E+00 -2.60811E+01 -1.55368E+01
 -1.92767E+01 -2.12130E+01 -1.24301E+01 -2.49243E+01 -6.10146E+00 -2.59666E+01 -5.36737E-01 -2.40426E+01
 +4.25092E+00 -1.93941E+01 +8.33502E+00 -1.28084E+01 +1.17227E+01 -5.48664E+00 +1.42523E+01 +1.19916E+00
 +1.55809E+01 +6.00172E+00 +1.52733E+01 +8.07450E+00 +1.29671E+01 +7.15685E+00 +8.56382E+00 +3.62093E+00
 +2.38281E+00 -1.63194E+00 -4.78063E+00 -7.39827E+00 -1.17263E+01 -1.24639E+01 -1.70478E+01 -1.58842E+01
 -1.94216E+01 -1.71822E+01 -1.79179E+01 -1.64152E+01 -1.22568E+01 -1.40977E+01 -2.93878E+00 -1.10070E+01
 +8.79098E+00 -7.92930E+00 +2.11469E+01 -5.41917E+00 +3.21348E+01 -3.64079E+00 +3.99391E+01 -2.33575E+00
 +4.32776E+01 -9.25672E-01 +4.16430E+01 +1.28001E+00 +3.53786E+01 +4.83100E+00 +2.55745E+01 +9.91132E+00
 +1.38141E+01 +1.62097E+01 +1.83514E+00 +2.29261E+01 -8.81176E+00 +2.89200E+01 -1.70299E+01 +3.29646E+01
 -2.23129E+01 +3.40443E+01 -2.47309E+01 +3.16180E+01 -2.47888E+01 +2.57789E+01 -2.32057E+01 +1.72683E+01
 -2.06864E+01 +7.33683E+00 -1.77464E+01 -2.51245E+00 -1.46364E+01 -1.08360E+01 -1.13762E+01 -1.65410E+01
 -7.87488E+00 -1.90857E+01 -4.08888E+00 -1.85451E+01 -1.59149E-01 -1.55334E+01 +3.52525E+00 -1.10117E+01
 +6.36461E+00 -6.03775E+00 +7.68338E+00 -1.52596E+00 +6.92653E+00 +1.92145E+00 +3.86014E+00 +4.07401E+00
 -1.28638E+00 +5.01960E+00 -7.78602E+00 +5.02652E+00 -1.45093E+01 +4.37306E+00 -2.01347E+01 +3.20416E+00
 -2.34281E+01 +1.46401E+00 -2.35217E+01 -1.07194E+00 -2.01233E+01 -4.67448E+00 -1.35980E+01 -9.48709E+00
 -4.90096E+00 -1.53594E+01 +4.62667E+00 -2.17477E+01 +1.35481E+01 -2.77265E+01 +2.06363E+01 -3.21236E+01
 +2.51191E+01 -3.37576E+01 +2.68051E+01 -3.17225E+01 +2.60623E+01 -2.56478E+01 +2.36625E+01 -1.58626E+01
 +2.05351E+01 -3.41337E+00 +1.75022E+01 +1.00814E+01 +1.50654E+01 +2.27148E+01 +1.33005E+01 +3.26529E+01
 +1.18871E+01 +3.84930E+01 +1.02583E+01 +3.95368E+01 +7.82549E+00 +3.59153E+01 +4.21169E+00 +2.85390E+01
 -5.77262E-01 +1.88877E+01 -6.09368E+00 +8.69280E+00 -1.15222E+01 -4.12266E-01 -1.58701E+01 -7.19195E+00
 -1.82232E+01 -1.09949E+01 -1.79992E+01 -1.17937E+01 -1.51286E+01 -1.00826E+01 -1.01116E+01 -6.67566E+00
 -3.93424E+00 -2.46505E+00 +2.13953E+00 +1.79013E+00 +6.84661E+00 +5.59395E+00 +9.20533E+00 +8.73648E+00
 +8.72764E+00 +1.12179E+01 +5.51160E+00 +1.31119E+01 +1.94652E-01 +1.44218E+01 -6.21527E+00 +1.49849E+01
 -1.25831E+01 +1.44611E+01 -1.78988E+01 +1.24162E+01 -2.14741E+01 +8.47633E+00 -2.30376E+01 +2.50741E+00
