 Created: 19-Jan-2021
 $NMID
 ID='D:\BASISSIMULATI'
 FMTDAT='(8E13.5)'
 VOLUME=   1.00000E+00
 TRAMP=   1.00000E+00
 $END
 +2.62073E+01 +1.33020E-01 +2.52092E+01 +5.54435E+00 +2.29852E+01 +1.04832E+01 +1.97141E+01 +1.46575E+01
 +1.56454E+01 +1.78374E+01 +1.10779E+01 +1.98717E+01 +6.33642E+00 +2.06983E+01 +1.74487E+00 +2.03464E+01
 -2.39856E+00 +1.89321E+01 -5.84462E+00 +1.66466E+01 -8.41140E+00 +1.37388E+01 -9.99703E+00 +1.04930E+01
 -1.05854E+01 +7.20479E+00 -1.02449E+01 +4.15597E+00 -9.11983E+00 +1.59140E+00 -7.41576E+00 -3.00726E-01
 -5.38020E+00 -1.40343E+00 -3.27982E+00 -1.67917E+00 -1.37646E+00 -1.17125E+00 +9.59276E-02 +1.79983E-03
 +9.51764E-01 +1.65816E+00 +1.06981E+00 +3.56994E+00 +4.03429E-01 +5.48419E+00 -1.01562E+00 +7.14587E+00
 -3.08029E+00 +8.32078E+00 -5.61771E+00 +8.81663E+00 -8.40429E+00 +8.50030E+00 -1.11852E+01 +7.31003E+00
 -1.36963E+01 +5.26148E+00 -1.56869E+01 +2.44720E+00 -1.69417E+01 -9.70463E-01 -1.72988E+01 -4.77224E+00
 -1.66644E+01 -8.69965E+00 -1.50211E+01 -1.24759E+01 -1.24298E+01 -1.58283E+01 -9.02576E+00 -1.85104E+01
 -5.00777E+00 -2.03216E+01 -6.22991E-01 -2.11236E+01 +3.85267E+00 -2.08509E+01 +8.13611E+00 -1.95159E+01
 +1.19591E+01 -1.72075E+01 +1.50888E+01 -1.40836E+01 +1.73455E+01 -1.03584E+01 +1.86158E+01 -6.28450E+00
 +1.88596E+01 -2.13312E+00 +1.81128E+01 +1.82730E+00 +1.64816E+01 +5.35200E+00 +1.41332E+01 +8.23831E+00
 +1.12807E+01 +1.03404E+01 +8.16457E+00 +1.15793E+01 +5.03309E+00 +1.19466E+01 +2.12159E+00 +1.15034E+01
 -3.66092E-01 +1.03723E+01 -2.27336E+00 +8.72579E+00 -3.50232E+00 +6.76941E+00 -4.01997E+00 +4.72379E+00
 -3.85893E+00 +2.80498E+00 -3.11246E+00 +1.20603E+00 -1.92459E+00 +8.07518E-02 -4.75981E-01 -4.68766E-01
 +1.03297E+00 -4.00018E-01 +2.40048E+00 +2.67351E-01 +3.44151E+00 +1.45436E+00 +4.00418E+00 +3.03060E+00
 +3.98313E+00 +4.82641E+00 +3.32865E+00 +6.64839E+00 +2.05097E+00 +8.29673E+00 +2.19327E-01 +9.58291E+00
 -2.04403E+00 +1.03463E+01 -4.57431E+00 +1.04684E+01 -7.17817E+00 +9.88311E+00 -9.65011E+00 +8.58261E+00
 -1.17898E+01 +6.61855E+00 -1.34186E+01 +4.09782E+00 -1.43947E+01 +1.17403E+00 -1.46248E+01 -1.96494E+00
 -1.40712E+01 -5.11218E+00 -1.27554E+01 -8.05830E+00 -1.07556E+01 -1.06082E+01 -8.20068E+00 -1.25962E+01
 -5.25915E+00 -1.38992E+01 -2.12569E+00 -1.44454E+01 +9.94493E-01 -1.42193E+01 +3.90187E+00 -1.32622E+01
 +6.41806E+00 -1.16672E+01 +8.39930E+00 -9.57131E+00 +9.74681E+00 -7.14321E+00 +1.04133E+01 -4.56913E+00
 +1.04051E+01 -2.03758E+00 +9.77991E+00 +2.75830E-01 +8.64041E+00 +2.22201E+00 +7.12423E+00 +3.68958E+00
 +5.39137E+00 +4.61256E+00 +3.61013E+00 +4.97415E+00 +1.94268E+00 +4.80622E+00 +5.31570E-01 +4.18479E+00
 -5.11728E-01 +3.22190E+00 -1.11537E+00 +2.05458E+00 -1.25203E+00 +8.32107E-01 -9.39910E-01 -2.97605E-01
 -2.39755E-01 -1.20104E+00 +7.51682E-01 -1.77061E+00 +1.91117E+00 -1.93373E+00 +3.10060E+00 -1.65854E+00
 +4.17967E+00 -9.56139E-01 +5.01848E+00 +1.21089E-01 +5.50903E+00 +1.48462E+00 +5.57465E+00 +3.01799E+00
 +5.17650E+00 +4.58734E+00 +4.31681E+00 +6.05321E+00 +3.03845E+00 +7.28273E+00 +1.42108E+00 +8.16104E+00
 -4.25816E-01 +8.60102E+00 -2.37230E+00 +8.55056E+00 -4.27903E+00 +7.99669E+00 -6.00888E+00 +6.96644E+00
 -7.43820E+00 +5.52429E+00 -8.46686E+00 +3.76648E+00 -9.02604E+00 +1.81279E+00 -9.08341E+00 -2.03432E-01
 -8.64504E+00 -2.14630E+00 -7.75423E+00 -3.88835E+00 -6.48717E+00 -5.32055E+00 -4.94603E+00 -6.36061E+00
 -3.25005E+00 -6.95885E+00 -1.52543E+00 -7.10124E+00 +1.05083E-01 -6.80934E+00 +1.53204E+00 -6.13738E+00
 +2.66772E+00 -5.16660E+00 +3.45252E+00 -3.99756E+00 +3.85878E+00 -2.74103E+00 +3.89177E+00 -1.50835E+00
 +3.58788E+00 -4.01995E-01 +3.01020E+00 +4.92768E-01 +2.24200E+00 +1.11447E+00 +1.37862E+00 +1.42978E+00
 +5.18679E-01 +1.43527E+00 -2.44835E-01 +1.15653E+00 -8.32580E-01 +6.44773E-01 -1.18550E+00 -2.87094E-02
 -1.26946E+00 -7.79651E-01 -1.07754E+00 -1.51888E+00 -6.29830E-01 -2.16056E+00 +2.90910E-02 -2.62996E+00
 +8.34870E-01 -2.86992E+00 +1.70967E+00 -2.84571E+00 +2.56954E+00 -2.54770E+00 +3.33208E+00 -1.99170E+00
 +3.92390E+00 -1.21713E+00 +4.28697E+00 -2.83060E-01 +4.38357E+00 +7.37407E-01 +4.19928E+00 +1.76381E+00
 +3.74381E+00 +2.71555E+00 +3.04978E+00 +3.51894E+00 +2.16939E+00 +4.11351E+00 +1.16953E+00 +4.45695E+00
 +1.25673E-01 +4.52839E+00 -8.84827E-01 +4.32967E+00 -1.78942E+00 +3.88463E+00 -2.52649E+00 +3.23646E+00
 -3.05029E+00 +2.44338E+00 -3.33441E+00 +1.57322E+00 -3.37344E+00 +6.97185E-01 -3.18266E+00 -1.16400E-01
 -2.79597E+00 -8.07959E-01 -2.26222E+00 -1.33155E+00 -1.64029E+00 -1.65839E+00 -9.93468E-01 -1.77873E+00
 -3.83574E-01 -1.70196E+00 +1.34572E-01 -1.45496E+00 +5.17877E-01 -1.07895E+00 +7.38473E-01 -6.25095E-01
 +7.85710E-01 -1.49366E-01 +6.66497E-01 +2.92912E-01 +4.04002E-01 +6.52260E-01 +3.48750E-02 +8.89556E-01
 -3.94708E-01 +9.79447E-01 -8.33793E-01 +9.12365E-01 -1.23171E+00 +6.95007E-01 -1.54300E+00 +3.49249E-01
 -1.73169E+00 -9.03424E-02 -1.77461E+00 -5.80158E-01 -1.66338E+00 -1.07198E+00 -1.40494E+00 -1.51775E+00
 -1.02064E+00 -1.87427E+00 -5.43929E-01 -2.10729E+00 -1.69168E-02 -2.19471E+00 +5.13818E-01 -2.12856E+00
 +1.00180E+00 -1.91556E+00 +1.40516E+00 -1.57629E+00 +1.69059E+00 -1.14302E+00 +1.83653E+00 -6.56417E-01
 +1.83502E+00 -1.61533E-01 +1.69238E+00 +2.96645E-01 +1.42839E+00 +6.77560E-01 +1.07420E+00 +9.48992E-01
 +6.69221E-01 +1.09012E+00 +2.57096E-01 +1.09348E+00 -1.18579E-01 +9.65544E-01 -4.18587E-01 +7.26030E-01
 -6.11955E-01 +4.05852E-01 -6.79011E-01 +4.40098E-02 -6.13329E-01 -3.16310E-01 -4.22384E-01 -6.32047E-01
 -1.26848E-01 -8.64568E-01 +2.41403E-01 -9.83559E-01 +6.42389E-01 -9.70112E-01 +1.03193E+00 -8.18726E-01
 +1.36598E+00 -5.38009E-01 +1.60499E+00 -1.50019E-01 +1.71791E+00 +3.11705E-01 +1.68530E+00 +8.05244E-01
 +1.50152E+00 +1.28424E+00 +1.17546E+00 +1.70233E+00 +7.29986E-01 +2.01759E+00 +2.00010E-01 +2.19667E+00
 -3.70620E-01 +2.21813E+00 -9.33112E-01 +2.07471E+00 -1.43826E+00 +1.77427E+00 -1.84105E+00 +1.33934E+00
 -2.10498E+00 +8.05237E-01 -2.20564E+00 +2.17025E-01 -2.13312E+00 -3.74563E-01 -1.89327E+00 -9.17743E-01
 -1.50733E+00 -1.36449E+00 -1.01021E+00 -1.67505E+00 -4.47512E-01 -1.82177E+00 +1.28632E-01 -1.79187E+00
 +6.64233E-01 -1.58880E+00 +1.10846E+00 -1.23225E+00 +1.41842E+00 -7.56507E-01 +1.56324E+00 -2.07552E-01
 +1.52720E+00 +3.61043E-01 +1.31139E+00 +8.92949E-01 +9.33939E-01 +1.33427E+00 +4.28679E-01 +1.63859E+00
 -1.57728E-01 +1.77140E+00 -7.69820E-01 +1.71358E+00 -1.34828E+00 +1.46343E+00 -1.83532E+00 +1.03725E+00
 -2.18001E+00 +4.68205E-01 -2.34312E+00 -1.96297E-01 -2.30093E+00 -8.98617E-01 -2.04779E+00 -1.57589E+00
 -1.59703E+00 -2.16557E+00 -9.80212E-01 -2.61112E+00 -2.44726E-01 -2.86719E+00 +5.50097E-01 -2.90395E+00
 +1.33799E+00 -2.71010E+00 +2.05147E+00 -2.29430E+00 +2.62779E+00 -1.68481E+00 +3.01458E+00 -9.27432E-01
 +3.17463E+00 -8.18656E-02 +3.08946E+00 +7.83276E-01 +2.76131E+00 +1.59627E+00 +2.21332E+00 +2.28849E+00
 +1.48787E+00 +2.80040E+00 +6.43234E-01 +3.08693E+00 -2.51207E-01 +3.12155E+00 -1.12081E+00 +2.89890E+00
 -1.89206E+00 +2.43555E+00 -2.49891E+00 +1.76888E+00 -2.88861E+00 +9.54114E-01 -3.02644E+00 +5.98126E-02
 -2.89891E+00 -8.37911E-01 -2.51519E+00 -1.66186E+00 -1.90658E+00 -2.34040E+00 -1.12407E+00 -2.81371E+00
 -2.34124E-01 -3.03912E+00 +6.86884E-01 -2.99489E+00 +1.55916E+00 -2.68241E+00 +2.30637E+00 -2.12624E+00
 +2.86224E+00 -1.37227E+00 +3.17645E+00 -4.83926E-01 +3.21907E+00 +4.63092E-01 +2.98340E+00 +1.38728E+00
 +2.48679E+00 +2.20830E+00 +1.76934E+00 +2.85395E+00 +8.90662E-01 +3.26650E+00 -7.50385E-02 +3.40781E+00
 -1.04529E+00 +3.26284E+00 -1.93637E+00 +2.84120E+00 -2.67056E+00 +2.17653E+00 -3.18288E+00 +1.32387E+00
 -3.42688E+00 +3.55133E-01 -3.37884E+00 -6.46959E-01 -3.04003E+00 -1.59588E+00 -2.43689E+00 -2.40872E+00
 -1.61903E+00 -3.01337E+00 -6.55190E-01 -3.35488E+00 +3.72431E-01 -3.40031E+00 +1.37512E+00 -3.14187E+00
 +2.26515E+00 -2.59784E+00 +2.96335E+00 -1.81128E+00 +3.40593E+00 -8.46674E-01 +3.55012E+00 +2.15391E-01
 +3.37807E+00 +1.28488E+00 +2.89858E+00 +2.26986E+00 +2.14671E+00 +3.08431E+00 +1.18104E+00 +3.65547E+00
 +7.89800E-02 +3.93008E+00 -1.06959E+00 +3.87912E+00 -2.16976E+00 +3.50048E+00 -3.12950E+00 +2.81932E+00
 -3.86747E+00 +1.88626E+00 -4.31981E+00 +7.73273E-01 -4.44571E+00 -4.32129E-01 -4.23086E+00 -1.63413E+00
 -3.68887E+00 -2.73654E+00 -2.86023E+00 -3.65082E+00 -1.80904E+00 -4.30347E+00 -6.17798E-01 -4.64221E+00
 +6.19500E-01 -4.64035E+00 +1.80511E+00 -4.29909E+00 +2.84571E+00 -3.64744E+00 +3.66017E+00 -2.73977E+00
 +4.18635E+00 -1.65128E+00 +4.38627E+00 -4.71685E-01 +4.24924E+00 +7.02339E-01 +3.79274E+00 +1.77530E+00
 +3.06087E+00 +2.66094E+00 +2.12058E+00 +3.28949E+00 +1.05590E+00 +3.61355E+00 -3.91578E-02 +3.61208E+00
 -1.06871E+00 +3.29215E+00 -1.94312E+00 +2.68828E+00 -2.58674E+00 +1.85947E+00 -2.94433E+00 +8.84152E-01
 -2.98586E+00 -1.46557E-01 -2.70914E+00 -1.13667E+00 -2.14002E+00 -1.99358E+00 -1.33031E+00 -2.63605E+00
 -3.53415E-01 -3.00125E+00 +7.01889E-01 -3.05025E+00 +1.73897E+00 -2.77153E+00 +2.66157E+00 -2.18211E+00
 +3.38203E+00 -1.32633E+00 +3.82886E+00 -2.72258E-01 +3.95289E+00 +8.93858E-01 +3.73163E+00 +2.07476E+00
 +3.17142E+00 +3.17030E+00 +2.30710E+00 +4.08575E+00 +1.19932E+00 +4.73985E+00 -7.02923E-02 +5.07159E+00
 -1.40578E+00 +5.04541E+00 -2.70465E+00 +4.65432E+00 -3.86633E+00 +3.92056E+00 -4.80035E+00 +2.89392E+00
 -5.43378E+00 +1.64771E+00 -5.71720E+00 +2.72851E-01 -5.62873E+00 -1.12958E+00 -5.17571E+00 -2.45653E+00
 -4.39405E+00 -3.61139E+00 -3.34519E+00 -4.51177E+00 -2.11091E+00 -5.09614E+00 -7.86552E-01 -5.32870E+00
 +5.26885E-01 -5.20206E+00 +1.73108E+00 -4.73757E+00 +2.73841E+00 -3.98325E+00 +3.47912E+00 -3.00955E+00
 +3.90679E+00 -1.90322E+00 +4.00201E+00 -7.59860E-01 +3.77358E+00 +3.24164E-01 +3.25744E+00 +1.25987E+00
 +2.51330E+00 +1.97307E+00 +1.61927E+00 +2.41055E+00 +6.64962E-01 +2.54436E+00 -2.56321E-01 +2.37395E+00
 -1.05566E+00 +1.92603E+00 -1.65618E+00 +1.25199E+00 -1.99970E+00 +4.23347E-01 -2.05164E+00 -4.74569E-01
 -1.80406E+00 -1.35009E+00 -1.27626E+00 -2.11317E+00 -5.13178E-01 -2.68322E+00 +4.18460E-01 -2.99613E+00
