 Created: 19-Jan-2021
 $NMID
 ID='D:\BASISSIMULATI'
 FMTDAT='(8E13.5)'
 VOLUME=   1.00000E+00
 TRAMP=   1.00000E+00
 $END
 +5.05724E+01 +2.51382E-01 +4.87320E+01 +1.33722E+01 +4.35497E+01 +2.55546E+01 +3.53865E+01 +3.59640E+01
 +2.48073E+01 +4.38886E+01 +1.25421E+01 +4.87885E+01 -5.64633E-01 +5.03321E+01 -1.36121E+01 +4.84188E+01
 -2.57048E+01 +4.31852E+01 -3.60142E+01 +3.49958E+01 -4.38357E+01 +2.44173E+01 -4.86362E+01 +1.21796E+01
 -5.00910E+01 -8.74912E-01 -4.81056E+01 -1.38489E+01 -4.28215E+01 -2.58519E+01 -3.46067E+01 -3.60618E+01
 -2.40295E+01 -4.37806E+01 -1.18197E+01 -4.84823E+01 +1.18223E+00 -4.98491E+01 +1.40826E+01 -4.77924E+01
 +2.59961E+01 -4.24586E+01 +3.61067E+01 -3.42191E+01 +4.37233E+01 -2.36439E+01 +4.83269E+01 -1.14624E+01
 +4.96064E+01 +1.48659E+00 +4.74792E+01 +1.43133E+01 +4.20965E+01 +2.61374E+01 +3.38330E+01 +3.61490E+01
 +2.32604E+01 +4.36639E+01 +1.11079E+01 +4.81701E+01 -1.78800E+00 +4.93630E+01 -1.45409E+01 +4.71661E+01
 -2.62758E+01 +4.17353E+01 -3.61888E+01 +3.34486E+01 -4.36024E+01 +2.28791E+01 -4.80117E+01 +1.07559E+01
 -4.91189E+01 -2.08648E+00 -4.68530E+01 -1.47655E+01 -4.13749E+01 -2.64112E+01 -3.30657E+01 -3.62259E+01
 -2.25000E+01 -4.35388E+01 -1.04066E+01 -4.78520E+01 +2.38203E+00 -4.88740E+01 +1.49871E+01 -4.65400E+01
 +2.65438E+01 -4.10154E+01 +3.62605E+01 -3.26843E+01 +4.34732E+01 -2.21231E+01 +4.76908E+01 -1.00600E+01
 +4.86285E+01 +2.67466E+00 +4.62271E+01 +1.52057E+01 +4.06567E+01 +2.66735E+01 +3.23046E+01 +3.62925E+01
 +2.17483E+01 +4.34055E+01 +9.71596E+00 +4.75282E+01 -2.96439E+00 +4.83823E+01 -1.54214E+01 +4.59143E+01
 -2.68004E+01 +4.02989E+01 -3.63220E+01 +3.19264E+01 -4.33358E+01 +2.13758E+01 -4.73642E+01 +9.37459E+00
 -4.81355E+01 -3.25121E+00 -4.56017E+01 -1.56340E+01 -3.99421E+01 -2.69244E+01 -3.15499E+01 -3.63491E+01
 -2.10054E+01 -4.32641E+01 -9.03584E+00 -4.71989E+01 +3.53515E+00 -4.78880E+01 +1.58438E+01 -4.52892E+01
 +2.70456E+01 -3.95861E+01 +3.63736E+01 -3.11749E+01 +4.31905E+01 -2.06373E+01 +4.70323E+01 -8.69972E+00
 +4.76400E+01 +3.81621E+00 +4.49769E+01 +1.60506E+01 +3.92311E+01 +2.71641E+01 +3.08016E+01 +3.63958E+01
 +2.02713E+01 +4.31149E+01 +8.36623E+00 +4.68643E+01 -4.09440E+00 +4.73913E+01 -1.62544E+01 +4.46648E+01
 -2.72798E+01 +3.88770E+01 -3.64155E+01 +3.04299E+01 -4.30374E+01 +1.99076E+01 -4.66951E+01 +8.03535E+00
 -4.71422E+01 -4.36973E+00 -4.43529E+01 -1.64554E+01 -3.85238E+01 -2.73927E+01 -3.00599E+01 -3.64328E+01
 -1.95460E+01 -4.29580E+01 -7.70709E+00 -4.65247E+01 +4.64221E+00 -4.68925E+01 +1.66535E+01 -4.40412E+01
 +2.75029E+01 -3.81717E+01 +3.64477E+01 -2.96914E+01 +4.28768E+01 -1.91866E+01 +4.63529E+01 -7.38143E+00
 +4.66422E+01 +4.91185E+00 +4.37298E+01 +1.68487E+01 +3.78205E+01 +2.76104E+01 +2.93246E+01 +3.64602E+01
 +1.88295E+01 +4.27937E+01 +7.05838E+00 +4.61800E+01 -5.17867E+00 +4.63915E+01 -1.70411E+01 +4.34186E+01
 -2.77152E+01 +3.74703E+01 -3.64704E+01 +2.89595E+01 -4.27087E+01 +1.84745E+01 -4.60059E+01 +6.73794E+00
 -4.61403E+01 -5.44266E+00 -4.31076E+01 -1.72306E+01 -3.71210E+01 -2.78174E+01 -2.85960E+01 -3.64783E+01
 -1.81217E+01 -4.26220E+01 -6.42008E+00 -4.58306E+01 +5.70385E+00 -4.58886E+01 +1.74173E+01 -4.27970E+01
 +2.79169E+01 -3.67729E+01 +3.64839E+01 -2.82342E+01 +4.25334E+01 -1.77712E+01 +4.56542E+01 -6.10482E+00
 +4.56366E+01 +5.96224E+00 +4.24867E+01 +1.76011E+01 +3.64257E+01 +2.80137E+01 +2.78741E+01 +3.64872E+01
 +1.74228E+01 +4.24431E+01 +5.79214E+00 +4.54766E+01 -6.21784E+00 +4.53840E+01 -1.77822E+01 +4.21767E+01
 -2.81080E+01 +3.60796E+01 -3.64883E+01 +2.75157E+01 -4.23511E+01 +1.70767E+01 -4.52979E+01 +5.48204E+00
 -4.51311E+01 -6.47067E+00 -4.18670E+01 -1.79605E+01 -3.57345E+01 -2.81996E+01 -2.71589E+01 -3.64871E+01
 -1.67328E+01 -4.22574E+01 -5.17452E+00 -4.51182E+01 +6.72073E+00 -4.48779E+01 +1.81360E+01 -4.15577E+01
 +2.82886E+01 -3.53904E+01 +3.64837E+01 -2.68038E+01 +4.21619E+01 -1.63910E+01 +4.49374E+01 -4.86957E+00
 +4.46242E+01 +6.96803E+00 +4.12488E+01 +1.83088E+01 +3.50475E+01 +2.83751E+01 +2.64505E+01 +3.64782E+01
 +1.60515E+01 +4.20648E+01 +4.56718E+00 +4.47555E+01 -7.21259E+00 +4.43702E+01 -1.84788E+01 +4.09402E+01
 -2.84591E+01 +3.47056E+01 -3.64704E+01 +2.60988E+01 -4.19660E+01 +1.57142E+01 -4.45726E+01 +4.26735E+00
 -4.41159E+01 -7.45442E+00 -4.06320E+01 -1.86462E+01 -3.43648E+01 -2.85405E+01 -2.57488E+01 -3.64605E+01
 -1.53791E+01 -4.18656E+01 -3.97007E+00 -4.43888E+01 +7.69352E+00 -4.38613E+01 +1.88108E+01 -4.03243E+01
 +2.86195E+01 -3.40251E+01 +3.64485E+01 -2.54006E+01 +4.17636E+01 -1.50462E+01 +4.42039E+01 -3.67534E+00
 +4.36064E+01 +7.92991E+00 +4.00170E+01 +1.89727E+01 +3.36866E+01 +2.86959E+01 +2.50541E+01 +3.64344E+01
 +1.47155E+01 +4.16600E+01 +3.38315E+00 +4.40181E+01 -8.16361E+00 +4.33513E+01 -1.91319E+01 +3.97101E+01
 -2.87699E+01 +3.33491E+01 -3.64181E+01 +2.47092E+01 -4.15548E+01 +1.43870E+01 -4.38313E+01 +3.09349E+00
 -4.30959E+01 -8.39461E+00 -3.94037E+01 -1.92885E+01 -3.30128E+01 -2.88414E+01 -2.43662E+01 -3.63999E+01
 -1.40607E+01 -4.14481E+01 -2.80636E+00 -4.36436E+01 +8.62293E+00 -4.28402E+01 +1.94425E+01 -3.90977E+01
 +2.89106E+01 -3.26777E+01 +3.63795E+01 -2.40248E+01 +4.13399E+01 -1.37366E+01 +4.34550E+01 -2.52176E+00
 +4.25844E+01 +8.84859E+00 +3.87923E+01 +1.95938E+01 +3.23436E+01 +2.89773E+01 +2.36852E+01 +3.63572E+01
 +1.34147E+01 +4.12301E+01 +2.23967E+00 +4.32656E+01 -9.07159E+00 +4.23283E+01 -1.97425E+01 +3.84873E+01
 -2.90416E+01 +3.20108E+01 -3.63328E+01 +2.33474E+01 -4.11189E+01 +1.30951E+01 -4.30753E+01 +1.96009E+00
 -4.20721E+01 -9.29194E+00 -3.81829E+01 -1.98886E+01 -3.16791E+01 -2.91035E+01 -2.30112E+01 -3.63064E+01
 -1.27776E+01 -4.10062E+01 -1.68301E+00 -4.28841E+01 +9.50966E+00 -4.18157E+01 +2.00321E+01 -3.78790E+01
 +2.91631E+01 -3.13486E+01 +3.62781E+01 -2.26769E+01 +4.08921E+01 -1.24623E+01 +4.26921E+01 -1.40843E+00
 +4.15592E+01 +9.72476E+00 +3.75756E+01 +2.01730E+01 +3.10193E+01 +2.92203E+01 +2.23443E+01 +3.62479E+01
 +1.21492E+01 +4.07765E+01 +1.13634E+00 +4.24993E+01 -9.93725E+00 +4.13025E+01 -2.03114E+01 +3.72728E+01
 -2.92752E+01 +3.06912E+01 -3.62157E+01 +2.20134E+01 -4.06595E+01 +1.18383E+01 -4.23058E+01 +8.66734E-01
 -4.10458E+01 -1.01471E+01 -3.69706E+01 -2.04473E+01 -3.03643E+01 -2.93279E+01 -2.16843E+01 -3.61816E+01
 -1.15297E+01 -4.05412E+01 -5.99603E-01 -4.21115E+01 +1.03544E+01 -4.07889E+01 +2.05806E+01 -3.66689E+01
 +2.93782E+01 -3.00386E+01 +3.61456E+01 -2.13570E+01 +4.04215E+01 -1.12232E+01 +4.19164E+01 -3.34941E-01
 +4.05320E+01 +1.05592E+01 +3.63678E+01 +2.07115E+01 +2.97141E+01 +2.94263E+01 +2.10314E+01 +3.61077E+01
 +1.09189E+01 +4.03005E+01 +7.27418E-02 +4.17206E+01 -1.07613E+01 +4.02750E+01 -2.08398E+01 +3.60674E+01
 -2.94721E+01 +2.93909E+01 -3.60681E+01 +2.07076E+01 -4.01781E+01 +1.06167E+01 -4.15241E+01 -1.87002E-01
 -4.00180E+01 -1.09609E+01 -3.57675E+01 -2.09657E+01 -2.90689E+01 -2.95157E+01 -2.03856E+01 -3.60265E+01
 -1.03168E+01 -4.00545E+01 +4.44299E-01 -4.13269E+01 +1.11580E+01 -3.97609E+01 +2.10891E+01 -3.54683E+01
 +2.95571E+01 -2.87482E+01 +3.59832E+01 -2.00654E+01 +3.99295E+01 -1.00191E+01 +4.11291E+01 +6.99155E-01
 +3.95038E+01 +1.13526E+01 +3.51698E+01 +2.12101E+01 +2.84287E+01 +2.95963E+01 +1.97469E+01 +3.59381E+01
 +9.72350E+00 +3.98033E+01 -9.51577E-01 +4.09305E+01 -1.15446E+01 +3.92467E+01 -2.13286E+01 +3.48719E+01
 -2.96334E+01 +2.81104E+01 -3.58912E+01 +1.94303E+01 -3.96759E+01 +9.43012E+00 -4.07314E+01 -1.20157E+00
 -3.89897E+01 -1.17341E+01 -3.45746E+01 -2.14447E+01 -2.77935E+01 -2.96683E+01 -1.91154E+01 -3.58426E+01
 -9.13891E+00 -3.95472E+01 +1.44915E+00 -4.05317E+01 +1.19211E+01 -3.87327E+01 +2.15585E+01 -3.42781E+01
 +2.97010E+01 -2.74778E+01 +3.57923E+01 -1.88023E+01 +3.94173E+01 -8.84988E+00 +4.03313E+01 +1.69432E+00
 +3.84757E+01 +1.21057E+01 +3.39822E+01 +2.16698E+01 +2.71634E+01 +2.97317E+01 +1.84910E+01 +3.57402E+01
 +8.56303E+00 +3.92863E+01 -1.93708E+00 +4.01304E+01 -1.22878E+01 +3.82188E+01 -2.17788E+01 +3.36871E+01
 -2.97602E+01 +2.68504E+01 -3.56864E+01 +1.81815E+01 -3.91541E+01 +8.27834E+00 -3.99289E+01 -2.17745E+00
 -3.79620E+01 -1.24674E+01 -3.33926E+01 -2.18855E+01 -2.65386E+01 -2.97866E+01 -1.78738E+01 -3.56310E+01
 -7.99581E+00 -3.90207E+01 +2.41543E+00 -3.97269E+01 +1.26446E+01 -3.77053E+01 +2.19898E+01 -3.30989E+01
 +2.98110E+01 -2.62281E+01 +3.55740E+01 -1.75679E+01 +3.88862E+01 -7.71545E+00 +3.95243E+01 +2.65104E+00
 +3.74486E+01 +1.28193E+01 +3.28060E+01 +2.20918E+01 +2.59189E+01 +2.98334E+01 +1.72637E+01 +3.55152E+01
 +7.43725E+00 +3.87506E+01 -2.88427E+00 +3.93212E+01 -1.29916E+01 +3.71922E+01 -2.21914E+01 +3.25137E+01
 -2.98537E+01 +2.56111E+01 -3.54549E+01 +1.69614E+01 -3.86139E+01 +7.16121E+00 -3.91177E+01 -3.11513E+00
 -3.69358E+01 -1.31615E+01 -3.22223E+01 -2.22888E+01 -2.53045E+01 -2.98720E+01 -1.66609E+01 -3.53930E+01
 -6.88732E+00 -3.84762E+01 +3.34365E+00 -3.89136E+01 +1.33291E+01 -3.66796E+01 +2.23840E+01 -3.19316E+01
 +2.98883E+01 -2.49994E+01 +3.53295E+01 -1.63622E+01 +3.83373E+01 -6.61558E+00 +3.87092E+01 +3.56981E+00
 +3.64236E+01 +1.34942E+01 +3.16417E+01 +2.24768E+01 +2.46955E+01 +2.99027E+01 +1.60653E+01 +3.52645E+01
 +6.34598E+00 +3.81975E+01 -3.79363E+00 +3.85042E+01 -1.36570E+01 +3.61677E+01 -2.25675E+01 +3.13525E+01
 -2.99151E+01 +2.43930E+01 -3.51979E+01 +1.57702E+01 -3.80566E+01 +6.07853E+00 -3.82989E+01 -4.01513E+00
 -3.59121E+01 -1.38174E+01 -3.10642E+01 -2.26559E+01 -2.40919E+01 -2.99255E+01 -1.54769E+01 -3.51298E+01
 -5.81321E+00 -3.79148E+01 +4.23430E+00 -3.80931E+01 +1.39754E+01 -3.56566E+01 +2.27421E+01 -3.07767E+01
 +2.99340E+01 -2.37921E+01 +3.50602E+01 -1.51854E+01 +3.77719E+01 -5.55003E+00 +3.78870E+01 +4.45116E+00
 +3.54014E+01 +1.41311E+01 +3.04900E+01 +2.28260E+01 +2.34936E+01 +2.99406E+01 +1.48957E+01 +3.49891E+01
 +5.28898E+00 +3.76281E+01 -4.66571E+00 +3.76804E+01 -1.42845E+01 +3.51464E+01 -2.29079E+01 +3.02042E+01
 -2.99454E+01 +2.31966E+01 -3.49165E+01 +1.46079E+01 -3.74834E+01 +5.03006E+00 -3.74735E+01 -4.87797E+00
 -3.48917E+01 -1.44356E+01 -2.99191E+01 -2.29875E+01 -2.29009E+01 -2.99482E+01 -1.43218E+01 -3.48425E+01
