 Created: 19-Jan-2021
 $NMID
 ID='D:\BASISSIMULATI'
 FMTDAT='(8E13.5)'
 VOLUME=   1.00000E+00
 TRAMP=   1.00000E+00
 $END
 +3.18755E+01 +1.58659E-01 +3.08166E+01 +8.50131E+00 +2.75975E+01 +1.62949E+01 +2.24344E+01 +2.29869E+01
 +1.56828E+01 +2.81004E+01 +7.81278E+00 +3.12690E+01 -6.24406E-01 +3.22635E+01 -9.03581E+00 +3.10086E+01
 -1.68291E+01 +2.75886E+01 -2.34549E+01 +2.22420E+01 -2.84466E+01 +1.53440E+01 -3.14532E+01 +7.38018E+00
 -3.22651E+01 -1.08853E+00 -3.08283E+01 -9.46608E+00 -2.72487E+01 -1.71639E+01 -2.17836E+01 -2.36431E+01
 -1.48234E+01 -2.84528E+01 -6.86282E+00 -3.12621E+01 +1.53469E+00 -3.18832E+01 +9.77748E+00 -3.02842E+01
 +1.72882E+01 -2.65907E+01 +2.35450E+01 -2.10756E+01 +2.81182E+01 -1.41390E+01 +3.07007E+01 -6.27846E+00
 +3.11286E+01 +1.94717E+00 +2.93920E+01 +9.95811E+00 +2.56339E+01 +1.71953E+01 +2.01390E+01 +2.31600E+01
 +1.33117E+01 +2.74489E+01 +5.64584E+00 +2.97817E+01 -2.31140E+00 +3.00198E+01 -9.99924E+00 +2.81743E+01
 -1.68835E+01 +2.44034E+01 -2.24942E+01 +1.89992E+01 -2.64585E+01 +1.23649E+01 -2.85255E+01 +4.98406E+00
 -2.85823E+01 -2.61447E+00 -2.66602E+01 -9.89560E+00 -2.29295E+01 -1.63560E+01 -1.76851E+01 -2.15595E+01
 -1.13235E+01 -2.51670E+01 -4.31201E+00 -2.69589E+01 +2.84552E+00 -2.68483E+01 +9.64564E+00 -2.48845E+01
 +1.56212E+01 -2.12466E+01 +2.03738E+01 -1.62283E+01 +2.36010E+01 -1.02136E+01 +2.51154E+01 -3.64773E+00
 +2.48552E+01 +2.99614E+00 +2.28861E+01 +9.25158E+00 +1.93926E+01 +1.46921E+01 +1.46620E+01 +1.89603E+01
 +9.06122E+00 +2.17923E+01 +3.00793E+00 +2.30331E+01 -3.06056E+00 +2.26453E+01 -8.71936E+00 +2.07079E+01
 -1.35861E+01 +1.74072E+01 -1.73470E+01 +1.30204E+01 -1.97774E+01 +7.89195E+00 -2.07546E+01 +2.40751E+00
 -2.02636E+01 -3.03585E+00 -1.83944E+01 -8.05842E+00 -1.53314E+01 -1.23246E+01 -1.13372E+01 -1.55656E+01
 -6.73002E+00 -1.75962E+01 -1.85917E+00 -1.83250E+01 +2.92196E+00 -1.77575E+01 +7.28145E+00 -1.59914E+01
 +1.09322E+01 -1.32060E+01 +1.36508E+01 -9.64530E+00 +1.52911E+01 -5.59780E+00 +1.57914E+01 -1.37310E+00
 +1.51750E+01 +2.72159E+00 +1.35445E+01 +6.40391E+00 +1.10706E+01 +9.43589E+00 +7.97567E+00 +1.16393E+01
 +4.51523E+00 +1.29056E+01 +9.56872E-01 +1.32008E+01 -2.44010E+00 +1.25633E+01 -5.44360E+00 +1.10977E+01
 -7.86457E+00 +8.96279E+00 -9.56875E+00 +6.35669E+00 -1.04835E+01 +3.49950E+00 -1.05998E+01 +6.15297E-01
 -9.96836E+00 -2.08524E+00 -8.69276E+00 -4.42009E+00 -6.91735E+00 -6.24805E+00 -4.81359E+00 -7.47697E+00
 -2.56472E+00 -8.06758E+00 -3.50493E-01 -8.03284E+00 +1.66682E+00 -7.43320E+00 +3.35419E+00 -6.36818E+00
 +4.61637E+00 -4.96544E+00 +5.40080E+00 -3.36812E+00 +5.69859E+00 -1.72177E+00 +5.54181E+00 -1.61989E-01
 +4.99739E+00 +1.19636E+00 +4.15850E+00 +2.26734E+00 +3.13416E+00 +2.99904E+00 +2.03816E+00 +3.37542E+00
 +9.78311E-01 +3.41470E+00 +4.69214E-02 +3.16479E+00 -6.86689E-01 +2.69629E+00 -1.18103E+00 +2.09376E+00
 -1.42436E+00 +1.44619E+00 -1.43359E+00 +8.37638E-01 -1.25050E+00 +3.38781E-01 -9.35598E-01 +2.98192E-04
 -5.60437E-01 -1.51486E-01 -1.99072E-01 -1.16279E-01 +8.04128E-02 +8.12424E-02 +2.23528E-01 +3.95046E-01
 +1.95410E-01 +7.63522E-01 -1.53090E-02 +1.11680E+00 -3.95129E-01 +1.38485E+00 -9.06937E-01 +1.50563E+00
 -1.49374E+00 +1.43238E+00 -2.08449E+00 +1.13937E+00 -2.60151E+00 +6.25677E-01 -2.96869E+00 -8.36773E-02
 -3.11975E+00 -9.39062E-01 -3.00575E+00 -1.87016E+00 -2.60115E+00 -2.79203E+00 -1.90771E+00 -3.61288E+00
 -9.55974E-01 -4.24265E+00 +1.96039E-01 -4.60193E+00 +1.46667E+00 -4.63008E+00 +2.75690E+00 -4.29200E+00
 +3.95841E+00 -3.58280E+00 +4.96283E+00 -2.52992E+00 +5.67140E+00 -1.19246E+00 +6.00407E+00 +3.42339E-01
 +5.90739E+00 +1.96520E+00 +5.36039E+00 +3.55307E+00 +4.37782E+00 +4.97884E+00 +3.01061E+00 +6.12175E+00
 +1.34313E+00 +6.87770E+00 -5.12225E-01 +7.16841E+00 -2.42316E+00 +6.94881E+00 -4.24731E+00 +6.21193E+00
 -5.84329E+00 +4.99081E+00 -7.08196E+00 +3.35726E+00 -7.85700E+00 +1.41743E+00 -8.09392E+00 -6.95445E-01
 -7.75687E+00 -2.83066E+00 -6.85240E+00 -4.83123E+00 -5.43010E+00 -6.54588E+00 -3.57985E+00 -7.84076E+00
 -1.42581E+00 -8.61013E+00 +8.82217E-01 -8.78503E+00 +3.17973E+00 -8.33919E+00 +5.29966E+00 -7.29191E+00
 +7.08489E+00 -5.70732E+00 +8.40029E+00 -3.69032E+00 +9.14313E+00 -1.37935E+00 +9.25121E+00 +1.06357E+00
 +8.70800E+00 +3.46454E+00 +7.54437E+00 +5.65065E+00 +5.83681E+00 +7.46274E+00 +3.70216E+00 +8.76737E+00
 +1.28928E+00 +9.46682E+00 -1.23163E+00 +9.50658E+00 -3.68152E+00 +8.87958E+00 -5.88551E+00 +7.62694E+00
 -7.68576E+00 +5.83514E+00 -8.95305E+00 +3.62982E+00 -9.59630E+00 +1.16667E+00 -9.56919E+00 -1.37989E+00
 -8.87357E+00 -3.82943E+00 -7.55926E+00 -6.00862E+00 -5.72035E+00 -7.76383E+00 -3.48824E+00 -8.97216E+00
 -1.02199E+00 -9.55030E+00 +1.50331E+00 -9.46032E+00 +3.90930E+00 -8.71220E+00 +6.02719E+00 -7.36280E+00
 +7.70994E+00 -5.51142E+00 +8.84261E+00 -3.29234E+00 +9.35041E+00 -8.64836E-01 +9.20365E+00 +1.59851E+00
 +8.41946E+00 +3.92431E+00 +7.06001E+00 +5.95087E+00 +5.22753E+00 +7.53961E+00 +3.05652E+00 +8.58470E+00
 +7.03669E-01 +9.02024E+00 -1.66366E+00 +8.82437E+00 -3.87954E+00 +8.02023E+00 -5.79130E+00 +6.67359E+00
 -7.27022E+00 +4.88749E+00 -8.22029E+00 +2.79427E+00 -8.58452E+00 +5.45630E-01 -8.34824E+00 -1.69854E+00
 -7.53940E+00 -3.78167E+00 -6.22573E+00 -5.56158E+00 -4.50915E+00 -6.92031E+00 -2.51781E+00 -7.77197E+00
 -3.96429E-01 -8.06821E+00 +1.70431E+00 -7.80074E+00 +3.63860E+00 -7.00111E+00 +5.27569E+00 -5.73747E+00
 +6.50885E+00 -4.10895E+00 +7.26226E+00 -2.23782E+00 +7.49566E+00 -2.60313E-01 +7.20627E+00 +1.68336E+00
 +6.42800E+00 +3.45905E+00 +5.22810E+00 +4.94795E+00 +3.70148E+00 +6.05457E+00 +1.96326E+00 +6.71283E+00
 +1.40104E-01 +6.88987E+00 -1.63906E+00 +6.58742E+00 -3.25218E+00 +5.84066E+00 -4.59243E+00 +4.71473E+00
 -5.57532E+00 +3.29927E+00 -6.14388E+00 +1.70132E+00 -6.27183E+00 +3.72998E-02 -5.96444E+00 -1.57550E+00
 -5.25713E+00 -3.02714E+00 -4.21201E+00 -4.22252E+00 -2.91263E+00 -5.08754E+00 -1.45740E+00 -5.57359E+00
 +4.77749E-02 -5.66006E+00 +1.49721E+00 -5.35481E+00 +2.79276E+00 -4.69264E+00 +3.85047E+00 -3.73190E+00
 +4.60585E+00 -2.54957E+00 +5.01774E+00 -1.23520E+00 +5.07026E+00 +1.15781E-01 +4.77303E+00 +1.40891E+00
 +4.15949E+00 +2.55724E+00 +3.28373E+00 +3.48711E+00 +2.21593E+00 +4.14275E+00 +1.03685E+00 +4.48946E+00
 -1.68160E-01 +4.51519E+00 -1.31526E+00 +4.23052E+00 -2.32786E+00 +3.66701E+00 -3.14164E+00 +2.87421E+00
 -3.70847E+00 +1.91549E+00 -3.99915E+00 +8.63161E-01 -4.00460E+00 -2.06918E-01 -3.73571E+00 -1.22068E+00
 -3.22174E+00 -2.11089E+00 -2.50762E+00 -2.82147E+00 -1.65018E+00 -3.31090E+00 -7.13775E-01 -3.55449E+00
 +2.34427E-01 -3.54535E+00 +1.12915E+00 -3.29412E+00 +1.91141E+00 -2.82758E+00 +2.53224E+00 -2.18610E+00
 +2.95566E+00 -1.42035E+00 +3.16058E+00 -5.87442E-01 +3.14159E+00 +2.53231E-01 +2.90872E+00 +1.04411E+00
 +2.48613E+00 +1.73329E+00 +1.90988E+00 +2.27781E+00 +1.22503E+00 +2.64619E+00 +4.82234E-01 +2.82010E+00
 -2.65879E-01 +2.79504E+00 -9.68344E-01 +2.58013E+00 -1.57920E+00 +2.19695E+00 -2.06038E+00 +1.67761E+00
 -2.38395E+00 +1.06219E+00 -2.53360E+00 +3.95762E-01 -2.50527E+00 -2.74789E-01 -2.30701E+00 -9.03968E-01
 -1.95796E+00 -1.45064E+00 -1.48670E+00 -1.88060E+00 -9.29034E-01 -2.16861E+00 -3.25367E-01 -2.29974E+00
 +2.82134E-01 -2.27002E+00 +8.52370E-01 -2.08635E+00 +1.34799E+00 -1.76566E+00 +1.73772E+00 -1.33353E+00
 +1.99827E+00 -8.22206E-01 +2.11557E+00 -2.68298E-01 +2.08549E+00 +2.89748E-01 +1.91380E+00 +8.14223E-01
 +1.61555E+00 +1.27061E+00 +1.21382E+00 +1.62977E+00 +7.38022E-01 +1.86970E+00 +2.21846E-01 +1.97682E+00
 -2.99071E-01 +1.94667E+00 -7.89510E-01 +1.78402E+00 -1.21696E+00 +1.50235E+00 -1.55372E+00 +1.12280E+00
 -1.77859E+00 +6.72661E-01 -1.87818E+00 +1.83473E-01 -1.84766E+00 -3.11112E-01 -1.69094E+00 -7.77572E-01
 -1.42031E+00 -1.18472E+00 -1.05551E+00 -1.50571E+00 -6.22336E-01 -1.71981E+00 -1.50899E-01 -1.81361E+00
 +3.26432E-01 -1.78194E+00 +7.77178E-01 -1.62808E+00 +1.17091E+00 -1.36348E+00 +1.48127E+00 -1.00697E+00
 +1.68766E+00 -5.83446E-01 +1.77663E+00 -1.22177E-01 +1.74273E+00 +3.45165E-01 +1.58884E+00 +7.86633E-01
 +1.32595E+00 +1.17215E+00 +9.72414E-01 +1.47552E+00 +5.52702E-01 +1.67619E+00 +9.57347E-02 +1.76064E+00
 -3.67065E-01 +1.72328E+00 -8.03905E-01 +1.56683E+00 -1.18478E+00 +1.30214E+00 -1.48350E+00 +9.47464E-01
 -1.67952E+00 +5.27236E-01 -1.75928E+00 +7.03951E-02 -1.71722E+00 -3.91574E-01 -1.55614E+00 -8.26791E-01
 -1.28701E+00 -1.20516E+00 -9.28309E-01 -1.50046E+00 -5.04691E-01 -1.69213E+00 -4.53646E-02 -1.76673E+00
 +4.17931E-01 -1.71887E+00 +8.53103E-01 -1.55163E+00 +1.22993E+00 -1.27633E+00 +1.52214E+00 -9.11850E-01
 +1.70928E+00 -4.83270E-01 +1.77811E+00 -2.01948E-02 +1.72359E+00 +4.45299E-01 +1.54921E+00 +8.80884E-01
 +1.26683E+00 +1.25623E+00 +8.95812E-01 +1.54510E+00 +4.61761E-01 +1.72724E+00 -5.28474E-03 +1.78974E+00
 -4.72918E-01 +1.72801E+00 -9.08618E-01 +1.54608E+00 -1.28202E+00 +1.25637E+00 -1.56703E+00 +8.78814E-01
 -1.74367E+00 +4.39524E-01 -1.79945E+00 -3.10597E-02 -1.73031E+00 -5.00260E-01 -1.54084E+00 -9.35446E-01
 -1.24404E+00 -1.30630E+00 -8.60387E-01 -1.58696E+00 -4.16435E-01 -1.75778E+00 +5.70444E-02 -1.80675E+00
 +5.27191E-01 -1.73031E+00 +9.61343E-01 -1.53361E+00 +1.32931E+00 -1.23017E+00 +1.60546E+00 -8.40930E-01
 +1.77052E+00 -3.92799E-01 +1.81292E+00 +8.32073E-02 +1.72954E+00 +5.54111E-01 +1.52602E+00 +9.87263E-01
 +1.21628E+00 +1.35259E+00 +8.21615E-01 +1.62470E+00 +3.69222E-01 +1.78459E+00 -1.09698E-01 +1.82101E+00
 -5.82067E-01 +1.73118E+00 -1.01521E+00 +1.52107E+00 -1.37911E+00 +1.20489E+00 -1.64844E+00 +8.04223E-01
 -1.80434E+00 +3.46470E-01 -1.83568E+00 -1.36961E-01 -1.73984E+00 -6.12818E-01 -1.52294E+00 -1.04826E+00
 -1.19939E+00 -1.41311E+00 -7.90952E-01 -1.68189E+00 -3.25306E-01 -1.83559E+00 +1.65837E-01 -1.86295E+00
 +6.48851E-01 -1.76128E+00 +1.09046E+00 -1.53667E+00 +1.45999E+00 -1.20364E+00 +1.73144E+00 -7.84179E-01
 +1.88529E+00 -3.06338E-01 +1.90983E+00 +1.97617E-01 +1.80203E+00 +6.93337E-01 +1.56782E+00 +1.14668E+00
 +1.22177E+00 +1.52601E+00 +7.86223E-01 +1.80432E+00 +2.89872E-01 +1.96111E+00 -2.34067E-01 +1.98387E+00
