 Created: 19-Jan-2021
 $NMID
 ID='D:\BASISSIMULATI'
 FMTDAT='(8E13.5)'
 VOLUME=   1.00000E+00
 TRAMP=   1.00000E+00
 $END
 +3.75834E+01 +1.07634E-01 +3.20473E+01 +1.68597E+01 +1.82117E+01 +2.70719E+01 +1.81369E+00 +2.71625E+01
 -1.04607E+01 +1.78542E+01 -1.38415E+01 +3.82299E+00 -7.50133E+00 -8.34919E+00 +5.12778E+00 -1.30306E+01
 +1.78740E+01 -7.97141E+00 +2.45219E+01 +4.73561E+00 +2.15171E+01 +1.95737E+01 +9.51459E+00 +2.99973E+01
 -6.89376E+00 +3.12675E+01 -2.11488E+01 +2.25031E+01 -2.75382E+01 +7.06788E+00 -2.36401E+01 -8.86825E+00
 -1.13468E+01 -1.89693E+01 +3.96692E+00 -1.94337E+01 +1.57656E+01 -1.05936E+01 +1.91593E+01 +3.26924E+00
 +1.29851E+01 +1.58039E+01 +2.71815E-01 +2.13492E+01 -1.31048E+01 +1.73795E+01 -2.09883E+01 +5.58443E+00
 -1.96180E+01 -8.87537E+00 -9.26255E+00 -1.96094E+01 +5.89032E+00 -2.17629E+01 +1.95324E+01 -1.41145E+01
 +2.59424E+01 +3.95758E-01 +2.24332E+01 +1.59279E+01 +1.04863E+01 +2.62438E+01 -4.90611E+00 +2.73674E+01
 -1.74018E+01 +1.92594E+01 -2.20340E+01 +5.79113E+00 -1.73268E+01 -6.96152E+00 -5.89359E+00 -1.33602E+01
 +6.72993E+00 -1.06408E+01 +1.45068E+01 -9.62157E-02 +1.35246E+01 +1.34985E+01 +3.69338E+00 +2.39612E+01
 -1.12108E+01 +2.63779E+01 -2.51680E+01 +1.92240E+01 -3.24969E+01 +5.01967E+00 -3.02816E+01 -1.07536E+01
 -1.96008E+01 -2.20027E+01 -5.03761E+00 -2.46205E+01 +7.31048E+00 -1.82148E+01 +1.24558E+01 -6.23097E+00
 +8.64762E+00 +5.57578E+00 -1.90969E+00 +1.16491E+01 -1.40479E+01 +9.03701E+00 -2.18981E+01 -1.34219E+00
 -2.14435E+01 -1.51102E+01 -1.22619E+01 -2.63310E+01 +2.28902E+00 -3.00759E+01 +1.65145E+01 -2.45467E+01
 +2.48241E+01 -1.18425E+01 +2.41170E+01 +2.94822E+00 +1.50858E+01 +1.39336E+01 +1.88650E+00 +1.69332E+01
 -9.67453E+00 +1.12399E+01 -1.46455E+01 -1.22801E-01 -1.10457E+01 -1.17481E+01 -6.86250E-01 -1.82072E+01
 +1.16497E+01 -1.64011E+01 +2.03018E+01 -6.89117E+00 +2.11926E+01 +6.35734E+00 +1.35929E+01 +1.76982E+01
 +4.34571E-01 +2.22431E+01 -1.29524E+01 +1.79632E+01 -2.11273E+01 +6.55087E+00 -2.08605E+01 -7.31976E+00
 -1.24914E+01 -1.80052E+01 +2.52723E-01 -2.13051E+01 +1.18883E+01 -1.62350E+01 +1.75451E+01 -5.40338E+00
 +1.50498E+01 +6.15725E+00 +5.83042E+00 +1.31913E+01 -5.73769E+00 +1.24976E+01 -1.42515E+01 +4.30340E+00
 -1.56292E+01 -7.84923E+00 -8.87515E+00 -1.86455E+01 +3.49442E+00 -2.32944E+01 +1.65384E+01 -1.95865E+01
 +2.50124E+01 -8.83153E+00 +2.56063E+01 +4.72013E+00 +1.83353E+01 +1.57109E+01 +6.49506E+00 +1.99673E+01
 -4.78762E+00 +1.62620E+01 -1.07747E+01 +6.79449E+00 -9.14632E+00 -3.80434E+00 -9.69680E-01 -1.05028E+01
 +9.79938E+00 -1.00520E+01 +1.80553E+01 -2.38207E+00 +1.97636E+01 +9.38275E+00 +1.37044E+01 +2.02853E+01
 +1.99310E+00 +2.56765E+01 -1.08361E+01 +2.32096E+01 -1.97777E+01 +1.38324E+01 -2.14889E+01 +1.35985E+00
 -1.56932E+01 -9.17677E+00 -5.25723E+00 -1.36853E+01 +5.07937E+00 -1.07419E+01 +1.07619E+01 -2.15771E+00
 +9.37552E+00 +7.85076E+00 +1.65880E+00 +1.45148E+01 -8.85140E+00 +1.45856E+01 -1.73764E+01 +7.73070E+00
 -1.99735E+01 -3.33693E+00 -1.52376E+01 -1.40432E+01 -4.89743E+00 -1.99281E+01 +6.93795E+00 -1.85560E+01
 +1.55473E+01 -1.05430E+01 +1.76116E+01 +7.32998E-01 +1.26071E+01 +1.06008E+01 +2.98733E+00 +1.51007E+01
 -6.91171E+00 +1.26611E+01 -1.27593E+01 +4.73035E+00 -1.20915E+01 -4.89570E+00 -5.34716E+00 -1.17457E+01
 +4.35649E+00 -1.26165E+01 +1.25991E+01 -6.95016E+00 +1.55802E+01 +2.94227E+00 +1.17570E+01 +1.28929E+01
 +2.49797E+00 +1.86786E+01 -8.51959E+00 +1.78296E+01 -1.68953E+01 +1.06692E+01 -1.93842E+01 +1.47295E-01
 -1.52587E+01 -9.44742E+00 -6.57789E+00 -1.43316E+01 +2.74014E+00 -1.28301E+01 +8.62843E+00 -6.05319E+00
 +8.62149E+00 +2.62967E+00 +2.89381E+00 +9.08014E+00 -5.85033E+00 +1.01921E+01 -1.35744E+01 +5.22738E+00
 -1.66671E+01 -3.88316E+00 -1.34984E+01 -1.33887E+01 -5.10829E+00 -1.93408E+01 +5.25637E+00 -1.92836E+01
 +1.35448E+01 -1.32855E+01 +1.66321E+01 -3.87897E+00 +1.36305E+01 +5.05108E+00 +6.22544E+00 +9.94203E+00
 -2.09298E+00 +9.06437E+00 -7.55992E+00 +3.22457E+00 -7.75930E+00 -4.63049E+00 -2.64379E+00 -1.07220E+01
 +5.47824E+00 -1.20868E+01 +1.29687E+01 -7.85126E+00 +1.64446E+01 +4.08535E-01 +1.42341E+01 +9.36454E+00
 +7.08115E+00 +1.53774E+01 -2.19420E+00 +1.60531E+01 -9.91831E+00 +1.12465E+01 -1.31347E+01 +3.09013E+00
 -1.08447E+01 -4.95002E+00 -4.39155E+00 -9.57324E+00 +3.16252E+00 -9.04629E+00 +8.38413E+00 -3.91064E+00
 +8.95217E+00 +3.29738E+00 +4.63895E+00 +9.17790E+00 -2.62398E+00 +1.09515E+01 -9.60893E+00 +7.65378E+00
 -1.31998E+01 +5.33215E-01 -1.17320E+01 -7.50731E+00 -5.69170E+00 -1.31699E+01 +2.51560E+00 -1.41726E+01
 +9.61359E+00 -1.02044E+01 +1.28580E+01 -3.02350E+00 +1.11886E+01 +4.32843E+00 +5.64051E+00 +8.84610E+00
 -1.14603E+00 +8.83880E+00 -6.09383E+00 +4.62173E+00 -7.02048E+00 -1.66543E+00 -3.56119E+00 -7.01881E+00
 +2.70563E+00 -8.88417E+00 +8.96961E+00 -6.25468E+00 +1.24167E+01 -8.58746E-02 +1.14392E+01 +7.13783E+00
 +6.30870E+00 +1.24844E+01 -9.64585E-01 +1.38288E+01 -7.51353E+00 +1.07406E+01 -1.08438E+01 +4.63288E+00
 -9.88039E+00 -1.87830E+00 -5.38663E+00 -6.11307E+00 +4.10075E-01 -6.46950E+00 +4.80999E+00 -3.07895E+00
 +5.81262E+00 +2.29486E+00 +2.96308E+00 +7.05425E+00 -2.48249E+00 +8.90681E+00 -8.12904E+00 +6.85070E+00
 -1.14922E+01 +1.58696E+00 -1.10657E+01 -4.80558E+00 -6.95043E+00 -9.77865E+00 -7.83847E-01 -1.14052E+01
 +4.98365E+00 -9.18247E+00 +8.14278E+00 -4.21077E+00 +7.65199E+00 +1.31459E+00 +4.04386E+00 +5.06492E+00
 -8.49837E-01 +5.57209E+00 -4.72058E+00 +2.82927E+00 -5.78800E+00 -1.74880E+00 -3.55308E+00 -5.97314E+00
 +1.01640E+00 -7.84370E+00 +5.93373E+00 -6.40862E+00 +9.06716E+00 -2.15422E+00 +9.05585E+00 +3.22930E+00
 +5.87504E+00 +7.59109E+00 +8.18018E-01 +9.24143E+00 -4.08273E+00 +7.65399E+00 -6.93319E+00 +3.65459E+00
 -6.77205E+00 -9.70125E-01 -3.94477E+00 -4.26109E+00 +8.99432E-02 -4.92464E+00 +3.42232E+00 -2.86069E+00
 +4.52598E+00 +8.35039E-01 +2.90290E+00 +4.38046E+00 -7.31013E-01 +6.09512E+00 -4.78555E+00 +5.12188E+00
 -7.50029E+00 +1.77557E+00 -7.70131E+00 -2.61903E+00 -5.28597E+00 -6.31534E+00 -1.23704E+00 -7.89518E+00
 +2.82480E+00 -6.85593E+00 +5.34458E+00 -3.78967E+00 +5.48434E+00 -9.16808E-02 +3.44650E+00 +2.66159E+00
 +3.42912E-01 +3.38823E+00 -2.31830E+00 +1.94035E+00 -3.29531E+00 -8.71625E-01 -2.13631E+00 -3.66499E+00
 +6.54213E-01 -5.10109E+00 +3.86425E+00 -4.46010E+00 +6.11636E+00 -1.93047E+00 +6.46055E+00 +1.49993E+00
 +4.76290E+00 +4.48887E+00 +1.73246E+00 +5.91834E+00 -1.41048E+00 +5.35450E+00 -3.46860E+00 +3.19823E+00
 -3.76806E+00 +4.75395E-01 -2.41371E+00 -1.62782E+00 -2.01498E-01 -2.27520E+00 +1.75862E+00 -1.31661E+00
 +2.53475E+00 +6.85015E-01 +1.76441E+00 +2.73246E+00 -2.16932E-01 +3.84470E+00 -2.55206E+00 +3.47808E+00
 -4.25229E+00 +1.73977E+00 -4.62414E+00 -6.87054E-01 -3.54830E+00 -2.85923E+00 -1.49990E+00 -3.98294E+00
 +6.84275E-01 -3.73658E+00 +2.17761E+00 -2.37454E+00 +2.50778E+00 -5.80671E-01 +1.72795E+00 +8.50404E-01
 +3.53197E-01 +1.35707E+00 -8.95242E-01 +8.30858E-01 -1.41519E+00 -3.72844E-01 -9.73849E-01 -1.62356E+00
 +2.19001E-01 -2.30850E+00 +1.63339E+00 -2.09571E+00 +2.66974E+00 -1.05658E+00 +2.91961E+00 +3.94429E-01
 +2.32322E+00 +1.70200E+00 +1.16433E+00 +2.41499E+00 -8.11800E-02 +2.36455E+00 -9.64144E-01 +1.70411E+00
 -1.24660E+00 +8.07079E-01 -9.74882E-01 +8.11207E-02 -4.20831E-01 -2.10690E-01 +6.86084E-02 -4.34564E-02
 +2.35837E-01 +3.93356E-01 +1.54051E-02 +8.12675E-01 -4.64284E-01 +9.75114E-01 -9.68643E-01 +7.92194E-01
 -1.28155E+00 +3.44485E-01 -1.30281E+00 -1.82964E-01 -1.07471E+00 -6.05666E-01 -7.33739E-01 -8.27606E-01
 -4.22030E-01 -8.69278E-01 -2.10448E-01 -8.28486E-01 -7.42580E-02 -8.03127E-01 +6.95345E-02 -8.23831E-01
 +2.89519E-01 -8.36101E-01 +5.77795E-01 -7.41690E-01 +8.38001E-01 -4.74027E-01 +9.34082E-01 -6.15319E-02
 +7.74727E-01 +3.62485E-01 +3.85260E-01 +6.16075E-01 -7.83948E-02 +5.66101E-01 -3.90459E-01 +2.15459E-01
 -3.67099E-01 -2.71551E-01 +2.56746E-02 -6.29131E-01 +6.27582E-01 -6.14852E-01 +1.13595E+00 -1.41852E-01
 +1.23987E+00 +6.50199E-01 +7.78152E-01 +1.43019E+00 -1.56337E-01 +1.81246E+00 -1.22503E+00 +1.53921E+00
 -1.97390E+00 +6.23321E-01 -2.03540E+00 -6.23035E-01 -1.31190E+00 -1.70014E+00 -5.03999E-02 -2.13357E+00
 +1.23779E+00 -1.69637E+00 +1.98873E+00 -5.36342E-01 +1.84091E+00 +8.60150E-01 +8.17919E-01 +1.86462E+00
 -6.52500E-01 +1.98468E+00 -1.90457E+00 +1.10111E+00 -2.32300E+00 -4.49093E-01 -1.62957E+00 -1.99334E+00
 -3.58822E-02 -2.80669E+00 +1.81712E+00 -2.43905E+00 +3.11944E+00 -9.39551E-01 +3.24650E+00 +1.13088E+00
 +2.05237E+00 +2.91777E+00 -3.47956E-02 +3.63726E+00 -2.16995E+00 +2.93013E+00 -3.44448E+00 +1.04514E+00
 -3.28715E+00 -1.24016E+00 -1.73486E+00 -2.93946E+00 +5.55023E-01 -3.28733E+00 +2.56931E+00 -2.09099E+00
 +3.37544E+00 +1.57052E-01 +2.54253E+00 +2.46747E+00 +3.57892E-01 +3.77341E+00 -2.26709E+00 +3.40378E+00
 -4.17364E+00 +1.40166E+00 -4.45935E+00 -1.46088E+00 -2.89018E+00 -3.99133E+00 -3.35814E-02 -5.08495E+00
 +2.95782E+00 -4.21510E+00 +4.82987E+00 -1.68751E+00 +4.77387E+00 +1.46347E+00 +2.79716E+00 +3.90407E+00
 -2.53460E-01 +4.57783E+00 -3.03803E+00 +3.17993E+00 -4.29944E+00 +3.15658E-01 -3.42231E+00 -2.73776E+00
 -7.27134E-01 -4.57443E+00 +2.63911E+00 -4.27813E+00 +5.18106E+00 -1.84537E+00 +5.70275E+00 +1.78012E+00
 +3.84491E+00 +5.08909E+00 +2.71553E-01 +6.64966E+00 -3.58722E+00 +5.73637E+00 -6.13638E+00 +2.66838E+00
 -6.30696E+00 -1.30064E+00 -4.03582E+00 -4.50525E+00 -3.17468E-01 -5.58563E+00 +3.20655E+00 -4.08988E+00
 +4.95284E+00 -6.93492E-01 +4.09399E+00 +3.07048E+00 +9.42476E-01 +5.46494E+00 -3.15620E+00 +5.30899E+00
 -6.38692E+00 +2.51403E+00 -7.24931E+00 -1.84552E+00 -5.22477E+00 -5.96939E+00 -1.03077E+00 -8.09789E+00
 +3.65899E+00 -7.27978E+00 +6.91906E+00 -3.80548E+00 +7.40278E+00 +8.91687E-01 +4.93875E+00 +4.83523E+00
 +6.27019E-01 +6.35516E+00 -3.61805E+00 +4.82133E+00 -5.89003E+00 +9.37448E-01 -5.12610E+00 -3.54237E+00
 -1.59078E+00 -6.56255E+00 +3.21115E+00 -6.66272E+00 +7.16655E+00 -3.63307E+00 +8.46545E+00 +1.36315E+00
 +6.39991E+00 +6.26463E+00 +1.69873E+00 +8.98906E+00 -3.75735E+00 +8.33752E+00 -7.72777E+00 +4.53202E+00
