 Created: 19-Jan-2021
 $NMID
 ID='D:\BASISSIMULATI'
 FMTDAT='(8E13.5)'
 VOLUME=   1.00000E+00
 TRAMP=   1.00000E+00
 $END
 +5.35177E+01 +6.65926E-01 +4.76127E+01 -1.51779E+01 +3.15042E+01 -2.55837E+01 +9.70912E+00 -2.66017E+01
 -1.16944E+01 -1.72463E+01 -2.69065E+01 +1.70695E-01 -3.21429E+01 +2.07382E+01 -2.67296E+01 +3.84532E+01
 -1.32240E+01 +4.80603E+01 +3.46010E+00 +4.66481E+01 +1.76318E+01 +3.45088E+01 +2.46020E+01 +1.50102E+01
 +2.21040E+01 -6.46223E+00 +1.09272E+01 -2.41437E+01 -5.41121E+00 -3.35911E+01 -2.18218E+01 -3.29264E+01
 -3.32427E+01 -2.32600E+01 -3.61751E+01 -8.20220E+00 -2.96877E+01 +7.34778E+00 -1.56073E+01 +1.87309E+01
 +2.12281E+00 +2.28946E+01 +1.86812E+01 +1.91933E+01 +2.97960E+01 +9.41581E+00 +3.29258E+01 -2.91858E+00
 +2.78576E+01 -1.37315E+01 +1.65882E+01 -1.96401E+01 +2.58092E+00 -1.89130E+01 -1.03329E+01 -1.18655E+01
 -1.90519E+01 -6.27111E-01 -2.19837E+01 +1.15972E+01 -1.93113E+01 +2.15052E+01 -1.27276E+01 +2.66105E+01
 -4.77622E+00 +2.58337E+01 +1.96256E+00 +1.96447E+01 +5.58946E+00 +9.77104E+00 +5.31809E+00 -1.38612E+00
 +1.54377E+00 -1.14267E+01 -4.41229E+00 -1.85219E+01 -1.07597E+01 -2.17481E+01 -1.57402E+01 -2.11445E+01
 -1.80372E+01 -1.75376E+01 -1.70139E+01 -1.22265E+01 -1.27641E+01 -6.63566E+00 -6.01100E+00 -2.01643E+00
 +2.08545E+00 +7.59295E-01 +1.01597E+01 +1.30742E+00 +1.68705E+01 -2.44732E-01 +2.11132E+01 -3.30404E+00
 +2.22021E+01 -6.91997E+00 +2.00068E+01 -9.95522E+00 +1.50155E+01 -1.13130E+01 +8.28914E+00 -1.01950E+01
 +1.28579E+00 -6.33919E+00 -4.43758E+00 -1.67429E-01 -7.59383E+00 +7.22176E+00 -7.51542E+00 +1.42498E+01
 -4.37875E+00 +1.92230E+01 +7.84221E-01 +2.07849E+01 +6.32088E+00 +1.83311E+01 +1.03980E+01 +1.22528E+01
 +1.15334E+01 +3.91473E+00 +9.06339E+00 -4.65653E+00 +3.39447E+00 -1.13024E+01 -4.05559E+00 -1.43368E+01
 -1.12300E+01 -1.30434E+01 -1.60209E+01 -7.90769E+00 -1.69023E+01 -5.00485E-01 -1.34122E+01 +6.96651E+00
 -6.32962E+00 +1.22856E+01 +2.51699E+00 +1.39062E+01 +1.07613E+01 +1.13973E+01 +1.61793E+01 +5.57314E+00
 +1.73325E+01 -1.75497E+00 +1.39800E+01 -8.32808E+00 +7.13513E+00 -1.21197E+01 -1.24822E+00 -1.19397E+01
 -8.85800E+00 -7.77944E+00 -1.36972E+01 -7.99264E-01 -1.46438E+01 +7.02980E+00 -1.17356E+01 +1.35135E+01
 -6.10581E+00 +1.68690E+01 +3.96679E-01 +1.62168E+01 +5.77462E+00 +1.17937E+01 +8.46250E+00 +4.83722E+00
 +7.74960E+00 -2.80615E+00 +3.93415E+00 -9.21882E+00 -1.81730E+00 -1.29346E+01 -7.84357E+00 -1.32992E+01
 -1.24725E+01 -1.05820E+01 -1.44716E+01 -5.82996E+00 -1.33449E+01 -5.27433E-01 -9.41214E+00 +3.82725E+00
 -3.67059E+00 +6.10888E+00 +2.50124E+00 +5.81979E+00 +7.70629E+00 +3.16295E+00 +1.08617E+01 -1.06284E+00
 +1.14272E+01 -5.69944E+00 +9.48916E+00 -9.52776E+00 +5.69922E+00 -1.15554E+01 +1.09610E+00 -1.12341E+01
 -3.14321E+00 -8.57047E+00 -5.96912E+00 -4.11496E+00 -6.69159E+00 +1.16160E+00 -5.13554E+00 +6.08061E+00
 -1.68839E+00 +9.51767E+00 +2.77513E+00 +1.06644E+01 +7.08466E+00 +9.23422E+00 +1.00505E+01 +5.56115E+00
 +1.07679E+01 +5.53970E-01 +8.87676E+00 -4.49886E+00 +4.70069E+00 -8.24215E+00 -7.85551E-01 -9.61408E+00
 -6.17410E+00 -8.15839E+00 -9.98599E+00 -4.19342E+00 -1.10874E+01 +1.22736E+00 -9.04232E+00 +6.57331E+00
 -4.28808E+00 +1.02570E+01 +1.93493E+00 +1.11038E+01 +7.90086E+00 +8.73047E+00 +1.18845E+01 +3.70842E+00
 +1.26784E+01 -2.55602E+00 +9.98089E+00 -8.20645E+00 +4.52687E+00 -1.14832E+01 -2.09658E+00 -1.12694E+01
 -7.90777E+00 -7.46449E+00 -1.11303E+01 -1.05714E+00 -1.07521E+01 +6.13888E+00 -6.86312E+00 +1.20171E+01
 -6.57985E-01 +1.48203E+01 +5.91151E+00 +1.36927E+01 +1.07323E+01 +8.96252E+00 +1.21921E+01 +2.05927E+00
 +9.69802E+00 -4.91745E+00 +3.88227E+00 -9.84762E+00 -3.57604E+00 -1.12551E+01 -1.04630E+01 -8.77536E+00
 -1.47168E+01 -3.27403E+00 -1.50728E+01 +3.42377E+00 -1.14592E+01 +9.11068E+00 -5.01882E+00 +1.18973E+01
 +2.25417E+00 +1.08120E+01 +8.14377E+00 +6.10866E+00 +1.09083E+01 -8.15383E-01 +9.82036E+00 -7.86384E+00
 +5.38009E+00 -1.29041E+01 -8.62989E-01 -1.44358E+01 -6.81803E+00 -1.20514E+01 -1.05245E+01 -6.54741E+00
 -1.07707E+01 +3.46470E-01 -7.46447E+00 +6.52511E+00 -1.64121E+00 +1.01716E+01 +4.88332E+00 +1.03140E+01
 +1.00988E+01 +7.10182E+00 +1.24329E+01 +1.72230E+00 +1.12292E+01 -4.00574E+00 +6.92521E+00 -8.22353E+00
 +8.83555E-01 -9.61598E+00 -5.05861E+00 -7.80458E+00 -9.17073E+00 -3.43274E+00 -1.03537E+01 +2.07093E+00
 -8.44740E+00 +6.96472E+00 -4.23416E+00 +9.74371E+00 +8.47778E-01 +9.59320E+00 +5.17882E+00 +6.60935E+00
 +7.46377E+00 +1.73055E+00 +7.11119E+00 -3.58460E+00 +4.37670E+00 -7.82008E+00 +2.39730E-01 -9.85658E+00
 -3.93272E+00 -9.27939E+00 -6.81986E+00 -6.45597E+00 -7.54102E+00 -2.37500E+00 -5.89351E+00 +1.68825E+00
 -2.37434E+00 +4.56766E+00 +2.00542E+00 +5.54077E+00 +6.04291E+00 +4.50768E+00 +8.69761E+00 +1.97418E+00
 +9.37160E+00 -1.14003E+00 +8.04171E+00 -3.79751E+00 +5.21893E+00 -5.14943E+00 +1.76261E+00 -4.76416E+00
 -1.38470E+00 -2.72082E+00 -3.46031E+00 +4.45489E-01 -4.07072E+00 +3.91743E+00 -3.26348E+00 +6.82972E+00
 -1.47474E+00 +8.49593E+00 +6.20669E-01 +8.56966E+00 +2.30790E+00 +7.10592E+00 +3.02411E+00 +4.51777E+00
 +2.49694E+00 +1.44953E+00 +8.00856E-01 -1.39481E+00 -1.67488E+00 -3.42360E+00 -4.33215E+00 -4.29025E+00
 -6.51481E+00 -3.95971E+00 -7.66786E+00 -2.69819E+00 -7.46943E+00 -9.92300E-01 -5.90689E+00 +5.81555E-01
 -3.28084E+00 +1.50696E+00 -1.36169E-01 +1.46173E+00 +2.86523E+00 +4.04884E-01 +5.10139E+00 -1.40614E+00
 +6.14016E+00 -3.47468E+00 +5.84496E+00 -5.18917E+00 +4.40781E+00 -5.98403E+00 +2.29825E+00 -5.49659E+00
 +1.37925E-01 -3.67810E+00 -1.46821E+00 -8.26061E-01 -2.09972E+00 +2.47562E+00 -1.64061E+00 +5.49681E+00
 -3.15530E-01 +7.54694E+00 +1.37103E+00 +8.15674E+00 +2.77862E+00 +7.20491E+00 +3.31900E+00 +4.95272E+00
 +2.63520E+00 +1.97448E+00 +7.19289E-01 -9.98402E-01 -2.06718E+00 -3.27670E+00 -5.07851E+00 -4.39977E+00
 -7.55377E+00 -4.25597E+00 -8.82231E+00 -3.10274E+00 -8.48839E+00 -1.48101E+00 -6.54244E+00 -4.91520E-02
 -3.36791E+00 +6.15287E-01 +3.57849E-01 +1.88922E-01 +3.84056E+00 -1.29841E+00 +6.37421E+00 -3.46644E+00
 +7.51824E+00 -5.68760E+00 +7.19942E+00 -7.26079E+00 +5.71312E+00 -7.60714E+00 +3.62638E+00 -6.43413E+00
 +1.61199E+00 -3.82391E+00 +2.59818E-01 -2.23004E-01 -8.36689E-02 +3.66293E+00 +5.94333E-01 +7.04114E+00
 +1.97528E+00 +9.22583E+00 +3.50219E+00 +9.80476E+00 +4.53780E+00 +8.73688E+00 +4.54643E+00 +6.35697E+00
 +3.25212E+00 +3.28679E+00 +7.31397E-01 +2.75092E-01 -2.58482E+00 -1.99336E+00 -6.00348E+00 -3.07166E+00
 -8.73533E+00 -2.86287E+00 -1.00945E+01 -1.64030E+00 -9.68162E+00 +3.17398E-02 -7.50124E+00 +1.45860E+00
 -3.98010E+00 +2.01710E+00 +1.24751E-01 +1.34469E+00 +3.90877E+00 -5.37270E-01 +6.54941E+00 -3.20484E+00
 +7.52194E+00 -5.92918E+00 +6.74139E+00 -7.87006E+00 +4.58722E+00 -8.31570E+00 +1.79844E+00 -6.90221E+00
 -7.36795E-01 -3.74732E+00 -2.24032E+00 +5.46662E-01 -2.27777E+00 +5.02957E+00 -8.96229E-01 +8.64816E+00
 +1.37962E+00 +1.05329E+01 +3.69798E+00 +1.02445E+01 +5.13727E+00 +7.90506E+00 +4.99590E+00 +4.17200E+00
 +3.02682E+00 +5.51079E-02 -4.57833E-01 -3.37126E+00 -4.64941E+00 -5.27801E+00 -8.45978E+00 -5.31975E+00
 -1.08316E+01 -3.72846E+00 -1.10495E+01 -1.23206E+00 -8.95854E+00 +1.17910E+00 -5.01988E+00 +2.56669E+00
 -1.86513E-01 +2.34313E+00 +4.36652E+00 +4.61517E-01 +7.57583E+00 -2.56269E+00 +8.78670E+00 -5.80558E+00
 +7.92424E+00 -8.21664E+00 +5.48911E+00 -8.94120E+00 +2.38261E+00 -7.58388E+00 -3.81182E-01 -4.33284E+00
 -1.98558E+00 +9.13827E-02 -2.04822E+00 +4.64370E+00 -7.15222E-01 +8.25293E+00 +1.41046E+00 +1.01188E+01
 +3.47750E+00 +9.91959E+00 +4.66147E+00 +7.87311E+00 +4.41974E+00 +4.64133E+00 +2.65003E+00 +1.11629E+00
 -2.89816E-01 -1.84170E+00 -3.69800E+00 -3.63363E+00 -6.73747E+00 -4.05545E+00 -8.66958E+00 -3.30661E+00
 -9.04365E+00 -1.88425E+00 -7.79351E+00 -4.06553E-01 -5.22446E+00 +5.75818E-01 -1.90754E+00 +7.25551E-01
 +1.47841E+00 -1.23416E-02 +4.30837E+00 -1.42527E+00 +6.13617E+00 -3.11369E+00 +6.76050E+00 -4.60547E+00
 +6.23002E+00 -5.47054E+00 +4.80072E+00 -5.41092E+00 +2.86524E+00 -4.31475E+00 +8.71295E-01 -2.27392E+00
 -7.59073E-01 +4.29182E-01 -1.70375E+00 +3.36102E+00 -1.80291E+00 +5.99999E+00 -1.10108E+00 +7.82222E+00
 +1.44297E-01 +8.40446E+00 +1.50093E+00 +7.52917E+00 +2.45261E+00 +5.26698E+00 +2.53327E+00 +2.00610E+00
 +1.47584E+00 -1.59570E+00 -6.67836E-01 -4.74273E+00 -3.48207E+00 -6.69621E+00 -6.24919E+00 -6.98442E+00
 -8.12005E+00 -5.56459E+00 -8.35726E+00 -2.87607E+00 -6.58327E+00 +2.49128E-01 -2.95196E+00 +2.80966E+00
 +1.82466E+00 +3.93663E+00 +6.62352E+00 +3.18390E+00 +1.02052E+01 +7.09624E-01 +1.15776E+01 -2.72284E+00
 +1.03162E+01 -5.94334E+00 +6.73411E+00 -7.72595E+00 +1.83137E+00 -7.18996E+00 -2.97660E+00 -4.12181E+00
 -6.28016E+00 +8.94977E-01 -7.11889E+00 +6.60010E+00 -5.30394E+00 +1.14055E+01 -1.50695E+00 +1.38743E+01
 +2.92631E+00 +1.31809E+01 +6.39039E+00 +9.40149E+00 +7.53759E+00 +3.53073E+00 +5.73288E+00 -2.79283E+00
 +1.29448E+00 -7.77694E+00 -4.56781E+00 -1.00302E+01 -1.01073E+01 -9.00407E+00 -1.35824E+01 -5.17519E+00
 -1.38153E+01 +9.65617E-02 -1.05849E+01 +4.99655E+00 -4.72312E+00 +7.83610E+00 +2.12338E+00 +7.59958E+00
 +7.99607E+00 +4.27955E+00 +1.12322E+01 -1.11168E+00 +1.09832E+01 -6.86085E+00 +7.47697E+00 -1.11021E+01
 +1.93680E+00 -1.24179E+01 -3.81456E+00 -1.02979E+01 -7.93912E+00 -5.30688E+00 -9.16614E+00 +1.09217E+00
 -7.18538E+00 +7.00089E+00 -2.72672E+00 +1.06839E+01 +2.69511E+00 +1.11085E+01 +7.28294E+00 +8.25315E+00
 +9.54010E+00 +3.09098E+00 +8.74407E+00 -2.74125E+00 +5.16096E+00 -7.47355E+00 -6.17860E-02 -9.75850E+00
 -5.28081E+00 -9.07333E+00 -8.88819E+00 -5.84558E+00 -9.81347E+00 -1.27222E+00 -7.83686E+00 +3.09686E+00
 -3.62142E+00 +5.86754E+00 +1.53343E+00 +6.23507E+00 +6.12501E+00 +4.20734E+00 +8.91937E+00 +5.57891E-01
 +9.31003E+00 -3.46137E+00 +7.45655E+00 -6.54118E+00 +4.17369E+00 -7.72690E+00 +6.24354E-01 -6.69066E+00
 -2.07114E+00 -3.78728E+00 -3.17824E+00 +1.06968E-01 -2.53864E+00 +3.90335E+00 -5.61506E-01 +6.64625E+00
 +1.96256E+00 +7.78231E+00 +4.14685E+00 +7.27589E+00 +5.29135E+00 +5.55169E+00 +5.07307E+00 +3.30350E+00
