 Created: 19-Jan-2021
 $NMID
 ID='D:\BASISSIMULATI'
 FMTDAT='(8E13.5)'
 VOLUME=   1.00000E+00
 TRAMP=   1.00000E+00
 $END
 +5.00802E+01 +1.62364E-01 +4.59826E+01 -8.56842E+00 +3.44236E+01 -1.48577E+01 +1.76812E+01 -1.65542E+01
 -9.20091E-01 -1.26623E+01 -1.77298E+01 -3.62211E+00 -2.95623E+01 +8.75794E+00 -3.43787E+01 +2.17051E+01
 -3.17043E+01 +3.21289E+01 -2.26890E+01 +3.73590E+01 -9.80086E+00 +3.57983E+01 +3.77158E+00 +2.73358E+01
 +1.48659E+01 +1.34175E+01 +2.10662E+01 -3.24387E+00 +2.12303E+01 -1.92557E+01 +1.57058E+01 -3.12948E+01
 +6.19034E+00 -3.68463E+01 -4.72255E+00 -3.47624E+01 -1.41974E+01 -2.55131E+01 -1.98520E+01 -1.10754E+01
 -2.03271E+01 +5.51300E+00 -1.55972E+01 +2.08269E+01 -6.95405E+00 +3.18001E+01 +3.32804E+00 +3.63737E+01
 +1.25587E+01 +3.39032E+01 +1.82911E+01 +2.52390E+01 +1.89152E+01 +1.24733E+01 +1.40452E+01 -1.57855E+00
 +4.61285E+00 -1.40330E+01 -7.35180E+00 -2.25750E+01 -1.91935E+01 -2.59325E+01 -2.82443E+01 -2.40860E+01
 -3.24295E+01 -1.81791E+01 -3.07268E+01 -1.01653E+01 -2.33763E+01 -2.28819E+00 -1.18008E+01 +3.47417E+00
 +1.73652E+00 +5.86701E+00 +1.46488E+01 +4.61460E+00 +2.45919E+01 +4.23867E-01 +2.99503E+01 -5.25195E+00
 +3.01350E+01 -1.06198E+01 +2.56368E+01 -1.40160E+01 +1.78374E+01 -1.43212E+01 +8.63658E+00 -1.12218E+01
 -6.43047E-03 -5.26207E+00 -6.50467E+00 +2.31507E+00 -9.95084E+00 +9.89089E+00 -1.02382E+01 +1.58692E+01
 -7.98266E+00 +1.90505E+01 -4.28238E+00 +1.88926E+01 -3.88321E-01 +1.56006E+01 +2.62500E+00 +1.00354E+01
 +4.10628E+00 +3.47418E+00 +3.93721E+00 -2.70949E+00 +2.48991E+00 -7.36164E+00 +4.57726E-01 -9.78427E+00
 -1.38401E+00 -9.84002E+00 -2.41612E+00 -7.91147E+00 -2.34712E+00 -4.73862E+00 -1.27522E+00 -1.18822E+00
 +3.68913E-01 +1.97829E+00 +1.97466E+00 +4.27647E+00 +2.94961E+00 +5.56983E+00 +2.90324E+00 +6.03084E+00
 +1.76272E+00 +6.01434E+00 -2.11078E-01 +5.88969E+00 -2.50911E+00 +5.88712E+00 -4.53360E+00 +6.00690E+00
 -5.78233E+00 +6.01874E+00 -6.00219E+00 +5.55054E+00 -5.26561E+00 +4.23730E+00 -3.94632E+00 +1.88223E+00
 -2.60046E+00 -1.42307E+00 -1.78711E+00 -5.26149E+00 -1.88107E+00 -8.95495E+00 -2.93424E+00 -1.17193E+01
 -4.62984E+00 -1.28709E+01 -6.34807E+00 -1.20280E+01 -7.33043E+00 -9.24851E+00 -6.90098E+00 -5.06078E+00
 -4.68418E+00 -3.68781E-01 -7.56690E-01 +3.75015E+00 +4.31430E+00 +6.30860E+00 +9.56555E+00 +6.66711E+00
 +1.38488E+01 +4.71828E+00 +1.61098E+01 +9.44387E-01 +1.56657E+01 -3.67359E+00 +1.24088E+01 -7.87988E+00
 +6.87740E+00 -1.04501E+01 +1.70043E-01 -1.05055E+01 -6.28562E+00 -7.75506E+00 -1.10576E+01 -2.60251E+00
 -1.30515E+01 +3.91668E+00 -1.17860E+01 +1.03579E+01 -7.52960E+00 +1.52015E+01 -1.26247E+00 +1.72199E+01
 +5.53644E+00 +1.57881E+01 +1.12284E+01 +1.10595E+01 +1.44021E+01 +3.96138E+00 +1.42171E+01 -3.99721E+00
 +1.06178E+01 -1.10606E+01 +4.36490E+00 -1.56302E+01 -3.12834E+00 -1.66400E+01 -1.01192E+01 -1.38147E+01
 -1.49438E+01 -7.74639E+00 -1.64135E+01 +2.30470E-01 -1.41068E+01 +8.33983E+00 -8.48262E+00 +1.47701E+01
 -7.88651E-01 +1.80911E+01 +7.21766E+00 +1.75844E+01 +1.36711E+01 +1.34073E+01 +1.70304E+01 +6.55331E+00
 +1.64377E+01 -1.38304E+00 +1.19232E+01 -8.58069E+00 +4.40514E+00 -1.34182E+01 -4.51487E+00 -1.48509E+01
 -1.29124E+01 -1.26501E+01 -1.89743E+01 -7.44988E+00 -2.14043E+01 -5.90557E-01 -1.97088E+01 +6.20264E+00
 -1.42964E+01 +1.12291E+01 -6.37203E+00 +1.32142E+01 +2.34727E+00 +1.16079E+01 +1.00270E+01 +6.71238E+00
 +1.51273E+01 -3.89523E-01 +1.67377E+01 -8.08742E+00 +1.47593E+01 -1.46160E+01 +9.89684E+00 -1.84604E+01
 +3.46662E+00 -1.87001E+01 -2.92903E+00 -1.52130E+01 -7.78253E+00 -8.69631E+00 -1.00268E+01 -5.00786E-01
 -9.26675E+00 +7.67741E+00 -5.84622E+00 +1.41762E+01 -7.40055E-01 +1.77297E+01 +4.69839E+00 +1.77315E+01
 +9.07063E+00 +1.43442E+01 +1.12671E+01 +8.43351E+00 +1.07236E+01 +1.35082E+00 +7.54344E+00 -5.38310E+00
 +2.45917E+00 -1.04166E+01 -3.35024E+00 -1.28512E+01 -8.54182E+00 -1.24097E+01 -1.19212E+01 -9.45597E+00
 -1.27130E+01 -4.87022E+00 -1.07281E+01 +1.84642E-01 -6.39319E+00 +4.54574E+00 -6.40793E-01 +7.31459E+00
 +5.30988E+00 +8.04343E+00 +1.02278E+01 +6.80498E+00 +1.31365E+01 +4.13651E+00 +1.35122E+01 +8.78478E-01
 +1.13744E+01 -2.04801E+00 +7.25224E+00 -3.86950E+00 +2.04365E+00 -4.13994E+00 -3.19743E+00 -2.83249E+00
 -7.49251E+00 -3.26418E-01 -1.01369E+01 +2.70212E+00 -1.08234E+01 +5.45465E+00 -9.66920E+00 +7.20597E+00
 -7.14845E+00 +7.47396E+00 -3.95246E+00 +6.12544E+00 -8.16080E-01 +3.39684E+00 +1.64795E+00 -1.70412E-01
 +3.06968E+00 -3.86054E+00 +3.37411E+00 -6.94647E+00 +2.75956E+00 -8.84681E+00 +1.61436E+00 -9.24175E+00
 +3.97494E-01 -8.12507E+00 -4.84885E-01 -5.78512E+00 -7.77104E-01 -2.72441E+00 -4.24618E-01 +4.59507E-01
 +4.30414E-01 +3.20259E+00 +1.50268E+00 +5.08337E+00 +2.44916E+00 +5.89064E+00 +2.96286E+00 +5.63950E+00
 +2.85136E+00 +4.53792E+00 +2.08200E+00 +2.91709E+00 +7.85368E-01 +1.14546E+00 -7.80835E-01 -4.52366E-01
 -2.29602E+00 -1.65421E+00 -3.45180E+00 -2.36639E+00 -4.01965E+00 -2.61623E+00 -3.89601E+00 -2.51778E+00
 -3.11659E+00 -2.22352E+00 -1.83925E+00 -1.87597E+00 -3.02345E-01 -1.57162E+00 +1.22967E+00 -1.34439E+00
 +2.52003E+00 -1.17014E+00 +3.40113E+00 -9.87766E-01 +3.79626E+00 -7.28833E-01 +3.71951E+00 -3.46136E-01
 +3.25733E+00 +1.66814E-01 +2.53868E+00 +7.70170E-01 +1.70240E+00 +1.38649E+00 +8.69687E-01 +1.92034E+00
 +1.26987E-01 +2.28273E+00 -4.79019E-01 +2.41329E+00 -9.35843E-01 +2.29463E+00 -1.25314E+00 +1.95550E+00
 -1.44916E+00 +1.46267E+00 -1.54013E+00 +9.04395E-01 -1.53530E+00 +3.70194E-01 -1.43809E+00 -6.78370E-02
 -1.25179E+00 -3.67772E-01 -9.86724E-01 -5.22185E-01 -6.65746E-01 -5.53922E-01 -3.25533E-01 -5.05340E-01
 -1.26397E-02 -4.24429E-01 +2.24970E-01 -3.51684E-01 +3.48712E-01 -3.10933E-01 +3.39522E-01 -3.06028E-01
 +2.04385E-01 -3.23536E-01 -2.28315E-02 -3.40071E-01 -2.86918E-01 -3.31755E-01 -5.22304E-01 -2.83041E-01
 -6.67187E-01 -1.92444E-01 -6.77671E-01 -7.37537E-02 -5.38689E-01 +4.74540E-02 -2.69109E-01 +1.40945E-01
 +8.03658E-02 +1.80625E-01 +4.36363E-01 +1.52607E-01 +7.17452E-01 +6.03483E-02 +8.51360E-01 -7.46797E-02
 +7.91314E-01 -2.17260E-01 +5.28071E-01 -3.26907E-01 +9.48891E-02 -3.68765E-01 -4.36012E-01 -3.24376E-01
 -9.65323E-01 -1.99556E-01 -1.38496E+00 -2.69841E-02 -1.59947E+00 +1.37920E-01 -1.54632E+00 +2.27852E-01
 -1.21076E+00 +1.79607E-01 -6.31552E-01 -4.78877E-02 +1.04007E-01 -4.57585E-01 +8.75825E-01 -1.00466E+00
 +1.55457E+00 -1.59669E+00 +2.02846E+00 -2.10541E+00 +2.22740E+00 -2.38937E+00 +2.13869E+00 -2.32392E+00
 +1.81005E+00 -1.83284E+00 +1.33827E+00 -9.14401E-01 +8.45335E-01 +3.45116E-01 +4.47026E-01 +1.77554E+00
 +2.21390E-01 +3.14623E+00 +1.85402E-01 +4.20614E+00 +2.86692E-01 +4.73371E+00 +4.14132E-01 +4.58631E+00
 +4.26491E-01 +3.73808E+00 +1.93455E-01 +2.29611E+00 -3.60645E-01 +4.89134E-01 -1.22202E+00 -1.37138E+00
 -2.27221E+00 -2.95144E+00 -3.29948E+00 -3.96397E+00 -4.03754E+00 -4.23208E+00 -4.22547E+00 -3.73117E+00
 -3.67627E+00 -2.59850E+00 -2.33773E+00 -1.10577E+00 -3.29051E-01 +4.00898E-01 +2.05915E+00 +1.58118E+00
 +4.40621E+00 +2.18264E+00 +6.23912E+00 +2.10451E+00 +7.13228E+00 +1.42647E+00 +6.80768E+00 +3.92841E-01
 +5.21195E+00 -6.46347E-01 +2.54984E+00 -1.32537E+00 -7.37809E-01 -1.36283E+00 -4.05117E+00 -6.46698E-01
 -6.75013E+00 +7.18816E-01 -8.29029E+00 +2.41970E+00 -8.34577E+00 +3.99470E+00 -6.88976E+00 +4.94273E+00
 -4.21165E+00 +4.85162E+00 -8.63147E-01 +3.51723E+00 +2.45737E+00 +1.02204E+00 +5.05832E+00 -2.25012E+00
 +6.41173E+00 -5.67263E+00 +6.27665E+00 -8.49992E+00 +4.75844E+00 -1.00318E+01 +2.28761E+00 -9.78174E+00
 -4.79826E-01 -7.60964E+00 -2.81922E+00 -3.78360E+00 -4.11531E+00 +1.04770E+00 -4.01886E+00 +5.97237E+00
 -2.54249E+00 +1.00003E+01 -6.98021E-02 +1.22770E+01 +2.72808E+00 +1.22775E+01 +5.05209E+00 +9.93630E+00
 +6.17466E+00 +5.67834E+00 +5.63166E+00 +3.41660E-01 +3.35887E+00 -4.99563E+00 -2.63374E-01 -9.24702E+00
 -4.47322E+00 -1.15567E+01 -8.28803E+00 -1.14907E+01 -1.07289E+01 -9.13618E+00 -1.10576E+01 -5.08161E+00
 -8.97013E+00 -2.83146E-01 -4.69737E+00 +4.15580E+00 +1.01439E+00 +7.24034E+00 +7.04476E+00 +8.31584E+00
 +1.21340E+01 +7.22068E+00 +1.51602E+01 +4.32271E+00 +1.53963E+01 +4.29321E-01 +1.26864E+01 -3.40889E+00
 +7.49822E+00 -6.15519E+00 +8.37345E-01 -7.04337E+00 -5.96217E+00 -5.77213E+00 -1.15238E+01 -2.58907E+00
 -1.47282E+01 +1.75802E+00 -1.49583E+01 +6.19307E+00 -1.22333E+01 +9.56791E+00 -7.20077E+00 +1.09425E+01
 -9.87983E-01 +9.82209E+00 +5.05328E+00 +6.29381E+00 +9.65008E+00 +1.02734E+00 +1.18899E+01 -4.86292E+00
 +1.14155E+01 -1.00644E+01 +8.49018E+00 -1.33656E+01 +3.91796E+00 -1.39385E+01 -1.15861E+00 -1.15383E+01
 -5.53535E+00 -6.57190E+00 -8.23127E+00 -1.96457E-02 -8.71390E+00 +6.77477E+00 -7.01278E+00 +1.23972E+01
 -3.69576E+00 +1.56726E+01 +2.83949E-01 +1.59208E+01 +3.83139E+00 +1.31004E+01 +5.98411E+00 +7.80918E+00
 +6.15034E+00 +1.14388E+00 +4.25405E+00 -5.54811E+00 +7.52588E-01 -1.09653E+01 -3.47606E+00 -1.41290E+01
 -7.34794E+00 -1.45790E+01 -9.83723E+00 -1.24457E+01 -1.02257E+01 -8.38667E+00 -8.27784E+00 -3.40936E+00
 -4.30121E+00 +1.37625E+00 +9.22315E-01 +5.01259E+00 +6.31513E+00 +6.89821E+00 +1.07496E+01 +6.89477E+00
 +1.33018E+01 +5.31746E+00 +1.34540E+01 +2.81780E+00 +1.12005E+01 +1.93602E-01 +7.03543E+00 -1.82320E+00
 +1.82822E+00 -2.74711E+00 -3.37811E+00 -2.44461E+00 -7.59791E+00 -1.14238E+00 -1.01076E+01 +6.58849E-01
 -1.05788E+01 +2.33780E+00 -9.11418E+00 +3.33059E+00 -6.18439E+00 +3.28578E+00 -2.48843E+00 +2.15688E+00
 +1.22240E+00 +2.10459E-01 +4.31207E+00 -2.04924E+00 +6.37897E+00 -4.01668E+00 +7.30225E+00 -5.14471E+00
 +7.21207E+00 -5.08523E+00 +6.40036E+00 -3.77483E+00 +5.20353E+00 -1.44527E+00 +3.89370E+00 +1.44113E+00
 +2.60942E+00 +4.31106E+00 +1.34361E+00 +6.62119E+00 -1.23370E-02 +7.98266E+00 -1.58600E+00 +8.23726E+00
 -3.43271E+00 +7.46821E+00 -5.46758E+00 +5.94692E+00 -7.44584E+00 +4.03530E+00 -9.00152E+00 +2.07438E+00
 -9.73686E+00 +2.93323E-01 -9.33814E+00 -1.23489E+00 -7.68436E+00 -2.57925E+00 -4.91476E+00 -3.88452E+00
 -1.43139E+00 -5.27605E+00 +2.17024E+00 -6.76813E+00 +5.22902E+00 -8.20864E+00 +7.17386E+00 -9.28288E+00
