 Created: 19-Jan-2021
 $NMID
 ID='D:\BASISSIMULATI'
 FMTDAT='(8E13.5)'
 VOLUME=   1.00000E+00
 TRAMP=   1.00000E+00
 $END
 +5.50240E+01 -4.90117E-01 +4.38847E+01 +3.17517E+01 +1.52044E+01 +4.92349E+01 -1.70478E+01 +4.43306E+01
 -3.74742E+01 +2.05187E+01 -3.69447E+01 -9.52879E+00 -1.70361E+01 -3.04647E+01 +1.09943E+01 -3.20311E+01
 +3.21089E+01 -1.41227E+01 +3.52049E+01 +1.33830E+01 +1.86943E+01 +3.58689E+01 -8.86212E+00 +4.15507E+01
 -3.33231E+01 +2.74806E+01 -4.23309E+01 +9.31288E-01 -3.16633E+01 -2.44929E+01 -7.32120E+00 -3.59633E+01
 +1.76775E+01 -2.80662E+01 +3.01067E+01 -5.56268E+00 +2.34116E+01 +1.91270E+01 +1.11715E+00 +3.23894E+01
 -2.49733E+01 +2.64907E+01 -4.08463E+01 +3.61990E+00 -3.74885E+01 -2.51643E+01 -1.55445E+01 -4.55309E+01
 +1.49506E+01 -4.71464E+01 +3.96093E+01 -2.89071E+01 +4.69182E+01 +5.17197E-01 +3.39741E+01 +2.70733E+01
 +7.83659E+00 +3.83895E+01 -1.81451E+01 +2.99155E+01 -3.11168E+01 +7.04453E+00 -2.51477E+01 -1.78014E+01
 -4.05591E+00 -3.15789E+01 +2.07418E+01 -2.72248E+01 +3.61876E+01 -7.10442E+00 +3.42577E+01 +1.83918E+01
 +1.59514E+01 +3.63089E+01 -9.39582E+00 +3.77954E+01 -2.90481E+01 +2.25576E+01 -3.34655E+01 -1.14466E+00
 -2.11594E+01 -2.08914E+01 +6.58008E-01 -2.65770E+01 +1.99138E+01 -1.56159E+01 +2.59827E+01 +5.77880E+00
 +1.52009E+01 +2.58623E+01 -7.23752E+00 +3.34574E+01 -2.99476E+01 +2.37353E+01 -4.11868E+01 +7.22294E-01
 -3.48521E+01 -2.47278E+01 -1.35830E+01 -4.04297E+01 +1.25875E+01 -3.90087E+01 +3.13092E+01 -2.15658E+01
 +3.41097E+01 +2.96731E+00 +2.05616E+01 +2.24051E+01 -1.65729E+00 +2.74549E+01 -2.07809E+01 +1.63047E+01
 -2.69545E+01 -4.63912E+00 -1.71519E+01 -2.41695E+01 +3.45503E+00 -3.20491E+01 +2.43008E+01 -2.41669E+01
 +3.49015E+01 -4.48277E+00 +3.01701E+01 +1.71655E+01 +1.28758E+01 +3.01941E+01 -7.95032E+00 +2.86773E+01
 -2.17707E+01 +1.42627E+01 -2.19750E+01 -4.84230E+00 -9.20119E+00 -1.82282E+01 +9.11782E+00 -1.86984E+01
 +2.26938E+01 -5.95563E+00 +2.37415E+01 +1.33046E+01 +1.09950E+01 +2.88933E+01 -9.65519E+00 +3.23870E+01
 -2.81902E+01 +2.14402E+01 -3.55698E+01 +9.64054E-01 -2.82953E+01 -1.93918E+01 -1.01195E+01 -3.01289E+01
 +9.92575E+00 -2.66519E+01 +2.21311E+01 -1.14808E+01 +2.09749E+01 +7.15320E+00 +7.79038E+00 +1.95567E+01
 -1.00676E+01 +1.94713E+01 -2.30677E+01 +7.13557E+00 -2.43555E+01 -1.09930E+01 -1.31435E+01 -2.56442E+01
 +5.04051E+00 -2.94772E+01 +2.12992E+01 -2.07312E+01 +2.79400E+01 -3.96451E+00 +2.23226E+01 +1.24234E+01
 +8.04540E+00 +2.05533E+01 -7.06659E+00 +1.70509E+01 -1.50768E+01 +4.63937E+00 -1.20109E+01 -9.41883E+00
 +1.85220E-01 -1.71659E+01 +1.47576E+01 -1.40725E+01 +2.36990E+01 -1.33071E+00 +2.18870E+01 +1.48178E+01
 +9.68658E+00 +2.63224E+01 -7.28032E+00 +2.74393E+01 -2.10317E+01 +1.76141E+01 -2.52708E+01 +1.69264E+00
 -1.85114E+01 -1.25978E+01 -4.71975E+00 -1.85705E+01 +8.79778E+00 -1.38959E+01 +1.51387E+01 -1.65334E+00
 +1.12549E+01 +1.13595E+01 -6.20008E-01 +1.81427E+01 -1.42347E+01 +1.50208E+01 -2.25691E+01 +3.40372E+00
 -2.13805E+01 -1.10560E+01 -1.12530E+01 -2.14144E+01 +2.83961E+00 -2.29492E+01 +1.41639E+01 -1.54484E+01
 +1.76606E+01 -3.15722E+00 +1.24236E+01 +7.52045E+00 +2.00015E+00 +1.13372E+01 -7.57317E+00 +6.82571E+00
 -1.09393E+01 -3.07764E+00 -6.15120E+00 -1.26678E+01 +4.40895E+00 -1.64724E+01 +1.53391E+01 -1.20587E+01
 +2.10324E+01 -1.22643E+00 +1.85320E+01 +1.09752E+01 +8.97824E+00 +1.88549E+01 -3.04751E+00 +1.89488E+01
 -1.18952E+01 +1.16973E+01 -1.36934E+01 +1.11586E+00 -8.22457E+00 -7.31941E+00 +1.08763E+00 -9.45654E+00
 +9.01579E+00 -4.50343E+00 +1.12131E+01 +4.68453E+00 +6.37050E+00 +1.31542E+01 -3.21751E+00 +1.64053E+01
 -1.29103E+01 +1.26298E+01 -1.81082E+01 +3.52916E+00 -1.65346E+01 -6.65051E+00 -9.27462E+00 -1.33169E+01
 -9.53313E-02 -1.38173E+01 +6.54504E+00 -8.66394E+00 +7.75098E+00 -1.12414E+00 +3.56503E+00 +4.55242E+00
 -3.19151E+00 +5.32698E+00 -8.47210E+00 +8.64965E-01 -9.11643E+00 -6.39470E+00 -4.43514E+00 -1.25746E+01
 +3.51030E+00 -1.43728E+01 +1.10245E+01 -1.07159E+01 +1.46780E+01 -3.23478E+00 +1.30067E+01 +4.63348E+00
 +7.16543E+00 +9.41309E+00 +2.50182E-01 +9.30876E+00 -4.32029E+00 +5.01790E+00 -4.51586E+00 -7.32857E-01
 -6.41311E-01 -4.64222E+00 +4.92189E+00 -4.51231E+00 +8.99744E+00 -3.03906E-01 +9.23601E+00 +5.92896E+00
 +5.25498E+00 +1.11420E+01 -1.24803E+00 +1.28454E+01 -7.41525E+00 +1.03029E+01 -1.06764E+01 +4.80788E+00
 -9.98025E+00 -1.05309E+00 -6.21292E+00 -4.73317E+00 -1.63896E+00 -4.96236E+00 +1.30372E+00 -2.28301E+00
 +1.22293E+00 +1.34215E+00 -1.59935E+00 +3.60253E+00 -5.44673E+00 +3.02246E+00 -8.10776E+00 -3.38478E-01
 -8.00920E+00 -4.98665E+00 -4.97105E+00 -8.80096E+00 -2.32124E-01 -1.01052E+01 +4.22354E+00 -8.46101E+00
 +6.66558E+00 -4.80890E+00 +6.43090E+00 -9.26836E-01 +4.16463E+00 +1.48323E+00 +1.40812E+00 +1.61040E+00
 -2.20727E-01 -1.40805E-01 +1.73368E-01 -2.44112E+00 +2.37253E+00 -3.75744E+00 +5.22461E+00 -3.12222E+00
 +7.26297E+00 -5.74432E-01 +7.43429E+00 +2.91669E+00 +5.57528E+00 +5.96867E+00 +2.42940E+00 +7.46024E+00
 -7.66398E-01 +7.02796E+00 -2.89118E+00 +5.16393E+00 -3.43920E+00 +2.90410E+00 -2.68320E+00 +1.29283E+00
 -1.45752E+00 +8.97624E-01 -7.00988E-01 +1.59696E+00 -9.98237E-01 +2.71264E+00 -2.33380E+00 +3.38868E+00
 -4.15022E+00 +3.01464E+00 -5.65038E+00 +1.49337E+00 -6.17871E+00 -7.51775E-01 -5.49994E+00 -3.00360E+00
 -3.86343E+00 -4.58287E+00 -1.85108E+00 -5.12640E+00 -1.02486E-01 -4.69811E+00 +9.49400E-01 -3.70817E+00
 +1.22330E+00 -2.70059E+00 +9.73021E-01 -2.11467E+00 +6.39068E-01 -2.11946E+00 +6.44981E-01 -2.57524E+00
 +1.22310E+00 -3.11919E+00 +2.32994E+00 -3.32796E+00 +3.67121E+00 -2.89066E+00 +4.81804E+00 -1.73141E+00
 +5.36904E+00 -4.28243E-02 +5.10184E+00 +1.77845E+00 +4.06157E+00 +3.27230E+00 +2.55231E+00 +4.08463E+00
 +1.02829E+00 +4.10428E+00 -8.12041E-02 +3.51099E+00 -5.47781E-01 +2.70600E+00 -4.45533E-01 +2.14233E+00
 -1.24791E-01 +2.11942E+00 -5.57623E-02 +2.63239E+00 -6.01371E-01 +3.35344E+00 -1.82100E+00 +3.76899E+00
 -3.40480E+00 +3.42255E+00 -4.78543E+00 +2.15427E+00 -5.38987E+00 +2.17008E-01 -4.91932E+00 -1.80197E+00
 -3.51853E+00 -3.23302E+00 -1.73925E+00 -3.63852E+00 -2.98451E-01 -3.03601E+00 +2.62529E-01 -1.90982E+00
 -1.47603E-01 -9.89473E-01 -1.10621E+00 -8.91214E-01 -1.86987E+00 -1.79618E+00 -1.74212E+00 -3.33177E+00
 -4.38344E-01 -4.72880E+00 +1.73868E+00 -5.18988E+00 +4.01221E+00 -4.29203E+00 +5.49040E+00 -2.22008E+00
 +5.59873E+00 +2.95568E-01 +4.36932E+00 +2.31708E+00 +2.43465E+00 +3.15106E+00 +7.20055E-01 +2.68775E+00
 -1.65079E-02 +1.45169E+00 +4.34234E-01 +3.31183E-01 +1.62770E+00 +1.18424E-01 +2.69603E+00 +1.09329E+00
 +2.80180E+00 +2.86644E+00 +1.58433E+00 +4.56809E+00 -6.32957E-01 +5.29132E+00 -2.98676E+00 +4.56495E+00
 -4.50171E+00 +2.61120E+00 -4.58559E+00 +2.50150E-01 -3.33678E+00 -1.50611E+00 -1.50129E+00 -1.96529E+00
 -9.58263E-02 -1.10994E+00 +1.13831E-01 +3.90151E-01 -9.87844E-01 +1.51951E+00 -2.79646E+00 +1.44145E+00
 -4.28770E+00 -6.21344E-02 -4.53702E+00 -2.46230E+00 -3.19499E+00 -4.73463E+00 -6.75215E-01 -5.86498E+00
 +2.04195E+00 -5.35277E+00 +3.89031E+00 -3.45626E+00 +4.23843E+00 -1.05627E+00 +3.18585E+00 +7.89532E-01
 +1.48735E+00 +1.37229E+00 +1.49455E-01 +6.69480E-01 -8.96054E-02 -6.74202E-01 +8.71449E-01 -1.70560E+00
 +2.46561E+00 -1.67052E+00 +3.77235E+00 -4.05353E-01 +4.00867E+00 +1.58684E+00 +2.93837E+00 +3.40864E+00
 +9.88803E-01 +4.24075E+00 -9.79859E-01 +3.76507E+00 -2.12627E+00 +2.31934E+00 -2.06138E+00 +7.07820E-01
 -1.03841E+00 -2.27107E-01 +1.94983E-01 -4.52306E-02 +7.99255E-01 +1.06845E+00 +2.86702E-01 +2.40964E+00
 -1.22449E+00 +3.12850E+00 -3.07315E+00 +2.67259E+00 -4.39550E+00 +1.06954E+00 -4.56144E+00 -1.09150E+00
 -3.48117E+00 -2.96132E+00 -1.63042E+00 -3.85181E+00 +2.07103E-01 -3.55829E+00 +1.33637E+00 -2.42417E+00
 +1.47814E+00 -1.12875E+00 +8.64290E-01 -3.22525E-01 +6.75735E-02 -3.06343E-01 -3.27984E-01 -9.16467E-01
 -3.33776E-02 -1.66012E+00 +8.21181E-01 -2.01155E+00 +1.79595E+00 -1.69951E+00 +2.40858E+00 -8.32929E-01
 +2.40197E+00 +1.90979E-01 +1.86655E+00 +9.29917E-01 +1.15969E+00 +1.14602E+00 +6.80907E-01 +9.22044E-01
 +6.38337E-01 +5.87297E-01 +9.39589E-01 +5.06434E-01 +1.26250E+00 +8.59159E-01 +1.25626E+00 +1.53770E+00
 +7.51031E-01 +2.21567E+00 -1.45468E-01 +2.54091E+00 -1.11521E+00 +2.33523E+00 -1.81459E+00 +1.68465E+00
 -2.06298E+00 +8.72627E-01 -1.92360E+00 +2.03371E-01 -1.63349E+00 -1.73280E-01 -1.43229E+00 -3.28165E-01
 -1.40141E+00 -4.72512E-01 -1.41721E+00 -7.85869E-01 -1.25026E+00 -1.26627E+00 -7.48010E-01 -1.70529E+00
 +1.89499E-02 -1.81356E+00 +7.51404E-01 -1.42504E+00 +1.07763E+00 -6.50157E-01 +7.88547E-01 +1.31811E-01
 +9.18245E-03 +4.59489E-01 -8.12886E-01 +6.21259E-02 -1.12153E+00 -9.40066E-01 -5.65795E-01 -2.04101E+00
 +7.61974E-01 -2.58384E+00 +2.31426E+00 -2.11615E+00 +3.33656E+00 -6.72267E-01 +3.26168E+00 +1.18806E+00
 +2.04009E+00 +2.63231E+00 +2.13037E-01 +2.98412E+00 -1.33646E+00 +2.10298E+00 -1.84243E+00 +4.96997E-01
 -1.08478E+00 -9.16267E-01 +4.54517E-01 -1.29494E+00 +1.81652E+00 -3.51464E-01 +2.07518E+00 +1.44400E+00
 +8.68341E-01 +3.07055E+00 -1.34553E+00 +3.49034E+00 -3.47025E+00 +2.23654E+00 -4.32764E+00 -2.67871E-01
 -3.30702E+00 -2.85951E+00 -7.56588E-01 -4.20699E+00 +2.11986E+00 -3.52443E+00 +3.84277E+00 -1.04556E+00
 +3.43314E+00 +2.01877E+00 +9.77701E-01 +4.05536E+00 -2.33834E+00 +3.88255E+00 -4.78578E+00 +1.41157E+00
 -4.97428E+00 -2.23178E+00 -2.61165E+00 -5.22529E+00 +1.27416E+00 -5.97051E+00 +4.80047E+00 -3.94821E+00
 +6.17395E+00 -4.95274E-02 +4.63714E+00 +3.82160E+00 +9.14686E-01 +5.70167E+00 -3.10299E+00 +4.59836E+00
 -5.30810E+00 +1.05501E+00 -4.48238E+00 -3.07322E+00 -9.81662E-01 -5.54975E+00 +3.38527E+00 -4.93173E+00
 +6.25655E+00 -1.37660E+00 +5.95315E+00 +3.36616E+00 +2.40937E+00 +6.81109E+00 -2.71093E+00 +7.02504E+00
 -6.81152E+00 +3.68331E+00 -7.69351E+00 -1.67723E+00 -4.73725E+00 -6.37888E+00 +6.95700E-01 -7.96014E+00
 +5.88758E+00 -5.48003E+00 +8.13120E+00 -7.92365E-02 +6.14976E+00 +5.52961E+00 +8.24290E-01 +8.41846E+00
 -5.18189E+00 +6.96828E+00 -8.74809E+00 +1.76693E+00 -7.91149E+00 -4.61525E+00 -2.93605E+00 -8.89667E+00
