 Created: 16-Jan-2021
 $NMID
 ID='D:\BASISSIMULATI'
 FMTDAT='(8E13.5)'
 VOLUME=   1.00000E+00
 TRAMP=   1.00000E+00
 $END
 +4.52704E+01 +3.16681E+00 +3.20096E+01 +3.07557E+01 +3.65936E+00 +4.10539E+01 -2.28457E+01 +2.86474E+01
 -3.19653E+01 +1.97359E+00 -1.90995E+01 -2.20552E+01 +6.79806E+00 -2.86100E+01 +2.90523E+01 -1.39904E+01
 +3.37044E+01 +1.24448E+01 +1.79306E+01 +3.44443E+01 -8.69941E+00 +3.90130E+01 -3.05908E+01 +2.41022E+01
 -3.58200E+01 -7.67753E-01 -2.30206E+01 -2.09342E+01 -1.42518E+00 -2.56881E+01 +1.54751E+01 -1.43005E+01
 +1.82961E+01 +4.44376E+00 +6.90108E+00 +1.83616E+01 -1.04884E+01 +1.94036E+01 -2.30553E+01 +7.90959E+00
 -2.40080E+01 -8.60718E+00 -1.39776E+01 -2.07518E+01 +4.18903E-01 -2.29059E+01 +1.12961E+01 -1.58138E+01
 +1.41675E+01 -5.03075E+00 +9.78233E+00 +3.13612E+00 +2.55812E+00 +5.29999E+00 -2.75732E+00 +2.15552E+00
 -3.78559E+00 -3.01213E+00 -1.08800E+00 -6.90856E+00 +3.16820E+00 -8.00138E+00 +7.01818E+00 -6.59221E+00
 +9.60486E+00 -3.71096E+00 +1.08467E+01 -7.71419E-02 +1.06168E+01 +4.01353E+00 +8.45248E+00 +8.04251E+00
 +4.15125E+00 +1.07716E+01 -1.35070E+00 +1.06609E+01 -5.82677E+00 +7.08357E+00 -6.82959E+00 +1.36195E+00
 -3.42977E+00 -3.43213E+00 +2.65879E+00 -4.13024E+00 +7.62298E+00 +3.65737E-01 +7.71226E+00 +7.92678E+00
 +1.74300E+00 +1.40683E+01 -7.75880E+00 +1.45430E+01 -1.57280E+01 +8.09913E+00 -1.75040E+01 -2.42274E+00
 -1.17676E+01 -1.15207E+01 -1.56968E+00 -1.42443E+01 +7.31385E+00 -9.24098E+00 +9.78585E+00 +2.95823E-01
 +4.52150E+00 +8.44020E+00 -5.17038E+00 +1.00537E+01 -1.32821E+01 +3.87572E+00 -1.46790E+01 -6.70163E+00
 -8.14657E+00 -1.56438E+01 +2.91417E+00 -1.78403E+01 +1.25266E+01 -1.20784E+01 +1.56496E+01 -1.67094E+00
 +1.10536E+01 +7.57047E+00 +1.89424E+00 +1.07478E+01 -6.26383E+00 +6.63518E+00 -8.72516E+00 -1.78762E+00
 -4.29178E+00 -9.23202E+00 +4.23256E+00 -1.12174E+01 +1.18349E+01 -6.56227E+00 +1.42308E+01 +2.12874E+00
 +1.02156E+01 +1.01340E+01 +2.14539E+00 +1.33599E+01 -5.59266E+00 +1.05526E+01 -9.12423E+00 +3.78171E+00
 -7.15871E+00 -2.93959E+00 -1.48231E+00 -5.99150E+00 +4.26803E+00 -4.07856E+00 +6.73330E+00 +1.26610E+00
 +4.62571E+00 +6.75235E+00 -7.54932E-01 +9.25713E+00 -6.44104E+00 +7.48345E+00 -9.52178E+00 +2.48965E+00
 -8.67218E+00 -3.08253E+00 -4.69452E+00 -6.53866E+00 +1.10399E-01 -6.53389E+00 +3.28648E+00 -3.62454E+00
 +3.50037E+00 +2.24774E-01 +1.09924E+00 +2.80453E+00 -2.25531E+00 +2.81729E+00 -4.58054E+00 +4.37581E-01
 -4.61330E+00 -2.93753E+00 -2.36872E+00 -5.52244E+00 +1.00213E+00 -6.07326E+00 +3.89764E+00 -4.44289E+00
 +5.09120E+00 -1.53683E+00 +4.28028E+00 +1.23407E+00 +2.13080E+00 +2.67976E+00 -1.42670E-01 +2.37085E+00
 -1.40935E+00 +7.61062E-01 -1.14927E+00 -1.11709E+00 +3.57030E-01 -2.19749E+00 +2.23015E+00 -1.89215E+00
 +3.45745E+00 -3.37482E-01 +3.38770E+00 +1.71727E+00 +2.02439E+00 +3.30356E+00 -7.34323E-03 +3.70985E+00
 -1.78904E+00 +2.81284E+00 -2.56489E+00 +1.11207E+00 -2.10196E+00 -5.39194E-01 -7.81744E-01 -1.36742E+00
 +6.15729E-01 -1.05890E+00 +1.32094E+00 +1.02271E-01 +9.66540E-01 +1.40324E+00 -2.38318E-01 +2.08612E+00
 -1.63640E+00 +1.74412E+00 -2.48057E+00 +5.23687E-01 -2.32883E+00 -9.68867E-01 -1.26715E+00 -2.00000E+00
 +1.53527E-01 -2.09831E+00 +1.22449E+00 -1.29180E+00 +1.45873E+00 -7.08922E-02 +8.36772E-01 +8.93508E-01
 -2.08658E-01 +1.11607E+00 -1.05031E+00 +5.45925E-01 -1.21636E+00 -4.31443E-01 -6.37953E-01 -1.22940E+00
 +3.36016E-01 -1.39268E+00 +1.15386E+00 -8.40209E-01 +1.37573E+00 +1.11036E-01 +9.08955E-01 +9.42796E-01
 +3.81039E-02 +1.23194E+00 -7.55455E-01 +8.76242E-01 -1.07144E+00 +1.27865E-01 -8.04925E-01 -5.72288E-01
 -1.80864E-01 -8.54079E-01 +3.98891E-01 -6.19387E-01 +5.97306E-01 -7.52715E-02 +3.29536E-01 +4.08493E-01
 -2.07072E-01 +5.24478E-01 -6.66744E-01 +2.01055E-01 -7.65052E-01 -3.71577E-01 -4.39162E-01 -8.67728E-01
 +1.30204E-01 -1.02208E+00 +6.38602E-01 -7.77754E-01 +8.41177E-01 -3.04254E-01 +6.89507E-01 +1.16785E-01
 +3.45574E-01 +2.63799E-01 +7.19722E-02 +1.02096E-01 +6.90191E-02 -2.05969E-01 +3.56261E-01 -4.07429E-01
 +7.65377E-01 -3.14527E-01 +1.04428E+00 +8.28028E-02 +1.00811E+00 +6.11882E-01 +6.47975E-01 +1.01974E+00
 +1.34958E-01 +1.12115E+00 -2.81166E-01 +9.05267E-01 -4.18370E-01 +5.39398E-01 -2.68341E-01 +2.68220E-01
 -2.28187E-04 +2.67506E-01 +1.40484E-01 +5.37558E-01 -2.01444E-02 +8.99214E-01 -4.75944E-01 +1.09645E+00
 -1.03611E+00 +9.47472E-01 -1.42995E+00 +4.56510E-01 -1.46223E+00 -1.80672E-01 -1.12892E+00 -6.83886E-01
 -6.23971E-01 -8.48451E-01 -2.29712E-01 -6.65152E-01 -1.52080E-01 -3.28021E-01 -3.96589E-01 -1.21713E-01
 -7.60126E-01 -2.51469E-01 -9.47380E-01 -7.15063E-01 -7.46674E-01 -1.29461E+00 -1.62242E-01 -1.67725E+00
 +5.77516E-01 -1.63714E+00 +1.14496E+00 -1.17220E+00 +1.30136E+00 -5.12703E-01 +1.03818E+00 +7.77270E-03
 +5.85917E-01 +1.46577E-01 +2.80690E-01 -1.02250E-01 +3.63579E-01 -4.99308E-01 +8.30140E-01 -6.98227E-01
 +1.42191E+00 -4.53841E-01 +1.77063E+00 +2.21447E-01 +1.61558E+00 +1.04875E+00 +9.67777E-01 +1.63345E+00
 +1.20338E-01 +1.69379E+00 -5.09717E-01 +1.23510E+00 -6.23632E-01 +5.62398E-01 -2.27623E-01 +1.13362E-01
 +3.51850E-01 +1.99238E-01 +6.46597E-01 +8.02752E-01 +3.27239E-01 +1.55996E+00 -5.75387E-01 +1.95387E+00
 -1.64905E+00 +1.62239E+00 -2.31324E+00 +6.03619E-01 -2.16125E+00 -6.39968E-01 -1.23397E+00 -1.45929E+00
 -4.61845E-02 -1.40187E+00 +6.82012E-01 -5.18165E-01 +4.57028E-01 +6.12196E-01 -6.46018E-01 +1.18749E+00
 -1.96091E+00 +6.72298E-01 -2.58472E+00 -8.21643E-01 -1.93115E+00 -2.52187E+00 -1.51785E-01 -3.40646E+00
 +1.86501E+00 -2.82984E+00 +2.97167E+00 -9.84853E-01 +2.46590E+00 +1.12001E+00 +5.91752E-01 +2.21372E+00
 -1.51331E+00 +1.54994E+00 -2.45555E+00 -5.57044E-01 -1.45716E+00 -2.82483E+00 +1.07908E+00 -3.73189E+00
 +3.71174E+00 -2.47457E+00 +4.78741E+00 +4.47079E-01 +3.47990E+00 +3.43007E+00 +3.87882E-01 +4.69582E+00
 -2.73258E+00 +3.40577E+00 -3.99617E+00 +2.60214E-01 -2.57097E+00 -2.84267E+00 +7.33099E-01 -3.93221E+00
 +3.88362E+00 -2.20304E+00 +4.84169E+00 +1.41883E+00 +2.84070E+00 +4.77601E+00 -1.08107E+00 +5.77628E+00
 -4.66005E+00 +3.69659E+00 -5.77085E+00 -3.27404E-01 -3.73836E+00 -3.95586E+00 +2.23454E-01 -5.05801E+00
 +3.73272E+00 -3.01452E+00 +4.68275E+00 +9.00187E-01 +2.51687E+00 +4.29382E+00 -1.44865E+00 +5.10757E+00
 -4.84046E+00 +2.84651E+00 -5.66478E+00 -1.15662E+00 -3.47841E+00 -4.57943E+00 +4.02976E-01 -5.50848E+00
 +3.74467E+00 -3.53805E+00 +4.73014E+00 +7.01320E-02 +2.97714E+00 +3.20635E+00 -3.41346E-01 +4.16627E+00
 -3.27321E+00 +2.57671E+00 -4.23583E+00 -5.10282E-01 -2.84683E+00 -3.32699E+00 -5.10378E-03 -4.41536E+00
 +2.72947E+00 -3.36104E+00 +4.02253E+00 -8.76923E-01 +3.40363E+00 +1.70671E+00 +1.36865E+00 +3.17694E+00
 -1.00010E+00 +2.98476E+00 -2.60717E+00 +1.38255E+00 -2.80426E+00 -8.08516E-01 -1.57845E+00 -2.60371E+00
 +5.18714E-01 -3.23571E+00 +2.60459E+00 -2.40823E+00 +3.77534E+00 -3.98023E-01 +3.43768E+00 +2.00588E+00
 +1.59189E+00 +3.74966E+00 -1.05815E+00 +3.93552E+00 -3.29910E+00 +2.29037E+00 -3.92645E+00 -5.57266E-01
 -2.40082E+00 -3.22656E+00 +7.13768E-01 -4.20665E+00 +3.86258E+00 -2.69969E+00 +5.23022E+00 +7.86480E-01
 +3.76707E+00 +4.52142E+00 -7.14874E-02 +6.39144E+00 -4.38484E+00 +5.10363E+00 -6.77482E+00 +1.06273E+00
 -5.71956E+00 -3.67062E+00 -1.57820E+00 -6.43327E+00 +3.43749E+00 -5.49376E+00 +6.41844E+00 -1.17455E+00
 +5.44212E+00 +4.16746E+00 +8.01331E-01 +7.39313E+00 -5.01026E+00 +6.40271E+00 -8.64102E+00 +1.45979E+00
 -7.82763E+00 -4.82188E+00 -2.80172E+00 -8.90468E+00 +3.72584E+00 -8.38334E+00 +8.06672E+00 -3.46032E+00
 +7.70486E+00 +3.07709E+00 +2.82495E+00 +7.42540E+00 -3.72300E+00 +6.99044E+00 -8.05002E+00 +1.95171E+00
 -7.51000E+00 -4.79122E+00 -2.28157E+00 -9.29251E+00 +4.70942E+00 -8.87668E+00 +9.49883E+00 -3.71809E+00
 +9.41173E+00 +3.26591E+00 +4.61764E+00 +8.14477E+00 -2.01063E+00 +8.28617E+00 -6.63120E+00 +3.86395E+00
 -6.69950E+00 -2.32155E+00 -2.40544E+00 -6.56366E+00 +3.54743E+00 -6.44023E+00 +7.62665E+00 -2.15716E+00
 +7.55470E+00 +3.71302E+00 +3.53758E+00 +7.85641E+00 -2.03338E+00 +8.16170E+00 -6.11975E+00 +4.81453E+00
 -6.80709E+00 -2.98897E-02 -4.24852E+00 -3.66844E+00 -3.19078E-01 -4.41643E+00 +2.65872E+00 -2.38777E+00
 +3.24758E+00 +8.54263E-01 +1.50502E+00 +3.39338E+00 -1.35068E+00 +4.03465E+00 -3.82811E+00 +2.74235E+00
 -4.95867E+00 +3.44041E-01 -4.56779E+00 -2.11867E+00 -3.04287E+00 -3.89318E+00 -9.49195E-01 -4.63105E+00
 +1.17214E+00 -4.24662E+00 +2.77940E+00 -2.82016E+00 +3.30625E+00 -6.96903E-01 +2.36792E+00 +1.36969E+00
 +1.53136E-01 +2.33736E+00 -2.34090E+00 +1.39352E+00 -3.59582E+00 -1.37622E+00 -2.40515E+00 -4.69170E+00
 +1.20369E+00 -6.55451E+00 +5.64323E+00 -5.39040E+00 +8.44723E+00 -1.19587E+00 +7.70871E+00 +4.13743E+00
 +3.41656E+00 +7.71788E+00 -2.25200E+00 +7.36533E+00 -6.04247E+00 +3.09819E+00 -5.57784E+00 -2.63392E+00
 -9.54014E-01 -6.27251E+00 +5.11198E+00 -5.31222E+00 +8.80380E+00 +3.80622E-02 +7.53455E+00 +6.81012E+00
 +1.63284E+00 +1.09785E+01 -5.72683E+00 +9.91199E+00 -1.03798E+01 +4.04682E+00 -9.69893E+00 -3.30201E+00
 -4.22036E+00 -7.91728E+00 +2.66136E+00 -7.23561E+00 +6.75399E+00 -1.89757E+00 +5.60673E+00 +4.66567E+00
 -3.79369E-02 +8.33745E+00 -6.75026E+00 +6.79715E+00 -1.05229E+01 +8.59603E-01 -9.15915E+00 -6.10193E+00
 -3.49387E+00 -1.02295E+01 +3.22772E+00 -9.44550E+00 +7.34900E+00 -4.55630E+00 +6.92004E+00 +1.38388E+00
 +2.69180E+00 +4.96195E+00 -2.50549E+00 +4.36207E+00 -5.51234E+00 +2.62955E-01 -4.62747E+00 -4.73935E+00
 -4.27095E-01 -7.72091E+00 +4.73999E+00 -7.05034E+00 +8.16589E+00 -3.15306E+00 +8.24569E+00 +1.89593E+00
 +5.21104E+00 +5.60097E+00 +8.41473E-01 +6.36314E+00 -2.57884E+00 +4.20703E+00 -3.45198E+00 +6.24725E-01
 -1.60805E+00 -2.28854E+00 +1.71097E+00 -2.92087E+00 +4.55071E+00 -9.19963E-01 +5.25095E+00 +2.68244E+00
 +3.27262E+00 +6.02394E+00 -5.41743E-01 +7.36282E+00 -4.39738E+00 +5.96704E+00 -6.46547E+00 +2.50041E+00
 -5.83920E+00 -1.30663E+00 -3.02932E+00 -3.56052E+00 +2.89911E-01 -3.22614E+00 +2.18457E+00 -7.10731E-01
 +1.54110E+00 +2.34055E+00 -1.28535E+00 +3.95954E+00 -4.64893E+00 +2.98260E+00 -6.54524E+00 -2.60985E-01
