 Created: 16-Jan-2021
 $NMID
 ID='D:\BASISSIMULATI'
 FMTDAT='(8E13.5)'
 VOLUME=   1.00000E+00
 TRAMP=   1.00000E+00
 $END
 +2.96575E+01 +1.58007E+00 +1.83473E+01 +2.33072E+01 -5.41451E+00 +2.91260E+01 -2.54337E+01 +1.51184E+01
 -2.81024E+01 -9.13773E+00 -1.16488E+01 -2.71174E+01 +1.26870E+01 -2.66064E+01 +2.83320E+01 -7.99878E+00
 +2.46660E+01 +1.60030E+01 +4.23111E+00 +2.90592E+01 -1.90305E+01 +2.23162E+01 -2.92890E+01 +4.10458E-01
 -1.95991E+01 -2.17195E+01 +3.39801E+00 -2.90201E+01 +2.40260E+01 -1.65626E+01 +2.82595E+01 +7.12966E+00
 +1.32600E+01 +2.59128E+01 -1.07215E+01 +2.70226E+01 -2.73499E+01 +9.74862E+00 -2.53329E+01 -1.41131E+01
 -6.08927E+00 -2.83151E+01 +1.72480E+01 -2.32212E+01 +2.87944E+01 -2.34481E+00 +2.07256E+01 +2.00741E+01
 -1.42071E+00 +2.87822E+01 -2.25451E+01 +1.78904E+01 -2.82810E+01 -5.14322E+00 -1.47655E+01 -2.46206E+01
 +8.75968E+00 -2.73019E+01 +2.62674E+01 -1.14055E+01 +2.58639E+01 +1.22092E+01 +7.86846E+00 +2.74598E+01
 -1.54340E+01 +2.39936E+01 -2.81796E+01 +4.21552E+00 -2.17252E+01 -1.83804E+01 -5.09271E-01 -2.84171E+01
 +2.09998E+01 -1.90990E+01 +2.81706E+01 +3.18705E+00 +1.61615E+01 +2.32493E+01 -6.81068E+00 +2.74467E+01
 -2.50925E+01 +1.29641E+01 -2.62602E+01 -1.03004E+01 -9.56259E+00 -2.65002E+01 +1.35977E+01 -2.46336E+01
 +2.74506E+01 -6.01563E+00 +2.25965E+01 +1.66474E+01 +2.38426E+00 +2.79299E+01 -1.93991E+01 +2.01858E+01
 -2.79323E+01 -1.26941E+00 -1.74443E+01 -2.18073E+01 +4.88319E+00 -2.74601E+01 +2.38330E+01 -1.44201E+01
 +2.65238E+01 +8.39589E+00 +1.11661E+01 +2.54436E+01 -1.17483E+01 +2.51416E+01 -2.66139E+01 +7.73872E+00
 -2.33391E+01 -1.48844E+01 -4.19705E+00 -2.73262E+01 +1.77519E+01 -2.11492E+01 +2.75707E+01 -6.01842E-01
 +1.86110E+01 +2.03034E+01 -2.98557E+00 +2.73455E+01 -2.24971E+01 +1.57693E+01 -2.66569E+01 -6.50427E+00
 -1.26740E+01 -2.42977E+01 +9.89482E+00 -2.55189E+01 +2.56764E+01 -9.37886E+00 +2.39531E+01 +1.31003E+01
 +5.94091E+00 +2.66121E+01 -1.60671E+01 +2.19881E+01 -2.70909E+01 +2.41927E+00 -1.96595E+01 -1.87461E+01
 +1.12582E+00 -2.71070E+01 +2.10932E+01 -1.70085E+01 +2.66626E+01 +4.63400E+00 +1.40819E+01 +2.30701E+01
 -8.04587E+00 +2.57674E+01 -2.46452E+01 +1.09307E+01 -2.44390E+01 -1.13039E+01 -7.60962E+00 -2.57937E+01
 +1.43536E+01 -2.27020E+01 +2.64983E+01 -4.17590E+00 +2.05880E+01 +1.71442E+01 +6.88455E-01 +2.67491E+01
 -1.96295E+01 +1.81349E+01 -2.65442E+01 -2.79320E+00 -1.53860E+01 -2.17688E+01 +6.20995E+00 -2.58894E+01
 +2.35276E+01 -1.23895E+01 +2.47981E+01 +9.50406E+00 +9.19747E+00 +2.48779E+01 -1.26202E+01 +2.32909E+01
 -2.57987E+01 +5.86523E+00 -2.13956E+01 -1.55063E+01 -2.45006E+00 -2.62767E+01 +1.81145E+01 -1.91463E+01
 +2.63058E+01 +9.89621E-01 +1.65830E+01 +2.04019E+01 -4.39524E+00 +2.58878E+01 -2.23312E+01 +1.37509E+01
 -2.50322E+01 -7.70911E+00 -1.06993E+01 -2.38714E+01 +1.08754E+01 -2.37556E+01 +2.49984E+01 -7.48125E+00
 +2.20818E+01 +1.38410E+01 +4.15224E+00 +2.56950E+01 -1.65567E+01 +2.00412E+01 -2.59516E+01 +7.69380E-01
 -1.76704E+01 -1.89774E+01 +2.60959E+00 -2.57660E+01 +2.10636E+01 -1.50113E+01 +2.51436E+01 +5.92729E+00
 +1.21105E+01 +2.27815E+01 -9.12765E+00 +2.40972E+01 -2.41037E+01 +9.01845E+00 -2.26466E+01 -1.21569E+01
 -5.78872E+00 -2.50098E+01 +1.49644E+01 -2.08186E+01 +2.54865E+01 -2.47684E+00 +1.86460E+01 +1.75036E+01
 -8.60510E-01 +2.55278E+01 -1.97328E+01 +1.61676E+01 -2.51352E+01 -4.16651E+00 -1.34269E+01 -2.16155E+01
 +7.38515E+00 -2.43176E+01 +2.31215E+01 -1.04718E+01 +2.30909E+01 +1.04622E+01 +7.35368E+00 +2.42272E+01
 -1.33460E+01 +2.14780E+01 -2.49157E+01 +4.12624E+00 -1.95084E+01 -1.59887E+01 -8.44877E-01 -2.51775E+01
 +1.83465E+01 -1.72172E+01 +2.50102E+01 +2.43439E+00 +1.46450E+01 +2.03808E+01 -5.65585E+00 +2.44189E+01
 -2.20586E+01 +1.18369E+01 -2.34157E+01 -8.76508E+00 -8.84181E+00 -2.33533E+01 +1.17098E+01 -2.20197E+01
 +2.42447E+01 -5.71149E+00 +2.02567E+01 +1.44408E+01 +2.49984E+00 +2.47198E+01 -1.69128E+01 +1.81583E+01
 -2.47725E+01 -7.38184E-01 -1.57619E+01 -1.90851E+01 +3.94743E+00 -2.44041E+01 +2.09222E+01 -1.31098E+01
 +2.36229E+01 +7.07352E+00 +1.02483E+01 +2.23947E+01 -1.00638E+01 +2.24443E+01 -2.34794E+01 +7.22698E+00
 -2.08904E+01 -1.28680E+01 -4.09806E+00 -2.41597E+01 +1.54397E+01 -1.89893E+01 +2.44261E+01 -9.15197E-01
 +1.67751E+01 +1.77361E+01 -2.26725E+00 +2.42763E+01 -1.97196E+01 +1.42871E+01 -2.37147E+01 -5.39523E+00
 -1.15688E+01 -2.13582E+01 +8.41586E+00 -2.27531E+01 +2.26258E+01 -8.66758E+00 +2.14098E+01 +1.12784E+01
 +5.63366E+00 +2.35026E+01 -1.39349E+01 +1.97094E+01 -2.39757E+01 +2.51924E+00 -1.76828E+01 -1.63414E+01
 +6.22356E-01 -2.40391E+01 +1.84582E+01 -1.53659E+01 +2.36938E+01 +3.73763E+00 +1.27995E+01 +2.02508E+01
 -6.77379E+00 +2.29477E+01 -2.16904E+01 +1.00286E+01 -2.18155E+01 -9.67964E+00 -7.10121E+00 -2.27542E+01
 +1.24065E+01 -2.03184E+01 +2.34262E+01 -4.06785E+00 +1.84835E+01 +1.49089E+01 +9.80580E-01 +2.36968E+01
 -1.71454E+01 +1.63439E+01 -2.35634E+01 -2.10787E+00 -1.39373E+01 -1.90795E+01 +5.14502E+00 -2.30304E+01
 +2.06797E+01 -1.13060E+01 +2.21089E+01 +8.07953E+00 +8.49576E+00 +2.19206E+01 -1.08621E+01 +2.08163E+01
 -2.27828E+01 +5.55532E+00 -1.91766E+01 -1.34461E+01 -2.53525E+00 -2.32537E+01 +1.57888E+01 -1.72192E+01
 +2.33271E+01 +5.12750E-01 +1.49792E+01 +1.78515E+01 -3.53676E+00 +2.30039E+01 -1.96005E+01 +1.24959E+01
 -2.22915E+01 -6.48552E+00 -9.81281E+00 -2.10078E+01 +9.30931E+00 -2.12039E+01 +2.20511E+01 -6.97643E+00
 +1.97616E+01 +1.19608E+01 +4.03575E+00 +2.27146E+01 -1.43958E+01 +1.79908E+01 -2.29889E+01 +1.04125E+00
 -1.59232E+01 -1.65740E+01 +1.95592E+00 -2.28712E+01 +1.84597E+01 -1.35954E+01 +2.23656E+01 +4.90484E+00
 +1.10484E+01 +2.00223E+01 -7.75564E+00 +2.14825E+01 -2.12370E+01 +8.32638E+00 -2.02389E+01 -1.04604E+01
 -5.47659E+00 -2.20847E+01 +1.29739E+01 -1.86577E+01 +2.25531E+01 -2.54805E+00 +1.67674E+01 +1.52543E+01
 -4.09099E-01 +2.26359E+01 -1.72642E+01 +1.46017E+01 -2.23337E+01 -3.34447E+00 -1.21989E+01 -1.89707E+01
 +6.20830E+00 -2.16536E+01 +2.03463E+01 -9.60083E+00 +2.06091E+01 +8.95230E+00 +6.85270E+00 +2.13694E+01
 -1.15305E+01 +1.92197E+01 -2.20243E+01 +4.00192E+00 -1.75107E+01 -1.38998E+01 -1.09744E+00 -2.23018E+01
 +1.60211E+01 -1.55128E+01 +2.21990E+01 +1.81111E+00 +1.32614E+01 +1.78596E+01 -4.67431E+00 +2.17195E+01
 -1.93855E+01 +1.07959E+01 -2.08735E+01 -7.44375E+00 -8.15944E+00 -2.05743E+01 +1.00728E+01 -1.96771E+01
 +2.14077E+01 -5.39755E+00 +1.81524E+01 +1.25176E+01 +2.55781E+00 +2.18732E+01 -1.47375E+01 +1.63269E+01
 -2.19648E+01 -3.11149E-01 -1.42333E+01 -1.66958E+01 +3.16044E+00 -2.16827E+01 +1.83607E+01 -1.19083E+01
 +2.10337E+01 +5.94174E+00 +9.39265E+00 +1.97053E+01 -8.60816E+00 +2.00306E+01 -2.07084E+01 +6.73005E+00
 -1.86922E+01 -1.11150E+01 -3.96647E+00 -2.13547E+01 +1.34204E+01 -1.70430E+01 +2.16349E+01 -1.14936E+00
 +1.51125E+01 +1.54862E+01 -1.67315E+00 +2.15462E+01 -1.72786E+01 +1.29350E+01 -2.10918E+01 -4.45309E+00
 -1.05486E+01 -1.87685E+01 +7.14343E+00 -2.02814E+01 +1.99320E+01 -7.99495E+00 +1.91305E+01 +9.69893E+00
 +5.31829E+00 +2.07511E+01 -1.20768E+01 +1.76604E+01 -2.12135E+01 +2.56470E+00 -1.58976E+01 -1.42376E+01
 +2.18653E-01 -2.13132E+01 +1.61457E+01 -1.38736E+01 +2.10504E+01 +2.98434E+00 +1.16240E+01 +1.77700E+01
 -5.68546E+00 +2.04312E+01 -1.90842E+01 +9.18822E+00 -1.94680E+01 -8.27644E+00 -6.60855E+00 -2.00675E+01
 +1.07138E+01 -1.81789E+01 +2.07051E+01 -3.92954E+00 +1.65874E+01 +1.29570E+01 +1.19720E+00 +2.09876E+01
 -1.49687E+01 +1.47221E+01 -2.09122E+01 -1.54177E+00 -1.26161E+01 -1.67161E+01 +4.24082E+00 -2.04819E+01
 +1.81708E+01 -1.03063E+01 +1.97058E+01 +6.85429E+00 +7.83292E+00 +1.93094E+01 -9.33820E+00 +1.85988E+01
 -2.01143E+01 +5.23890E+00 -1.71814E+01 -1.16510E+01 -2.56889E+00 -2.05734E+01 +1.37543E+01 -1.54792E+01
 +2.06807E+01 +1.31374E-01 +1.35225E+01 +1.56134E+01 -2.81587E+00 +2.04361E+01 -1.71979E+01 +1.13459E+01
 -1.98456E+01 -5.43907E+00 -8.98751E+00 -1.84822E+01 +7.95671E+00 -1.89208E+01 +1.94462E+01 -6.48822E+00
 +1.76793E+01 +1.03265E+01 +3.89124E+00 +2.00749E+01 -1.25091E+01 +1.61436E+01 -2.03594E+01 +1.24117E+00
 -1.43414E+01 -1.44681E+01 +1.41669E+00 -2.02966E+01 +1.61716E+01 -1.23045E+01 +1.98893E+01 +4.03717E+00
 +1.00689E+01 +1.75917E+01 -6.57591E+00 +1.91462E+01 -1.87059E+01 +7.67333E+00 -1.80815E+01 -8.99021E+00
 -5.15946E+00 -1.94967E+01 +1.12397E+01 -1.67150E+01 +1.99523E+01 -2.57053E+00 +1.50713E+01 +1.32869E+01
 -4.90874E-02 +2.00666E+01 -1.50981E+01 +1.31798E+01 -1.98395E+01 -2.65474E+00 -1.10740E+01 -1.66438E+01
 +5.20222E+00 -1.92765E+01 +1.78989E+01 -8.79048E+00 +1.83887E+01 +7.64855E+00 +6.36912E+00 +1.88437E+01
 -9.95267E+00 +1.71931E+01 -1.94636E+01 +3.85170E+00 -1.57113E+01 -1.20762E+01 -1.28146E+00 -1.97497E+01
 +1.39838E+01 -1.39700E+01 +1.96989E+01 +1.29767E+00 +1.20002E+01 +1.56444E+01 -3.84181E+00 +1.93136E+01
 -1.70308E+01 +9.83633E+00 -1.86022E+01 -6.30793E+00 -7.51621E+00 -1.81209E+01 +8.65452E+00 -1.75783E+01
 +1.88978E+01 -5.08003E+00 +1.62609E+01 +1.08423E+01 +2.56977E+00 +1.93496E+01 -1.28349E+01 +1.46738E+01
 -1.94705E+01 +2.84271E-02 -1.28454E+01 -1.45995E+01 +2.50065E+00 -1.92600E+01 +1.61072E+01 -1.08080E+01
 +1.87233E+01 +4.97457E+00 +8.59710E+00 +1.73337E+01 -7.35156E+00 +1.78713E+01 -1.82596E+01 +6.25127E+00
 -1.67199E+01 -9.59175E+00 -3.81101E+00 -1.88706E+01 +1.16577E+01 -1.52902E+01 +1.91580E+01 -1.31823E+00
 +1.36079E+01 +1.35153E+01 -1.18444E+00 +1.91184E+01 -1.51340E+01 +1.17029E+01 -1.87542E+01 -3.65445E+00
 -9.60858E+00 -1.64874E+01 +6.04998E+00 -1.80733E+01 +1.75540E+01 -7.36154E+00 +1.70887E+01 +8.33072E+00
 +5.00070E+00 +1.83169E+01 -1.04585E+01 +1.58187E+01 -1.87649E+01 +2.56674E+00 -1.42864E+01 -1.23979E+01
 -1.01379E-01 -1.88918E+01 +1.41170E+01 -1.25190E+01 +1.86972E+01 +2.35334E+00 +1.05478E+01 +1.55876E+01
 -4.75578E+00 +1.81858E+01 -1.67860E+01 +8.40732E+00 -1.73681E+01 -7.06537E+00 -6.13471E+00 -1.76933E+01
 +9.24335E+00 -1.62594E+01 +1.82954E+01 -3.76928E+00 +1.48800E+01 +1.12534E+01 +1.35167E+00 +1.85837E+01
 -1.30621E+01 +1.32548E+01 -1.85548E+01 -1.07678E+00 -1.14125E+01 -1.46399E+01 +3.47477E+00 -1.82108E+01
