 Created: 16-Jan-2021
 $NMID
 ID='D:\BASISSIMULATI'
 FMTDAT='(8E13.5)'
 VOLUME=   1.00000E+00
 TRAMP=   1.00000E+00
 $END
 +3.31838E+01 +1.76396E+00 +1.95808E+01 +2.50401E+01 -6.43045E+00 +2.74462E+01 -2.22168E+01 +8.26317E+00
 -1.47941E+01 -1.42098E+01 +7.77669E+00 -1.92522E+01 +2.39097E+01 -2.26848E+00 +1.79990E+01 +2.12879E+01
 -5.63959E+00 +2.99467E+01 -2.67682E+01 +1.54781E+01 -2.73950E+01 -9.86771E+00 -7.73859E+00 -2.44591E+01
 +1.42222E+01 -1.66003E+01 +1.90045E+01 +5.25689E+00 +2.98557E+00 +2.03911E+01 -1.86187E+01 +1.45137E+01
 -2.56242E+01 -7.52649E+00 -1.10008E+01 -2.62843E+01 +1.29684E+01 -2.52263E+01 +2.58237E+01 -5.42158E+00
 +1.71985E+01 +1.56381E+01 -4.15572E+00 +1.98161E+01 -1.84934E+01 +4.43772E+00 -1.28532E+01 -1.56252E+01
 +7.49402E+00 -2.15315E+01 +2.40281E+01 -7.37362E+00 +2.16983E+01 +1.47064E+01 +2.30455E+00 +2.55610E+01
 -1.73277E+01 +1.61549E+01 -2.05106E+01 -4.58299E+00 -5.48083E+00 -1.80108E+01 +1.33432E+01 -1.25142E+01
 +1.85186E+01 +6.30943E+00 +5.18656E+00 +2.09693E+01 -1.48032E+01 +1.78937E+01 -2.37170E+01 -5.22364E-01
 -1.38126E+01 -1.82899E+01 +5.95147E+00 -2.02469E+01 +1.81723E+01 -5.47965E+00 +1.25995E+01 +1.21720E+01
 -4.93565E+00 +1.67244E+01 -1.80648E+01 +4.30350E+00 -1.46796E+01 -1.36617E+01 +2.36230E+00 -2.09194E+01
 +1.80554E+01 -1.09524E+01 +1.88056E+01 +7.41033E+00 +4.45629E+00 +1.81304E+01 -1.18711E+01 +1.23215E+01
 -1.57152E+01 -4.05520E+00 -4.12620E+00 -1.58480E+01 +1.20021E+01 -1.23950E+01 +1.79460E+01 +3.10439E+00
 +8.33153E+00 +1.67475E+01 -8.29635E+00 +1.65162E+01 -1.73664E+01 +2.89494E+00 -1.13288E+01 -1.18574E+01
 +3.84671E+00 -1.48563E+01 +1.43226E+01 -4.00735E+00 +1.08671E+01 +1.04427E+01 -3.09003E+00 +1.53355E+01
 -1.48462E+01 +6.35534E+00 -1.39428E+01 -8.37615E+00 -1.37823E+00 -1.58289E+01 +1.15866E+01 -9.73379E+00
 +1.36779E+01 +4.06604E+00 +3.57109E+00 +1.31424E+01 -9.25007E+00 +9.67076E+00 -1.32255E+01 -2.79873E+00
 -5.01444E+00 -1.28474E+01 +7.80867E+00 -1.15465E+01 +1.38029E+01 -2.81463E-01 +7.90309E+00 +1.08022E+01
 -4.31323E+00 +1.20491E+01 -1.19107E+01 +2.80070E+00 -8.43342E+00 -8.34144E+00 +2.56284E+00 -1.14421E+01
 +1.10213E+01 -4.04959E+00 +9.50633E+00 +6.92165E+00 -3.31327E-01 +1.16497E+01 -9.55844E+00 +6.18493E+00
 -1.01217E+01 -4.29406E+00 -1.91098E+00 -1.04083E+01 +7.46932E+00 -7.01232E+00 +9.72240E+00 +2.45496E+00
 +3.19209E+00 +9.37091E+00 -5.97536E+00 +7.74935E+00 -9.59488E+00 -6.11011E-01 -4.73904E+00 -8.06948E+00
 +3.93495E+00 -8.14003E+00 +8.64615E+00 -1.13849E+00 +5.48257E+00 +6.43185E+00 -2.35966E+00 +7.90736E+00
 -7.75453E+00 +2.32250E+00 -6.11080E+00 -5.05007E+00 +7.41804E-01 -7.66998E+00 +6.52324E+00 -3.53523E+00
 +6.26804E+00 +3.33002E+00 +5.95808E-01 +6.76528E+00 -5.17904E+00 +4.00200E+00 -6.00088E+00 -2.12990E+00
 -1.47993E+00 -6.04816E+00 +4.08498E+00 -4.48765E+00 +5.79374E+00 +8.09913E-01 +2.46752E+00 +4.98345E+00
 -2.60622E+00 +4.53158E+00 -4.89491E+00 +2.58405E-01 -2.67559E+00 -3.78274E+00 +1.70368E+00 -4.10178E+00
 +4.23336E+00 -7.64373E-01 +2.89087E+00 +2.99469E+00 -7.89782E-01 +3.89552E+00 -3.41365E+00 +1.47260E+00
 -2.87651E+00 -1.82073E+00 -4.91924E-02 -3.07481E+00 +2.33496E+00 -1.50933E+00 +2.29575E+00 +1.11581E+00
 +2.33401E-01 +2.37531E+00 -1.75798E+00 +1.39382E+00 -1.98162E+00 -6.18805E-01 -5.68423E-01 -1.76654E+00
 +9.52549E-01 -1.26309E+00 +1.27657E+00 +7.14805E-02 +4.57761E-01 +8.71113E-01 -4.30097E-01 +5.99187E-01
 -5.42536E-01 -1.28568E-01 -4.85324E-02 -4.21060E-01 +2.75599E-01 -1.12054E-01 +4.90062E-02 +1.91814E-01
 -2.88397E-01 -3.44871E-02 -8.33602E-02 -5.23621E-01 +6.27729E-01 -5.01417E-01 +1.01482E+00 +3.29241E-01
 +3.64103E-01 +1.24829E+00 -9.63129E-01 +1.15058E+00 -1.66746E+00 -2.06051E-01 -7.87240E-01 -1.68709E+00
 +1.13198E+00 -1.72801E+00 +2.29935E+00 +4.59484E-02 +1.34035E+00 +2.17540E+00 -1.18327E+00 +2.55214E+00
 -3.01646E+00 +4.80577E-01 -2.23111E+00 -2.38790E+00 +7.88268E-01 -3.36333E+00 +3.40544E+00 -1.24767E+00
 +3.03925E+00 +2.29003E+00 -3.02781E-01 +3.99790E+00 -3.73380E+00 +2.02306E+00 -3.96734E+00 -2.14303E+00
 -4.39993E-01 -4.75466E+00 +3.88154E+00 -3.17979E+00 +5.00208E+00 +1.48520E+00 +1.60419E+00 +5.12804E+00
 -3.47884E+00 +4.26304E+00 -5.60725E+00 -6.25213E-01 -2.57014E+00 -5.23332E+00 +3.15434E+00 -5.20485E+00
 +6.38974E+00 -2.16840E-01 +3.92388E+00 +5.43854E+00 -2.35817E+00 +6.55795E+00 -6.90642E+00 +1.82065E+00
 -5.44723E+00 -4.74543E+00 +9.70835E-01 -7.19413E+00 +6.65101E+00 -3.07324E+00 +6.27945E+00 +4.10963E+00
 -1.27776E-01 +7.82045E+00 -6.96002E+00 +4.39196E+00 -7.91457E+00 -3.43729E+00 -1.78180E+00 -8.73298E+00
 +6.19658E+00 -6.55626E+00 +8.85822E+00 +1.39931E+00 +3.62375E+00 +8.07635E+00 -4.93853E+00 +7.31741E+00
 -9.01900E+00 -4.35101E-01 -4.61641E+00 -8.27537E+00 +4.62838E+00 -8.91863E+00 +1.04671E+01 -1.37503E+00
 +7.42469E+00 +7.89567E+00 -2.08540E+00 +1.06167E+01 -9.68766E+00 +4.19569E+00 -8.49663E+00 -5.71510E+00
 +5.40865E-01 -1.01171E+01 +9.25912E+00 -4.78859E+00 +9.51122E+00 +5.69548E+00 +6.24080E-01 +1.18586E+01
 -9.73931E+00 +7.82157E+00 -1.23033E+01 -3.21796E+00 -4.57811E+00 -1.16222E+01 +6.68393E+00 -9.89870E+00
 +1.13858E+01 +4.28091E-01 +5.19246E+00 +9.97425E+00 -6.36964E+00 +9.84756E+00 -1.26909E+01 -2.27211E-01
 -7.61555E+00 -1.14190E+01 +4.82698E+00 -1.35811E+01 +1.38110E+01 -4.43980E+00 +1.13669E+01 +8.14694E+00
 -3.31760E-01 +1.30823E+01 -1.07281E+01 +6.02262E+00 -1.02966E+01 -6.54365E+00 +7.73931E-01 -1.29710E+01
 +1.25358E+01 -6.94268E+00 +1.41046E+01 +6.65423E+00 +3.52650E+00 +1.59009E+01 -1.02475E+01 +1.24889E+01
 -1.52333E+01 -6.91067E-01 -7.18763E+00 -1.19614E+01 +6.43095E+00 -1.12741E+01 +1.30345E+01 +6.60635E-01
 +6.24651E+00 +1.28374E+01 -8.18442E+00 +1.37630E+01 -1.73571E+01 +1.88847E+00 -1.27644E+01 -1.27790E+01
 +1.92992E+00 -1.74982E+01 +1.39931E+01 -8.24052E+00 +1.29733E+01 +6.55829E+00 +1.58528E-01 +1.34596E+01
 -1.24458E+01 +6.11706E+00 -1.28545E+01 -8.86925E+00 +1.51579E-02 -1.77326E+01 +1.51617E+01 -1.18977E+01
 +1.92321E+01 +4.16481E+00 +8.52645E+00 +1.67553E+01 -7.54415E+00 +1.51494E+01 -1.47877E+01 +1.27440E+00
 -6.97673E+00 -1.19176E+01 +8.45072E+00 -1.20532E+01 +1.69734E+01 +1.44313E+00 +1.00574E+01 +1.66557E+01
 -7.01414E+00 +1.97685E+01 -1.96889E+01 +7.51217E+00 -1.71143E+01 -9.74828E+00 -1.91953E+00 -1.71814E+01
 +1.20507E+01 -8.77540E+00 +1.21328E+01 +7.20142E+00 -1.71052E+00 +1.55713E+01 -1.67336E+01 +7.92758E+00
 -1.87958E+01 -9.65672E+00 -5.13547E+00 -2.19099E+01 +1.29802E+01 -1.79986E+01 +2.02168E+01 -1.30652E+00
 +1.08863E+01 +1.34954E+01 -5.91365E+00 +1.35589E+01 -1.44361E+01 -5.80868E-01 -6.47035E+00 -1.54241E+01
 +1.11608E+01 -1.66230E+01 +2.26046E+01 -1.96760E+00 +1.71815E+01 +1.64551E+01 -9.42317E-01 +2.29640E+01
 -1.63615E+01 +1.23077E+01 -1.61658E+01 -5.59118E+00 -1.50823E+00 -1.45044E+01 +1.34190E+01 -6.48166E+00
 +1.41548E+01 +1.09453E+01 -9.42185E-01 +2.14692E+01 -1.90705E+01 +1.46722E+01 -2.43640E+01 -4.50479E+00
 -1.21100E+01 -2.00444E+01 +6.96650E+00 -1.91158E+01 +1.62600E+01 -3.54382E+00 +8.15570E+00 +1.18403E+01
 -9.13455E+00 +1.25432E+01 -1.89539E+01 -2.50573E+00 -1.12206E+01 -1.99002E+01 +8.39223E+00 -2.37380E+01
 +2.34025E+01 -9.91921E+00 +2.12077E+01 +1.00840E+01 +4.35460E+00 +1.94189E+01 -1.17476E+01 +1.08986E+01
 -1.26577E+01 -6.59896E+00 +2.11882E+00 -1.61514E+01 +1.86678E+01 -8.06130E+00 +2.11720E+01 +1.13315E+01
 +6.17971E+00 +2.52352E+01 -1.41818E+01 +2.14136E+01 -2.29671E+01 +3.16184E+00 -1.35209E+01 -1.36172E+01
 +4.62135E+00 -1.46368E+01 +1.43480E+01 -1.47297E-05 +6.38422E+00 +1.59464E+01 -1.23321E+01 +1.75596E+01
 -2.48416E+01 +2.03525E+00 -1.93832E+01 -1.79640E+01 +1.05235E-02 -2.55657E+01 +1.70606E+01 -1.47438E+01
 +1.77602E+01 +4.32933E+00 +2.84665E+00 +1.44402E+01 -1.29585E+01 +6.78305E+00 -1.42532E+01 -1.11607E+01
 +1.14106E+00 -2.23795E+01 +2.01552E+01 -1.56574E+01 +2.61444E+01 +4.28689E+00 +1.37848E+01 +2.09452E+01
 -6.16585E+00 +2.07290E+01 -1.65038E+01 +5.05013E+00 -8.95854E+00 -1.10509E+01 +8.47922E+00 -1.24758E+01
 +1.88327E+01 +2.35148E+00 +1.14663E+01 +2.00722E+01 -8.29508E+00 +2.43953E+01 -2.38737E+01 +1.07317E+01
 -2.22323E+01 -9.66407E+00 -5.48057E+00 -1.97371E+01 +1.10952E+01 -1.18342E+01 +1.27765E+01 +5.56514E+00
 -1.41810E+00 +1.55887E+01 -1.79326E+01 +8.19888E+00 -2.09197E+01 -1.07621E+01 -6.51709E+00 -2.47976E+01
 +1.36442E+01 -2.15285E+01 +2.28124E+01 -3.75208E+00 +1.40350E+01 +1.31031E+01 -3.74401E+00 +1.47961E+01
 -1.38288E+01 +9.51327E-01 -6.79949E+00 -1.47470E+01 +1.10627E+01 -1.69552E+01 +2.34669E+01 -2.50285E+00
 +1.87603E+01 +1.67377E+01 +3.77438E-01 +2.44666E+01 -1.62436E+01 +1.44967E+01 -1.74541E+01 -3.81069E+00
 -3.50432E+00 -1.40259E+01 +1.18515E+01 -7.38201E+00 +1.38207E+01 +9.45817E+00 -1.18778E-01 +2.05030E+01
 -1.79807E+01 +1.48565E+01 -2.40422E+01 -3.49157E+00 -1.29105E+01 -1.92427E+01 +5.71529E+00 -1.94552E+01
 +1.57855E+01 -5.01650E+00 +9.23786E+00 +1.03153E+01 -6.92289E+00 +1.23511E+01 -1.70747E+01 -8.16370E-01
 -1.10851E+01 -1.71934E+01 +6.59725E+00 -2.17241E+01 +2.09594E+01 -9.80092E+00 +1.98612E+01 +8.64959E+00
 +4.81352E+00 +1.80878E+01 -1.05099E+01 +1.12133E+01 -1.25918E+01 -4.66356E+00 -1.22552E-01 -1.43539E+01
 +1.49787E+01 -8.48950E+00 +1.83812E+01 +8.11400E+00 +6.22408E+00 +2.08540E+01 -1.14661E+01 +1.84540E+01
 -1.97888E+01 +3.00047E+00 -1.22511E+01 -1.20297E+01 +3.58057E+00 -1.38742E+01 +1.30229E+01 -1.81429E+00
 +7.48089E+00 +1.23721E+01 -7.93872E+00 +1.51192E+01 -1.91404E+01 +3.26022E+00 -1.57384E+01 -1.32033E+01
 -3.17782E-01 -2.01216E+01 +1.39696E+01 -1.18277E+01 +1.52013E+01 +3.92922E+00 +3.24067E+00 +1.30597E+01
 -1.03423E+01 +7.76275E+00 -1.27835E+01 -6.62321E+00 -1.56031E+00 -1.65827E+01 +1.34607E+01 -1.26223E+01
 +1.89629E+01 +2.26725E+00 +1.00925E+01 +1.53874E+01 -5.31617E+00 +1.57267E+01 -1.38680E+01 +3.70506E+00
 -8.58189E+00 -9.39412E+00 +5.02475E+00 -1.16525E+01 +1.40776E+01 -1.15213E+00 +9.96615E+00 +1.24654E+01
 -4.00734E+00 +1.67711E+01 -1.57104E+01 +7.68436E+00 -1.50890E+01 -6.98740E+00 -3.06929E+00 -1.46439E+01
 +9.44636E+00 -9.14239E+00 +1.14375E+01 +3.87929E+00 +1.55902E+00 +1.22494E+01 -1.08469E+01 +8.23175E+00
