 Created: 16-Jan-2021
 $NMID
 ID='D:\BASISSIMULATI'
 FMTDAT='(8E13.5)'
 VOLUME=   1.00000E+00
 TRAMP=   1.00000E+00
 $END
 +3.67155E+01 +4.10292E+00 +3.49783E+01 +1.14965E+01 +3.14697E+01 +1.82086E+01 +2.64343E+01 +2.37996E+01
 +2.02252E+01 +2.79132E+01 +1.32772E+01 +3.03015E+01 +6.07341E+00 +3.08435E+01 -8.90521E-01 +2.95527E+01
 -7.14401E+00 +2.65749E+01 -1.22762E+01 +2.21757E+01 -1.59658E+01 +1.67189E+01 -1.80040E+01 +1.06379E+01
 -1.83083E+01 +4.40206E+00 -1.69263E+01 -1.51965E+00 -1.40296E+01 -6.69373E+00 -9.89842E+00 -1.07544E+01
 -4.89746E+00 -1.34301E+01 +5.53499E-01 -1.45618E+01 +6.01338E+00 -1.41125E+01 +1.10543E+01 -1.21671E+01
 +1.52943E+01 -8.92251E+00 +1.84258E+01 -4.66917E+00 +2.02376E+01 +2.34158E-01 +2.06287E+01 +5.39067E+00
 +1.96128E+01 +1.03980E+01 +1.73140E+01 +1.48804E+01 +1.39532E+01 +1.85179E+01 +9.82762E+00 +2.10705E+01
 +5.28393E+00 +2.23951E+01 +6.88685E-01 +2.24538E+01 -3.60259E+00 +2.13144E+01 -7.27448E+00 +1.91406E+01
 -1.00768E+01 +1.61764E+01 -1.18436E+01 +1.27224E+01 -1.25049E+01 +9.10905E+00 -1.20900E+01 +5.66771E+00
 -1.07224E+01 +2.70191E+00 -8.60682E+00 +4.61931E-01 -6.00938E+00 -8.75800E-01 -3.23336E+00 -1.22268E+00
 -5.91763E-01 -5.84130E-01 +1.62042E+00 +9.42324E-01 +3.15207E+00 +3.17683E+00 +3.81770E+00 +5.87398E+00
 +3.51339E+00 +8.74499E+00 +2.22563E+00 +1.14835E+01 +3.22643E-02 +1.37926E+01 -2.90436E+00 +1.54110E+01
 -6.35141E+00 +1.61361E+01 -1.00256E+01 +1.58418E+01 -1.36177E+01 +1.44899E+01 -1.68185E+01 +1.21340E+01
 -1.93460E+01 +8.91585E+00 -2.09691E+01 +5.05380E+00 -2.15280E+01 +8.25297E-01 -2.09481E+01 -3.45588E+00
 -1.92473E+01 -7.46538E+00 -1.65353E+01 -1.08950E+01 -1.30056E+01 -1.34783E+01 -8.92051E+00 -1.50125E+01
 -4.59062E+00 -1.53758E+01 -3.49986E-01 -1.45379E+01 +3.47027E+00 -1.25630E+01 +6.56843E+00 -9.60546E+00
 +8.69628E+00 -5.89833E+00 +9.67900E+00 -1.73528E+00 +9.42922E+00 +2.55203E+00 +7.95422E+00 +6.61971E+00
 +5.35563E+00 +1.01383E+01 +1.82182E+00 +1.28183E+01 -2.38657E+00 +1.44325E+01 -6.95656E+00 +1.48332E+01
 -1.15468E+01 +1.39636E+01 -1.58138E+01 +1.18620E+01 -1.94374E+01 +8.65812E+00 -2.21456E+01 +4.56321E+00
 -2.37342E+01 -1.46560E-01 -2.40817E+01 -5.15129E+00 -2.31577E+01 -1.01118E+01 -2.10242E+01 -1.46949E+01
 -1.78296E+01 -1.85988E+01 -1.37968E+01 -2.15743E+01 -9.20513E+00 -2.34433E+01 -4.36892E+00 -2.41103E+01
 +3.86777E-01 -2.35683E+01 +4.75042E+00 -2.18972E+01 +8.44690E+00 -1.92565E+01 +1.12572E+01 -1.58710E+01
 +1.30334E+01 -1.20131E+01 +1.37077E+01 -7.98064E+00 +1.32958E+01 -4.07424E+00 +1.18929E+01 -5.74682E-01
 +9.66455E+00 +2.27772E+00 +6.83179E+00 +4.30000E+00 +3.65305E+00 +5.37854E+00 +4.03141E-01 +5.47559E+00
 -2.64810E+00 +4.62956E+00 -5.25624E+00 +2.94967E+00 -7.22008E+00 +6.05106E-01 -8.39563E+00 -2.18992E+00
 -8.70515E+00 -5.19431E+00 -8.14089E+00 -8.15954E+00 -6.76311E+00 -1.08492E+01 -4.69302E+00 -1.30570E+01
 -2.10112E+00 -1.46215E+01 +8.07932E-01 -1.54372E+01 +3.81258E+00 -1.54609E+01 +6.69237E+00 -1.47122E+01
 +9.24526E+00 -1.32704E+01 +1.13029E+01 -1.12653E+01 +1.27425E+01 -8.86537E+00 +1.34952E+01 -6.26280E+00
 +1.35492E+01 -3.65736E+00 +1.29484E+01 -1.24007E+00 +1.17873E+01 +8.21698E-01 +1.02011E+01 +2.39685E+00
 +8.35315E+00 +3.39975E+00 +6.42113E+00 +3.79547E+00 +4.58175E+00 +3.60080E+00 +2.99658E+00 +2.88100E+00
 +1.79934E+00 +1.74281E+00 +1.08596E+00 +3.24317E-01 +9.07982E-01 -1.21740E+00 +1.26979E+00 -2.71974E+00
 +2.12970E+00 -4.02801E+00 +3.40480E+00 -5.00792E+00 +4.97893E+00 -5.55587E+00 +6.71311E+00 -5.60657E+00
 +8.45747E+00 -5.13728E+00 +1.00638E+01 -4.16845E+00 +1.13972E+01 -2.76094E+00 +1.23471E+01 -1.01002E+00
 +1.28350E+01 +9.63175E-01 +1.28202E+01 +3.02203E+00 +1.23017E+01 +5.02572E+00 +1.13178E+01 +6.84051E+00
 +9.94136E+00 +8.35011E+00 +8.27338E+00 +9.46433E+00 +6.43434E+00 +1.01254E+01 +4.55411E+00 +1.03117E+01
 +2.76160E+00 +1.00379E+01 +1.17474E+00 +9.35324E+00 -1.08290E-01 +8.33643E+00 -1.01600E+00 +7.08848E+00
 -1.50825E+00 +5.72435E+00 -1.57827E+00 +4.36360E+00 -1.25205E+00 +3.12102E+00 -5.85233E-01 +2.09811E+00
 +3.42193E-01 +1.37570E+00 +1.43281E+00 +1.00860E+00 +2.57980E+00 +1.02238E+00 +3.67533E+00 +1.41249E+00
 +4.61869E+00 +2.14568E+00 +5.32355E+00 +3.16365E+00 +5.72385E+00 +4.38822E+00 +5.77788E+00 +5.72795E+00
 +5.47038E+00 +7.08534E+00 +4.81260E+00 +8.36420E+00 +3.84040E+00 +9.47651E+00 +2.61063E+00 +1.03484E+01
 +1.19620E+00 +1.09250E+01 -3.19809E-01 +1.11730E+01 -1.85042E+00 +1.10826E+01 -3.31099E+00 +1.06665E+01
 -4.62488E+00 +9.95850E+00 -5.72836E+00 +9.00968E+00 -6.57421E+00 +7.88434E+00 -7.13404E+00 +6.65493E+00
 -7.39919E+00 +5.39679E+00 -7.38022E+00 +4.18309E+00 -7.10520E+00 +3.08015E+00 -6.61694E+00 +2.14354E+00
 -5.96942E+00 +1.41516E+00 -5.22385E+00 +9.21330E-01 -4.44443E+00 +6.71995E-01 -3.69425E+00 +6.60975E-01
 -3.03157E+00 +8.67167E-01 -2.50655E+00 +1.25654E+00 -2.15870E+00 +1.78472E+00 -2.01504E+00 +2.40003E+00
 -2.08910E+00 +3.04669E+00 -2.38063E+00 +3.66809E+00 -2.87602E+00 +4.20995E+00 -3.54940E+00 +4.62319E+00
 -4.36430E+00 +4.86645E+00 -5.27569E+00 +4.90819E+00 -6.23245E+00 +4.72825E+00 -7.18002E+00 +4.31891E+00
 -8.06329E+00 +3.68535E+00 -8.82941E+00 +2.84554E+00 -9.43070E+00 +1.82947E+00 -9.82722E+00 +6.77933E-01
 -9.98922E+00 -5.59445E-01 -9.89908E+00 -1.82655E+00 -9.55275E+00 -3.06365E+00 -8.96060E+00 -4.21062E+00
 -8.14746E+00 -5.21041E+00 -7.15188E+00 -6.01247E+00 -6.02455E+00 -6.57617E+00 -4.82582E+00 -6.87378E+00
 -3.62249E+00 -6.89288E+00 -2.48398E+00 -6.63803E+00 -1.47796E+00 -6.13137E+00 -6.65850E-01 -5.41222E+00
 -9.83754E-02 -4.53541E+00 +1.88450E-01 -3.56848E+00 +1.76631E-01 -2.58776E+00 -1.31546E-01 -1.67362E+00
 -7.12525E-01 -9.05023E-01 -1.52195E+00 -3.53893E-01 -2.49669E+00 -7.95656E-02 -3.55832E+00 -1.23816E-01
 -4.61798E+00 -5.06861E-01 -5.58230E+00 -1.22470E+00 -6.36001E+00 -2.24812E+00 -6.86881E+00 -3.52348E+00
 -7.04187E+00 -4.97542E+00 -6.83367E+00 -6.51134E+00 -6.22441E+00 -8.02742E+00 -5.22282E+00 -9.41581E+00
 -3.86680E+00 -1.05725E+01 -2.22205E+00 -1.14053E+01 -3.78334E-01 -1.18413E+01 +1.55615E+00 -1.18332E+01
 +3.46212E+00 -1.13640E+01 +5.21777E+00 -1.04492E+01 +6.70780E+00 -9.13764E+00 +7.83241E+00 -7.50838E+00
 +8.51540E+00 -5.66622E+00 +8.71080E+00 -3.73458E+00 +8.40739E+00 -1.84674E+00 +7.63068E+00 -1.36093E-01
 +6.44219E+00 +1.27407E+00 +4.93576E+00 +2.28025E+00 +3.23141E+00 +2.80728E+00 +1.46686E+00 +2.81487E+00
 -2.12595E-01 +2.30165E+00 -1.66501E+00 +1.30636E+00 -2.76286E+00 -9.41445E-02 -3.40319E+00 -1.78983E+00
 -3.51624E+00 -3.64520E+00 -3.07154E+00 -5.50920E+00 -2.08122E+00 -7.22649E+00 -5.99960E-01 -8.64946E+00
 +1.27832E+00 -9.64977E+00 +3.42698E+00 -1.01287E+01 +5.69580E+00 -1.00254E+01 +7.92227E+00 -9.32234E+00
 +9.94391E+00 -8.04721E+00 +1.16110E+01 -6.27178E+00 +1.27981E+01 -4.10685E+00 +1.34147E+01 -1.69420E+00
 +1.34121E+01 +8.04038E-01 +1.27881E+01 +3.21774E+00 +1.15875E+01 +5.38202E+00 +9.89916E+00 +7.15014E+00
 +7.84929E+00 +8.40516E+00 +5.59193E+00 +9.06938E+00 +3.29698E+00 +9.11070E+00 +1.13684E+00 +8.54543E+00
 -7.27197E-01 +7.43725E+00 -2.15785E+00 +5.89238E+00 -3.05288E+00 +4.05127E+00 -3.35346E+00 +2.07745E+00
 -3.04898E+00 +1.44480E-01 -2.17814E+00 -1.57802E+00 -8.25885E-01 -2.93813E+00 +8.83283E-01 -3.81406E+00
 +2.79538E+00 -4.12415E+00 +4.73943E+00 -3.83372E+00 +6.54142E+00 -2.95807E+00 +8.03866E+00 -1.56144E+00
 +9.09322E+00 +2.48115E-01 +9.60351E+00 +2.32741E+00 +9.51286E+00 +4.50985E+00 +8.81450E+00 +6.61918E+00
 +7.55244E+00 +8.48406E+00 +5.81813E+00 +9.95242E+00 +3.74315E+00 +1.09043E+01 +1.48850E+00 +1.12622E+01
 -7.68621E-01 +1.09978E+01 -2.84959E+00 +1.01350E+01 -4.58934E+00 +8.74820E+00 -5.85039E+00 +6.95663E+00
 -6.53475E+00 +4.91491E+00 -6.59265E+00 +2.80031E+00 -6.02734E+00 +7.98169E-01 -4.89556E+00 -9.13645E-01
 -3.30354E+00 -2.17985E+00 -1.39882E+00 -2.88118E+00 +6.41506E-01 -2.94500E+00 +2.62514E+00 -2.35228E+00
 +4.36044E+00 -1.14010E+00 +5.67251E+00 +6.00318E-01 +6.41809E+00 +2.73019E+00 +6.49817E+00 +5.07373E+00
 +5.86713E+00 +7.43196E+00 +4.53764E+00 +9.59866E+00 +2.58093E+00 +1.13772E+01 +1.22209E-01 +1.25967E+01
 -2.66834E+00 +1.31270E+01 -5.58841E+00 +1.28896E+01 -8.41919E+00 +1.18653E+01 -1.09427E+01 +1.00974E+01
 -1.29591E+01 +7.68890E+00 -1.43034E+01 +4.79608E+00 -1.48587E+01 +1.61685E+00 -1.45669E+01 -1.62402E+00
 -1.34340E+01 -4.69216E+00 -1.15310E+01 -7.36178E+00 -8.98948E+00 -9.43355E+00 -5.99195E+00 -1.07506E+01
 -2.75879E+00 -1.12112E+01 +4.68488E-01 -1.07778E+01 +3.44562E+00 -9.48046E+00 +5.94447E+00 -7.41541E+00
 +7.77075E+00 -4.73855E+00 +8.77939E+00 -1.65397E+00 +8.88609E+00 +1.60130E+00 +8.07439E+00 +4.77511E+00
 +6.39738E+00 +7.61948E+00 +3.97413E+00 +9.90953E+00 +9.80980E-01 +1.14608E+01 -2.36168E+00 +1.21437E+01
 -5.80604E+00 +1.18933E+01 -9.09571E+00 +1.07146E+01 -1.19852E+01 +8.68235E+00 -1.42587E+01 +5.93535E+00
 -1.57463E+01 +2.66574E+00 -1.63373E+01 -8.95595E-01 -1.59879E+01 -4.49677E+00 -1.47247E+01 -7.88417E+00
 -1.26423E+01 -1.08218E+01 -9.89548E+00 -1.31092E+01 -6.68705E+00 -1.45967E+01 -3.25195E+00 -1.51962E+01
 +1.61150E-01 -1.48875E+01 +3.30914E+00 -1.37194E+01 +5.97317E+00 -1.18048E+01 +7.97534E+00 -9.31154E+00
 +9.19204E+00 -6.44846E+00 +9.56288E+00 -3.44862E+00 +9.09456E+00 -5.50723E-01 +7.85943E+00 +2.01977E+00
 +5.98881E+00 +4.06830E+00 +3.66169E+00 +5.44618E+00 +1.08977E+00 +6.06179E+00 -1.50000E+00 +5.88710E+00
 -3.88392E+00 +4.95899E+00 -5.85957E+00 +3.37535E+00 -7.26197E+00 +1.28626E+00 -7.97653E+00 -1.11895E+00
 -7.94781E+00 -3.62772E+00 -7.18331E+00 -6.02202E+00 -5.75215E+00 -8.09643E+00 -3.77868E+00 -9.67501E+00
 -1.43157E+00 -1.06256E+01 +1.09059E+00 -1.08706E+01 +3.57621E+00 -1.03926E+01 +5.81845E+00 -9.23608E+00
 +7.63257E+00 -7.50262E+00 +8.87139E+00 -5.34252E+00 +9.43750E+00 -2.94182E+00 +9.29136E+00 -5.06489E-01
 +8.45455E+00 +1.75494E+00 +7.00793E+00 +3.64898E+00 +5.08486E+00 +5.01356E+00 +2.86003E+00 +5.73173E+00
 +5.34887E-01 +5.74172E+00 -1.67926E+00 +5.04231E+00 -3.57896E+00 +3.69329E+00 -4.98572E+00 +1.81084E+00
 -5.76118E+00 -4.41873E-01 -5.81899E+00 -2.86787E+00 -5.13244E+00 -5.25254E+00 -3.73726E+00 -7.38125E+00
