 Created: 16-Jan-2021
 $NMID
 ID='D:\BASISSIMULATI'
 FMTDAT='(8E13.5)'
 VOLUME=   1.00000E+00
 TRAMP=   1.00000E+00
 $END
 +2.64043E+01 +2.29165E+00 +2.22413E+01 +1.42335E+01 +1.26225E+01 +2.22386E+01 +5.83558E-01 +2.40394E+01
 -1.01212E+01 +1.94385E+01 -1.63009E+01 +1.03430E+01 -1.64013E+01 +7.29920E-02 -1.09971E+01 -7.80843E+00
 -2.53987E+00 -1.07293E+01 +5.54186E+00 -7.97818E+00 +1.00659E+01 -9.10881E-01 +9.21335E+00 +7.56805E+00
 +3.15057E+00 +1.40559E+01 -6.05185E+00 +1.58601E+01 -1.51637E+01 +1.19410E+01 -2.09322E+01 +3.26542E+00
 -2.12106E+01 -7.54126E+00 -1.56857E+01 -1.71096E+01 -5.96362E+00 -2.24808E+01 +5.00445E+00 -2.20967E+01
 +1.39406E+01 -1.62903E+01 +1.83436E+01 -7.11937E+00 +1.72948E+01 +2.38012E+00 +1.17016E+01 +9.24770E+00
 +3.91077E+00 +1.15894E+01 -3.15236E+00 +9.16819E+00 -7.00975E+00 +3.40661E+00 -6.46252E+00 -3.17929E+00
 -1.95176E+00 -7.89855E+00 +4.65806E+00 -8.82925E+00 +1.07772E+01 -5.46310E+00 +1.40133E+01 +1.15875E+00
 +1.29939E+01 +8.84588E+00 +7.81305E+00 +1.50378E+01 -3.65025E-02 +1.76820E+01 -8.20208E+00 +1.59097E+01
 -1.42789E+01 +1.02874E+01 -1.66036E+01 +2.57827E+00 -1.47670E+01 -4.88535E+00 -9.68614E+00 -9.99073E+00
 -3.23241E+00 -1.15222E+01 +2.43833E+00 -9.50599E+00 +5.61504E+00 -5.12393E+00 +5.57295E+00 -2.45961E-01
 +2.75557E+00 +3.24206E+00 -1.44525E+00 +4.08005E+00 -5.21714E+00 +2.03142E+00 -6.97075E+00 -2.08407E+00
 -5.87780E+00 -6.71542E+00 -2.12894E+00 -1.01374E+01 +3.16146E+00 -1.10427E+01 +8.35545E+00 -8.97076E+00
 +1.18501E+01 -4.43747E+00 +1.26024E+01 +1.26206E+00 +1.04491E+01 +6.49952E+00 +6.12577E+00 +9.84947E+00
 +9.91986E-01 +1.05360E+01 -3.43324E+00 +8.64822E+00 -5.96609E+00 +5.06413E+00 -6.11939E+00 +1.12239E+00
 -4.21905E+00 -1.84049E+00 -1.24862E+00 -2.92940E+00 +1.51517E+00 -1.96382E+00 +2.94741E+00 +4.97500E-01
 +2.45117E+00 +3.37832E+00 +1.43642E-01 +5.47090E+00 -3.20210E+00 +5.85302E+00 -6.43256E+00 +4.19780E+00
 -8.40908E+00 +8.77451E-01 -8.38945E+00 -3.16730E+00 -6.27085E+00 -6.74311E+00 -2.61776E+00 -8.79701E+00
 +1.52918E+00 -8.75589E+00 +4.99600E+00 -6.70263E+00 +6.85424E+00 -3.33500E+00 +6.71139E+00 +2.74574E-01
 +4.81978E+00 +3.03524E+00 +1.97241E+00 +4.19086E+00 -7.75469E-01 +3.55441E+00 -2.46373E+00 +1.54908E+00
 -2.54435E+00 -9.53257E-01 -1.05411E+00 -2.93871E+00 +1.41132E+00 -3.59905E+00 +3.90973E+00 -2.60416E+00
 +5.47762E+00 -2.10201E-01 +5.45845E+00 +2.82995E+00 +3.72496E+00 +5.52152E+00 +7.23093E-01 +6.96111E+00
 -2.67474E+00 +6.63702E+00 -5.45617E+00 +4.59790E+00 -6.79897E+00 +1.43560E+00 -6.33553E+00 -1.90955E+00
 -4.26607E+00 -4.45465E+00 -1.28571E+00 -5.48967E+00 +1.64762E+00 -4.79923E+00 +3.62591E+00 -2.72023E+00
 +4.08151E+00 -1.97959E-02 +2.96116E+00 +2.36330E+00 +7.30036E-01 +3.62701E+00 -1.79206E+00 +3.36336E+00
 -3.70558E+00 +1.68293E+00 -4.32637E+00 -8.30823E-01 -3.40558E+00 -3.31890E+00 -1.20570E+00 -4.92941E+00
 +1.58867E+00 -5.09339E+00 +4.09370E+00 -3.70637E+00 +5.50968E+00 -1.15986E+00 +5.37440E+00 +1.78435E+00
 +3.70782E+00 +4.23503E+00 +1.00443E+00 +5.45051E+00 -1.92194E+00 +5.06855E+00 -4.19087E+00 +3.21686E+00
 -5.12671E+00 +4.71616E-01 -4.46511E+00 -2.32147E+00 -2.43234E+00 -4.30779E+00 +3.25983E-01 -4.88602E+00
 +2.94426E+00 -3.89215E+00 +4.60355E+00 -1.64959E+00 +4.78447E+00 +1.13011E+00 +3.42924E+00 +3.56616E+00
 +9.62869E-01 +4.88138E+00 -1.83475E+00 +4.64608E+00 -4.06871E+00 +2.91761E+00 -5.00926E+00 +2.30684E-01
 -4.32623E+00 -2.56203E+00 -2.20359E+00 -4.55332E+00 +7.05205E-01 -5.06945E+00 +3.47245E+00 -3.89283E+00
 +5.18516E+00 -1.34661E+00 +5.23951E+00 +1.79088E+00 +3.54651E+00 +4.52118E+00 +5.79318E-01 +5.94046E+00
 -2.75977E+00 +5.53559E+00 -5.41680E+00 +3.36439E+00 -6.52346E+00 +5.64263E-02 -5.68611E+00 -3.37335E+00
 -3.12903E+00 -5.84430E+00 +3.61171E-01 -6.56253E+00 +3.67942E+00 -5.29008E+00 +5.75987E+00 -2.43767E+00
 +5.93156E+00 +1.05659E+00 +4.15192E+00 +4.02939E+00 +1.03492E+00 +5.47908E+00 -2.34266E+00 +4.90859E+00
 -4.79780E+00 +2.50585E+00 -5.44369E+00 -9.04953E-01 -4.00114E+00 -4.13161E+00 -9.09193E-01 -6.01539E+00
 +2.80880E+00 -5.83096E+00 +5.88364E+00 -3.54654E+00 +7.23123E+00 +1.49312E-01 +6.32865E+00 +4.06882E+00
 +3.40394E+00 +6.92256E+00 -6.30048E-01 +7.75888E+00 -4.47910E+00 +6.29316E+00 -6.90638E+00 +3.01077E+00
 -7.15556E+00 -9.95172E-01 -5.21062E+00 -4.39747E+00 -1.80015E+00 -6.09154E+00 +1.85720E+00 -5.57600E+00
 +4.47832E+00 -3.12335E+00 +5.16375E+00 +3.19768E-01 +3.71078E+00 +3.46846E+00 +6.81274E-01 +5.15371E+00
 -2.79971E+00 +4.73469E+00 -5.44318E+00 +2.32389E+00 -6.25208E+00 -1.25397E+00 -4.87258E+00 -4.75390E+00
 -1.71722E+00 -6.94932E+00 +2.18219E+00 -7.06172E+00 +5.53828E+00 -5.02972E+00 +7.25804E+00 -1.52405E+00
 +6.81953E+00 +2.29434E+00 +4.44329E+00 +5.18470E+00 +1.00073E+00 +6.25822E+00 -2.30416E+00 +5.27855E+00
 -4.36362E+00 +2.72701E+00 -4.55195E+00 -3.86384E-01 -2.93239E+00 -2.89427E+00 -2.15581E-01 -3.89064E+00
 +2.51089E+00 -3.04722E+00 +4.18090E+00 -7.17461E-01 +4.13194E+00 +2.20439E+00 +2.33564E+00 +4.61389E+00
 -6.02157E-01 +5.59507E+00 -3.66657E+00 +4.74418E+00 -5.79950E+00 +2.30538E+00 -6.27320E+00 -9.25609E-01
 -4.93930E+00 -3.89034E+00 -2.26821E+00 -5.64239E+00 +8.29795E-01 -5.67364E+00 +3.33327E+00 -4.07833E+00
 +4.46827E+00 -1.50130E+00 +3.97004E+00 +1.10561E+00 +2.15800E+00 +2.82799E+00 -1.97061E-01 +3.11006E+00
 -2.16135E+00 +1.94028E+00 -2.97619E+00 -1.60679E-01 -2.32556E+00 -2.33988E+00 -4.40542E-01 -3.72525E+00
 +1.99211E+00 -3.73879E+00 +4.08074E+00 -2.29999E+00 +5.04760E+00 +1.49663E-01 +4.50270E+00 +2.80589E+00
 +2.57806E+00 +4.78554E+00 -1.21861E-01 +5.43404E+00 -2.73300E+00 +4.54926E+00 -4.43132E+00 +2.44573E+00
 -4.71434E+00 -1.60342E-01 -3.56774E+00 -2.40268E+00 -1.46140E+00 -3.56455E+00 +8.21257E-01 -3.32247E+00
 +2.45977E+00 -1.85103E+00 +2.88262E+00 +2.45721E-01 +1.96422E+00 +2.15089E+00 +6.55939E-02 +3.12372E+00
 -2.09410E+00 +2.76091E+00 -3.69077E+00 +1.14024E+00 -4.08565E+00 -1.20280E+00 -3.05282E+00 -3.45797E+00
 -8.65129E-01 -4.82014E+00 +1.79206E+00 -4.77055E+00 +4.05112E+00 -3.26233E+00 +5.15864E+00 -7.45395E-01
 +4.73674E+00 +1.97987E+00 +2.91869E+00 +4.03216E+00 +3.10048E-01 +4.75068E+00 -2.21404E+00 +3.92496E+00
 -3.80789E+00 +1.87213E+00 -3.94880E+00 -6.67847E-01 -2.62251E+00 -2.78610E+00 -3.33876E-01 -3.72202E+00
 +2.06482E+00 -3.13410E+00 +3.67154E+00 -1.22799E+00 +3.85609E+00 +1.30662E+00 +2.49245E+00 +3.53285E+00
 +1.69662E-02 +4.59749E+00 -2.71302E+00 +4.04068E+00 -4.71517E+00 +1.97337E+00 -5.23150E+00 -9.44737E-01
 -4.00747E+00 -3.72477E+00 -1.39858E+00 -5.39272E+00 +1.73885E+00 -5.33809E+00 +4.33985E+00 -3.54188E+00
 +5.50584E+00 -5.98151E-01 +4.82966E+00 +2.48442E+00 +2.55144E+00 +4.63541E+00 -5.15607E-01 +5.10628E+00
 -3.26877E+00 +3.74615E+00 -4.71105E+00 +1.06663E+00 -4.31658E+00 -1.93360E+00 -2.23179E+00 -4.12626E+00
 +7.65683E-01 -4.66666E+00 +3.54128E+00 -3.31200E+00 +5.01614E+00 -5.25293E-01 +4.56917E+00 +2.67909E+00
 +2.27990E+00 +5.09763E+00 -1.08176E+00 +5.77919E+00 -4.32158E+00 +4.38442E+00 -6.25076E+00 +1.32789E+00
 -6.12436E+00 -2.35492E+00 -3.92619E+00 -5.37330E+00 -3.91000E-01 -6.64966E+00 +3.25015E+00 -5.71920E+00
 +5.71314E+00 -2.91137E+00 +6.13215E+00 +7.58897E-01 +4.38473E+00 +3.95576E+00 +1.14691E+00 +5.51242E+00
 -2.34744E+00 +4.86667E+00 -4.75892E+00 +2.27888E+00 -5.14220E+00 -1.25293E+00 -3.30739E+00 -4.35488E+00
 +9.41521E-02 -5.78615E+00 +3.79666E+00 -4.90791E+00 +6.38072E+00 -1.93663E+00 +6.80049E+00 +2.11665E+00
 +4.78222E+00 +5.80410E+00 +9.43515E-01 +7.76815E+00 -3.41571E+00 +7.24478E+00 -6.77849E+00 +4.35593E+00
 -7.96359E+00 +7.92365E-02 -6.56249E+00 -4.09832E+00 -3.09718E+00 -6.71897E+00 +1.16298E+00 -6.88823E+00
 +4.66186E+00 -4.60697E+00 +6.12719E+00 -7.76611E-01 +5.04174E+00 +3.12787E+00 +1.84010E+00 +5.59954E+00
 -2.24431E+00 +5.65785E+00 -5.62840E+00 +3.21781E+00 -6.96192E+00 -8.67469E-01 -5.62997E+00 -5.10951E+00
 -1.99003E+00 -7.92352E+00 +2.74509E+00 -8.20787E+00 +6.93799E+00 -5.75195E+00 +9.11522E+00 -1.32247E+00
 +8.49973E+00 +3.60464E+00 +5.29336E+00 +7.37029E+00 +6.06156E-01 +8.72549E+00 -3.94178E+00 +7.27684E+00
 -6.80152E+00 +3.62294E+00 -7.04889E+00 -8.66796E-01 -4.71054E+00 -4.54984E+00 -7.45711E-01 -6.10368E+00
 +3.30774E+00 -5.00009E+00 +5.89347E+00 -1.69006E+00 +5.99974E+00 +2.56488E+00 +3.52305E+00 +6.15196E+00
 -6.96749E-01 +7.68955E+00 -5.17946E+00 +6.52300E+00 -8.33412E+00 +2.95730E+00 -9.02382E+00 -1.85358E+00
 -6.96433E+00 -6.31731E+00 -2.81718E+00 -8.96431E+00 +2.05139E+00 -8.95824E+00 +6.05519E+00 -6.37667E+00
 +7.94144E+00 -2.16673E+00 +7.21679E+00 +2.20241E+00 +4.29878E+00 +5.26203E+00 +3.45704E-01 +6.05415E+00
 -3.16836E+00 +4.45107E+00 -4.97833E+00 +1.17677E+00 -4.46680E+00 -2.47009E+00 -1.86538E+00 -5.08717E+00
 +1.84549E+00 -5.66436E+00 +5.29556E+00 -3.93093E+00 +7.21103E+00 -4.37365E-01 +6.85608E+00 +3.64971E+00
 +4.27796E+00 +6.96049E+00 +2.76856E-01 +8.39490E+00 -3.88137E+00 +7.49092E+00 -6.90339E+00 +4.56534E+00
 -7.90317E+00 +5.85968E-01 -6.68523E+00 -3.17280E+00 -3.78517E+00 -5.56642E+00 -2.62058E-01 -5.95763E+00
 +2.67825E+00 -4.40901E+00 +4.09540E+00 -1.63219E+00 +3.62167E+00 +1.28041E+00 +1.56414E+00 +3.24262E+00
 -1.22518E+00 +3.54571E+00 -3.65937E+00 +2.08892E+00 -4.79600E+00 -6.03094E-01 -4.15611E+00 -3.57481E+00
 -1.87786E+00 -5.77390E+00 +1.34130E+00 -6.40870E+00 +4.48794E+00 -5.20905E+00 +6.57479E+00 -2.50681E+00
 +6.96526E+00 +8.85181E-01 +5.57360E+00 +3.94966E+00 +2.87841E+00 +5.80094E+00 -2.49361E-01 +5.96826E+00
 -2.84194E+00 +4.53460E+00 -4.15296E+00 +2.08994E+00 -3.89339E+00 -4.80606E-01 -2.30977E+00 -2.29936E+00
 -8.34319E-02 -2.78747E+00 +1.91160E+00 -1.84934E+00 +2.90883E+00 +1.07973E-01 +2.50719E+00 +2.32346E+00
 +8.02165E-01 +3.94621E+00 -1.65097E+00 +4.32562E+00 -4.02704E+00 +3.23113E+00 -5.50910E+00 +9.29809E-01
 -5.56167E+00 -1.90226E+00 -4.10878E+00 -4.40370E+00 -1.55887E+00 -5.81156E+00 +1.33029E+00 -5.71065E+00
 +3.70094E+00 -4.16654E+00 +4.87534E+00 -1.69918E+00 +4.57398E+00 +8.92857E-01 +3.00006E+00 +2.79811E+00
 +7.63535E-01 +3.45925E+00 -1.32894E+00 +2.75266E+00 -2.54706E+00 +1.02163E+00 -2.48157E+00 -1.04691E+00
