 Created: 16-Jan-2021
 $NMID
 ID='D:\BASISSIMULATI'
 FMTDAT='(8E13.5)'
 VOLUME=   1.00000E+00
 TRAMP=   1.00000E+00
 $END
 +5.39417E+01 +3.01601E+00 +3.27462E+01 +4.00259E+01 -7.95696E+00 +4.45065E+01 -3.29664E+01 +1.60907E+01
 -2.40811E+01 -1.67001E+01 +4.59099E+00 -2.51869E+01 +2.33701E+01 -7.26818E+00 +1.73509E+01 +1.40264E+01
 -8.53438E-01 +1.68020E+01 -7.74552E+00 +2.97473E+00 +4.09626E+00 -6.04475E+00 +1.79023E+01 +5.06248E+00
 +1.19335E+01 +2.68561E+01 -1.48581E+01 +3.39843E+01 -3.87910E+01 +1.26951E+01 -3.45046E+01 -2.21335E+01
 -1.82006E+00 -3.93369E+01 +3.16847E+01 -2.17328E+01 +3.60901E+01 +1.61208E+01 +7.64280E+00 +4.09831E+01
 -2.79440E+01 +3.21454E+01 -4.04202E+01 +6.84290E-03 -2.30868E+01 -2.57441E+01 +3.42950E+00 -2.54806E+01
 +1.39712E+01 -6.78994E+00 +3.85213E+00 +6.69570E+00 -9.24503E+00 +1.51519E+00 -6.87008E+00 -1.23299E+01
 +9.11195E+00 -1.43114E+01 +1.86443E+01 +2.24302E+00 +6.33806E+00 +2.10744E+01 -1.97052E+01 +1.95176E+01
 -3.39180E+01 -6.48661E+00 -1.88791E+01 -3.55456E+01 +1.56742E+01 -4.03670E+01 +4.05152E+01 -1.45806E+01
 +3.43482E+01 +2.02504E+01 +3.88403E+00 +3.47629E+01 -2.31915E+01 +1.91649E+01 -2.49072E+01 -9.01942E+00
 -4.63772E+00 -2.35719E+01 +1.50412E+01 -1.49734E+01 +1.64963E+01 +2.81843E+00 +3.79495E+00 +9.57565E+00
 -4.40938E+00 +7.46104E-01 +3.06487E+00 -8.99788E+00 +1.71110E+01 -3.54036E+00 +1.84787E+01 +1.53375E+01
 -1.44390E-01 +2.82888E+01 -2.40430E+01 +1.85988E+01 -2.98897E+01 -8.87046E+00 -9.47311E+00 -3.03372E+01
 +2.06664E+01 -2.55800E+01 +3.40933E+01 +2.11286E+00 +1.93920E+01 +2.86477E+01 -9.48434E+00 +3.18687E+01
 -2.73035E+01 +1.17771E+01 -2.15359E+01 -1.13105E+01 -2.44804E+00 -1.77121E+01 +9.60295E+00 -6.73094E+00
 +5.39413E+00 +5.50375E+00 -5.42173E+00 +4.91049E+00 -7.01948E+00 -5.59149E+00 +4.04759E+00 -1.05709E+01
 +1.46514E+01 -4.61299E-01 +9.69753E+00 +1.64203E+01 -1.02312E+01 +2.15423E+01 -2.73981E+01 +5.83203E+00
 -2.39506E+01 -1.93140E+01 -3.27059E-01 -3.17341E+01 +2.39459E+01 -1.96992E+01 +2.83192E+01 +6.55258E+00
 +1.03570E+01 +2.44674E+01 -1.27861E+01 +2.03146E+01 -2.14047E+01 +9.68217E-01 -1.14098E+01 -1.45522E+01
 +4.02356E+00 -1.42228E+01 +9.60252E+00 -3.29017E+00 +3.36134E+00 +3.74015E+00 -3.29206E+00 -3.01775E-01
 +1.83106E-01 -8.00227E+00 +1.09382E+01 -6.69933E+00 +1.55560E+01 +6.23558E+00 +5.14704E+00 +1.90236E+01
 -1.35826E+01 +1.71491E+01 -2.35349E+01 -9.30649E-01 -1.39418E+01 -2.06179E+01 +8.32343E+00 -2.44070E+01
 +2.45217E+01 -8.56616E+00 +2.13904E+01 +1.32833E+01 +3.02490E+00 +2.30817E+01 -1.39846E+01 +1.48029E+01
 -1.66418E+01 -1.45109E+00 -6.68331E+00 -1.07535E+01 +3.50546E+00 -7.81875E+00 +4.68452E+00 -1.99030E-01
 -5.11512E-01 +1.80367E+00 -2.37933E+00 -3.14896E+00 +3.68009E+00 -6.63956E+00 +1.12706E+01 -9.47719E-01
 +9.86260E+00 +1.10364E+01 -3.00560E+00 +1.75386E+01 -1.74638E+01 +9.87964E+00 -2.00524E+01 -7.71151E+00
 -6.94514E+00 -2.09174E+01 +1.17031E+01 -1.84112E+01 +2.07999E+01 -2.38928E+00 +1.39232E+01 +1.36728E+01
 -1.61764E+00 +1.75368E+01 -1.25662E+01 +8.63743E+00 -1.20298E+01 -3.17363E+00 -4.28032E+00 -8.19536E+00
 +1.61180E+00 -5.57048E+00 +1.63388E+00 -1.89061E+00 -2.04711E-01 -2.45667E+00 +1.90500E+00 -5.22184E+00
 +7.75121E+00 -3.81253E+00 +1.05919E+01 +4.14019E+00 +4.62567E+00 +1.28708E+01 -7.67671E+00 +1.34783E+01
 -1.65483E+01 +3.13980E+00 -1.37528E+01 -1.10476E+01 -6.02090E-01 -1.78629E+01 +1.28269E+01 -1.19454E+01
 +1.65417E+01 +1.61732E+00 +9.02815E+00 +1.22306E+01 -2.48394E+00 +1.31232E+01 -9.33808E+00 +6.18189E+00
 -8.75274E+00 -1.50211E+00 -4.44715E+00 -4.90961E+00 -1.22596E+00 -4.69887E+00 +3.02765E-02 -4.35588E+00
 +1.88618E+00 -5.05055E+00 +5.75880E+00 -4.23840E+00 +8.98162E+00 +6.52484E-01 +7.13996E+00 +7.94560E+00
 -7.51984E-01 +1.20265E+01 -9.96851E+00 +8.40264E+00 -1.35239E+01 -1.53505E+00 -8.26722E+00 -1.10053E+01
 +2.22069E+00 -1.33357E+01 +1.06246E+01 -7.34965E+00 +1.18315E+01 +2.17014E+00 +6.38896E+00 +8.87490E+00
 -1.07891E+00 +9.68759E+00 -6.19238E+00 +5.96797E+00 -7.59425E+00 +9.55338E-01 -6.30713E+00 -3.19825E+00
 -3.49470E+00 -6.00403E+00 +4.79688E-01 -7.21993E+00 +5.02526E+00 -5.93941E+00 +8.25093E+00 -1.58458E+00
 +7.77113E+00 +4.46694E+00 +2.92299E+00 +8.91358E+00 -3.97220E+00 +8.75411E+00 -8.89495E+00 +3.75862E+00
 -8.98730E+00 -3.18168E+00 -4.46688E+00 -8.14720E+00 +1.89234E+00 -8.79143E+00 +6.86908E+00 -5.35848E+00
 +8.51786E+00 +1.63187E-01 +6.50849E+00 +5.41057E+00 +1.69725E+00 +8.38387E+00 -4.12315E+00 +7.72417E+00
 -8.38595E+00 +3.27715E+00 -8.64886E+00 -3.19535E+00 -4.26686E+00 -8.30165E+00 +2.55089E+00 -8.93101E+00
 +7.78283E+00 -4.61101E+00 +8.38714E+00 +1.87720E+00 +4.53825E+00 +6.52338E+00 -7.80086E-01 +7.10653E+00
 -4.43659E+00 +4.46722E+00 -5.45531E+00 +1.01057E+00 -4.82839E+00 -1.75430E+00 -3.47540E+00 -3.96184E+00
 -1.00660E+00 -5.86487E+00 +3.11779E+00 -6.25024E+00 +7.49218E+00 -3.20599E+00 +8.71446E+00 +3.17102E+00
 +4.31894E+00 +9.28104E+00 -3.98863E+00 +1.02020E+01 -1.05746E+01 +4.16354E+00 -1.02518E+01 -5.04957E+00
 -3.01334E+00 -1.07024E+01 +5.59804E+00 -8.79651E+00 +9.23385E+00 -1.52769E+00 +6.22639E+00 +4.92970E+00
 +5.26898E-01 +6.19846E+00 -2.69674E+00 +3.31762E+00 -2.16775E+00 +7.10981E-01 -1.02344E+00 +9.15015E-01
 -2.41175E+00 +1.88198E+00 -5.21005E+00 -1.50982E-01 -4.89766E+00 -5.42788E+00 +1.02503E+00 -9.17128E+00
 +8.99837E+00 -6.11779E+00 +1.17401E+01 +3.30835E+00 +5.32576E+00 +1.19850E+01 -6.09070E+00 +1.21436E+01
 -1.32586E+01 +2.93202E+00 -1.02041E+01 -8.19825E+00 +1.03881E-01 -1.21349E+01 +8.57298E+00 -6.49553E+00
 +8.64930E+00 +2.51703E+00 +2.21055E+00 +6.60787E+00 -3.14342E+00 +3.56508E+00 -2.38758E+00 -1.23897E+00
 +1.83743E+00 -1.37241E+00 +2.70415E+00 +3.23550E+00 -2.57104E+00 +6.10779E+00 -8.82831E+00 +1.67083E+00
 -8.05592E+00 -7.66232E+00 +1.56186E+00 -1.28266E+01 +1.23946E+01 -7.17465E+00 +1.40722E+01 +5.91762E+00
 +3.87662E+00 +1.52357E+01 -9.82491E+00 +1.22088E+01 -1.51062E+01 -5.98804E-01 -7.81846E+00 -1.17181E+01
 +4.57656E+00 -1.17709E+01 +1.05843E+01 -2.29029E+00 +5.99271E+00 +6.46883E+00 -2.56875E+00 +6.32328E+00
 -5.28371E+00 -6.73782E-01 +1.88077E-01 -5.12446E+00 +6.37343E+00 -1.01360E+00 +4.49730E+00 +7.29204E+00
 -5.25668E+00 +9.50199E+00 -1.29818E+01 +8.54425E-01 -9.16088E+00 -1.16731E+01 +4.68163E+00 -1.55527E+01
 +1.62735E+01 -5.49154E+00 +1.42754E+01 +1.03505E+01 -2.04131E-01 +1.76261E+01 -1.41621E+01 +9.69745E+00
 -1.51688E+01 -5.79171E+00 -3.36272E+00 -1.44610E+01 +9.12243E+00 -9.32560E+00 +1.06366E+01 +2.78321E+00
 +1.56192E+00 +8.90142E+00 -6.87180E+00 +3.57382E+00 -5.03178E+00 -5.80260E+00 +4.65076E+00 -7.44411E+00
 +1.03518E+01 +1.60586E+00 +3.94260E+00 +1.17135E+01 -9.43607E+00 +1.06911E+01 -1.58692E+01 -2.71167E+00
 -7.08220E+00 -1.62915E+01 +1.01413E+01 -1.61531E+01 +1.97920E+01 -1.05358E+00 +1.23493E+01 +1.55573E+01
 -5.48155E+00 +1.83895E+01 -1.71352E+01 +5.31955E+00 -1.24419E+01 -1.06534E+01 +2.63594E+00 -1.45312E+01
 +1.25913E+01 -4.14592E+00 +8.36340E+00 +8.38766E+00 -3.80137E+00 +9.83515E+00 -9.64498E+00 -2.55585E-01
 -2.49102E+00 -9.46640E+00 +9.41796E+00 -6.25237E+00 +1.17360E+01 +7.09439E+00 -1.98271E-01 +1.62286E+01
 -1.54110E+01 +9.81603E+00 -1.79691E+01 -7.79054E+00 -3.62525E+00 -1.99028E+01 +1.48993E+01 -1.40494E+01
 +1.99801E+01 +5.04301E+00 +6.59938E+00 +1.95848E+01 -1.25098E+01 +1.61420E+01 -1.94776E+01 -1.20742E+00
 -8.93410E+00 -1.53162E+01 +7.22111E+00 -1.33880E+01 +1.25709E+01 +4.99912E-01 +3.09561E+00 +1.04694E+01
 -9.26578E+00 +5.93605E+00 -9.90163E+00 -7.28308E+00 +2.48955E+00 -1.34942E+01 +1.42160E+01 -4.36625E+00
 +1.11974E+01 +1.14374E+01 -5.42785E+00 +1.67592E+01 -1.93836E+01 +4.07299E+00 -1.55437E+01 -1.57048E+01
 +4.13523E+00 -2.33923E+01 +2.16993E+01 -1.07623E+01 +2.06918E+01 +1.07998E+01 +2.48057E+00 +2.12939E+01
 -1.51955E+01 +1.17930E+01 -1.60035E+01 -7.09988E+00 -1.00260E+00 -1.64759E+01 +1.33254E+01 -8.32912E+00
 +1.26095E+01 +6.99008E+00 -6.86144E-01 +1.24658E+01 -1.05768E+01 +2.72235E+00 -5.18401E+00 -1.03673E+01
 +1.00799E+01 -1.06713E+01 +1.78965E+01 +4.34682E+00 +7.58809E+00 +1.99641E+01 -1.26553E+01 +1.90703E+01
 -2.31278E+01 +3.91280E-01 -1.25105E+01 -1.90648E+01 +1.00378E+01 -2.04572E+01 +2.33371E+01 -2.00440E+00
 +1.49586E+01 +1.89698E+01 -6.64605E+00 +2.30877E+01 -2.09001E+01 +7.84239E+00 -1.56961E+01 -1.06883E+01
 +1.17881E+00 -1.47322E+01 +1.11366E+01 -2.71317E+00 +4.52620E+00 +1.01826E+01 -9.67690E+00 +8.89414E+00
 -1.41675E+01 -5.20374E+00 -2.48841E+00 -1.58322E+01 +1.33834E+01 -9.59168E+00 +1.53717E+01 +8.84798E+00
 -1.14758E+00 +2.05361E+01 -2.12258E+01 +1.16289E+01 -2.46551E+01 -1.15689E+01 -6.47722E+00 -2.78310E+01
 +1.73516E+01 -2.17333E+01 +2.52712E+01 +9.85387E-01 +1.11306E+01 +1.90554E+01 -1.02454E+01 +1.66274E+01
 -1.83376E+01 -1.64960E+00 -7.26996E+00 -1.64239E+01 +9.44257E+00 -1.38475E+01 +1.40329E+01 +8.26193E-01
 +3.27852E+00 +1.00098E+01 -8.72890E+00 +3.28698E+00 -6.47109E+00 -1.11757E+01 +9.51396E+00 -1.54579E+01
 +2.23474E+01 -1.65990E+00 +1.64423E+01 +1.84335E+01 -5.26927E+00 +2.45274E+01 -2.28783E+01 +8.75934E+00
 -1.89355E+01 -1.52431E+01 +3.77752E+00 -2.50131E+01 +2.44038E+01 -1.12051E+01 +2.42052E+01 +1.32488E+01
 +4.54984E+00 +2.60138E+01 -1.52563E+01 +1.71563E+01 -1.76748E+01 -2.08118E+00 -3.88799E+00 -1.19002E+01
 +8.99282E+00 -4.41068E+00 +6.82130E+00 +9.24949E+00 -6.72567E+00 +1.20144E+01 -1.48186E+01 -1.14312E-01
 -6.41797E+00 -1.34903E+01 +1.08650E+01 -1.16128E+01 +1.79995E+01 +6.35674E+00 +4.67875E+00 +2.32163E+01
 -1.86923E+01 +2.06692E+01 -3.02016E+01 -1.54283E+00 -1.80327E+01 -2.42123E+01 +7.38774E+00 -2.69582E+01
 +2.32204E+01 -8.04234E+00 +1.62830E+01 +1.41934E+01 -4.74619E+00 +1.95647E+01 -1.89208E+01 +5.42009E+00
 -1.41689E+01 -1.21710E+01 +1.65187E+00 -1.58721E+01 +1.05191E+01 -4.68804E+00 +3.90628E+00 +6.33837E+00
 -8.51113E+00 +3.36156E+00 -1.00469E+01 -1.07617E+01 +4.08249E+00 -1.93063E+01 +2.04919E+01 -9.94902E+00
 +2.11005E+01 +1.09185E+01 +2.54469E+00 +2.33854E+01 -1.89092E+01 +1.39944E+01 -2.27024E+01 -9.90194E+00
 -4.38537E+00 -2.64586E+01 +1.96121E+01 -2.03793E+01 +2.78289E+01 +2.35703E+00 +1.43578E+01 +2.07744E+01
