 Created: 16-Jan-2021
 $NMID
 ID='D:\BASISSIMULATI'
 FMTDAT='(8E13.5)'
 VOLUME=   1.00000E+00
 TRAMP=   1.00000E+00
 $END
 +1.22247E+02 +1.15127E+01 +1.07826E+02 +5.79042E+01 +7.58446E+01 +9.41197E+01 +3.22835E+01 +1.13800E+02
 -1.47696E+01 +1.13766E+02 -5.67003E+01 +9.46026E+01 -8.60347E+01 +6.04977E+01 -9.78680E+01 +1.83808E+01
 -9.07738E+01 -2.34660E+01 -6.70194E+01 -5.70451E+01 -3.20516E+01 -7.62029E+01 +6.63794E+00 -7.78024E+01
 +4.10336E+01 -6.22826E+01 +6.41983E+01 -3.34982E+01 +7.16362E+01 +2.11670E+00 +6.21459E+01 +3.68873E+01
 +3.80016E+01 +6.34641E+01 +4.43377E+00 +7.62996E+01 -3.14775E+01 +7.27399E+01 -6.22655E+01 +5.35164E+01
 -8.15969E+01 +2.25468E+01 -8.55406E+01 -1.39065E+01 -7.33321E+01 -4.85425E+01 -4.74836E+01 -7.45198E+01
 -1.32258E+01 -8.68429E+01 +2.25977E+01 -8.33525E+01 +5.29516E+01 -6.51246E+01 +7.20516E+01 -3.62011E+01
 +7.65338E+01 -2.71500E+00 +6.61120E+01 +2.84051E+01 +4.35928E+01 +5.08821E+01 +1.42503E+01 +6.03875E+01
 -1.53063E+01 +5.54249E+01 -3.85359E+01 +3.76165E+01 -5.03464E+01 +1.13379E+01 -4.81689E+01 -1.72217E+01
 -3.25009E+01 -4.13775E+01 -6.80831E+00 -5.53726E+01 +2.31962E+01 -5.56098E+01 +5.07480E+01 -4.14370E+01
 +6.94540E+01 -1.53215E+01 +7.46494E+01 +1.76255E+01 +6.44076E+01 +5.06808E+01 +3.99930E+01 +7.68849E+01
 +5.65756E+00 +9.04845E+01 -3.21801E+01 +8.81418E+01 -6.62103E+01 +6.96641E+01 -8.97061E+01 +3.80979E+01
 -9.78955E+01 -8.35009E-01 -8.89516E+01 -3.98511E+01 -6.43984E+01 -7.15460E+01 -2.88441E+01 -8.98743E+01
 +1.09089E+01 -9.13680E+01 +4.71999E+01 -7.58477E+01 +7.30285E+01 -4.64799E+01 +8.34490E+01 -9.16508E+00
 +7.65621E+01 +2.86233E+01 +5.39027E+01 +5.93188E+01 +2.01441E+01 +7.67659E+01 -1.78231E+01 +7.74474E+01
 -5.22569E+01 +6.11886E+01 -7.61004E+01 +3.11994E+01 -8.43850E+01 -6.55829E+00 -7.52191E+01 -4.45485E+01
 -5.01667E+01 -7.51526E+01 -1.39403E+01 -9.21759E+01 +2.65290E+01 -9.20702E+01 +6.34588E+01 -7.46306E+01
 +8.97463E+01 -4.30283E+01 +1.00360E+02 -3.17773E+00 +9.33143E+01 +3.74358E+01 +7.00385E+01 +7.12310E+01
 +3.50676E+01 +9.20139E+01 -4.87610E+00 +9.61748E+01 -4.22259E+01 +8.33635E+01 -7.00656E+01 +5.65126E+01
 -8.34791E+01 +2.12103E+01 -8.04859E+01 -1.54465E+01 -6.23803E+01 -4.62833E+01 -3.34133E+01 -6.54763E+01
 +1.12953E-01 -6.96896E+01 +3.11495E+01 -5.86980E+01 +5.33364E+01 -3.53742E+01 +6.22804E+01 -5.05125E+00
 +5.64168E+01 +2.56046E+01 +3.72863E+01 +4.99782E+01 +9.17646E+00 +6.28624E+01 -2.17943E+01 +6.15132E+01
 -4.89570E+01 +4.61903E+01 -6.64747E+01 +2.00777E+01 -7.05425E+01 -1.13947E+01 -6.01629E+01 -4.16863E+01
 -3.73388E+01 -6.45019E+01 -6.65009E+00 -7.50907E+01 +2.56990E+01 -7.12216E+01 +5.31619E+01 -5.36377E+01
 +7.01987E+01 -2.58977E+01 +7.34149E+01 +6.36154E+00 +6.22568E+01 +3.65873E+01 +3.91222E+01 +5.86603E+01
 +8.86504E+00 +6.81537E+01 -2.22055E+01 +6.32440E+01 -4.76238E+01 +4.50865E+01 -6.21007E+01 +1.75803E+01
 -6.26152E+01 -1.34316E+01 -4.90443E+01 -4.13620E+01 -2.41976E+01 -6.02355E+01 +6.74719E+00 -6.59224E+01
 +3.72978E+01 -5.69998E+01 +6.09732E+01 -3.50618E+01 +7.26331E+01 -4.41474E+00 +6.95417E+01 +2.87825E+01
 +5.19457E+01 +5.77598E+01 +2.30501E+01 +7.65081E+01 -1.16065E+01 +8.10044E+01 -4.52523E+01 +7.00415E+01
 -7.12370E+01 +4.54919E+01 -8.43682E+01 +1.19533E+01 -8.19594E+01 -2.41567E+01 -6.43782E+01 -5.58738E+01
 -3.49833E+01 -7.70734E+01 +5.37255E-01 -8.36907E+01 +3.52952E+01 -7.45307E+01 +6.25706E+01 -5.15042E+01
 +7.71465E+01 -1.92433E+01 +7.63410E+01 +1.58263E+01 +6.05315E+01 +4.67691E+01 +3.30660E+01 +6.75223E+01
 -4.18986E-01 +7.40988E+01 -3.31352E+01 +6.53715E+01 -5.85054E+01 +4.32815E+01 -7.14779E+01 +1.24312E+01
 -6.95285E+01 -2.08535E+01 -5.31514E+01 -4.98023E+01 -2.57417E+01 -6.85622E+01 +7.10385E+00 -7.33673E+01
 +3.87251E+01 -6.32841E+01 +6.27440E+01 -4.03824E+01 +7.43459E+01 -9.30179E+00 +7.12401E+01 +2.36970E+01
 +5.41060E+01 +5.20018E+01 +2.64389E+01 +6.99826E+01 -6.17095E+00 +7.41198E+01 -3.71780E+01 +6.37003E+01
 -6.04069E+01 +4.09438E+01 -7.12967E+01 +1.05360E+01 -6.78106E+01 -2.13339E+01 -5.08318E+01 -4.82342E+01
 -2.39650E+01 -6.47936E+01 +7.21108E+00 -6.77830E+01 +3.62879E+01 -5.67569E+01 +5.73335E+01 -3.41276E+01
 +6.60964E+01 -4.65878E+00 +6.08627E+01 +2.55161E+01 +4.27940E+01 +5.01497E+01 +1.56796E+01 +6.41554E+01
 -1.48449E+01 +6.46419E+01 -4.24525E+01 +5.14975E+01 -6.14176E+01 +2.74085E+01 -6.77839E+01 -2.69251E+00
 -6.01704E+01 -3.26341E+01 -4.00525E+01 -5.62641E+01 -1.14629E+01 -6.87024E+01 +1.98275E+01 -6.73344E+01
 +4.74805E+01 -5.23445E+01 +6.58762E+01 -2.66810E+01 +7.12525E+01 +4.53894E+00 +6.24681E+01 +3.50631E+01
 +4.12343E+01 +5.87676E+01 +1.17702E+01 +7.08929E+01 -2.00482E+01 +6.90038E+01 -4.78735E+01 +5.34785E+01
 -6.61644E+01 +2.74300E+01 -7.13006E+01 -3.92475E+00 -6.23065E+01 -3.43179E+01 -4.10413E+01 -5.76942E+01
 -1.18171E+01 -6.94276E+01 +1.94765E+01 -6.72475E+01 +4.65631E+01 -5.16866E+01 +6.40437E+01 -2.59630E+01
 +6.84809E+01 +4.67915E+00 +5.90822E+01 +3.40352E+01 +3.78484E+01 +5.61949E+01 +9.15714E+00 +6.67337E+01
 -2.11322E+01 +6.35991E+01 -4.68684E+01 +4.75143E+01 -6.28535E+01 +2.18194E+01 -6.58894E+01 -8.21528E+00
 -5.54168E+01 -3.64645E+01 -3.36171E+01 -5.71912E+01 -4.95924E+00 -6.62072E+01 +2.47141E+01 -6.17147E+01
 +4.93762E+01 -4.46624E+01 +6.40382E+01 -1.85419E+01 +6.57568E+01 +1.13289E+01 +5.42238E+01 +3.88911E+01
 +3.18189E+01 +5.85761E+01 +3.11780E+00 +6.64341E+01 -2.60441E+01 +6.09301E+01 -4.97611E+01 +4.32478E+01
 -6.32572E+01 +1.70400E+01 -6.38534E+01 -1.23209E+01 -5.15071E+01 -3.88410E+01 -2.88138E+01 -5.71262E+01
 -4.72896E-01 -6.34791E+01 +2.76735E+01 -5.66501E+01 +4.98332E+01 -3.80883E+01 +6.14451E+01 -1.16443E+01
 +6.01086E+01 +1.72161E+01 +4.60748E+01 +4.25259E+01 +2.21967E+01 +5.90328E+01 -6.64761E+00 +6.32710E+01
 -3.45449E+01 +5.42699E+01 -5.57470E+01 +3.37579E+01 -6.58389E+01 +5.81801E+00 -6.26384E+01 -2.39334E+01
 -4.66449E+01 -4.94795E+01 -2.09464E+01 -6.56184E+01 +9.39653E+00 -6.90156E+01 +3.83654E+01 -5.88805E+01
 +6.01926E+01 -3.71312E+01 +7.05197E+01 -8.01325E+00 +6.72738E+01 +2.27488E+01 +5.10836E+01 +4.90980E+01
 +2.51524E+01 +6.58571E+01 -5.38417E+00 +6.97631E+01 -3.44884E+01 +6.01166E+01 -5.64291E+01 +3.89155E+01
 -6.69260E+01 +1.04480E+01 -6.40004E+01 -1.95726E+01 -4.83615E+01 -4.51557E+01 -2.32530E+01 -6.12329E+01
 +6.20795E+00 -6.46684E+01 +3.40650E+01 -5.48769E+01 +5.47202E+01 -3.39281E+01 +6.40543E+01 -6.11692E+00
 +6.02448E+01 +2.29095E+01 +4.41185E+01 +4.72930E+01 +1.89701E+01 +6.21408E+01 -1.01140E+01 +6.45022E+01
 -3.72877E+01 +5.39491E+01 -5.71246E+01 +3.26455E+01 -6.57048E+01 +4.89547E+00 -6.13924E+01 -2.37365E+01
 -4.51473E+01 -4.75537E+01 -2.03123E+01 -6.18743E+01 +8.07952E+00 -6.39653E+01 +3.43327E+01 -5.35774E+01
 +5.32449E+01 -3.29737E+01 +6.11535E+01 -6.45003E+00 +5.66635E+01 +2.05522E+01 +4.09104E+01 +4.25602E+01
 +1.73075E+01 +5.51819E+01 -9.16809E+00 +5.59912E+01 -3.30029E+01 +4.50079E+01 -4.92784E+01 +2.46761E+01
 -5.46745E+01 -6.52089E-01 -4.81419E+01 -2.56194E+01 -3.11072E+01 -4.49684E+01 -7.17148E+00 -5.46225E+01
 +1.86361E+01 -5.25210E+01 +4.08949E+01 -3.90413E+01 +5.49081E+01 -1.69194E+01 +5.76689E+01 +9.31047E+00
 +4.84806E+01 +3.42458E+01 +2.91042E+01 +5.27225E+01 +3.40340E+00 +6.08740E+01 -2.34399E+01 +5.69263E+01
 -4.59807E+01 +4.15676E+01 -5.96208E+01 +1.78152E+01 -6.15492E+01 -9.59067E+00 -5.13194E+01 -3.51467E+01
 -3.09484E+01 -5.37020E+01 -4.51412E+00 -6.15052E+01 +2.26651E+01 -5.69695E+01 +4.51054E+01 -4.10000E+01
 +5.82668E+01 -1.68174E+01 +5.94749E+01 +1.06878E+01 +4.84659E+01 +3.59405E+01 +2.74462E+01 +5.38053E+01
 +6.52208E-01 +6.06250E+01 -2.64990E+01 +5.49618E+01 -4.84996E+01 +3.78921E+01 -6.08592E+01 +1.27953E+01
 -6.10108E+01 -1.53213E+01 -4.88297E+01 -4.08254E+01 -2.66623E+01 -5.85888E+01 +1.14146E+00 -6.50160E+01
 +2.90968E+01 -5.87641E+01 +5.16805E+01 -4.10119E+01 +6.44337E+01 -1.52231E+01 +6.48494E+01 +1.35474E+01
 +5.28683E+01 +3.96641E+01 +3.08837E+01 +5.80349E+01 +3.25581E+00 +6.51226E+01 -2.45653E+01 +5.96426E+01
 -4.71307E+01 +4.28063E+01 -6.00779E+01 +1.80646E+01 -6.09942E+01 -9.59513E+00 -4.98829E+01 -3.46561E+01
 -2.91446E+01 -5.21787E+01 -3.07627E+00 -5.87842E+01 +2.30054E+01 -5.33190E+01 +4.38406E+01 -3.70667E+01
 +5.52836E+01 -1.34693E+01 +5.51277E+01 +1.25848E+01 +4.35345E+01 +3.57589E+01 +2.29817E+01 +5.13498E+01
 -2.25657E+00 +5.62337E+01 -2.69884E+01 +4.94869E+01 -4.61631E+01 +3.25573E+01 -5.58954E+01 +8.95396E+00
 -5.42457E+01 -1.64784E+01 -4.16026E+01 -3.85521E+01 -2.05900E+01 -5.27931E+01 +4.47909E+00 -5.63465E+01
 +2.84893E+01 -4.85494E+01 +4.65681E+01 -3.10538E+01 +5.50774E+01 -7.47996E+00 +5.23489E+01 +1.73309E+01
 +3.90165E+01 +3.83087E+01 +1.78775E+01 +5.11898E+01 -6.68561E+00 +5.33844E+01 -2.96051E+01 +4.45004E+01
 -4.61657E+01 +2.64178E+01 -5.29673E+01 +2.89974E+00 -4.86182E+01 -2.11804E+01 -3.40178E+01 -4.08361E+01
 -1.21715E+01 -5.19879E+01 +1.24237E+01 -5.22972E+01 +3.46967E+01 -4.16452E+01 +5.00379E+01 -2.21598E+01
 +5.52400E+01 +2.21564E+00 +4.91547E+01 +2.65221E+01 +3.29309E+01 +4.57932E+01 +9.78586E+00 +5.60646E+01
 -1.56426E+01 +5.51820E+01 -3.82339E+01 +4.32421E+01 -5.34208E+01 +2.25782E+01 -5.81143E+01 -2.70746E+00
 -5.13307E+01 -2.75688E+01 -3.43928E+01 -4.70335E+01 -1.06663E+01 -5.72050E+01 +1.51171E+01 -5.60486E+01
 +3.78112E+01 -4.38014E+01 +5.28913E+01 -2.29244E+01 +5.73629E+01 +2.39365E+00 +5.03625E+01 +2.70794E+01
 +3.33286E+01 +4.61961E+01 +9.70866E+00 +5.59349E+01 -1.57377E+01 +5.43784E+01 -3.78979E+01 +4.18812E+01
 -5.23346E+01 +2.09935E+01 -5.61759E+01 -4.05808E+00 -4.86880E+01 -2.82246E+01 -3.14159E+01 -4.66528E+01
 -7.86513E+00 -5.56601E+01 +1.72100E+01 -5.34716E+01 +3.87676E+01 -4.05697E+01 +5.24935E+01 -1.95886E+01
 +5.56669E+01 +5.22433E+00 +4.77014E+01 +2.88701E+01 +3.02539E+01 +4.66080E+01 +6.88134E+00 +5.49098E+01
 -1.76848E+01 +5.21645E+01 -3.84976E+01 +3.89950E+01 -5.13936E+01 +1.81218E+01 -5.38291E+01 -6.19591E+00
 -4.53863E+01 -2.90273E+01 -2.78473E+01 -4.57694E+01 -4.82419E+00 -5.30757E+01 +1.89805E+01 -4.95278E+01
 +3.87299E+01 -3.59134E+01 +5.04333E+01 -1.50573E+01 +5.17508E+01 +8.75871E+00 +4.24612E+01 +3.06702E+01
