 Created: 16-Jan-2021
 $NMID
 ID='D:\BASISSIMULATI'
 FMTDAT='(8E13.5)'
 VOLUME=   1.00000E+00
 TRAMP=   1.00000E+00
 $END
 +5.51401E+01 +5.96209E+00 +4.88051E+01 +1.86746E+01 +3.29312E+01 +2.83620E+01 +1.15166E+01 +3.38270E+01
 -1.00554E+01 +3.44925E+01 -2.65452E+01 +3.04641E+01 -3.43248E+01 +2.25683E+01 -3.23471E+01 +1.23236E+01
 -2.23368E+01 +1.78075E+00 -8.16906E+00 -6.81210E+00 +5.35371E+00 -1.14991E+01 +1.39384E+01 -1.11610E+01
 +1.50163E+01 -5.94964E+00 +8.38897E+00 +2.56269E+00 -3.84907E+00 +1.16377E+01 -1.80421E+01 +1.80276E+01
 -3.00952E+01 +1.88935E+01 -3.66308E+01 +1.27275E+01 -3.58439E+01 -1.85187E-02 -2.78451E+01 -1.68362E+01
 -1.44532E+01 -3.36890E+01 +1.43320E+00 -4.60607E+01 +1.66511E+01 -5.02412E+01 +2.85254E+01 -4.44674E+01
 +3.53704E+01 -2.95534E+01 +3.66629E+01 -8.78812E+00 +3.29247E+01 +1.29070E+01 +2.54238E+01 +3.03295E+01
 +1.58241E+01 +3.94634E+01 +5.87861E+00 +3.86175E+01 -2.79898E+00 +2.88884E+01 -8.90347E+00 +1.38019E+01
 -1.15861E+01 -1.75861E+00 -1.06026E+01 -1.30077E+01 -6.43704E+00 -1.66562E+01 -3.35571E-01 -1.18323E+01
 +5.82894E+00 -2.63057E-01 +9.90482E+00 +1.43161E+01 +9.99205E+00 +2.73190E+01 +5.03607E+00 +3.46649E+01
 -4.69760E+00 +3.39243E+01 -1.74568E+01 +2.49289E+01 -3.02653E+01 +9.70492E+00 -3.96101E+01 -8.20383E+00
 -4.23996E+01 -2.47751E+01 -3.69253E+01 -3.65819E+01 -2.35197E+01 -4.15933E+01 -4.66766E+00 -3.95127E+01
 +1.55182E+01 -3.16208E+01 +3.23512E+01 -2.02432E+01 +4.18660E+01 -8.04879E+00 +4.19716E+01 +2.60020E+00
 +3.30994E+01 +1.00890E+01 +1.81264E+01 +1.37204E+01 +1.57015E+00 +1.36493E+01 -1.17191E+01 +1.06771E+01
 -1.79795E+01 +6.00461E+00 -1.56418E+01 +1.01172E+00 -5.77958E+00 -2.92537E+00 +8.23414E+00 -4.60489E+00
 +2.17531E+01 -3.19071E+00 +3.02523E+01 +1.57465E+00 +3.06635E+01 +9.18301E+00 +2.22539E+01 +1.82872E+01
 +6.79782E+00 +2.68311E+01 -1.19841E+01 +3.24275E+01 -2.95234E+01 +3.29410E+01 -4.16897E+01 +2.71407E+01
 -4.58805E+01 +1.52220E+01 -4.16114E+01 -1.00202E+00 -3.04772E+01 -1.83659E+01 -1.55487E+01 -3.30625E+01
 -4.33276E-01 -4.16385E+01 +1.16997E+01 -4.19956E+01 +1.88501E+01 -3.40829E+01 +2.05075E+01 -2.00369E+01
 +1.75343E+01 -3.67774E+00 +1.17195E+01 +1.05261E+01 +5.18807E+00 +1.87371E+01 -1.48528E-01 +1.88903E+01
 -2.96579E+00 +1.13381E+01 -2.68118E+00 -1.21664E+00 +5.75595E-01 -1.44991E+01 +6.09838E+00 -2.39307E+01
 +1.27709E+01 -2.60049E+01 +1.92247E+01 -1.93542E+01 +2.39960E+01 -5.18078E+00 +2.57135E+01 +1.30771E+01
 +2.33434E+01 +3.07380E+01 +1.64723E+01 +4.32220E+01 +5.56010E+00 +4.73383E+01 -7.94706E+00 +4.21379E+01
 -2.17425E+01 +2.90940E+01 -3.30673E+01 +1.15881E+01 -3.93486E+01 -6.11134E+00 -3.89159E+01 -2.00507E+01
 -3.15792E+01 -2.76128E+01 -1.88588E+01 -2.80794E+01 -3.73685E+00 -2.26159E+01 +1.00545E+01 -1.37403E+01
 +1.90416E+01 -4.48683E+00 +2.10263E+01 +2.46242E+00 +1.57956E+01 +5.42929E+00 +5.27624E+00 +4.02639E+00
 -6.95261E+00 -9.38414E-01 -1.66754E+01 -7.84229E+00 -2.02975E+01 -1.47516E+01 -1.59640E+01 -1.98900E+01
 -4.19006E+00 -2.19640E+01 +1.22093E+01 -2.03154E+01 +2.88847E+01 -1.49345E+01 +4.11934E+01 -6.39616E+00
 +4.55458E+01 +4.22886E+00 +4.04482E+01 +1.54754E+01 +2.69320E+01 +2.56215E+01 +8.24325E+00 +3.29018E+01
 -1.11010E+01 +3.58134E+01 -2.65958E+01 +3.34790E+01 -3.49809E+01 +2.59753E+01 -3.50629E+01 +1.45009E+01
 -2.79061E+01 +1.27165E+00 -1.63718E+01 -1.08978E+01 -4.18225E+00 -1.92666E+01 +5.18315E+00 -2.19285E+01
 +9.42637E+00 -1.84310E+01 +7.94814E+00 -1.00353E+01 +1.83720E+00 +5.16469E-01 -6.60746E+00 +9.70787E+00
 -1.46293E+01 +1.42567E+01 -1.97936E+01 +1.21330E+01 -2.05730E+01 +3.26705E+00 -1.66103E+01 -1.02981E+01
 -8.64755E+00 -2.48931E+01 +1.79117E+00 -3.62327E+01 +1.28234E+01 -4.06637E+01 +2.26064E+01 -3.62732E+01
 +2.96270E+01 -2.35153E+01 +3.28644E+01 -5.14940E+00 +3.18588E+01 +1.45019E+01 +2.67317E+01 +3.07602E+01
 +1.81862E+01 +3.99022E+01 +7.47639E+00 +4.01814E+01 -3.69765E+00 +3.22592E+01 -1.34125E+01 +1.89300E+01
 -1.98729E+01 +4.24087E+00 -2.18402E+01 -7.71336E+00 -1.90274E+01 -1.39482E+01 -1.23166E+01 -1.33632E+01
 -3.67983E+00 -6.92520E+00 +4.23971E+00 +2.75628E+00 +8.81809E+00 +1.22925E+01 +8.23522E+00 +1.85334E+01
 +2.11466E+00 +1.94311E+01 -8.20720E+00 +1.45153E+01 -1.99139E+01 +4.88614E+00 -2.94245E+01 -7.21639E+00
 -3.34117E+01 -1.90919E+01 -2.98279E+01 -2.82838E+01 -1.86182E+01 -3.31140E+01 -1.87610E+00 -3.29381E+01
 +1.66373E+01 -2.81137E+01 +3.24963E+01 -1.97611E+01 +4.18476E+01 -9.43138E+00 +4.25137E+01 +1.21005E+00
 +3.46233E+01 +1.06267E+01 +2.05730E+01 +1.75744E+01 +4.32513E+00 +2.12151E+01 -9.74578E+00 +2.12145E+01
 -1.81089E+01 +1.78273E+01 -1.90577E+01 +1.19370E+01 -1.31290E+01 +4.99169E+00 -2.84927E+00 -1.21487E+00
 +8.09062E+00 -4.92171E+00 +1.59661E+01 -4.87289E+00 +1.81044E+01 -7.55602E-01 +1.36071E+01 +6.55262E+00
 +3.51899E+00 +1.50546E+01 -9.56872E+00 +2.20644E+01 -2.23234E+01 +2.49217E+01 -3.16180E+01 +2.18037E+01
 -3.53353E+01 +1.23848E+01 -3.28193E+01 -1.88525E+00 -2.48872E+01 -1.80163E+01 -1.34595E+01 -3.22044E+01
 -9.65122E-01 -4.08637E+01 +1.02784E+01 -4.16676E+01 +1.85431E+01 -3.42768E+01 +2.29324E+01 -2.05135E+01
 +2.33870E+01 -3.90295E+00 +2.05213E+01 +1.13010E+01 +1.53860E+01 +2.13235E+01 +9.23842E+00 +2.39485E+01
 +3.35623E+00 +1.91412E+01 -1.11142E+00 +9.02283E+00 -3.28463E+00 -2.79380E+00 -2.70507E+00 -1.23023E+01
 +5.15049E-01 -1.62982E+01 +5.60151E+00 -1.33100E+01 +1.11572E+01 -3.99395E+00 +1.53863E+01 +9.10963E+00
 +1.65026E+01 +2.23616E+01 +1.32436E+01 +3.20959E+01 +5.34648E+00 +3.56475E+01 -6.18212E+00 +3.20397E+01
 -1.91363E+01 +2.21528E+01 -3.05607E+01 +8.36690E+00 -3.74976E+01 -6.17572E+00 -3.78336E+01 -1.84400E+01
 -3.09912E+01 -2.62421E+01 -1.82293E+01 -2.86759E+01 -2.42169E+00 -2.61479E+01 +1.26619E+01 -2.00725E+01
 +2.33853E+01 -1.23706E+01 +2.72863E+01 -4.94213E+00 +2.38106E+01 +7.40778E-01 +1.44989E+01 +3.84871E+00
 +2.55376E+00 +4.21913E+00 -8.09983E+00 +2.24990E+00 -1.39809E+01 -1.26184E+00 -1.30948E+01 -5.27910E+00
 -5.53163E+00 -8.66582E+00 +6.55989E+00 -1.03269E+01 +1.96146E+01 -9.37496E+00 +2.97074E+01 -5.33223E+00
 +3.37012E+01 +1.66754E+00 +3.01403E+01 +1.07480E+01 +1.96320E+01 +2.03166E+01 +4.62086E+00 +2.83058E+01
 -1.13503E+01 +3.26218E+01 -2.46511E+01 +3.17107E+01 -3.25357E+01 +2.50824E+01 -3.37983E+01 +1.36144E+01
 -2.89510E+01 -5.05031E-01 -1.99143E+01 -1.42323E+01 -9.36108E+00 -2.44340E+01 +6.39117E-02 -2.87592E+01
 +6.41224E+00 -2.63551E+01 +8.81859E+00 -1.81901E+01 +7.54282E+00 -6.85132E+00 +3.71614E+00 +4.15584E+00
 -1.08251E+00 +1.14177E+01 -5.27047E+00 +1.26352E+01 -7.60602E+00 +7.34443E+00 -7.37630E+00 -2.89912E+00
 -4.43650E+00 -1.49440E+01 +8.48862E-01 -2.49579E+01 +7.70464E+00 -2.95627E+01 +1.50493E+01 -2.68466E+01
 +2.16061E+01 -1.69445E+01 +2.60489E+01 -2.01334E+00 +2.72076E+01 +1.43846E+01 +2.43293E+01 +2.82987E+01
 +1.73422E+01 +3.64938E+01 +7.03463E+00 +3.73149E+01 -4.95018E+00 +3.10649E+01 -1.63642E+01 +1.98108E+01
 -2.48360E+01 +6.70550E+00 -2.84820E+01 -4.94645E+00 -2.64775E+01 -1.25898E+01 -1.93962E+01 -1.50293E+01
 -9.17624E+00 -1.26026E+01 +1.32709E+00 -6.90981E+00 +9.10752E+00 -2.28875E-01 +1.18845E+01 +5.17971E+00
 +8.82457E+00 +7.66748E+00 +8.68789E-01 +6.54223E+00 -9.46340E+00 +2.10953E+00 -1.87647E+01 -4.54230E+00
 -2.37364E+01 -1.19025E+01 -2.21948E+01 -1.84165E+01 -1.37786E+01 -2.27842E+01 -1.28581E-01 -2.41373E+01
 +1.55291E+01 -2.21060E+01 +2.92785E+01 -1.68174E+01 +3.76243E+01 -8.86621E+00 +3.84823E+01 +7.29581E-01
 +3.17546E+01 +1.06072E+01 +1.93208E+01 +1.92076E+01 +4.46120E+00 +2.50171E+01 -9.10382E+00 +2.68875E+01
 -1.82608E+01 +2.43647E+01 -2.13247E+01 +1.79206E+01 -1.84060E+01 +8.97950E+00 -1.12418E+01 -3.24746E-01
 -2.57611E+00 -7.64477E+00 +4.69699E+00 -1.10567E+01 +8.35883E+00 -9.65792E+00 +7.42456E+00 -3.92729E+00
 +2.30044E+00 +4.29788E+00 -5.46089E+00 +1.22662E+01 -1.36893E+01 +1.70797E+01 -2.02240E+01 +1.65723E+01
 -2.34505E+01 +1.00300E+01 -2.26168E+01 -1.48349E+00 -1.78860E+01 -1.53246E+01 -1.01676E+01 -2.79587E+01
 -8.24987E-01 -3.59505E+01 +8.63657E+00 -3.69655E+01 +1.68235E+01 -3.04744E+01 +2.26228E+01 -1.79416E+01
 +2.52993E+01 -2.43046E+00 +2.45565E+01 +1.22598E+01 +2.05822E+01 +2.26666E+01 +1.40722E+01 +2.66242E+01
 +6.19656E+00 +2.38268E+01 -1.53683E+00 +1.58351E+01 -7.54421E+00 +5.54209E+00 -1.05259E+01 -3.72534E+00
 -9.84294E+00 -9.18593E+00 -5.78869E+00 -9.37219E+00 +3.60957E-01 -4.47232E+00 +6.58693E+00 +3.82759E+00
 +1.06334E+01 +1.29195E+01 +1.06630E+01 +2.00674E+01 +5.87034E+00 +2.31713E+01 -3.14839E+00 +2.12844E+01
 -1.44196E+01 +1.47641E+01 -2.50441E+01 +5.05735E+00 -3.19762E+01 -5.77061E+00 -3.29124E+01 -1.55969E+01
 -2.70214E+01 -2.27256E+01 -1.52772E+01 -2.61823E+01 -2.72033E-01 -2.57861E+01 +1.44604E+01 -2.20365E+01
 +2.54204E+01 -1.58967E+01 +3.01304E+01 -8.55957E+00 +2.78364E+01 -1.24977E+00 +1.97058E+01 +4.92322E+00
 +8.46252E+00 +9.07964E+00 -2.43292E+00 +1.06774E+01 -9.80455E+00 +9.62012E+00 -1.16758E+01 +6.33965E+00
 -7.80553E+00 +1.80181E+00 +3.04364E-01 -2.61749E+00 +9.91397E+00 -5.40675E+00 +1.78924E+01 -5.30854E+00
 +2.16400E+01 -1.72901E+00 +1.98101E+01 +4.96525E+00 +1.26305E+01 +1.33886E+01 +1.75824E+00 +2.13838E+01
 -1.02542E+01 +2.65494E+01 -2.06953E+01 +2.69212E+01 -2.74045E+01 +2.16091E+01 -2.92584E+01 +1.11823E+01
 -2.63261E+01 -2.34881E+00 -1.96969E+01 -1.59853E+01 -1.10776E+01 -2.65246E+01 -2.30901E+00 -3.14570E+01
 +5.05460E+00 -2.97055E+01 +1.00090E+01 -2.19727E+01 +1.21798E+01 -1.05726E+01 +1.17557E+01 +1.21879E+00
 +9.34028E+00 +1.01086E+01 +5.79021E+00 +1.37459E+01 +2.07275E+00 +1.14024E+01 -8.55362E-01 +4.16845E+00
 -2.17028E+00 -5.39505E+00 -1.32292E+00 -1.40396E+01 +1.80687E+00 -1.88043E+01 +6.78597E+00 -1.78875E+01
 +1.25985E+01 -1.11553E+01 +1.77699E+01 -1.47904E-01 +2.06643E+01 +1.24014E+01 +1.99096E+01 +2.33691E+01
 +1.48447E+01 +3.01163E+01 +5.84306E+00 +3.11748E+01 -5.61702E+00 +2.65610E+01 -1.72070E+01 +1.76559E+01
 -2.62957E+01 +6.72567E+00 -3.06567E+01 -3.74662E+00 -2.91333E+01 -1.17067E+01 -2.20450E+01 -1.59771E+01
 -1.11881E+01 -1.64102E+01 +6.04211E-01 -1.37537E+01 +1.02355E+01 -9.31386E+00 +1.52336E+01 -4.55012E+00
