 Created: 16-Jan-2021
 $NMID
 ID='D:\BASISSIMULATI'
 FMTDAT='(8E13.5)'
 VOLUME=   1.00000E+00
 TRAMP=   1.00000E+00
 $END
 +1.84718E+01 +2.02905E+00 +1.75112E+01 +6.14952E+00 +1.56452E+01 +9.94087E+00 +1.29729E+01 +1.32074E+01
 +9.63480E+00 +1.57810E+01 +5.80563E+00 +1.75302E+01 +1.68512E+00 +1.83662E+01 -2.51241E+00 +1.82480E+01
 -6.56916E+00 +1.71842E+01 -1.02752E+01 +1.52323E+01 -1.34393E+01 +1.24956E+01 -1.58987E+01 +9.11806E+00
 -1.75279E+01 +5.27632E+00 -1.82443E+01 +1.17072E+00 -1.80132E+01 -2.98527E+00 -1.68488E+01 -6.97608E+00
 -1.48140E+01 -1.05952E+01 -1.20164E+01 -1.36561E+01 -8.60283E+00 -1.60013E+01 -4.75191E+00 -1.75112E+01
 -6.64323E-01 -1.81095E+01 +3.44744E+00 -1.77676E+01 +7.37018E+00 -1.65055E+01 +1.09010E+01 -1.43909E+01
 +1.38579E+01 -1.15356E+01 +1.60890E+01 -8.08952E+00 +1.74804E+01 -4.23274E+00 +1.79622E+01 -1.66215E-01
 +1.75117E+01 +3.89872E+00 +1.61545E+01 +7.75134E+00 +1.39633E+01 +1.11925E+01 +1.10538E+01 +1.40448E+01
 +7.57852E+00 +1.61619E+01 +3.71914E+00 +1.74358E+01 -3.23343E-01 +1.78027E+01 -4.33892E+00 +1.72459E+01
 -8.11949E+00 +1.57964E+01 -1.14697E+01 +1.35317E+01 -1.42169E+01 +1.05712E+01 -1.62202E+01 +7.07020E+00
 -1.73777E+01 +3.21145E+00 -1.76314E+01 -8.04098E-01 -1.69705E+01 -4.76788E+00 -1.54316E+01 -8.47456E+00
 -1.30965E+01 -1.17326E+01 -1.00884E+01 -1.43743E+01 -6.56494E+00 -1.62642E+01 -2.70997E+00 -1.73063E+01
 +1.27581E+00 -1.74486E+01 +5.18544E+00 -1.66860E+01 +8.81646E+00 -1.50604E+01 +1.19813E+01 -1.26582E+01
 +1.45172E+01 -9.60577E+00 +1.62941E+01 -6.06309E+00 +1.72219E+01 -2.21501E+00 +1.72546E+01 +1.73824E+00
 +1.63928E+01 +5.59147E+00 +1.46834E+01 +9.14516E+00 +1.22171E+01 +1.22159E+01 +9.12363E+00 +1.46456E+01
 +5.56502E+00 +1.63101E+01 +1.72686E+00 +1.71248E+01 -2.19119E+00 +1.70498E+01 -5.98581E+00 +1.60912E+01
 -9.46062E+00 +1.43008E+01 -1.24363E+01 +1.17736E+01 -1.47598E+01 +8.64240E+00 -1.63123E+01 +5.07106E+00
 -1.70154E+01 +1.24580E+00 -1.68346E+01 -2.63443E+00 -1.57816E+01 -6.36836E+00 -1.39132E+01 -9.76280E+00
 -1.13282E+01 -1.26426E+01 -8.16247E+00 -1.48598E+01 -4.58155E+00 -1.63012E+01 -7.72113E-01 -1.68939E+01
 +3.06778E+00 -1.66093E+01 +6.73901E+00 -1.54645E+01 +1.00517E+01 -1.35209E+01 +1.28350E+01 -1.08813E+01
 +1.49459E+01 -7.68419E+00 +1.62768E+01 -4.09681E+00 +1.67606E+01 -3.06050E-01 +1.63743E+01 +3.49106E+00
 +1.51402E+01 +7.09766E+00 +1.31243E+01 +1.03273E+01 +1.04332E+01 +1.30134E+01 +7.20795E+00 +1.50183E+01
 +3.61715E+00 +1.62395E+01 -1.52136E-01 +1.66159E+01 -3.90408E+00 +1.61300E+01 -7.44422E+00 +1.48091E+01
 -1.05896E+01 +1.27239E+01 -1.31781E+01 +9.98435E+00 -1.50770E+01 +6.73409E+00 -1.61895E+01 +3.14289E+00
 -1.64601E+01 -6.02208E-01 -1.58766E+01 -4.30669E+00 -1.44717E+01 -7.77862E+00 -1.23200E+01 -1.08386E+01
 -9.53514E+00 -1.33291E+01 -6.26295E+00 -1.51223E+01 -2.67432E+00 -1.61271E+01 +1.04394E+00 -1.62934E+01
 +4.69874E+00 -1.56147E+01 +8.10080E+00 -1.41282E+01 +1.10744E+01 -1.19131E+01 +1.34664E+01 -9.08592E+00
 +1.51544E+01 -5.79489E+00 +1.60525E+01 -2.21172E+00 +1.61163E+01 +1.47710E+00 +1.53444E+01 +5.08010E+00
 +1.37791E+01 +8.41071E+00 +1.15034E+01 +1.12970E+01 +8.63708E+00 +1.35903E+01 +5.33023E+00 +1.51735E+01
 +1.75538E+00 +1.59661E+01 -1.90150E+00 +1.59290E+01 -5.45063E+00 +1.50663E+01 -8.70830E+00 +1.34248E+01
 -1.15064E+01 +1.10914E+01 -1.37009E+01 +8.18896E+00 -1.51798E+01 +4.86930E+00 -1.58680E+01 +1.30555E+00
 -1.57319E+01 -2.31694E+00 -1.47806E+01 -5.81022E+00 -1.30656E+01 -8.99354E+00 -1.06775E+01 -1.17027E+01
 -7.74194E+00 -1.37983E+01 -4.41240E+00 -1.51735E+01 -8.62486E-01 -1.57586E+01 +2.72322E+00 -1.55253E+01
 +6.15877E+00 -1.44878E+01 +9.26643E+00 -1.27019E+01 +1.18859E+01 -1.02621E+01 +1.38827E+01 -7.29634E+00
 +1.51548E+01 -3.95984E+00 +1.56381E+01 -4.26445E-01 +1.53096E+01 +3.12019E+00 +1.41882E+01 +6.49618E+00
 +1.23342E+01 +9.52694E+00 +9.84542E+00 +1.20562E+01 +6.85253E+00 +1.39542E+01 +3.51193E+00 +1.51240E+01
 -2.34263E-03 +1.55069E+01 -3.50767E+00 +1.50850E+01 -6.82236E+00 +1.38822E+01 -9.77508E+00 +1.19627E+01
 -1.22137E+01 +9.42795E+00 -1.40130E+01 +6.41082E+00 -1.50814E+01 +3.06893E+00 -1.53653E+01 -4.23651E-01
 -1.48520E+01 -3.88551E+00 -1.35701E+01 -7.13726E+00 -1.15879E+01 -1.00109E+01 -9.01002E+00 -1.23583E+01
 -5.97155E+00 -1.40592E+01 -2.63115E+00 -1.50271E+01 +8.37263E-01 -1.52135E+01 +4.25357E+00 -1.46108E+01
 +7.44079E+00 -1.32522E+01 +1.02343E+01 -1.12101E+01 +1.24903E+01 -8.59198E+00 +1.40931E+01 -5.53503E+00
 +1.49613E+01 -2.19883E+00 +1.50518E+01 +1.24297E+00 +1.43618E+01 +4.61171E+00 +1.29291E+01 +7.73293E+00
 +1.08297E+01 +1.04454E+01 +8.17416E+00 +1.26097E+01 +5.10158E+00 +1.41148E+01 +1.77225E+00 +1.48845E+01
 -1.64059E+00 +1.48806E+01 -4.95982E+00 +1.41054E+01 -8.01361E+00 +1.26009E+01 -1.06443E+01 +1.04470E+01
 -1.27166E+01 +7.75692E+00 -1.41246E+01 +4.67150E+00 -1.47967E+01 +1.35165E+00 -1.47002E+01 -2.02992E+00
 -1.38419E+01 -5.29778E+00 -1.22681E+01 -8.28281E+00 -1.00624E+01 -1.08310E+01 -7.34058E+00 -1.28113E+01
 -4.24508E+00 -1.41225E+01 -9.37280E-01 -1.46984E+01 +2.41080E+00 -1.45108E+01 +5.62550E+00 -1.35715E+01
 +8.54052E+00 -1.19311E+01 +1.10055E+01 -9.67624E+00 +1.28938E+01 -6.92547E+00 +1.41089E+01 -3.82260E+00
 +1.45896E+01 -5.29362E-01 +1.43128E+01 +2.78305E+00 +1.32948E+01 +5.94288E+00 +1.15901E+01 +8.78671E+00
 +9.28887E+00 +1.11679E+01 +6.51191E+00 +1.29642E+01 +3.40436E+00 +1.40840E+01 +1.28123E-01 +1.44708E+01
 -3.14653E+00 +1.41065E+01 -6.24985E+00 +1.30119E+01 -9.02139E+00 +1.12455E+01 -1.13183E+01 +8.90062E+00
 -1.30228E+01 +6.10021E+00 -1.40479E+01 +2.99061E+00 -1.43422E+01 -2.66224E-01 -1.38922E+01 -3.50108E+00
 -1.27233E+01 -6.54632E+00 -1.08977E+01 -9.24457E+00 -8.51184E+00 -1.14568E+01 -5.69068E+00 -1.30696E+01
 -2.58162E+00 -1.40009E+01 +6.53475E-01 -1.42040E+01 +3.84657E+00 -1.36703E+01 +6.83225E+00 -1.24293E+01
 +9.45626E+00 -1.05471E+01 +1.15835E+01 -8.12283E+00 +1.31049E+01 -5.28362E+00 +1.39432E+01 -2.17764E+00
 +1.40565E+01 +1.03344E+00 +1.34409E+01 +4.18288E+00 +1.21301E+01 +7.10758E+00 +1.01938E+01 +9.65649E+00
 +7.73394E+00 +1.16984E+01 +4.87931E+00 +1.31288E+01 +1.77891E+00 +1.38750E+01 -1.40592E+00 +1.39001E+01
 -4.50988E+00 +1.32046E+01 -7.37226E+00 +1.18263E+01 -9.84529E+00 +9.83839E+00 -1.18018E+01 +7.34548E+00
 -1.31415E+01 +4.47805E+00 -1.37967E+01 +1.38568E+00 -1.37350E+01 -1.77076E+00 -1.29615E+01 -4.82748E+00
 -1.15180E+01 -7.62628E+00 -9.48106E+00 -1.00227E+01 -6.95775E+00 -1.18936E+01 -4.08010E+00 -1.31432E+01
 -9.98167E-01 -1.37084E+01 +2.12777E+00 -1.35615E+01 +5.13557E+00 -1.27120E+01 +7.86959E+00 -1.12056E+01
 +1.01888E+01 -9.12217E+00 +1.19740E+01 -6.57107E+00 +1.31341E+01 -3.68574E+00 +1.36103E+01 -6.16592E-01
 +1.33799E+01 +2.47682E+00 +1.24564E+01 +5.43407E+00 +1.08895E+01 +8.10220E+00 +8.76205E+00 +1.03436E+01
 +6.18574E+00 +1.20432E+01 +3.29523E+00 +1.31143E+01 +2.41165E-01 +1.35028E+01 -2.81774E+00 +1.31904E+01
 -5.72290E+00 +1.21950E+01 -8.32410E+00 +1.05699E+01 -1.04873E+01 +8.40101E+00 -1.21014E+01 +5.80204E+00
 -1.30841E+01 +2.90883E+00 -1.33861E+01 -1.27914E-01 -1.29934E+01 -3.15040E+00 -1.19282E+01 -6.00199E+00
 -1.02473E+01 -8.53529E+00 -8.03936E+00 -1.06198E+01 -5.42027E+00 -1.21485E+01 -2.52677E+00 -1.30436E+01
 +4.90451E-01 -1.32604E+01 +3.47467E+00 -1.27892E+01 +6.27128E+00 -1.16562E+01 +8.73578E+00 -9.92178E+00
 +1.07412E+01 -7.67742E+00 +1.21849E+01 -5.04070E+00 +1.29932E+01 -2.14930E+00 +1.31260E+01 +8.46262E-01
 +1.25780E+01 +3.79043E+00 +1.13794E+01 +6.53073E+00 +9.59384E+00 +8.92560E+00 +7.31548E+00 +1.08518E+01
 +4.66361E+00 +1.22106E+01 +1.77664E+00 +1.29330E+01 -1.19517E+00 +1.29831E+01 -4.09758E+00 +1.23602E+01
 -6.78028E+00 +1.10980E+01 -9.10477E+00 +9.26373E+00 -1.09515E+01 +6.95384E+00 -1.22258E+01 +4.28926E+00
 -1.28632E+01 +1.40903E+00 -1.28321E+01 -1.53702E+00 -1.21360E+01 -4.39599E+00 -1.08125E+01 -7.01991E+00
 -8.93177E+00 -9.27334E+00 -6.59279E+00 -1.10404E+01 -3.91792E+00 -1.22307E+01 -1.04667E+00 -1.27840E+01
 +1.87164E+00 -1.26732E+01 +4.68560E+00 -1.19057E+01 +7.24960E+00 -1.05230E+01 +9.43135E+00 -8.59826E+00
 +1.11187E+01 -6.23262E+00 +1.22255E+01 -3.54984E+00 +1.26957E+01 -6.89764E-01 +1.25066E+01 +2.19889E+00
 +1.16697E+01 +4.96630E+00 +1.02300E+01 +7.46932E+00 +8.26350E+00 +9.57886E+00 +5.87362E+00 +1.11866E+01
 +3.18525E+00 +1.22103E+01 +3.38518E-01 +1.25985E+01 -2.51862E+00 +1.23327E+01 -5.23802E+00 +1.14282E+01
 -7.67907E+00 +9.93361E+00 -9.71592E+00 +7.92779E+00 -1.12440E+01 +5.51605E+00 -1.21854E+01 +2.82441E+00
 -1.24927E+01 -6.87962E-03 -1.21517E+01 -2.83071E+00 -1.11816E+01 -5.50071E+00 -9.63427E+00 -7.87886E+00
 -7.59143E+00 -9.84261E+00 -5.16018E+00 -1.12912E+01 -2.46754E+00 -1.21509E+01 +3.46249E-01 -1.23785E+01
 +3.13503E+00 -1.19638E+01 +5.75429E+00 -1.09300E+01 +8.06869E+00 -9.33223E+00 +9.95901E+00 -7.25469E+00
 +1.13283E+01 -4.80628E+00 +1.21070E+01 -2.11487E+00 +1.22560E+01 +6.79415E-01 +1.17694E+01 +3.43147E+00
 +1.06739E+01 +5.99873E+00 +9.02780E+00 +8.24858E+00 +6.91786E+00 +1.00652E+01 +4.45460E+00 +1.13555E+01
 +1.76661E+00 +1.20539E+01 -1.00621E+00 +1.21257E+01 -3.71992E+00 +1.15687E+01 -6.23397E+00 +1.04134E+01
 -8.41856E+00 +8.72125E+00 -1.01613E+01 +6.58122E+00 -1.13728E+01 +4.10540E+00 -1.19918E+01 +1.42297E+00
 -1.19876E+01 -1.32648E+00 -1.13620E+01 -4.00028E+00 -1.01490E+01 -6.45999E+00 -8.41289E+00 -8.57865E+00
 -6.24505E+00 -1.02473E+01 -3.75891E+00 -1.13805E+01 -1.08416E+00 -1.19210E+01 +1.64008E+00 -1.18421E+01
 +4.27246E+00 -1.11496E+01 +6.67676E+00 -9.88080E+00 +8.72891E+00 -8.10299E+00 +1.03234E+01 -5.90960E+00
 +1.13788E+01 -3.41538E+00 +1.18416E+01 -7.50361E-01 +1.16894E+01 +1.94686E+00 +1.09317E+01 +4.53639E+00
 +9.60917E+00 +6.88426E+00 +7.79184E+00 +8.86937E+00 +5.57516E+00 +1.03897E+01 +3.07503E+00 +1.13677E+01
 +4.21768E-01 +1.17539E+01 -2.24669E+00 +1.15298E+01 -4.79199E+00 +1.07086E+01 -7.08249E+00 +9.33439E+00
 -9.00010E+00 +7.47972E+00 -1.04463E+01 +5.24196E+00 -1.13474E+01 +2.73809E+00 -1.16580E+01 +9.85600E-02
 -1.13635E+01 -2.53945E+00 -1.04807E+01 -5.03920E+00 -9.05673E+00 -7.27145E+00 -7.16689E+00 -9.12115E+00
