 Created: 16-Jan-2021
 $NMID
 ID='D:\BASISSIMULATI'
 FMTDAT='(8E13.5)'
 VOLUME=   1.00000E+00
 TRAMP=   1.00000E+00
 $END
 +3.66683E+01 +3.93304E+00 +3.12939E+01 +1.25251E+01 +1.72860E+01 +1.84211E+01 -1.45632E+00 +2.06196E+01
 -1.96902E+01 +1.87115E+01 -3.23508E+01 +1.29339E+01 -3.60099E+01 +4.20210E+00 -2.98346E+01 -5.92443E+00
 -1.57676E+01 -1.54035E+01 +2.10613E+00 -2.20444E+01 +1.87930E+01 -2.39947E+01 +2.98372E+01 -2.02790E+01
 +3.25441E+01 -1.12260E+01 +2.66333E+01 +1.39198E+00 +1.41641E+01 +1.46229E+01 -1.19326E+00 +2.50037E+01
 -1.52812E+01 +2.94888E+01 -2.46144E+01 +2.63836E+01 -2.72411E+01 +1.59828E+01 -2.30932E+01 +6.74990E-01
 -1.37889E+01 -1.55795E+01 -2.01424E+00 -2.82931E+01 +9.28091E+00 -3.37358E+01 +1.76244E+01 -3.00765E+01
 +2.15125E+01 -1.80178E+01 +2.05739E+01 -6.98593E-01 +1.54443E+01 +1.71397E+01 +7.46160E+00 +3.04958E+01
 -1.68761E+00 +3.55647E+01 -1.02759E+01 +3.08661E+01 -1.67623E+01 +1.76960E+01 -1.99572E+01 -2.42870E-01
 -1.91646E+01 -1.79205E+01 -1.43217E+01 -3.04436E+01 -6.11370E+00 -3.44589E+01 +4.00335E+00 -2.90781E+01
 +1.39484E+01 -1.60595E+01 +2.13745E+01 +7.84418E-01 +2.42089E+01 +1.67478E+01 +2.12563E+01 +2.75947E+01
 +1.26801E+01 +3.07128E+01 +1.74647E-01 +2.57330E+01 -1.32948E+01 +1.44728E+01 -2.41785E+01 +2.70728E-01
 -2.93031E+01 -1.30425E+01 -2.68369E+01 -2.22076E+01 -1.69547E+01 -2.53291E+01 -1.95769E+00 -2.22064E+01
 +1.42424E+01 -1.41722E+01 +2.71657E+01 -3.55715E+00 +3.30496E+01 +7.01162E+00 +2.99903E+01 +1.52584E+01
 +1.85822E+01 +1.96948E+01 +1.83235E+00 +1.97835E+01 -1.56517E+01 +1.58643E+01 -2.89737E+01 +8.93885E+00
 -3.43722E+01 +4.13143E-01 -3.03252E+01 -8.13344E+00 -1.79966E+01 -1.51412E+01 -8.89491E-01 -1.92505E+01
 +1.61881E+01 -1.95008E+01 +2.85255E+01 -1.55502E+01 +3.28547E+01 -7.86682E+00 +2.82397E+01 +2.19599E+00
 +1.62584E+01 +1.25303E+01 +4.52144E-01 +2.06539E+01 -1.47636E+01 +2.42986E+01 -2.53774E+01 +2.20696E+01
 -2.88651E+01 +1.39762E+01 -2.47768E+01 +1.63241E+00 -1.46956E+01 -1.19975E+01 -1.63555E+00 -2.32997E+01
 +1.08949E+01 -2.89959E+01 +1.98621E+01 -2.71357E+01 +2.34316E+01 -1.77817E+01 +2.12796E+01 -3.14302E+00
 +1.44665E+01 +1.29316E+01 +4.98052E+00 +2.59906E+01 -4.86362E+00 +3.22580E+01 -1.29835E+01 +2.97716E+01
 -1.79117E+01 +1.90223E+01 -1.89580E+01 +2.88017E+00 -1.61850E+01 -1.41931E+01 -1.02760E+01 -2.74218E+01
 -2.36936E+00 -3.31026E+01 +6.10033E+00 -2.96814E+01 +1.35628E+01 -1.81942E+01 +1.85056E+01 -1.94120E+00
 +1.97262E+01 +1.44985E+01 +1.66244E+01 +2.66061E+01 +9.46418E+00 +3.12083E+01 -5.02842E-01 +2.73288E+01
 -1.11529E+01 +1.63700E+01 -1.98892E+01 +1.60374E+00 -2.42716E+01 -1.28454E+01 -2.27263E+01 -2.31936E+01
 -1.51191E+01 -2.70105E+01 -2.98213E+00 -2.37727E+01 +1.07348E+01 -1.48373E+01 +2.23746E+01 -2.90169E+00
 +2.85767E+01 +8.84222E+00 +2.72892E+01 +1.75847E+01 +1.84699E+01 +2.15564E+01 +4.23230E+00 +2.03198E+01
 -1.16513E+01 +1.46763E+01 -2.47762E+01 +6.28589E+00 -3.13719E+01 -2.83856E+00 -2.94304E+01 -1.08041E+01
 -1.93445E+01 -1.61691E+01 -3.84321E+00 -1.81037E+01 +1.27684E+01 -1.64116E+01 +2.58490E+01 -1.14763E+01
 +3.17667E+01 -4.18185E+00 +2.89448E+01 +4.17845E+00 +1.82949E+01 +1.20312E+01 +2.91301E+00 +1.77283E+01
 -1.28564E+01 +1.98473E+01 -2.46943E+01 +1.75500E+01 -2.95302E+01 +1.09090E+01 -2.63546E+01 +1.07613E+00
 -1.63998E+01 -9.81976E+00 -2.67090E+00 -1.90867E+01 +1.09975E+01 -2.41359E+01 +2.10511E+01 -2.32340E+01
 +2.51583E+01 -1.61141E+01 +2.27288E+01 -4.22506E+00 +1.49028E+01 +9.51001E+00 +4.07006E+00 +2.14105E+01
 -6.88736E+00 +2.80551E+01 -1.53812E+01 +2.73065E+01 -1.97105E+01 +1.90256E+01 -1.93336E+01 +5.22719E+00
 -1.48063E+01 -1.04052E+01 -7.47525E+00 -2.35308E+01 +9.37441E-01 -3.04016E+01 +8.72368E+00 -2.89769E+01
 +1.44722E+01 -1.95554E+01 +1.72263E+01 -4.72296E+00 +1.65493E+01 +1.13817E+01 +1.25435E+01 +2.42640E+01
 +5.85202E+00 +3.03753E+01 -2.36903E+00 +2.81252E+01 -1.05502E+01 +1.83050E+01 -1.69245E+01 +3.80601E+00
 -1.98705E+01 -1.12661E+01 -1.83326E+01 -2.27984E+01 -1.22051E+01 -2.78304E+01 -2.54152E+00 -2.53260E+01
 +8.53382E+00 -1.63532E+01 +1.82527E+01 -3.65454E+00 +2.38995E+01 +9.22357E+00 +2.36005E+01 +1.89571E+01
 +1.69666E+01 +2.33166E+01 +5.36286E+00 +2.16525E+01 -8.32601E+00 +1.48970E+01 -2.04145E+01 +5.14191E+00
 -2.74402E+01 -5.03269E+00 -2.71968E+01 -1.32567E+01 -1.94554E+01 -1.79005E+01 -6.12967E+00 -1.83273E+01
 +9.19653E+00 -1.48615E+01 +2.22620E+01 -8.55097E+00 +2.93574E+01 -8.39400E-01 +2.84206E+01 +6.74509E+00
 +1.96619E+01 +1.28256E+01 +5.52115E+00 +1.63314E+01 -1.00367E+01 +1.66034E+01 -2.26748E+01 +1.34816E+01
 -2.89385E+01 +7.38185E+00 -2.72319E+01 -6.72720E-01 -1.82306E+01 -9.12313E+00 -4.62153E+00 -1.60994E+01
 +9.73121E+00 -1.98023E+01 +2.09259E+01 -1.89783E+01 +2.61180E+01 -1.33565E+01 +2.42514E+01 -3.89438E+00
 +1.62356E+01 +7.29768E+00 +4.55584E+00 +1.73929E+01 -7.52671E+00 +2.35701E+01 -1.69178E+01 +2.38336E+01
 -2.14934E+01 +1.76825E+01 -2.05511E+01 +6.39756E+00 -1.48248E+01 -7.18534E+00 -6.11888E+00 -1.93931E+01
 +3.27995E+00 -2.67412E+01 +1.12157E+01 -2.69692E+01 +1.61323E+01 -1.97660E+01 +1.73069E+01 -6.94200E+00
 +1.48465E+01 +8.02812E+00 +9.51578E+00 +2.09772E+01 +2.49221E+00 +2.82490E+01 -4.87050E+00 +2.77711E+01
 -1.12334E+01 +1.96706E+01 -1.54243E+01 +6.23977E+00 -1.65794E+01 -8.73669E+00 -1.42952E+01 -2.10890E+01
 -8.77382E+00 -2.74661E+01 -9.10404E-01 -2.62742E+01 +7.75281E+00 -1.80779E+01 +1.52581E+01 -5.36117E+00
 +1.96491E+01 +8.25508E+00 +1.94934E+01 +1.90840E+01 +1.43679E+01 +2.44020E+01 +5.13621E+00 +2.31391E+01
 -6.11350E+00 +1.60526E+01 -1.65129E+01 +5.37629E+00 -2.31555E+01 -5.90949E+00 -2.39414E+01 -1.49389E+01
 -1.82679E+01 -1.96958E+01 -7.33152E+00 -1.94314E+01 +6.09015E+00 -1.46911E+01 +1.83526E+01 -7.00291E+00
 +2.59669E+01 +1.63030E+00 +2.66329E+01 +9.26185E+00 +1.99640E+01 +1.44111E+01 +7.66669E+00 +1.62780E+01
 -6.90250E+00 +1.47662E+01 -1.96833E+01 +1.03727E+01 -2.70858E+01 +4.02177E+00 -2.70379E+01 -3.10147E+00
 -1.95882E+01 -9.69926E+00 -6.88106E+00 -1.45097E+01 +7.48445E+00 -1.64825E+01 +1.95136E+01 -1.49887E+01
 +2.59672E+01 -1.00309E+01 +2.52610E+01 -2.38079E+00 +1.78531E+01 +6.44157E+00 +6.02678E+00 +1.44057E+01
 -6.84041E+00 +1.94173E+01 -1.72788E+01 +1.98844E+01 -2.26904E+01 +1.52440E+01 -2.19966E+01 +6.26894E+00
 -1.58095E+01 -4.98308E+00 -6.11765E+00 -1.56180E+01 +4.37393E+00 -2.26633E+01 +1.30254E+01 -2.39317E+01
 +1.79302E+01 -1.87288E+01 +1.82996E+01 -8.16741E+00 +1.45006E+01 +5.04226E+00 +7.79624E+00 +1.72990E+01
 -8.43464E-02 +2.51260E+01 -7.39824E+00 +2.61967E+01 -1.27416E+01 +2.00564E+01 -1.52459E+01 +8.30650E+00
 -1.46253E+01 -5.82182E+00 -1.11252E+01 -1.83868E+01 -5.42942E+00 -2.58770E+01 +1.43894E+00 -2.62301E+01
 +8.22620E+00 -1.94213E+01 +1.35925E+01 -7.44741E+00 +1.63181E+01 +6.28243E+00 +1.55672E+01 +1.79550E+01
 +1.11564E+01 +2.44506E+01 +3.73939E+00 +2.42006E+01 -5.19135E+00 +1.75621E+01 -1.35465E+01 +6.62039E+00
 -1.91131E+01 -5.48949E+00 -2.01579E+01 -1.55164E+01 -1.59902E+01 -2.09908E+01 -7.29485E+00 -2.08314E+01
 +3.90784E+00 -1.55114E+01 +1.47132E+01 -6.78190E+00 +2.21009E+01 +2.92153E+00 +2.38127E+01 +1.11817E+01
 +1.90718E+01 +1.62028E+01 +8.90815E+00 +1.71620E+01 -4.04313E+00 +1.42580E+01 -1.62380E+01 +8.50135E+00
 -2.42268E+01 +1.35783E+00 -2.56694E+01 -5.62733E+00 -2.00499E+01 -1.11280E+01 -8.86436E+00 -1.42155E+01
 +4.78789E+00 -1.44286E+01 +1.70937E+01 -1.17767E+01 +2.46311E+01 -6.71691E+00 +2.53563E+01 -1.16682E-01
 +1.91766E+01 +6.81680E+00 +7.94141E+00 +1.26768E+01 -5.13264E+00 +1.60915E+01 -1.64193E+01 +1.60357E+01
 -2.29244E+01 +1.21542E+01 -2.31013E+01 +4.98760E+00 -1.72108E+01 -4.00364E+00 -7.14422E+00 -1.26849E+01
 +4.20417E+00 -1.87428E+01 +1.38018E+01 -2.03205E+01 +1.93103E+01 -1.66118E+01 +1.96503E+01 -8.21655E+00
 +1.51636E+01 +2.88886E+00 +7.37124E+00 +1.38032E+01 -1.55332E+00 +2.14757E+01 -9.41153E+00 +2.35922E+01
 -1.45187E+01 +1.93033E+01 -1.60241E+01 +9.55691E+00 -1.39681E+01 -3.09393E+00 -9.12097E+00 -1.51747E+01
 -2.69663E+00 -2.32773E+01 +3.95097E+00 -2.50598E+01 +9.57395E+00 -1.99514E+01 +1.31914E+01 -9.34338E+00
 +1.41806E+01 +3.80216E+00 +1.23310E+01 +1.58096E+01 +7.88647E+00 +2.33563E+01 +1.56552E+00 +2.44253E+01
 -5.47316E+00 +1.88605E+01 -1.17668E+01 +8.36580E+00 -1.58077E+01 -4.03677E+00 -1.63996E+01 -1.49119E+01
 -1.30282E+01 -2.13962E+01 -6.12721E+00 -2.19707E+01 +2.87958E+00 -1.68050E+01 +1.18250E+01 -7.60065E+00
 +1.83125E+01 +2.98587E+00 +2.03789E+01 +1.21396E+01 +1.71143E+01 +1.76553E+01 +9.03698E+00 +1.84600E+01
 -1.92687E+00 +1.47710E+01 -1.28924E+01 +7.88806E+00 -2.07946E+01 -2.69896E-01 -2.32782E+01 -7.71807E+00
 -1.94299E+01 -1.28829E+01 -1.01171E+01 -1.48911E+01 +2.19551E+00 -1.36353E+01 +1.41141E+01 -9.65802E+00
 +2.22853E+01 -3.93287E+00 +2.43761E+01 +2.37046E+00 +1.97677E+01 +8.08247E+00 +9.74682E+00 +1.21779E+01
 -2.86580E+00 +1.38859E+01 -1.45399E+01 +1.27923E+01 -2.20606E+01 +8.94071E+00 -2.34452E+01 +2.90818E+00
 -1.84794E+01 -4.19692E+00 -8.72343E+00 -1.08661E+01 +2.99611E+00 -1.54719E+01 +1.34378E+01 -1.66640E+01
 +1.98734E+01 -1.37829E+01 +2.08163E+01 -7.16042E+00 +1.63504E+01 +1.81990E+00 +7.99222E+00 +1.09703E+01
 -1.83561E+00 +1.78281E+01 -1.05341E+01 +2.03400E+01 -1.60317E+01 +1.75037E+01 -1.72666E+01 +9.75932E+00
 -1.43385E+01 -1.02233E+00 -8.33491E+00 -1.19851E+01 -9.28600E-01 -2.00646E+01 +6.10388E+00 -2.28784E+01
 +1.12996E+01 -1.94582E+01 +1.37679E+01 -1.05921E+01 +1.32640E+01 +1.34843E+00 +1.01156E+01 +1.30609E+01
 +5.06782E+00 +2.12582E+01 -8.86555E-01 +2.36267E+01 -6.65616E+00 +1.95054E+01 -1.11788E+01 +1.00781E+01
 -1.35491E+01 -1.97967E+00 -1.31645E+01 -1.32892E+01 -9.88257E+00 -2.07512E+01 -4.14573E+00 -2.24239E+01
 +2.98931E+00 -1.80396E+01 +9.97810E+00 -9.01728E+00 +1.50892E+01 +2.01165E+00 +1.68346E+01 +1.20015E+01
 +1.44229E+01 +1.83624E+01 +8.08976E+00 +1.96450E+01 -8.25024E-01 +1.58523E+01 -1.01245E+01 +8.32155E+00
 -1.72956E+01 -7.54045E-01 -2.02104E+01 -8.98858E+00 -1.77859E+01 -1.44448E+01 -1.03870E+01 -1.60756E+01
 +1.75369E-01 -1.38708E+01 +1.10849E+01 -8.71447E+00 +1.92923E+01 -2.04241E+00 +2.24005E+01 +4.57103E+00
