 Created: 16-Jan-2021
 $NMID
 ID='D:\BASISSIMULATI'
 FMTDAT='(8E13.5)'
 VOLUME=   1.00000E+00
 TRAMP=   1.00000E+00
 $END
 +7.20467E+01 +6.03250E+00 +5.87920E+01 +4.09763E+01 +2.87950E+01 +6.20695E+01 -6.18791E+00 +6.25122E+01
 -3.30436E+01 +4.42856E+01 -4.31446E+01 +1.67926E+01 -3.57884E+01 -7.88147E+00 -1.76874E+01 -2.06075E+01
 +9.73014E-01 -1.89441E+01 +1.16928E+01 -7.28854E+00 +1.13596E+01 +6.28568E+00 +2.78998E+00 +1.45606E+01
 -7.79868E+00 +1.45956E+01 -1.46857E+01 +8.38553E+00 -1.56457E+01 +7.50964E-01 -1.25029E+01 -4.02360E+00
 -9.21731E+00 -4.73455E+00 -8.89677E+00 -3.57488E+00 -1.16460E+01 -4.23023E+00 -1.45326E+01 -9.08979E+00
 -1.35999E+01 -1.73725E+01 -6.60469E+00 -2.53408E+01 +5.25669E+00 -2.84643E+01 +1.77303E+01 -2.41963E+01
 +2.57992E+01 -1.36548E+01 +2.65281E+01 -1.15351E+00 +2.07500E+01 +8.17916E+00 +1.25582E+01 +1.13033E+01
 +6.86678E+00 +8.96861E+00 +6.45513E+00 +5.17408E+00 +1.02504E+01 +4.65837E+00 +1.39091E+01 +9.86239E+00
 +1.24344E+01 +1.91589E+01 +3.36469E+00 +2.74582E+01 -1.13167E+01 +2.89557E+01 -2.57338E+01 +2.05471E+01
 -3.29630E+01 +3.99746E+00 -2.87085E+01 -1.44235E+01 -1.38380E+01 -2.67728E+01 +5.63276E+00 -2.73283E+01
 +2.11886E+01 -1.55382E+01 +2.57969E+01 +3.50808E+00 +1.72318E+01 +2.13520E+01 -9.00860E-01 +3.00423E+01
 -2.08913E+01 +2.56999E+01 -3.44776E+01 +1.00696E+01 -3.64424E+01 -1.05668E+01 -2.65640E+01 -2.84203E+01
 -9.16325E+00 -3.75823E+01 +9.27977E+00 -3.61612E+01 +2.30817E+01 -2.63432E+01 +2.94218E+01 -1.26703E+01
 +2.87034E+01 +3.38380E-01 +2.33847E+01 +9.94424E+00 +1.62066E+01 +1.55938E+01 +8.89834E+00 +1.80948E+01
 +1.96712E+00 +1.83551E+01 -4.57740E+00 +1.65878E+01 -1.02823E+01 +1.24479E+01 -1.38743E+01 +5.87782E+00
 -1.37817E+01 -2.04968E+00 -9.24101E+00 -9.00702E+00 -1.23599E+00 -1.22519E+01 +7.44016E+00 -1.00337E+01
 +1.32076E+01 -2.75076E+00 +1.33546E+01 +6.88643E+00 +7.44987E+00 +1.49052E+01 -2.29047E+00 +1.78662E+01
 -1.19468E+01 +1.44941E+01 -1.77094E+01 +6.28019E+00 -1.76436E+01 -3.27152E+00 -1.25023E+01 -1.03720E+01
 -5.18596E+00 -1.27529E+01 +8.37086E-01 -1.06259E+01 +3.30269E+00 -6.33538E+00 +2.19103E+00 -2.94019E+00
 -4.72210E-01 -2.51201E+00 -1.89213E+00 -5.05692E+00 -1.36674E-01 -8.60255E+00 +4.75488E+00 -1.03582E+01
 +1.07556E+01 -8.29570E+00 +1.49008E+01 -2.30479E+00 +1.48245E+01 +5.66496E+00 +9.98010E+00 +1.25170E+01
 +1.94062E+00 +1.54763E+01 -6.32600E+00 +1.33647E+01 -1.17984E+01 +7.07764E+00 -1.26818E+01 -9.02210E-01
 -9.03970E+00 -7.64342E+00 -2.56574E+00 -1.09652E+01 +4.28556E+00 -1.01555E+01 +9.32061E+00 -5.97348E+00
 +1.13074E+01 -7.54561E-02 +1.01287E+01 +5.74894E+00 +6.47624E+00 +1.01469E+01 +1.37803E+00 +1.23912E+01
 -4.14915E+00 +1.22586E+01 -9.20113E+00 +9.82333E+00 -1.29271E+01 +5.37283E+00 -1.45055E+01 -5.07309E-01
 -1.33004E+01 -6.80887E+00 -9.17638E+00 -1.21367E+01 -2.78870E+00 -1.50223E+01 +4.38588E+00 -1.44471E+01
 +1.03999E+01 -1.03405E+01 +1.34859E+01 -3.77294E+00 +1.27381E+01 +3.31212E+00 +8.50600E+00 +8.76209E+00
 +2.29426E+00 +1.10030E+01 -3.80416E+00 +9.60570E+00 -7.89586E+00 +5.38434E+00 -8.95121E+00 +3.32226E-04
 -7.07164E+00 -4.72789E+00 -3.28560E+00 -7.49096E+00 +9.82263E-01 -7.85346E+00 +4.49395E+00 -6.21018E+00
 +6.57462E+00 -3.42725E+00 +7.16222E+00 -3.92069E-01 +6.58679E+00 +2.30273E+00 +5.25694E+00 +4.42650E+00
 +3.44120E+00 +5.96576E+00 +1.24147E+00 +6.91091E+00 -1.27299E+00 +7.12925E+00 -3.89496E+00 +6.40196E+00
 -6.20442E+00 +4.59054E+00 -7.65278E+00 +1.81818E+00 -7.76917E+00 -1.45473E+00 -6.38021E+00 -4.51878E+00
 -3.72782E+00 -6.63460E+00 -4.24953E-01 -7.28321E+00 +2.72980E+00 -6.33842E+00 +4.99624E+00 -4.09662E+00
 +5.89823E+00 -1.16780E+00 +5.32630E+00 +1.71383E+00 +3.52484E+00 +3.88422E+00 +9.95284E-01 +4.89278E+00
 -1.63805E+00 +4.57385E+00 -3.76226E+00 +3.05395E+00 -4.89226E+00 +7.11306E-01 -4.76249E+00 -1.90121E+00
 -3.38528E+00 -4.16525E+00 -1.06023E+00 -5.52924E+00 +1.68121E+00 -5.64091E+00 +4.19624E+00 -4.44301E+00
 +5.89126E+00 -2.19639E+00 +6.37564E+00 +5.85898E-01 +5.55786E+00 +3.27673E+00 +3.65295E+00 +5.30012E+00
 +1.10384E+00 +6.26839E+00 -1.54827E+00 +6.05126E+00 -3.79575E+00 +4.76750E+00 -5.25920E+00 +2.72082E+00
 -5.73087E+00 +3.15596E-01 -5.17800E+00 -2.01790E+00 -3.72790E+00 -3.87920E+00 -1.64955E+00 -4.94303E+00
 +6.70848E-01 -5.00701E+00 +2.77562E+00 -4.04292E+00 +4.21488E+00 -2.23354E+00 +4.65303E+00 +3.29170E-02
 +3.97225E+00 +2.23151E+00 +2.33035E+00 +3.82724E+00 +1.39019E-01 +4.42461E+00 -2.04179E+00 +3.88680E+00
 -3.66185E+00 +2.37776E+00 -4.33574E+00 +3.09618E-01 -3.94076E+00 -1.78395E+00 -2.62878E+00 -3.39989E+00
 -7.59027E-01 -4.19089E+00 +1.21349E+00 -4.02966E+00 +2.85181E+00 -3.00818E+00 +3.82365E+00 -1.39094E+00
 +3.95249E+00 +4.52580E-01 +3.23955E+00 +2.11989E+00 +1.86326E+00 +3.24880E+00 +1.53351E-01 +3.59255E+00
 -1.47084E+00 +3.08799E+00 -2.60141E+00 +1.89276E+00 -2.96391E+00 +3.61818E-01 -2.51759E+00 -1.05089E+00
 -1.48294E+00 -1.94512E+00 -2.66519E-01 -2.12480E+00 +7.00930E-01 -1.67522E+00 +1.14806E+00 -9.18741E-01
 +1.07981E+00 -2.56058E-01 +7.60946E-01 +3.79850E-02 +5.61703E-01 -3.88087E-02 +7.35578E-01 -2.11701E-01
 +1.24501E+00 -8.46736E-02 +1.73876E+00 +6.12829E-01 +1.71366E+00 +1.81621E+00 +7.94865E-01 +3.07702E+00
 -1.00449E+00 +3.72621E+00 -3.19041E+00 +3.19090E+00 -4.93558E+00 +1.31655E+00 -5.42198E+00 -1.47393E+00
 -4.22691E+00 -4.28469E+00 -1.56422E+00 -6.09004E+00 +1.74904E+00 -6.16866E+00 +4.60161E+00 -4.42688E+00
 +6.03861E+00 -1.45463E+00 +5.64724E+00 +1.71666E+00 +3.70113E+00 +4.04108E+00 +1.00512E+00 +4.87034E+00
 -1.47216E+00 +4.16485E+00 -2.99388E+00 +2.42481E+00 -3.29508E+00 +4.03999E-01 -2.57873E+00 -1.23115E+00
 -1.31183E+00 -2.12693E+00 +3.71432E-02 -2.26651E+00 +1.16981E+00 -1.82970E+00 +1.96747E+00 -1.01314E+00
 +2.38115E+00 +6.14505E-02 +2.32047E+00 +1.30323E+00 +1.65072E+00 +2.53302E+00 +3.18371E-01 +3.41348E+00
 -1.48347E+00 +3.52724E+00 -3.25288E+00 +2.59737E+00 -4.31921E+00 +7.27165E-01 -4.15834E+00 -1.51360E+00
 -2.72362E+00 -3.26666E+00 -5.81309E-01 -3.78706E+00 +1.28329E+00 -2.87316E+00 +1.94385E+00 -1.06928E+00
 +1.06707E+00 +5.25936E-01 -8.01651E-01 +8.06022E-01 -2.41078E+00 -6.98151E-01 -2.41036E+00 -3.42991E+00
 -1.18200E-01 -5.93729E+00 +3.96241E+00 -6.52845E+00 +8.19655E+00 -4.16481E+00 +1.04920E+01 +8.62983E-01
 +9.31109E+00 +6.86688E+00 +4.52455E+00 +1.14071E+01 -2.35102E+00 +1.23906E+01 -8.70887E+00 +9.10104E+00
 -1.19800E+01 +2.63909E+00 -1.08079E+01 -4.48094E+00 -5.69774E+00 -9.41548E+00 +1.18853E+00 -1.02497E+01
 +6.99813E+00 -6.82730E+00 +9.44842E+00 -7.61126E-01 +7.77627E+00 +5.35678E+00 +2.94283E+00 +9.13457E+00
 -2.95267E+00 +9.36537E+00 -7.70089E+00 +6.36792E+00 -9.91054E+00 +1.59218E+00 -9.39861E+00 -3.21814E+00
 -6.93435E+00 -6.81635E+00 -3.58964E+00 -8.79451E+00 -1.35417E-01 -9.37934E+00 +3.16233E+00 -8.92261E+00
 +6.28890E+00 -7.49094E+00 +9.02776E+00 -4.85798E+00 +1.07033E+01 -9.00974E-01 +1.03836E+01 +3.90280E+00
 +7.48390E+00 +8.29600E+00 +2.39820E+00 +1.06248E+01 -3.30701E+00 +9.67217E+00 -7.39559E+00 +5.49058E+00
 -8.00987E+00 -3.06016E-01 -4.73692E+00 -5.08986E+00 +9.36601E-01 -6.44148E+00 +6.14515E+00 -3.45313E+00
 +7.98835E+00 +2.61139E+00 +5.05600E+00 +8.74978E+00 -1.68355E+00 +1.16329E+01 -9.17903E+00 +9.32525E+00
 -1.37224E+01 +2.41222E+00 -1.28309E+01 -6.11647E+00 -6.61460E+00 -1.22547E+01 +2.12737E+00 -1.29833E+01
 +9.20299E+00 -7.86742E+00 +1.11027E+01 +6.07128E-01 +6.80477E+00 +8.18451E+00 -1.63181E+00 +1.09278E+01
 -1.00204E+01 +7.19447E+00 -1.40806E+01 -1.51282E+00 -1.15259E+01 -1.12560E+01 -3.15144E+00 -1.75646E+01
 +7.60406E+00 -1.75551E+01 +1.63555E+01 -1.12028E+01 +1.98243E+01 -1.17243E+00 +1.72037E+01 +8.61664E+00
 +1.02123E+01 +1.48747E+01 +1.93607E+00 +1.62835E+01 -4.80620E+00 +1.36744E+01 -8.65630E+00 +9.10842E+00
 -9.88816E+00 +4.52190E+00 -9.62529E+00 +7.82010E-01 -8.73484E+00 -2.33768E+00 -7.17742E+00 -5.37228E+00
 -4.24478E+00 -8.21103E+00 +5.03072E-01 -9.71930E+00 +6.29405E+00 -8.29844E+00 +1.09501E+01 -3.10147E+00
 +1.17618E+01 +4.87988E+00 +7.05734E+00 +1.26707E+01 -2.43065E+00 +1.64282E+01 -1.33169E+01 +1.33752E+01
 -2.07953E+01 +3.53643E+00 -2.08814E+01 -9.76537E+00 -1.25487E+01 -2.11093E+01 +1.42396E+00 -2.54189E+01
 +1.54739E+01 -2.04624E+01 +2.37587E+01 -8.10085E+00 +2.29318E+01 +6.44448E+00 +1.37745E+01 +1.70171E+01
 +8.15004E-01 +1.94549E+01 -9.90699E+00 +1.35408E+01 -1.37996E+01 +2.97638E+00 -9.89196E+00 -6.59495E+00
 -1.12458E+00 -1.04756E+01 +7.34722E+00 -7.21159E+00 +1.09007E+01 +8.63291E-01 +7.78494E+00 +9.05298E+00
 -1.47045E-01 +1.28684E+01 -8.61757E+00 +1.03444E+01 -1.32962E+01 +2.90146E+00 -1.20448E+01 -5.61751E+00
 -5.85444E+00 -1.11099E+01 +1.93305E+00 -1.13423E+01 +7.57357E+00 -6.90641E+00 +8.88929E+00 -5.83995E-01
 +6.18087E+00 +4.39136E+00 +1.67829E+00 +6.10538E+00 -2.01188E+00 +4.76190E+00 -3.45855E+00 +2.14450E+00
 -3.02602E+00 +1.96234E-01 -2.25717E+00 -3.19824E-01 -2.50339E+00 -2.14134E-01 -3.75346E+00 -1.08503E+00
 -4.48026E+00 -3.89335E+00 -2.66874E+00 -7.87481E+00 +2.58987E+00 -1.05942E+01 +9.97487E+00 -9.25164E+00
 +1.61130E+01 -2.54451E+00 +1.71434E+01 +8.03822E+00 +1.09063E+01 +1.83857E+01 -1.46869E+00 +2.35069E+01
 -1.55711E+01 +2.00410E+01 -2.54907E+01 +8.22027E+00 -2.65745E+01 -7.83390E+00 -1.77735E+01 -2.17655E+01
 -2.34355E+00 -2.78483E+01 +1.35257E+01 -2.36530E+01 +2.35129E+01 -1.11772E+01 +2.40207E+01 +4.12822E+00
 +1.56849E+01 +1.59356E+01 +2.84033E+00 +1.99205E+01 -8.70842E+00 +1.55362E+01 -1.44320E+01 +5.88650E+00
 -1.29657E+01 -4.09934E+00 -6.29945E+00 -1.01512E+01 +1.65424E+00 -1.05153E+01 +7.21563E+00 -6.33322E+00
 +8.64044E+00 -5.38901E-01 +6.55693E+00 +3.95779E+00 +3.09081E+00 +5.74222E+00 +3.48210E-01 +5.27645E+00
 -7.97220E-01 +4.14089E+00 -9.51332E-01 +3.74221E+00 -1.45734E+00 +4.34030E+00 -3.24008E+00 +4.97270E+00
 -6.02253E+00 +4.25451E+00 -8.42032E+00 +1.48040E+00 -8.83994E+00 -2.71781E+00 -6.58955E+00 -6.60828E+00
 -2.47045E+00 -8.36743E+00 +1.56623E+00 -7.23864E+00 +3.53344E+00 -4.10367E+00 +2.63755E+00 -1.06640E+00
 -1.35121E-01 -2.40837E-01 -2.47978E+00 -2.43222E+00 -2.07760E+00 -6.50165E+00 +1.97430E+00 -9.84186E+00
