 Created: 16-Jan-2021
 $NMID
 ID='D:\BASISSIMULATI'
 FMTDAT='(8E13.5)'
 VOLUME=   1.00000E+00
 TRAMP=   1.00000E+00
 $END
 +3.68579E+01 +3.57985E+00 +3.32572E+01 +1.64645E+01 +2.50307E+01 +2.69638E+01 +1.35621E+01 +3.34355E+01
 +7.83652E-01 +3.49811E+01 -1.12019E+01 +3.16040E+01 -2.05270E+01 +2.41840E+01 -2.59094E+01 +1.42781E+01
 -2.68760E+01 +3.78937E+00 -2.38158E+01 -5.42369E+00 -1.78546E+01 -1.19156E+01 -1.05826E+01 -1.49243E+01
 -3.69425E+00 -1.44879E+01 +1.38050E+00 -1.13879E+01 +3.77462E+00 -6.93371E+00 +3.34994E+00 -2.63947E+00
 +6.96829E-01 +1.35415E-01 -3.02916E+00 +5.02524E-01 -6.39569E+00 -1.75099E+00 -8.04210E+00 -6.11351E+00
 -7.01067E+00 -1.14654E+01 -2.98754E+00 -1.63343E+01 +3.59980E+00 -1.92337E+01 +1.16504E+01 -1.90096E+01
 +1.96093E+01 -1.51196E+01 +2.57913E+01 -7.78486E+00 +2.87410E+01 +2.02223E+00 +2.75512E+01 +1.27500E+01
 +2.20722E+01 +2.25660E+01 +1.29666E+01 +2.97193E+01 +1.59764E+00 +3.28905E+01 -1.02256E+01 +3.14571E+01
 -2.05951E+01 +2.56194E+01 -2.78690E+01 +1.63613E+01 -3.09814E+01 +5.25444E+00 -2.96338E+01 -5.85067E+00
 -2.43302E+01 -1.51845E+01 -1.62517E+01 -2.13925E+01 -6.99967E+00 -2.37776E+01 +1.73704E+00 -2.24009E+01
 +8.52018E+00 -1.80268E+01 +1.24351E+01 -1.19246E+01 +1.32438E+01 -5.57526E+00 +1.13891E+01 -3.45794E-01
 +7.85408E+00 +2.79806E+00 +3.91026E+00 +3.48059E+00 +8.12206E-01 +1.96861E+00 -4.93903E-01 -9.20290E-01
 +4.15301E-01 -4.03047E+00 +3.34854E+00 -6.15300E+00 +7.54887E+00 -6.31869E+00 +1.18710E+01 -4.03480E+00
 +1.50469E+01 +5.86244E-01 +1.59804E+01 +6.83380E+00 +1.40073E+01 +1.35398E+01 +9.06292E+00 +1.93229E+01
 +1.72192E+00 +2.28825E+01 -6.89924E+00 +2.32809E+01 -1.53560E+01 +2.01519E+01 -2.21612E+01 +1.37931E+01
 -2.60816E+01 +5.12112E+00 -2.63843E+01 -4.49939E+00 -2.29822E+01 -1.35174E+01 -1.64493E+01 -2.04935E+01
 -7.90337E+00 -2.43723E+01 +1.21619E+00 -2.46744E+01 +9.43007E+00 -2.15697E+01 +1.55006E+01 -1.58213E+01
 +1.86563E+01 -8.61196E+00 +1.87146E+01 -1.29470E+00 +1.60817E+01 +4.88071E+00 +1.16329E+01 +9.00777E+00
 +6.50287E+00 +1.06814E+01 +1.83253E+00 +1.00439E+01 -1.47209E+00 +7.71419E+00 -2.91919E+00 +4.61845E+00
 -2.51222E+00 +1.76276E+00 -7.18926E-01 -1.56212E-03 +1.66149E+00 -1.69250E-01 +3.70091E+00 +1.31173E+00
 +4.56859E+00 +4.03803E+00 +3.73088E+00 +7.25203E+00 +1.08127E+00 +1.00219E+01 -3.02694E+00 +1.14600E+01
 -7.85105E+00 +1.09310E+01 -1.24161E+01 +8.20516E+00 -1.57240E+01 +3.52313E+00 -1.69696E+01 -2.44052E+00
 -1.57165E+01 -8.70660E+00 -1.19968E+01 -1.41857E+01 -6.31388E+00 -1.78960E+01 +4.51653E-01 -1.91590E+01
 +7.21208E+00 -1.77330E+01 +1.28824E+01 -1.38574E+01 +1.65866E+01 -8.20047E+00 +1.78180E+01 -1.72407E+00
 +1.65230E+01 +4.50684E+00 +1.30929E+01 +9.52809E+00 +8.26773E+00 +1.26528E+01 +2.97695E+00 +1.35855E+01
 -1.85107E+00 +1.24530E+01 -5.46833E+00 +9.74947E+00 -7.44033E+00 +6.21060E+00 -7.70727E+00 +2.64603E+00
 -6.56425E+00 -2.32978E-01 -4.56854E+00 -1.95464E+00 -2.39701E+00 -2.36822E+00 -6.86322E-01 -1.65166E+00
 +1.09022E-01 -2.47118E-01 -1.88881E-01 +1.25849E+00 -1.45294E+00 +2.27976E+00 -3.29231E+00 +2.37295E+00
 -5.15174E+00 +1.33971E+00 -6.44553E+00 -7.27222E-01 -6.69578E+00 -3.46456E+00 -5.64467E+00 -6.31919E+00
 -3.31709E+00 -8.67002E+00 -2.10522E-02 -9.96389E+00 +3.71284E+00 -9.83617E+00 +7.23885E+00 -8.19050E+00
 +9.92690E+00 -5.22195E+00 +1.12887E+01 -1.37977E+00 +1.10736E+01 +2.72103E+00 +9.31426E+00 +6.41978E+00
 +6.31575E+00 +9.13655E+00 +2.59064E+00 +1.04788E+01 -1.24395E+00 +1.03078E+01 -4.58540E+00 +8.75262E+00
 -6.95616E+00 +6.17176E+00 -8.08408E+00 +3.07219E+00 -7.93803E+00 +4.43598E-03 -6.71428E+00 -2.54381E+00
 -4.77919E+00 -4.23430E+00 -2.58280E+00 -4.92866E+00 -5.62602E-01 -4.69499E+00 +9.42075E-01 -3.77223E+00
 +1.74825E+00 -2.50276E+00 +1.85003E+00 -1.24942E+00 +1.40031E+00 -3.15515E-01 +6.60163E-01 +1.15650E-01
 -7.09592E-02 +1.01698E-02 -5.27872E-01 -5.22074E-01 -5.39381E-01 -1.26446E+00 -6.29563E-02 -1.95199E+00
 +8.11531E-01 -2.33682E+00 +1.88793E+00 -2.24644E+00 +2.91233E+00 -1.62215E+00 +3.63231E+00 -5.30597E-01
 +3.85332E+00 +8.52505E-01 +3.48058E+00 +2.28166E+00 +2.53807E+00 +3.49422E+00 +1.16199E+00 +4.26456E+00
 -4.28508E-01 +4.44848E+00 -1.97616E+00 +4.00914E+00 -3.23561E+00 +3.02043E+00 -4.01851E+00 +1.64857E+00
 -4.22469E+00 +1.17092E-01 -3.85463E+00 -1.33656E+00 -3.00208E+00 -2.50368E+00 -1.83017E+00 -3.23791E+00
 -5.37175E-01 -3.47435E+00 +6.80416E-01 -3.23188E+00 +1.66026E+00 -2.60040E+00 +2.29633E+00 -1.71705E+00
 +2.54822E+00 -7.37539E-01 +2.43762E+00 +1.91418E-01 +2.03481E+00 +9.53602E-01 +1.43920E+00 +1.47574E+00
 +7.58983E-01 +1.73037E+00 +9.34755E-02 +1.73048E+00 -4.78849E-01 +1.51896E+00 -9.06067E-01 +1.15594E+00
 -1.16287E+00 +7.07156E-01 -1.24683E+00 +2.35111E-01 -1.17298E+00 -2.06328E-01 -9.68529E-01 -5.74352E-01
 -6.68755E-01 -8.37863E-01 -3.14120E-01 -9.77611E-01 +5.20278E-02 -9.86668E-01 +3.86092E-01 -8.71346E-01
 +6.47978E-01 -6.51949E-01 +8.06054E-01 -3.62264E-01 +8.42628E-01 -4.67496E-02 +7.58562E-01 +2.45132E-01
 +5.75332E-01 +4.67042E-01 +3.33137E-01 +5.85018E-01 +8.44801E-02 +5.85706E-01 -1.16174E-01 +4.81224E-01
 -2.24779E-01 +3.08729E-01 -2.19332E-01 +1.23850E-01 -1.07656E-01 -1.13494E-02 +7.12323E-02 -4.36442E-02
 +2.53442E-01 +5.62359E-02 +3.63710E-01 +2.82495E-01 +3.33646E-01 +5.90495E-01 +1.20824E-01 +9.02234E-01
 -2.75910E-01 +1.12092E+00 -8.09114E-01 +1.15220E+00 -1.38618E+00 +9.27835E-01 -1.88397E+00 +4.26318E-01
 -2.17255E+00 -3.14624E-01 -2.14344E+00 -1.19751E+00 -1.73659E+00 -2.07797E+00 -9.59668E-01 -2.78937E+00
 +1.05231E-01 -3.17500E+00 +1.31007E+00 -3.12123E+00 +2.46402E+00 -2.58472E+00 +3.36732E+00 -1.60727E+00
 +3.84962E+00 -3.14280E-01 +3.80471E+00 +1.10378E+00 +3.21445E+00 +2.42414E+00 +2.15617E+00 +3.43256E+00
 +7.91344E-01 +3.96411E+00 -6.62836E-01 +3.93548E+00 -1.97374E+00 +3.36191E+00 -2.93737E+00 +2.35470E+00
 -3.41715E+00 +1.09952E+00 -3.36948E+00 -1.80379E-01 -2.85023E+00 -1.26863E+00 -2.00095E+00 -1.99855E+00
 -1.01735E+00 -2.28526E+00 -1.06789E-01 -2.14030E+00 +5.56263E-01 -1.66547E+00 +8.67029E-01 -1.02729E+00
 +8.11583E-01 -4.17440E-01 +4.67611E-01 -7.94743E-03 -1.54916E-02 +8.90378E-02 -4.52908E-01 -1.52047E-01
 -6.69149E-01 -6.63135E-01 -5.41353E-01 -1.29698E+00 -3.14040E-02 -1.86021E+00 +8.00529E-01 -2.15797E+00
 +1.80448E+00 -2.04037E+00 +2.76985E+00 -1.44066E+00 +3.46935E+00 -3.96162E-01 +3.70850E+00 +9.52744E-01
 +3.37006E+00 +2.38622E+00 +2.44366E+00 +3.64655E+00 +1.03399E+00 +4.48928E+00 -6.54751E-01 +4.73333E+00
 -2.35531E+00 +4.29956E+00 -3.78756E+00 +3.22947E+00 -4.71218E+00 +1.67997E+00 -4.97677E+00 -1.04916E-01
 -4.54507E+00 -1.83988E+00 -3.50315E+00 -3.25221E+00 -2.04146E+00 -4.13280E+00 -4.16525E-01 -4.37397E+00
 +1.09961E+00 -3.98653E+00 +2.27175E+00 -3.09284E+00 +2.94504E+00 -1.89792E+00 +3.07066E+00 -6.44918E-01
 +2.70912E+00 +4.35483E-01 +2.01083E+00 +1.17094E+00 +1.17892E+00 +1.47924E+00 +4.22398E-01 +1.37964E+00
 -8.97943E-02 +9.82024E-01 -2.64263E-01 +4.56805E-01 -1.00676E-01 -7.41733E-03 +3.11999E-01 -2.48864E-01
 +8.19209E-01 -1.70415E-01 +1.23891E+00 +2.37890E-01 +1.40541E+00 +8.96377E-01 +1.20930E+00 +1.65356E+00
 +6.24680E-01 +2.32013E+00 -2.82096E-01 +2.71161E+00 -1.36396E+00 +2.69026E+00 -2.42243E+00 +2.19734E+00
 -3.24830E+00 +1.26871E+00 -3.66500E+00 +3.06327E-02 -3.56565E+00 -1.32336E+00 -2.93591E+00 -2.56945E+00
 -1.85822E+00 -3.49677E+00 -4.96714E-01 -3.94790E+00 +9.33880E-01 -3.84843E+00 +2.20871E+00 -3.21993E+00
 +3.13440E+00 -2.17403E+00 +3.58338E+00 -8.89404E-01 +3.51448E+00 +4.23268E-01 +2.97625E+00 +1.56097E+00
 +2.09293E+00 +2.36462E+00 +1.03696E+00 +2.74497E+00 -6.10968E-03 +2.69360E+00 -8.72751E-01 +2.27768E+00
 -1.44980E+00 +1.62055E+00 -1.69072E+00 +8.72983E-01 -1.61746E+00 +1.81439E-01 -1.30861E+00 -3.39976E-01
 -8.77202E-01 -6.28535E-01 -4.43678E-01 -6.79689E-01 -1.09786E-01 -5.41255E-01 +6.11405E-02 -2.97196E-01
 +5.39969E-02 -4.52524E-02 -9.94529E-02 +1.26415E-01 -3.31934E-01 +1.58565E-01 -5.58828E-01 +3.24378E-02
 -6.98793E-01 -2.28296E-01 -6.92321E-01 -5.64900E-01 -5.14487E-01 -8.98004E-01 -1.79669E-01 -1.14562E+00
 +2.62160E-01 -1.24076E+00 +7.36197E-01 -1.14511E+00 +1.15799E+00 -8.56379E-01 +1.44969E+00 -4.08275E-01
 +1.55427E+00 +1.36188E-01 +1.44515E+00 +6.96344E-01 +1.12995E+00 +1.18788E+00 +6.48340E-01 +1.53653E+00
 +6.48449E-02 +1.68925E+00 -5.41547E-01 +1.62130E+00 -1.08908E+00 +1.33866E+00 -1.50440E+00 +8.76131E-01
 -1.73171E+00 +2.91837E-01 -1.73927E+00 -3.40678E-01 -1.52264E+00 -9.41579E-01 -1.10499E+00 -1.43413E+00
 -5.34556E-01 -1.75352E+00 +1.20451E-01 -1.85459E+00 +7.79064E-01 -1.71768E+00 +1.35660E+00 -1.35231E+00
 +1.77486E+00 -7.97701E-01 +1.97261E+00 -1.19903E-01 +1.91505E+00 +5.95001E-01 +1.60071E+00 +1.25123E+00
 +1.06438E+00 +1.75634E+00 +3.74714E-01 +2.03529E+00 -3.73880E-01 +2.04333E+00 -1.07447E+00 +1.77513E+00
 -1.62430E+00 +1.26812E+00 -1.94229E+00 +5.98535E-01 -1.98397E+00 -1.29917E-01 -1.75082E+00 -8.03263E-01
 -1.29143E+00 -1.31762E+00 -6.93666E-01 -1.59880E+00 -6.85852E-02 -1.61708E+00 +4.71157E-01 -1.39377E+00
 +8.34238E-01 -9.97439E-01 +9.70145E-01 -5.30057E-01 +8.80737E-01 -1.05199E-01 +6.20794E-01 +1.77306E-01
 +2.86703E-01 +2.54963E-01 -5.00188E-03 +1.18984E-01 -1.45109E-01 -1.80754E-01 -5.93795E-02 -5.44143E-01
 +2.69923E-01 -8.41733E-01 +7.94040E-01 -9.44288E-01 +1.40249E+00 -7.54911E-01 +1.94269E+00 -2.36636E-01
 +2.25132E+00 +5.71190E-01 +2.19114E+00 +1.55237E+00 +1.68571E+00 +2.53062E+00 +7.43906E-01 +3.30139E+00
 -5.31908E-01 +3.67288E+00 -1.95713E+00 +3.50811E+00 -3.29467E+00 +2.75902E+00 -4.29819E+00 +1.48459E+00
 -4.76044E+00 -1.51742E-01 -4.55708E+00 -1.90640E+00 -3.67621E+00 -3.49773E+00 -2.22695E+00 -4.65811E+00
 -4.24078E-01 -5.18573E+00 +1.44903E+00 -4.98541E+00 +3.09255E+00 -4.08948E+00 +4.24697E+00 -2.65377E+00
 +4.74317E+00 -9.28767E-01 +4.53493E+00 +7.88712E-01 +3.70700E+00 +2.21382E+00 +2.45640E+00 +3.12987E+00
 +1.05042E+00 +3.43060E+00 -2.30033E-01 +3.13936E+00 -1.15000E+00 +2.40076E+00 -1.57002E+00 +1.44624E+00
 -1.47491E+00 +5.40651E-01 -9.75053E-01 -7.87546E-02 -2.79482E-01 -2.57640E-01 +3.53798E-01 +3.82577E-02
