 Created: 16-Jan-2021
 $NMID
 ID='D:\BASISSIMULATI'
 FMTDAT='(8E13.5)'
 VOLUME=   1.00000E+00
 TRAMP=   1.00000E+00
 $END
 +5.38733E+01 +3.67462E+00 +3.88923E+01 +3.76995E+01 +5.21335E+00 +5.29933E+01 -2.92684E+01 +4.21219E+01
 -4.68154E+01 +1.21666E+01 -3.99366E+01 -1.98405E+01 -1.50666E+01 -3.71662E+01 +1.21507E+01 -3.29089E+01
 +2.67116E+01 -1.30858E+01 +2.29588E+01 +8.21754E+00 +6.90894E+00 +1.81415E+01 -8.75829E+00 +1.27510E+01
 -1.33716E+01 -1.50978E+00 -4.88432E+00 -1.30165E+01 +9.56848E+00 -1.30042E+01 +1.90427E+01 -1.12481E+00
 +1.62039E+01 +1.48175E+01 +1.91487E+00 +2.43294E+01 -1.56897E+01 +2.10137E+01 -2.65956E+01 +6.29768E+00
 -2.49993E+01 -1.19412E+01 -1.22659E+01 -2.44784E+01 +4.67982E+00 -2.60168E+01 +1.79244E+01 -1.74140E+01
 +2.28643E+01 -4.01378E+00 +1.96858E+01 +8.17294E+00 +1.17436E+01 +1.56255E+01 +2.65037E+00 +1.79871E+01
 -5.60983E+00 +1.65236E+01 -1.24810E+01 +1.21906E+01 -1.73484E+01 +5.07507E+00 -1.85627E+01 -4.49022E+00
 -1.41752E+01 -1.44426E+01 -3.94735E+00 -2.08776E+01 +9.12717E+00 -1.99574E+01 +1.94455E+01 -1.07191E+01
 +2.16896E+01 +3.36332E+00 +1.42702E+01 +1.56100E+01 +8.73646E-01 +1.97994E+01 -1.12824E+01 +1.40389E+01
 -1.56786E+01 +2.19194E+00 -1.05720E+01 -8.33238E+00 -1.74192E-01 -1.12113E+01 +8.02492E+00 -5.30409E+00
 +8.18241E+00 +4.54575E+00 +8.19505E-02 +1.06719E+01 -1.05267E+01 +7.74995E+00 -1.55913E+01 -3.40599E+00
 -1.01385E+01 -1.59935E+01 +4.11974E+00 -2.13699E+01 +1.93838E+01 -1.46322E+01 +2.63305E+01 +1.93324E+00
 +1.98520E+01 +1.97990E+01 +2.39064E+00 +2.90524E+01 -1.72291E+01 +2.42153E+01 -2.87829E+01 +7.48981E+00
 -2.64285E+01 -1.24978E+01 -1.18531E+01 -2.56230E+01 +6.96295E+00 -2.58598E+01 +2.04461E+01 -1.42842E+01
 +2.26891E+01 +2.07788E+00 +1.42376E+01 +1.45912E+01 +1.04303E+00 +1.78032E+01 -9.43937E+00 +1.19346E+01
 -1.24860E+01 +1.92402E+00 -8.23903E+00 -6.01026E+00 -8.12058E-01 -8.01404E+00 +4.69886E+00 -4.34930E+00
 +5.28543E+00 +1.46326E+00 +1.41449E+00 +5.22103E+00 -3.79338E+00 +4.59239E+00 -6.76710E+00 +1.96675E-01
 -5.59455E+00 -5.15243E+00 -8.78162E-01 -8.29942E+00 +4.90229E+00 -7.48360E+00 +8.89123E+00 -3.05952E+00
 +9.27297E+00 +2.95324E+00 +5.93249E+00 +8.00033E+00 +2.55779E-01 +1.01133E+01 -5.60007E+00 +8.55940E+00
 -9.53566E+00 +3.93482E+00 -1.01642E+01 -2.14141E+00 -7.20933E+00 -7.55512E+00 -1.62605E+00 -1.03456E+01
 +4.61791E+00 -9.38586E+00 +9.15619E+00 -4.90559E+00 +1.01366E+01 +1.42342E+00 +7.09368E+00 +7.03619E+00
 +1.31164E+00 +9.55494E+00 -4.63817E+00 +7.93729E+00 -8.07893E+00 +3.06911E+00 -7.56874E+00 -2.60704E+00
 -3.66135E+00 -6.31951E+00 +1.38774E+00 -6.42039E+00 +4.85699E+00 -3.24756E+00 +5.05863E+00 +1.11706E+00
 +2.24235E+00 +4.07206E+00 -1.62348E+00 +3.99776E+00 -4.05978E+00 +1.15748E+00 -3.55404E+00 -2.52214E+00
 -4.34167E-01 -4.64326E+00 +3.36339E+00 -3.78032E+00 +5.46984E+00 -3.19736E-01 +4.49145E+00 +3.78155E+00
 +8.21286E-01 +6.14894E+00 -3.59694E+00 +5.36030E+00 -6.38253E+00 +1.74094E+00 -6.04469E+00 -2.84527E+00
 -2.77044E+00 -6.04776E+00 +1.73468E+00 -6.30054E+00 +5.21165E+00 -3.60669E+00 +6.04651E+00 +5.54209E-01
 +4.04799E+00 +4.08246E+00 +4.29739E-01 +5.36609E+00 -2.92283E+00 +4.04220E+00 -4.45542E+00 +1.05327E+00
 -3.67844E+00 -1.95875E+00 -1.28854E+00 -3.54274E+00 +1.31533E+00 -3.13383E+00 +2.81034E+00 -1.22729E+00
 +2.60025E+00 +9.96273E-01 +1.02788E+00 +2.34494E+00 -9.06807E-01 +2.21881E+00 -2.12806E+00 +8.49485E-01
 -2.04260E+00 -9.05273E-01 -7.97688E-01 -2.06331E+00 +8.61318E-01 -2.03564E+00 +2.02520E+00 -8.97863E-01
 +2.10252E+00 +6.99887E-01 +1.10107E+00 +1.90941E+00 -4.18253E-01 +2.13374E+00 -1.66713E+00 +1.31504E+00
 -2.04839E+00 -7.47150E-02 -1.44546E+00 -1.31423E+00 -2.42331E-01 -1.82007E+00 +9.16372E-01 -1.43137E+00
 +1.47976E+00 -4.50870E-01 +1.26358E+00 +5.59399E-01 +5.03930E-01 +1.09873E+00 -3.17393E-01 +9.82859E-01
 -7.60682E-01 +4.02306E-01 -6.62110E-01 -2.29354E-01 -1.90173E-01 -5.34047E-01 +2.90262E-01 -3.81221E-01
 +4.53105E-01 +6.17776E-02 +2.03761E-01 +4.56526E-01 -2.78146E-01 +5.11911E-01 -6.61235E-01 +1.61921E-01
 -6.69857E-01 -3.98336E-01 -2.51834E-01 -8.32765E-01 +3.89324E-01 -8.64474E-01 +9.11258E-01 -4.37529E-01
 +1.02640E+00 +2.50752E-01 +6.60054E-01 +8.60208E-01 -1.38670E-02 +1.09316E+00 -6.73045E-01 +8.48754E-01
 -1.02064E+00 +2.63657E-01 -9.33534E-01 -3.75761E-01 -5.06120E-01 -7.92792E-01 +2.59670E-02 -8.58248E-01
 +4.29329E-01 -6.31930E-01 +5.95223E-01 -2.92894E-01 +5.70257E-01 -1.03750E-02 +4.84376E-01 +1.58942E-01
 +4.31028E-01 +2.81318E-01 +3.85640E-01 +4.60155E-01 +2.23751E-01 +7.16541E-01 -1.67297E-01 +9.26192E-01
 -7.57501E-01 +8.70629E-01 -1.32215E+00 +3.85044E-01 -1.52526E+00 -4.86708E-01 -1.10969E+00 -1.43988E+00
 -8.71621E-02 -2.01821E+00 +1.19699E+00 -1.84639E+00 +2.18869E+00 -8.60921E-01 +2.39318E+00 +6.02771E-01
 +1.64501E+00 +1.93854E+00 +2.21339E-01 +2.56084E+00 -1.27957E+00 +2.20341E+00 -2.23737E+00 +1.05414E+00
 -2.31958E+00 -3.55307E-01 -1.62433E+00 -1.44193E+00 -5.77080E-01 -1.87154E+00 +3.46397E-01 -1.68875E+00
 +8.91413E-01 -1.20785E+00 +1.11812E+00 -7.50475E-01 +1.26644E+00 -4.14783E-01 +1.49708E+00 -3.83076E-02
 +1.70214E+00 +6.18000E-01 +1.53603E+00 +1.59488E+00 +6.67833E-01 +2.57504E+00 -9.05376E-01 +2.98101E+00
 -2.70755E+00 +2.30491E+00 -3.93322E+00 +4.78441E-01 -3.84889E+00 -1.96041E+00 -2.22648E+00 -4.04218E+00
 +4.53918E-01 -4.81742E+00 +3.17323E+00 -3.84405E+00 +4.84086E+00 -1.43460E+00 +4.80962E+00 +1.48041E+00
 +3.15911E+00 +3.79684E+00 +6.06331E-01 +4.74045E+00 -1.88118E+00 +4.16091E+00 -3.53427E+00 +2.48681E+00
 -4.04899E+00 +4.17071E-01 -3.56556E+00 -1.43629E+00 -2.44001E+00 -2.74716E+00 -9.99790E-01 -3.44599E+00
 +5.55275E-01 -3.55484E+00 +2.08148E+00 -3.05585E+00 +3.36106E+00 -1.90552E+00 +4.06262E+00 -1.71173E-01
 +3.85781E+00 +1.84401E+00 +2.62387E+00 +3.61916E+00 +5.81182E-01 +4.60036E+00 -1.74720E+00 +4.44387E+00
 -3.73882E+00 +3.16052E+00 -4.90523E+00 +1.07624E+00 -5.01007E+00 -1.33895E+00 -4.03009E+00 -3.62904E+00
 -2.05415E+00 -5.38559E+00 +7.33590E-01 -6.18067E+00 +3.93074E+00 -5.54884E+00 +6.76871E+00 -3.16192E+00
 +8.16110E+00 +8.21779E-01 +7.09282E+00 +5.46355E+00 +3.24593E+00 +9.11785E+00 -2.50046E+00 +1.00260E+01
 -8.11559E+00 +7.23718E+00 -1.11785E+01 +1.35189E+00 -1.00768E+01 -5.44826E+00 -4.99539E+00 -1.02792E+01
 +1.95425E+00 -1.09825E+01 +7.68471E+00 -7.32491E+00 +9.72742E+00 -1.21303E+00 +7.57412E+00 +4.30516E+00
 +2.92937E+00 +6.74272E+00 -1.34825E+00 +5.57608E+00 -3.01911E+00 +2.45653E+00 -1.85034E+00 +4.56961E-02
 +3.01426E-01 +1.74905E-01 +8.30650E-01 +2.52125E+00 -1.67819E+00 +4.72926E+00 -6.20270E+00 +4.00182E+00
 -9.65156E+00 -8.09564E-01 -8.76106E+00 -8.00825E+00 -2.39117E+00 -1.36675E+01 +7.27995E+00 -1.38491E+01
 +1.55732E+01 -7.13678E+00 +1.78150E+01 +4.11784E+00 +1.20996E+01 +1.47420E+01 +6.17052E-01 +1.94547E+01
 -1.13415E+01 +1.57977E+01 -1.81913E+01 +5.53816E+00 -1.70466E+01 -6.31173E+00 -9.14348E+00 -1.42767E+01
 +1.10078E+00 -1.53377E+01 +8.74249E+00 -1.02787E+01 +1.10205E+01 -2.76821E+00 +8.51001E+00 +3.10657E+00
 +4.16935E+00 +5.22585E+00 +1.08164E+00 +4.28573E+00 +4.57476E-01 +2.73873E+00 +1.17079E+00 +2.72086E+00
 +9.86586E-01 +4.45825E+00 -1.51245E+00 +6.21347E+00 -5.70730E+00 +5.70646E+00 -9.26787E+00 +1.92507E+00
 -9.73773E+00 -3.97938E+00 -6.22437E+00 -9.31756E+00 -1.83299E-02 -1.15245E+01 +6.23047E+00 -9.67562E+00
 +1.01234E+01 -4.84514E+00 +1.07504E+01 +8.19692E-01 +8.75842E+00 +5.51141E+00 +5.38650E+00 +8.58249E+00
 +1.38222E+00 +1.02488E+01 -3.25606E+00 +1.06004E+01 -8.51459E+00 +8.93764E+00 -1.33195E+01 +4.19418E+00
 -1.53231E+01 -3.72727E+00 -1.20752E+01 -1.27921E+01 -2.99983E+00 -1.90467E+01 +9.25839E+00 -1.85354E+01
 +1.94104E+01 -9.93315E+00 +2.21198E+01 +3.88832E+00 +1.52362E+01 +1.67254E+01 +1.56742E+00 +2.22097E+01
 -1.22196E+01 +1.75245E+01 -1.92109E+01 +5.30909E+00 -1.62885E+01 -7.66230E+00 -6.04013E+00 -1.44298E+01
 +4.82060E+00 -1.20525E+01 +9.67413E+00 -3.37090E+00 +6.22078E+00 +4.91130E+00 -2.05151E+00 +6.69732E+00
 -8.21815E+00 +6.52906E-01 -6.65722E+00 -8.72956E+00 +2.90117E+00 -1.39926E+01 +1.47627E+01 -9.75520E+00
 +2.06710E+01 +3.33432E+00 +1.51678E+01 +1.84195E+01 -5.19536E-01 +2.63425E+01 -1.86601E+01 +2.12929E+01
 -2.93252E+01 +4.65262E+00 -2.62353E+01 -1.54473E+01 -1.05478E+01 -2.86730E+01 +9.75274E+00 -2.83827E+01
 +2.44608E+01 -1.52889E+01 +2.68976E+01 +3.25686E+00 +1.73310E+01 +1.77586E+01 +2.16688E+00 +2.19723E+01
 -1.03045E+01 +1.59343E+01 -1.47717E+01 +5.02375E+00 -1.13901E+01 -3.97623E+00 -4.65068E+00 -7.07982E+00
 +2.24312E-01 -4.93027E+00 +7.60166E-01 -1.41109E+00 -1.65059E+00 -3.58937E-01 -3.42724E+00 -2.80279E+00
 -1.79799E+00 -6.54113E+00 +3.10876E+00 -8.09037E+00 +8.45867E+00 -5.39798E+00 +1.08468E+01 +6.71306E-01
 +8.69126E+00 +7.02609E+00 +3.16345E+00 +1.05364E+01 -2.86816E+00 +1.00235E+01 -6.91753E+00 +6.64837E+00
 -8.34662E+00 +2.59754E+00 -8.18101E+00 -7.31033E-01 -7.60603E+00 -3.53599E+00 -6.53600E+00 -6.79477E+00
 -3.57849E+00 -1.05864E+01 +2.44598E+00 -1.31072E+01 +1.06318E+01 -1.14729E+01 +1.74514E+01 -3.98668E+00
 +1.83942E+01 +7.75589E+00 +1.09835E+01 +1.87290E+01 -2.86277E+00 +2.28839E+01 -1.70168E+01 +1.68523E+01
 -2.41972E+01 +2.55187E+00 -2.02364E+01 -1.32505E+01 -6.86937E+00 -2.24977E+01 +8.91088E+00 -2.05078E+01
 +1.87729E+01 -8.83995E+00 +1.79309E+01 +5.55635E+00 +7.94899E+00 +1.45076E+01 -4.34807E+00 +1.35534E+01
 -1.12187E+01 +4.55091E+00 -8.86766E+00 -5.71036E+00 +2.62689E-01 -9.99777E+00 +9.22546E+00 -5.34916E+00
 +1.11978E+01 +5.01293E+00 +4.01749E+00 +1.37872E+01 -8.28808E+00 +1.43564E+01 -1.79579E+01 +5.15168E+00
 -1.83687E+01 -9.16108E+00 -8.24043E+00 -2.04128E+01 +7.44510E+00 -2.18486E+01 +2.03341E+01 -1.21728E+01
 +2.35608E+01 +3.71651E+00 +1.56019E+01 +1.76372E+01 +8.91985E-01 +2.27912E+01 -1.29682E+01 +1.73642E+01
 -1.95444E+01 +5.05617E+00 -1.68253E+01 -7.48229E+00 -7.66575E+00 -1.45171E+01 +2.47944E+00 -1.40498E+01
 +8.86323E+00 -8.14538E+00 +9.75210E+00 -9.85261E-01 +6.59725E+00 +3.83373E+00 +2.39650E+00 +5.05167E+00
 -4.05365E-01 +3.73061E+00 -1.11996E+00 +1.89408E+00 -6.11371E-01 +9.86472E-01 -1.83751E-01 +1.16907E+00
