 Created: 16-Jan-2021
 $NMID
 ID='D:\BASISSIMULATI'
 FMTDAT='(8E13.5)'
 VOLUME=   1.00000E+00
 TRAMP=   1.00000E+00
 $END
 +6.34998E+01 +6.67396E+00 +5.86826E+01 +2.39214E+01 +4.80823E+01 +3.84564E+01 +3.30280E+01 +4.85036E+01
 +1.53936E+01 +5.28894E+01 -2.66369E+00 +5.11923E+01 -1.89988E+01 +4.37845E+01 -3.17669E+01 +3.17606E+01
 -3.96593E+01 +1.67667E+01 -4.20571E+01 +7.56618E-01 -3.90804E+01 -1.42850E+01 -3.15319E+01 -2.66130E+01
 -2.07456E+01 -3.49444E+01 -8.36958E+00 -3.86036E+01 +3.88401E+00 -3.75739E+01 +1.44814E+01 -3.24495E+01
 +2.22673E+01 -2.43055E+01 +2.65955E+01 -1.45057E+01 +2.73746E+01 -4.48439E+00 +2.50280E+01 +4.46526E+00
 +2.03806E+01 +1.13637E+01 +1.44941E+01 +1.56560E+01 +8.48124E+00 +1.72483E+01 +3.32819E+00 +1.64705E+01
 -2.47692E-01 +1.39770E+01 -1.88503E+00 +1.06054E+01 -1.60172E+00 +7.21924E+00 +2.44398E-01 +4.56111E+00
 +3.04630E+00 +3.13758E+00 +6.07148E+00 +3.15270E+00 +8.59653E+00 +4.49623E+00 +1.00305E+01 +6.78437E+00
 +1.00082E+01 +9.44273E+00 +8.44192E+00 +1.18152E+01 +5.52474E+00 +1.32802E+01 +1.69039E+00 +1.33551E+01
 -2.46279E+00 +1.17745E+01 -6.26933E+00 +8.53191E+00 -9.09983E+00 +3.88041E+00 -1.04546E+01 -1.70423E+00
 -1.00352E+01 -7.59125E+00 -7.78477E+00 -1.30817E+01 -3.89450E+00 -1.75016E+01 +1.22301E+00 -2.02892E+01
 +6.98813E+00 -2.10649E+01 +1.27277E+01 -1.96768E+01 +1.77575E+01 -1.62172E+01 +2.14642E+01 -1.10109E+01
 +2.33764E+01 -4.57644E+00 +2.32185E+01 +2.43286E+00 +2.09420E+01 +9.30145E+00 +1.67307E+01 +1.53296E+01
 +1.09819E+01 +1.99085E+01 +4.26396E+00 +2.25856E+01 -2.74380E+00 +2.31123E+01 -9.32377E+00 +2.14706E+01
 -1.47972E+01 +1.78751E+01 -1.85984E+01 +1.27498E+01 -2.03375E+01 +6.68163E+00 -1.98451E+01 +3.55546E-01
 -1.71934E+01 -5.52258E+00 -1.26895E+01 -1.03068E+01 -6.84245E+00 -1.34865E+01 -3.04654E-01 -1.47463E+01
 +6.20366E+00 -1.40040E+01 +1.19800E+01 -1.14197E+01 +1.64240E+01 -7.37514E+00 +1.91093E+01 -2.42381E+00
 +1.98337E+01 +2.78078E+00 +1.86408E+01 +7.57081E+00 +1.58087E+01 +1.13519E+01 +1.18071E+01 +1.36809E+01
 +7.22965E+00 +1.43223E+01 +2.70887E+00 +1.32762E+01 -1.17219E+00 +1.07720E+01 -3.96031E+00 +7.23040E+00
 -5.39184E+00 +3.19743E+00 -5.42340E+00 -7.38006E-01 -4.22902E+00 -4.03184E+00 -2.16446E+00 -6.26403E+00
 +2.95544E-01 -7.19738E+00 +2.63713E+00 -6.80721E+00 +4.39165E+00 -5.27753E+00 +5.21127E+00 -2.96475E+00
 +4.92384E+00 -3.34962E-01 +3.55875E+00 +2.11496E+00 +1.33973E+00 +3.93978E+00 -1.35385E+00 +4.81861E+00
 -4.05077E+00 +4.60655E+00 -6.26648E+00 +3.35702E+00 -7.58365E+00 +1.31161E+00 -7.72180E+00 -1.14071E+00
 -6.58511E+00 -3.52833E+00 -4.28078E+00 -5.37508E+00 -1.10521E+00 -6.27925E+00 +2.49969E+00 -5.98104E+00
 +6.01313E+00 -4.40775E+00 +8.91453E+00 -1.68986E+00 +1.07628E+01 +1.85454E+00 +1.12636E+01 +5.76426E+00
 +1.03146E+01 +9.50168E+00 +8.02209E+00 +1.25312E+01 +4.68628E+00 +1.43980E+01 +7.58528E-01 +1.47944E+01
 -3.22334E+00 +1.36056E+01 -6.71173E+00 +1.09273E+01 -9.22666E+00 +7.05311E+00 -1.04226E+01 +2.43454E+00
 -1.01355E+01 -2.38075E+00 -8.40356E+00 -6.82306E+00 -5.45995E+00 -1.03765E+01 -1.69802E+00 -1.26461E+01
 +2.38418E+00 -1.34069E+01 +6.25266E+00 -1.26292E+01 +9.40943E+00 -1.04765E+01 +1.14577E+01 -7.27822E+00
 +1.21518E+01 -3.48073E+00 +1.14250E+01 +4.14967E-01 +9.39339E+00 +3.92089E+00 +6.33454E+00 +6.62523E+00
 +2.64600E+00 +8.24284E+00 -1.21077E+00 +8.64688E+00 -4.77280E+00 +7.87791E+00 -7.63580E+00 +6.13024E+00
 -9.50424E+00 +3.71819E+00 -1.02249E+01 +1.02755E+00 -9.80000E+00 -1.54053E+00 -8.37921E+00 -3.62549E+00
 -6.23191E+00 -4.95542E+00 -3.70459E+00 -5.38105E+00 -1.16952E+00 -4.89145E+00 +1.02793E+00 -3.60983E+00
 +2.61610E+00 -1.77080E+00 +3.43165E+00 +3.17425E-01 +3.43751E+00 +2.31998E+00 +2.72228E+00 +3.92485E+00
 +1.48155E+00 +4.88768E+00 -1.57646E-02 +5.06587E+00 -1.47078E+00 +4.43720E+00 -2.60144E+00 +3.10062E+00
 -3.18576E+00 +1.25949E+00 -3.09552E+00 -8.10176E-01 -2.31543E+00 -2.80161E+00 -9.45214E-01 -4.42324E+00
 +8.15523E-01 -5.44189E+00 +2.69738E+00 -5.71712E+00 +4.40169E+00 -5.22157E+00 +5.64554E+00 -4.04470E+00
 +6.20468E+00 -2.37916E+00 +5.94805E+00 -4.92066E-01 +4.85883E+00 +1.31472E+00 +3.03898E+00 +2.74950E+00
 +6.96454E-01 +3.57417E+00 -1.88298E+00 +3.64000E+00 -4.37543E+00 +2.91043E+00 -6.46433E+00 +1.46758E+00
 -7.88512E+00 -4.98547E-01 -8.46279E+00 -2.71663E+00 -8.13686E+00 -4.87260E+00 -6.97014E+00 -6.65473E+00
 -5.14008E+00 -7.79877E+00 -2.91381E+00 -8.12669E+00 -6.10320E-01 -7.57331E+00 +1.44471E+00 -6.19720E+00
 +2.96524E+00 -4.17388E+00 +3.74564E+00 -1.77243E+00 +3.69018E+00 +6.81486E-01 +2.82691E+00 +2.85095E+00
 +1.30398E+00 +4.43517E+00 -6.31331E-01 +5.21222E+00 -2.66788E+00 +5.07110E+00 -4.47550E+00 +4.02847E+00
 -5.75305E+00 +2.22753E+00 -6.27292E+00 -8.09923E-02 -5.91556E+00 -2.57323E+00 -4.68916E+00 -4.89739E+00
 -2.73123E+00 -6.72342E+00 -2.91771E-01 -7.79029E+00 +2.30004E+00 -7.94413E+00 +4.68110E+00 -7.16154E+00
 +6.50541E+00 -5.55487E+00 +7.49373E+00 -3.35798E+00 +7.47470E+00 -8.94617E-01 +6.41152E+00 +1.46673E+00
 +4.41000E+00 +3.36497E+00 +1.70654E+00 +4.49843E+00 -1.36258E+00 +4.66907E+00 -4.40660E+00 +3.81254E+00
 -7.03394E+00 +2.00948E+00 -8.90672E+00 -5.23995E-01 -9.78807E+00 -3.46528E+00 -9.57549E+00 -6.43001E+00
 -8.31509E+00 -9.02614E+00 -6.19466E+00 -1.09094E+01 -3.51627E+00 -1.18322E+01 -6.52462E-01 -1.16787E+01
 +2.00766E+00 -1.04807E+01 +4.11430E+00 -8.41186E+00 +5.40664E+00 -5.76139E+00 +5.74871E+00 -2.89104E+00
 +5.14624E+00 -1.81710E-01 +3.74201E+00 +2.02186E+00 +1.79068E+00 +3.46009E+00 -3.82946E-01 +3.99381E+00
 -2.43538E+00 +3.62040E+00 -4.05758E+00 +2.46887E+00 -5.02144E+00 +7.74687E-01 -5.21234E+00 -1.16097E+00
 -4.64291E+00 -3.02103E+00 -3.44625E+00 -4.52313E+00 -1.85009E+00 -5.46288E+00 -1.36568E-01 -5.74315E+00
 +1.40554E+00 -5.38474E+00 +2.52807E+00 -4.51748E+00 +3.06253E+00 -3.35364E+00 +2.94476E+00 -2.14864E+00
 +2.22147E+00 -1.15598E+00 +1.03830E+00 -5.84112E-01 -3.88104E-01 -5.62442E-01 -1.80879E+00 -1.12185E+00
 -2.98492E+00 -2.19252E+00 -3.72675E+00 -3.61880E+00 -3.92267E+00 -5.18791E+00 -3.55382E+00 -6.66704E+00
 -2.69237E+00 -7.84209E+00 -1.48472E+00 -8.55152E+00 -1.23181E-01 -8.70945E+00 +1.18839E+00 -8.31496E+00
 +2.26846E+00 -7.44645E+00 +2.98556E+00 -6.24320E+00 +3.27517E+00 -4.87805E+00 +3.14371E+00 -3.52676E+00
 +2.65969E+00 -2.33967E+00 +1.93476E+00 -1.42076E+00 +1.09892E+00 -8.17206E-01 +2.75050E-01 -5.20627E-01
 -4.42230E-01 -4.78619E-01 -9.99648E-01 -6.13489E-01 -1.38832E+00 -8.43723E-01 -1.63699E+00 -1.10350E+00
 -1.79761E+00 -1.35630E+00 -1.92704E+00 -1.59995E+00 -2.06903E+00 -1.86270E+00 -2.24065E+00 -2.19149E+00
 -2.42611E+00 -2.63556E+00 -2.57902E+00 -3.22920E+00 -2.63274E+00 -3.97781E+00 -2.51606E+00 -4.85030E+00
 -2.17102E+00 -5.77978E+00 -1.56855E+00 -6.67243E+00 -7.18782E-01 -7.42271E+00 +3.26483E-01 -7.93180E+00
 +1.47968E+00 -8.12538E+00 +2.63054E+00 -7.96712E+00 +3.66361E+00 -7.46507E+00 +4.47661E+00 -6.66981E+00
 +4.99591E+00 -5.66488E+00 +5.18592E+00 -4.55181E+00 +5.05090E+00 -3.43286E+00 +4.62898E+00 -2.39546E+00
 +3.98026E+00 -1.50149E+00 +3.17199E+00 -7.83527E-01 +2.26450E+00 -2.48500E-01 +1.30136E+00 +1.12534E-01
 +3.06176E-01 +3.11414E-01 -7.13142E-01 +3.50350E-01 -1.75373E+00 +2.13590E-01 -2.80351E+00 -1.33879E-01
 -3.82722E+00 -7.39350E-01 -4.75702E+00 -1.64793E+00 -5.49118E+00 -2.88330E+00 -5.90272E+00 -4.42808E+00
 -5.85806E+00 -6.20862E+00 -5.24284E+00 -8.08899E+00 -3.99065E+00 -9.87710E+00 -2.10874E+00 -1.13441E+01
 +3.05143E-01 -1.22554E+01 +3.05959E+00 -1.24081E+01 +5.88278E+00 -1.16701E+01 +8.45185E+00 -1.00125E+01
 +1.04351E+01 -7.52868E+00 +1.15412E+01 -4.43575E+00 +1.15668E+01 -1.05587E+00 +1.04353E+01 +2.22132E+00
 +8.21860E+00 +4.99021E+00 +5.13756E+00 +6.88717E+00 +1.53890E+00 +7.64574E+00 -2.14816E+00 +7.14000E+00
 -5.47000E+00 +5.40840E+00 -8.01265E+00 +2.65344E+00 -9.46168E+00 -7.83636E-01 -9.64821E+00 -4.46970E+00
 -8.57362E+00 -7.94116E+00 -6.40853E+00 -1.07705E+01 -3.46623E+00 -1.26270E+01 -1.54599E-01 -1.33231E+01
 +3.08565E+00 -1.28369E+01 +5.84653E+00 -1.13106E+01 +7.81142E+00 -9.02208E+00 +8.79774E+00 -6.33757E+00
 +8.77699E+00 -3.65160E+00 +7.86959E+00 -1.32532E+00 +6.31625E+00 +3.67045E-01 +4.43133E+00 +1.27496E+00
 +2.54677E+00 +1.38624E+00 +9.56199E-01 +8.17912E-01 -1.31160E-01 -2.14008E-01 -6.19466E-01 -1.43983E+00
 -5.33849E-01 -2.58803E+00 -6.26859E-03 -3.43438E+00 +7.56903E-01 -3.83981E+00 +1.51904E+00 -3.77080E+00
 +2.06082E+00 -3.29957E+00 +2.22251E+00 -2.58459E+00 +1.93355E+00 -1.83589E+00 +1.22467E+00 -1.27191E+00
 +2.20709E-01 -1.07596E+00 -8.83737E-01 -1.36009E+00 -1.86116E+00 -2.14277E+00 -2.49346E+00 -3.34400E+00
 -2.61216E+00 -4.79813E+00 -2.12940E+00 -6.28187E+00 -1.05467E+00 -7.55211E+00 +5.05320E-01 -8.38683E+00
 +2.36314E+00 -8.62197E+00 +4.28010E+00 -8.17822E+00 +6.00351E+00 -7.07356E+00 +7.30511E+00 -5.42006E+00
 +8.01456E+00 -3.40612E+00 +8.04274E+00 -1.26757E+00 +7.39168E+00 +7.46997E-01 +6.15046E+00 +2.41107E+00
 +4.47858E+00 +3.54971E+00 +2.58025E+00 +4.05966E+00 +6.74451E-01 +3.91758E+00 -1.03461E+00 +3.17653E+00
 -2.38192E+00 +1.95214E+00 -3.25811E+00 +4.01867E-01 -3.61637E+00 -1.29890E+00 -3.46994E+00 -2.97979E+00
 -2.88215E+00 -4.49435E+00 -1.95144E+00 -5.73263E+00 -7.94473E-01 -6.62677E+00 +4.69654E-01 -7.15011E+00
 +1.73218E+00 -7.31124E+00 +2.90307E+00 -7.14512E+00 +3.91487E+00 -6.70343E+00 +4.72277E+00 -6.04575E+00
 +5.30201E+00 -5.23293E+00 +5.64407E+00 -4.32282E+00 +5.75284E+00 -3.36829E+00 +5.64163E+00 -2.41665E+00
 +5.33117E+00 -1.50977E+00 +4.84851E+00 -6.84090E-01 +4.22630E+00 +2.99650E-02 +3.50175E+00 +6.08995E-01
 +2.71494E+00 +1.03786E+00 +1.90637E+00 +1.31050E+00 +1.11390E+00 +1.42976E+00 +3.69845E-01 +1.40591E+00
 -3.01170E-01 +1.25396E+00 -8.82849E-01 +9.90133E-01 -1.36601E+00 +6.28394E-01 -1.74558E+00 +1.77958E-01
 -2.01648E+00 -3.57298E-01 -2.16932E+00 -9.77040E-01 -2.18727E+00 -1.68031E+00 -2.04528E+00 -2.45966E+00
 -1.71237E+00 -3.29485E+00 -1.15736E+00 -4.14768E+00 -3.57258E-01 -4.95958E+00 +6.92882E-01 -5.65331E+00
 +1.97068E+00 -6.13940E+00 +3.41980E+00 -6.32691E+00 +4.94790E+00 -6.13758E+00 +6.43068E+00 -5.52089E+00
