 Created: 16-Jan-2021
 $NMID
 ID='D:\BASISSIMULATI'
 FMTDAT='(8E13.5)'
 VOLUME=   1.00000E+00
 TRAMP=   1.00000E+00
 $END
 +6.09109E+01 +6.40170E+00 +4.68438E+01 +2.14090E+01 +1.11325E+01 +2.75671E+01 -2.71444E+01 +2.28768E+01
 -4.80069E+01 +9.87400E+00 -4.17714E+01 -5.34972E+00 -1.40222E+01 -1.55409E+01 +1.83185E+01 -1.54562E+01
 +3.71070E+01 -4.62708E+00 +3.30649E+01 +1.17586E+01 +1.00563E+01 +2.48316E+01 -1.83569E+01 +2.64358E+01
 -3.73090E+01 +1.38620E+01 -3.86424E+01 -7.88443E+00 -2.41018E+01 -2.80955E+01 -2.70007E+00 -3.60372E+01
 +1.52338E+01 -2.72224E+01 +2.33705E+01 -6.43605E+00 +2.12965E+01 +1.46606E+01 +1.28928E+01 +2.42350E+01
 +3.14454E+00 +1.73460E+01 -4.30254E+00 -1.04199E+00 -7.78532E+00 -1.90999E+01 -7.01310E+00 -2.54197E+01
 -2.44551E+00 -1.59863E+01 +4.65284E+00 +3.55625E+00 +1.18690E+01 +2.17062E+01 +1.59380E+01 +2.84120E+01
 +1.41094E+01 +2.11259E+01 +5.93208E+00 +5.79386E+00 -5.87718E+00 -7.58433E+00 -1.64155E+01 -1.16310E+01
 -2.10971E+01 -5.99788E+00 -1.81732E+01 +3.23411E+00 -9.62747E+00 +8.38368E+00 +1.35031E-01 +5.63386E+00
 +6.88555E+00 -2.66604E+00 +8.71495E+00 -1.02351E+01 +6.43484E+00 -1.17494E+01 +2.29802E+00 -6.72893E+00
 -1.71672E+00 +3.39549E-01 -4.69695E+00 +3.58046E+00 -6.29784E+00 +2.69342E-01 -5.81147E+00 -7.02695E+00
 -2.06668E+00 -1.22601E+01 +5.38464E+00 -1.03264E+01 +1.47075E+01 -9.05900E-01 +2.14974E+01 +1.10384E+01
 +2.07348E+01 +1.84607E+01 +1.02004E+01 +1.69011E+01 -6.95035E+00 +7.41709E+00 -2.27151E+01 -4.15263E+00
 -2.82938E+01 -1.09831E+01 -1.95395E+01 -9.50203E+00 -2.94885E-01 -1.32695E+00 +1.89704E+01 +8.13696E+00
 +2.69228E+01 +1.32335E+01 +1.82295E+01 +1.12962E+01 -2.80715E+00 +3.67684E+00 -2.43745E+01 -5.66367E+00
 -3.39771E+01 -1.26642E+01 -2.58485E+01 -1.50490E+01 -4.36237E+00 -1.27177E+01 +1.86633E+01 -7.00967E+00
 +3.10320E+01 +1.68824E-01 +2.71799E+01 +6.72466E+00 +1.08901E+01 +1.04754E+01 -7.66658E+00 +9.61392E+00
 -1.83564E+01 +3.77714E+00 -1.67950E+01 -4.93728E+00 -5.99458E+00 -1.21477E+01 +6.53672E+00 -1.31411E+01
 +1.38437E+01 -5.82893E+00 +1.33056E+01 +7.19922E+00 +7.06022E+00 +1.92898E+01 -5.14763E-01 +2.32044E+01
 -5.99426E+00 +1.56079E+01 -8.49728E+00 -3.28571E-01 -8.99467E+00 -1.62098E+01 -8.48046E+00 -2.31606E+01
 -6.82669E+00 -1.72302E+01 -3.27272E+00 -1.99661E+00 +2.07666E+00 +1.34435E+01 +7.31679E+00 +1.99616E+01
 +9.49425E+00 +1.39295E+01 +6.70134E+00 -7.07506E-01 -9.43898E-02 -1.50783E+01 -7.09656E+00 -2.09584E+01
 -9.87838E+00 -1.56433E+01 -6.33521E+00 -3.10292E+00 +1.71723E+00 +9.04820E+00 +9.55026E+00 +1.45014E+01
 +1.25458E+01 +1.18024E+01 +9.17241E+00 +4.39752E+00 +1.85048E+00 -2.39982E+00 -4.85711E+00 -5.09313E+00
 -7.38772E+00 -3.76903E+00 -5.39911E+00 -1.04457E+00 -1.55441E+00 +5.71317E-01 +8.10857E-01 +6.55114E-01
 +2.77847E-01 +7.07375E-01 -1.78363E+00 +2.22406E+00 -2.64890E+00 +4.81504E+00 -7.56326E-01 +6.10485E+00
 +2.76014E+00 +3.64166E+00 +4.82188E+00 -2.68658E+00 +2.92961E+00 -9.79163E+00 -2.50813E+00 -1.30497E+01
 -7.97307E+00 -9.50960E+00 -9.13625E+00 -3.40552E-01 -4.09801E+00 +9.41681E+00 +4.83532E+00 +1.38759E+01
 +1.23063E+01 +1.01564E+01 +1.33717E+01 +4.13097E-01 +6.92624E+00 -9.42541E+00 -3.34925E+00 -1.34224E+01
 -1.12723E+01 -9.38249E+00 -1.21700E+01 -9.07032E-02 -5.88434E+00 +8.70253E+00 +3.26574E+00 +1.20690E+01
 +9.47930E+00 +8.85770E+00 +9.30063E+00 +1.93355E+00 +3.64975E+00 -4.19673E+00 -3.22002E+00 -6.49035E+00
 -6.91266E+00 -4.99768E+00 -5.85160E+00 -2.08264E+00 -1.94947E+00 -1.44927E-01 +1.29545E+00 +2.29678E-01
 +1.65912E+00 +2.87866E-01 -2.21453E-01 +1.47310E+00 -1.67967E+00 +3.67365E+00 -4.99307E-01 +4.96309E+00
 +3.00411E+00 +3.17748E+00 +6.01932E+00 -1.91388E+00 +5.43911E+00 -7.71636E+00 +5.38170E-01 -1.01869E+01
 -6.01222E+00 -6.70384E+00 -9.73724E+00 +1.64574E+00 -7.53088E+00 +1.02162E+01 -1.10592E-01 +1.35751E+01
 +8.12796E+00 +9.13942E+00 +1.19036E+01 -8.52653E-01 +8.60758E+00 -1.05267E+01 +1.36910E-01 -1.40505E+01
 -8.30706E+00 -9.37791E+00 -1.16398E+01 +4.64880E-01 -8.17142E+00 +9.40789E+00 -5.16146E-01 +1.22779E+01
 +6.38790E+00 +7.98040E+00 +8.65055E+00 -1.45031E-01 +5.80418E+00 -6.86042E+00 +6.33062E-01 -8.55261E+00
 -3.19073E+00 -5.29741E+00 -3.77438E+00 -2.10740E-01 -2.01103E+00 +3.16821E+00 -3.45983E-01 +3.38883E+00
 -4.65049E-01 +1.69003E+00 -1.84037E+00 +4.61698E-01 -2.30659E+00 +9.84956E-01 -1.64140E-01 +2.33841E+00
 +3.96533E+00 +2.33528E+00 +7.16784E+00 -3.26649E-01 +6.32024E+00 -4.53573E+00 +7.20748E-01 -7.23744E+00
 -6.81702E+00 -5.70075E+00 -1.14650E+01 +1.15153E-01 -9.61833E+00 +7.00857E+00 -1.62191E+00 +1.04361E+01
 +8.05411E+00 +7.65533E+00 +1.35008E+01 -1.35595E-01 +1.11985E+01 -8.30471E+00 +2.39094E+00 -1.17326E+01
 -7.64364E+00 -8.21979E+00 -1.29610E+01 +1.38437E-02 -1.06945E+01 +7.80212E+00 -2.69147E+00 +1.04653E+01
 +5.94777E+00 +6.82582E+00 +1.02942E+01 -2.40137E-01 +8.59051E+00 -5.99540E+00 +2.89345E+00 -7.13179E+00
 -2.81818E+00 -3.81499E+00 -5.49392E+00 +8.61180E-01 -4.74632E+00 +3.43189E+00 -2.42026E+00 +2.62781E+00
 -6.44088E-01 +5.26928E-02 -7.51093E-02 -1.41921E+00 +2.77529E-01 -1.67493E-01 +1.66399E+00 +2.75880E+00
 +3.97003E+00 +4.46793E+00 +5.38206E+00 +2.65927E+00 +3.77915E+00 -2.25800E+00 -1.20649E+00 -7.09708E+00
 -7.21561E+00 -8.07512E+00 -1.03174E+01 -3.70090E+00 -7.70264E+00 +3.80106E+00 -9.48821E-03 +9.70832E+00
 +8.56413E+00 +9.92963E+00 +1.27146E+01 +3.88186E+00 +9.53033E+00 -4.94082E+00 +6.25551E-01 -1.11668E+01
 -8.67312E+00 -1.10341E+01 -1.26692E+01 -4.78480E+00 -8.96727E+00 +3.62934E+00 +3.39035E-03 +9.24291E+00
 +8.63812E+00 +9.25494E+00 +1.18336E+01 +4.54015E+00 +8.18694E+00 -1.37765E+00 +6.05482E-01 -4.94919E+00
 -5.94019E+00 -4.85372E+00 -7.82520E+00 -2.36991E+00 -4.94647E+00 +1.38913E-01 -2.82400E-01 +1.23730E+00
 +2.61539E+00 +1.30434E+00 +2.22166E+00 +1.70583E+00 -1.65615E-01 +3.10904E+00 -1.86102E+00 +4.49710E+00
 -1.18356E+00 +3.84339E+00 +1.13746E+00 -1.04007E-02 +2.64170E+00 -5.82856E+00 +1.32660E+00 -1.02345E+01
 -2.44015E+00 -9.84739E+00 -5.88417E+00 -3.87427E+00 -5.81745E+00 +4.81014E+00 -1.20710E+00 +1.11216E+01
 +5.66864E+00 +1.09787E+01 +1.04900E+01 +4.12705E+00 +9.81640E+00 -5.44196E+00 +3.60607E+00 -1.18994E+01
 -4.51951E+00 -1.12752E+01 -9.55547E+00 -3.97355E+00 -8.41615E+00 +5.57535E+00 -1.98873E+00 +1.18500E+01
 +5.47535E+00 +1.17278E+01 +9.19275E+00 +6.19001E+00 +6.94395E+00 -7.76241E-01 +3.49196E-01 -5.11770E+00
 -6.43272E+00 -5.32364E+00 -9.54656E+00 -2.92555E+00 -7.80818E+00 -7.60918E-01 -3.06427E+00 -5.24419E-01
 +1.47172E+00 -1.55965E+00 +3.51913E+00 -1.77122E+00 +2.98628E+00 +1.86807E-01 +1.45498E+00 +3.32772E+00
 +5.58762E-01 +4.78044E+00 +6.78372E-01 +2.07911E+00 +9.63196E-01 -4.43850E+00 +4.99311E-01 -1.11160E+01
 -5.29388E-01 -1.30482E+01 -8.09571E-01 -7.49882E+00 +8.83481E-01 +3.72578E+00 +4.24345E+00 +1.48025E+01
 +7.11452E+00 +1.92439E+01 +6.82175E+00 +1.40086E+01 +2.30897E+00 +1.65873E+00 -4.57729E+00 -1.09506E+01
 -9.86669E+00 -1.67063E+01 -1.00295E+01 -1.24707E+01 -4.60812E+00 -8.72818E-01 +3.06630E+00 +1.13816E+01
 +7.82815E+00 +1.75053E+01 +6.14771E+00 +1.44058E+01 -1.25416E+00 +4.04690E+00 -9.58650E+00 -8.12722E+00
 -1.30321E+01 -1.64235E+01 -8.68790E+00 -1.77245E+01 +1.30196E+00 -1.24550E+01 +1.09787E+01 -3.61968E+00
 +1.44367E+01 +5.04570E+00 +9.74822E+00 +1.05977E+01 +2.70059E-01 +1.15393E+01 -7.58664E+00 +7.84816E+00
 -8.63227E+00 +8.72810E-01 -2.33152E+00 -6.77745E+00 +6.90992E+00 -1.17143E+01 +1.27532E+01 -1.09850E+01
 +1.11498E+01 -3.75688E+00 +2.93052E+00 +7.53224E+00 -6.90596E+00 +1.76709E+01 -1.26011E+01 +2.10808E+01
 -1.13556E+01 +1.50367E+01 -4.88930E+00 +1.72417E+00 +2.04765E+00 -1.24355E+01 +5.00659E+00 -2.01581E+01
 +2.66852E+00 -1.75093E+01 -2.65495E+00 -6.34571E+00 -6.95100E+00 +6.67183E+00 -7.32441E+00 +1.40119E+01
 -3.72317E+00 +1.17419E+01 +1.44918E+00 +1.73226E+00 +5.28718E+00 -9.75495E+00 +6.34292E+00 -1.60884E+01
 +5.23552E+00 -1.42410E+01 +3.70375E+00 -6.19633E+00 +3.05376E+00 +2.91255E+00 +3.26673E+00 +8.42274E+00
 +3.35019E+00 +8.94737E+00 +2.45968E+00 +6.55866E+00 +7.43739E-01 +4.52477E+00 -8.07624E-01 +4.51621E+00
 -1.32478E+00 +5.45010E+00 -9.35154E-01 +4.77329E+00 -7.34440E-01 +1.05497E+00 -1.82156E+00 -4.27728E+00
 -4.20465E+00 -7.58523E+00 -6.55887E+00 -5.73277E+00 -7.14943E+00 +1.12905E+00 -5.24765E+00 +8.92507E+00
 -1.87663E+00 +1.19382E+01 +8.24449E-01 +6.66015E+00 +1.23798E+00 -5.40704E+00 -3.49400E-01 -1.80738E+01
 -1.79968E+00 -2.39482E+01 -7.38764E-01 -1.89709E+01 +3.40442E+00 -5.09706E+00 +8.55215E+00 +1.06371E+01
 +1.11748E+01 +2.01318E+01 +8.85344E+00 +1.88505E+01 +2.37024E+00 +8.26358E+00 -4.36476E+00 -5.24474E+00
 -6.77912E+00 -1.41585E+01 -2.93176E+00 -1.39367E+01 +4.72221E+00 -5.11991E+00 +1.05679E+01 +7.47114E+00
 +9.49021E+00 +1.76023E+01 +5.74479E-01 +2.07370E+01 -1.17700E+01 +1.58101E+01 -2.02644E+01 +5.14471E+00
 -1.93704E+01 -6.96438E+00 -9.05310E+00 -1.60605E+01 +4.88269E+00 -1.90278E+01 +1.42638E+01 -1.50269E+01
 +1.36691E+01 -5.81437E+00 +3.89102E+00 +4.67880E+00 -8.52890E+00 +1.16630E+01 -1.54105E+01 +1.15319E+01
 -1.20453E+01 +3.85367E+00 -5.30830E-02 -7.86048E+00 +1.37541E+01 -1.74446E+01 +2.16461E+01 -1.91508E+01
 +1.95891E+01 -1.09774E+01 +9.34779E+00 +3.77226E+00 -3.02067E+00 +1.79176E+01 -1.10500E+01 +2.42678E+01
 -1.15474E+01 +1.97480E+01 -5.90209E+00 +7.24693E+00 +1.42969E+00 -6.05839E+00 +5.92598E+00 -1.29591E+01
 +5.46244E+00 -1.04372E+01 +9.10538E-01 -1.23015E+00 -5.04306E+00 +8.18292E+00 -9.69914E+00 +1.17874E+01
 -1.15403E+01 +7.67120E+00 -1.03574E+01 -1.19044E+00 -6.72695E+00 -9.31494E+00 -1.56133E+00 -1.24641E+01
 +3.94329E+00 -1.01712E+01 +8.24673E+00 -5.45123E+00 +9.79609E+00 -2.14947E+00 +7.85682E+00 -2.00729E+00
 +3.31077E+00 -3.59355E+00 -1.37228E+00 -3.77726E+00 -3.32593E+00 -5.08073E-01 -1.07663E+00 +5.27635E+00
 +4.26721E+00 +1.01114E+01 +9.40893E+00 +1.05381E+01 +1.07978E+01 +5.83569E+00 +6.92637E+00 -1.11675E+00
 -5.70916E-01 -5.59396E+00 -7.85301E+00 -4.24607E+00 -1.12903E+01 +2.45661E+00 -9.74937E+00 +1.03054E+01
 -5.17847E+00 +1.39774E+01 -1.10175E+00 +1.04677E+01 -1.06674E-01 +1.04676E+00 -2.12194E+00 -9.51888E+00
