 Created: 16-Jan-2021
 $NMID
 ID='D:\BASISSIMULATI'
 FMTDAT='(8E13.5)'
 VOLUME=   1.00000E+00
 TRAMP=   1.00000E+00
 $END
 +4.56604E+01 +3.21827E+00 +3.32883E+01 +3.05637E+01 +6.29233E+00 +4.27009E+01 -2.10970E+01 +3.39566E+01
 -3.47440E+01 +9.94090E+00 -2.83243E+01 -1.56884E+01 -6.62821E+00 -2.88585E+01 +1.73215E+01 -2.28122E+01
 +2.96349E+01 -1.64818E+00 +2.32305E+01 +2.22036E+01 +1.56917E+00 +3.50333E+01 -2.35100E+01 +2.94132E+01
 -3.84843E+01 +8.08819E+00 -3.55381E+01 -1.78233E+01 -1.65707E+01 -3.51192E+01 +8.23420E+00 -3.56689E+01
 +2.62472E+01 -2.04868E+01 +2.92405E+01 +1.33780E+00 +1.74657E+01 +1.79940E+01 -1.08822E+00 +2.14219E+01
 -1.55435E+01 +1.13244E+01 -1.81819E+01 -5.28651E+00 -8.32893E+00 -1.84387E+01 +7.85751E+00 -2.07883E+01
 +2.12453E+01 -1.13284E+01 +2.48349E+01 +4.61921E+00 +1.72506E+01 +1.87817E+01 +2.90092E+00 +2.45379E+01
 -1.09286E+01 +2.01504E+01 -1.81503E+01 +9.05393E+00 -1.67994E+01 -2.59741E+00 -9.40030E+00 -9.45951E+00
 -9.35494E-01 -9.56953E+00 +4.13550E+00 -4.72966E+00 +4.05607E+00 +1.14826E+00 +1.17479E-01 +4.49194E+00
 -4.67486E+00 +3.83699E+00 -7.54726E+00 +8.68264E-02 -7.30818E+00 -4.54956E+00 -4.48837E+00 -8.03132E+00
 -5.06682E-01 -9.41740E+00 +3.36034E+00 -8.85648E+00 +6.48912E+00 -6.93889E+00 +8.71597E+00 -4.08010E+00
 +9.82725E+00 -4.32434E-01 +9.31898E+00 +3.70329E+00 +6.72390E+00 +7.45084E+00 +2.27250E+00 +9.44395E+00
 -2.70616E+00 +8.54746E+00 -6.13713E+00 +4.78555E+00 -6.28023E+00 -2.34346E-01 -2.92886E+00 -3.88393E+00
 +2.10610E+00 -3.91433E+00 +5.71828E+00 +8.00448E-02 +5.18811E+00 +6.08984E+00 -9.51272E-02 +1.05289E+01
 -7.94809E+00 +1.01643E+01 -1.43049E+01 +4.09173E+00 -1.53595E+01 -5.43898E+00 -9.78581E+00 -1.39614E+01
 +2.69537E-01 -1.71046E+01 +1.01019E+01 -1.30408E+01 +1.48800E+01 -3.66357E+00 +1.22929E+01 +6.25938E+00
 +3.91842E+00 +1.15847E+01 -5.52203E+00 +9.60480E+00 -1.06832E+01 +1.59963E+00 -8.53561E+00 -7.78215E+00
 -9.14777E-02 -1.30275E+01 +1.00718E+01 -1.07950E+01 +1.62679E+01 -1.80565E+00 +1.48057E+01 +9.47531E+00
 +6.03562E+00 +1.72147E+01 -5.79416E+00 +1.73528E+01 -1.47998E+01 +9.79225E+00 -1.66051E+01 -1.55955E+00
 -1.06512E+01 -1.09058E+01 -4.29212E-01 -1.36666E+01 +8.46414E+00 -8.88169E+00 +1.13595E+01 +3.74682E-01
 +6.98006E+00 +8.75116E+00 -1.97490E+00 +1.15508E+01 -1.03931E+01 +7.23064E+00 -1.35578E+01 -1.86012E+00
 -9.65872E+00 -1.08453E+01 -6.71568E-01 -1.49889E+01 +8.80500E+00 -1.21957E+01 +1.40571E+01 -4.01895E+00
 +1.27216E+01 +5.29773E+00 +5.90524E+00 +1.11496E+01 -2.56954E+00 +1.09765E+01 -8.30142E+00 +5.47123E+00
 -8.62914E+00 -1.98089E+00 -3.90389E+00 -7.23671E+00 +2.89184E+00 -7.60762E+00 +7.87712E+00 -3.17112E+00
 +8.36330E+00 +3.44818E+00 +4.18488E+00 +8.61314E+00 -2.37343E+00 +9.63390E+00 -7.91774E+00 +6.10139E+00
 -9.76587E+00 -5.36984E-02 -7.26806E+00 -5.71275E+00 -1.98323E+00 -8.24310E+00 +3.28908E+00 -6.78953E+00
 +6.02879E+00 -2.55062E+00 +5.24038E+00 +2.01476E+00 +1.80992E+00 +4.55043E+00 -2.12775E+00 +3.98695E+00
 -4.39680E+00 +9.59505E-01 -3.89340E+00 -2.68049E+00 -1.04737E+00 -4.92444E+00 +2.53796E+00 -4.64316E+00
 +5.00424E+00 -2.07891E+00 +5.19573E+00 +1.40062E+00 +3.17096E+00 +4.08810E+00 +5.83029E-02 +4.81320E+00
 -2.60434E+00 +3.46390E+00 -3.66339E+00 +9.30982E-01 -2.86998E+00 -1.43496E+00 -8.99705E-01 -2.53364E+00
 +1.08330E+00 -2.02465E+00 +2.05442E+00 -4.08194E-01 +1.61968E+00 +1.31610E+00 +1.44171E-01 +2.19978E+00
 -1.50711E+00 +1.81395E+00 -2.44911E+00 +4.14508E-01 -2.22063E+00 -1.24636E+00 -9.78423E-01 -2.33625E+00
 +6.30213E-01 -2.36153E+00 +1.82565E+00 -1.38416E+00 +2.08983E+00 +5.28502E-02 +1.39982E+00 +1.23082E+00
 +1.98743E-01 +1.62368E+00 -8.62079E-01 +1.14264E+00 -1.26558E+00 +1.44770E-01 -8.79625E-01 -7.83036E-01
 +4.33947E-03 -1.14185E+00 +8.51677E-01 -7.73619E-01 +1.18029E+00 +7.64287E-02 +8.13873E-01 +9.10779E-01
 -3.66826E-02 +1.25639E+00 -8.99740E-01 +9.17954E-01 -1.30371E+00 +7.53431E-02 -1.03051E+00 -8.21638E-01
 -2.27382E-01 -1.30013E+00 +6.79334E-01 -1.11797E+00 +1.21825E+00 -3.88457E-01 +1.12657E+00 +4.88302E-01
 +4.86471E-01 +1.04740E+00 -3.27703E-01 +1.01211E+00 -8.60167E-01 +4.40378E-01 -8.25898E-01 -3.13754E-01
 -2.66124E-01 -8.00898E-01 +4.77417E-01 -7.28109E-01 +9.54443E-01 -1.23126E-01 +8.58311E-01 +6.79110E-01
 +1.99544E-01 +1.22022E+00 -6.94929E-01 +1.17156E+00 -1.35690E+00 +5.17867E-01 -1.43092E+00 -4.29681E-01
 -8.68422E-01 -1.19868E+00 +4.43180E-02 -1.40933E+00 +8.40004E-01 -9.78661E-01 +1.12243E+00 -1.63749E-01
 +7.79651E-01 +5.79581E-01 +4.23158E-02 +8.45692E-01 -6.44555E-01 +5.00219E-01 -8.66373E-01 -2.46889E-01
 -4.67343E-01 -9.55989E-01 +3.61580E-01 -1.19776E+00 +1.18284E+00 -7.88660E-01 +1.54650E+00 +1.05429E-01
 +1.23253E+00 +1.05328E+00 +3.71016E-01 +1.58507E+00 -6.23903E-01 +1.44041E+00 -1.27085E+00 +7.05537E-01
 -1.27330E+00 -2.32943E-01 -6.73280E-01 -8.92574E-01 +1.74007E-01 -9.49032E-01 +7.90360E-01 -4.05522E-01
 +8.28753E-01 +4.11092E-01 +2.57837E-01 +1.02475E+00 -6.19776E-01 +1.06346E+00 -1.32502E+00 +4.58923E-01
 -1.45395E+00 -5.11848E-01 -8.92929E-01 -1.36540E+00 +1.14606E-01 -1.66070E+00 +1.08617E+00 -1.23025E+00
 +1.54459E+00 -2.73859E-01 +1.26504E+00 +7.35777E-01 +3.97364E-01 +1.29088E+00 -6.02169E-01 +1.11084E+00
 -1.19989E+00 +2.94368E-01 -1.06151E+00 -7.20328E-01 -2.35206E-01 -1.37397E+00 +8.57916E-01 -1.27702E+00
 +1.62983E+00 -4.24819E-01 +1.63021E+00 +7.79411E-01 +7.95093E-01 +1.71631E+00 -4.94948E-01 +1.86842E+00
 -1.58986E+00 +1.10409E+00 -1.90086E+00 -2.26159E-01 -1.22097E+00 -1.44499E+00 +1.36978E-01 -1.89024E+00
 +1.47258E+00 -1.27334E+00 +2.04901E+00 +1.38020E-01 +1.48975E+00 +1.62488E+00 +9.08016E-03 +2.37472E+00
 -1.66164E+00 +1.91640E+00 -2.63486E+00 +4.01146E-01 -2.33929E+00 -1.43567E+00 -8.53618E-01 -2.63474E+00
 +1.09170E+00 -2.52147E+00 +2.46985E+00 -1.09450E+00 +2.50074E+00 +9.27998E-01 +1.09617E+00 +2.45428E+00
 -1.04462E+00 +2.59412E+00 -2.76585E+00 +1.16242E+00 -3.05926E+00 -1.17080E+00 -1.62712E+00 -3.18971E+00
 +9.07661E-01 -3.76104E+00 +3.28175E+00 -2.45661E+00 +4.23781E+00 +1.71537E-01 +3.20480E+00 +2.83383E+00
 +6.42317E-01 +4.16020E+00 -2.15677E+00 +3.43479E+00 -3.72556E+00 +1.01215E+00 -3.20801E+00 -1.82740E+00
 -8.48517E-01 -3.53094E+00 +2.09286E+00 -3.10307E+00 +3.97904E+00 -6.70395E-01 +3.66575E+00 +2.53627E+00
 +1.14215E+00 +4.79628E+00 -2.41219E+00 +4.80202E+00 -5.20615E+00 +2.37555E+00 -5.76380E+00 -1.39176E+00
 -3.71463E+00 -4.67028E+00 -2.20455E-02 -5.83085E+00 +3.48746E+00 -4.30345E+00 +5.06214E+00 -8.97815E-01
 +3.94410E+00 +2.59623E+00 +7.83247E-01 +4.33282E+00 -2.68248E+00 +3.38093E+00 -4.52520E+00 +2.31135E-01
 -3.64085E+00 -3.43612E+00 -3.48093E-01 -5.61061E+00 +3.74715E+00 -4.99931E+00 +6.56020E+00 -1.71603E+00
 +6.59590E+00 +2.74931E+00 +3.72493E+00 +6.27224E+00 -7.35064E-01 +7.16793E+00 -4.67842E+00 +5.04604E+00
 -6.27354E+00 +1.00703E+00 -4.88403E+00 -2.92046E+00 -1.37885E+00 -4.81125E+00 +2.32356E+00 -3.81650E+00
 +4.24007E+00 -5.83235E-01 +3.33251E+00 +3.08749E+00 +3.11657E-02 +5.16351E+00 -3.98667E+00 +4.41360E+00
 -6.64247E+00 +1.02896E+00 -6.49514E+00 -3.47081E+00 -3.45305E+00 -6.98937E+00 +1.18658E+00 -7.87956E+00
 +5.37673E+00 -5.73410E+00 +7.31049E+00 -1.56089E+00 +6.27312E+00 +2.72636E+00 +2.94985E+00 +5.23753E+00
 -9.41386E-01 +4.99792E+00 -3.49592E+00 +2.37975E+00 -3.53180E+00 -1.11545E+00 -1.13366E+00 -3.60030E+00
 +2.41076E+00 -3.70778E+00 +5.23445E+00 -1.23632E+00 +5.77424E+00 +2.75534E+00 +3.50579E+00 +6.43444E+00
 -7.98513E-01 +8.03237E+00 -5.39877E+00 +6.65545E+00 -8.35475E+00 +2.70816E+00 -8.39283E+00 -2.25971E+00
 -5.49076E+00 -6.22079E+00 -9.15978E-01 -7.56781E+00 +3.31555E+00 -5.84891E+00 +5.34035E+00 -2.00489E+00
 +4.31752E+00 +2.02350E+00 +8.66487E-01 +4.17460E+00 -3.16052E+00 +3.25396E+00 -5.51358E+00 -4.27906E-01
 -4.63603E+00 -5.10350E+00 -5.01779E-01 -8.31845E+00 +5.23765E+00 -8.10943E+00 +9.93452E+00 -4.04002E+00
 +1.11896E+01 +2.44123E+00 +8.08057E+00 +8.56644E+00 +1.74344E+00 +1.15331E+01 -5.04985E+00 +9.91058E+00
 -9.18542E+00 +4.44988E+00 -8.76995E+00 -2.17386E+00 -4.16458E+00 -6.63432E+00 +2.09313E+00 -6.64764E+00
 +6.51589E+00 -2.22065E+00 +6.46762E+00 +4.23873E+00 +1.61569E+00 +9.08043E+00 -5.76254E+00 +9.29856E+00
 -1.18491E+01 +4.17789E+00 -1.32331E+01 -4.19426E+00 -8.73987E+00 -1.18827E+01 -1.55338E-01 -1.50840E+01
 +8.58590E+00 -1.21175E+01 +1.33766E+01 -4.36594E+00 +1.20620E+01 +4.37159E+00 +5.58679E+00 +9.81397E+00
 -2.46884E+00 +9.42337E+00 -7.75083E+00 +3.74337E+00 -7.42296E+00 -3.87562E+00 -1.67687E+00 -9.03829E+00
 +6.34864E+00 -8.63319E+00 +1.22076E+01 -2.49768E+00 +1.24846E+01 +6.46431E+00 +6.59893E+00 +1.37758E+01
 -2.87348E+00 +1.57030E+01 -1.15195E+01 +1.11781E+01 -1.53472E+01 +2.32828E+00 -1.27983E+01 -6.64314E+00
 -5.47898E+00 -1.16172E+01 +2.73923E+00 -1.06267E+01 +7.74609E+00 -4.77227E+00 +7.27801E+00 +2.44781E+00
 +1.99815E+00 +7.00193E+00 -4.94273E+00 +6.39684E+00 -9.58799E+00 +9.01575E-01 -9.20668E+00 -6.66045E+00
 -3.64456E+00 -1.23920E+01 +4.65022E+00 -1.32883E+01 +1.18857E+01 -8.69846E+00 +1.47983E+01 -5.86771E-01
 +1.22020E+01 +7.48226E+00 +5.48007E+00 +1.20885E+01 -2.16806E+00 +1.15623E+01 -7.31254E+00 +6.69284E+00
 -7.92143E+00 +2.41379E-01 -4.26174E+00 -4.45954E+00 +1.32377E+00 -5.12628E+00 +5.61957E+00 -1.59277E+00
 +6.12482E+00 +4.15865E+00 +2.26871E+00 +8.99398E+00 -4.31294E+00 +1.01638E+01 -1.05601E+01 +6.64728E+00
 -1.34536E+01 -3.31807E-01 -1.14678E+01 -7.86205E+00 -5.31683E+00 -1.27144E+01 +2.36737E+00 -1.28751E+01
 +8.28338E+00 -8.50539E+00 +1.00400E+01 -1.85499E+00 +7.30068E+00 +3.84254E+00 +1.92292E+00 +5.96223E+00
 -2.99119E+00 +3.78444E+00 -4.67302E+00 -1.15818E+00 -2.10617E+00 -5.87253E+00 +3.43806E+00 -7.44901E+00
 +9.03509E+00 -4.57787E+00 +1.16002E+01 +1.74233E+00 +9.47987E+00 +8.67902E+00 +3.31949E+00 +1.29880E+01
 -4.24593E+00 +1.26532E+01 -9.91909E+00 +7.89478E+00 -1.13948E+01 +1.02632E+00 -8.48113E+00 -4.75416E+00
 -3.11499E+00 -6.99681E+00 +1.71378E+00 -5.20002E+00 +3.54108E+00 -9.65833E-01 +1.67341E+00 +2.93726E+00
 -2.53791E+00 +4.07677E+00 -6.49683E+00 +1.61822E+00 -7.77290E+00 -3.29992E+00 -5.35900E+00 -8.22974E+00
