 Created: 16-Jan-2021
 $NMID
 ID='D:\BASISSIMULATI'
 FMTDAT='(8E13.5)'
 VOLUME=   1.00000E+00
 TRAMP=   1.00000E+00
 $END
 +1.87521E+01 +1.86650E+00 +1.70236E+01 +8.02682E+00 +1.33370E+01 +1.32464E+01 +8.12231E+00 +1.69258E+01
 +1.98436E+00 +1.86449E+01 -4.36692E+00 +1.82104E+01 -1.01989E+01 +1.56777E+01 -1.48405E+01 +1.13442E+01
 -1.77597E+01 +5.71378E+00 -1.86243E+01 -5.61143E-01 -1.73399E+01 -6.75563E+00 -1.40597E+01 -1.21558E+01
 -9.16711E+00 -1.61412E+01 -3.23002E+00 -1.82558E+01 +3.06452E+00 -1.82607E+01 +8.98999E+00 -1.61606E+01
 +1.38643E+01 -1.22028E+01 +1.71281E+01 -6.84827E+00 +1.84093E+01 -7.17737E-01 +1.75651E+01 +5.48015E+00
 +1.46982E+01 +1.10308E+01 +1.01441E+01 +1.52958E+01 +4.43217E+00 +1.77870E+01 -1.77640E+00 +1.82215E+01
 -7.76461E+00 +1.65544E+01 -1.28427E+01 +1.29831E+01 -1.64276E+01 +7.92422E+00 -1.81098E+01 +1.96454E+00
 -1.77002E+01 -4.20665E+00 -1.52511E+01 -9.87742E+00 -1.10502E+01 -1.43953E+01 -5.58596E+00 -1.72425E+01
 +5.08486E-01 -1.80948E+01 +6.52902E+00 -1.68591E+01 +1.17818E+01 -1.36831E+01 +1.56632E+01 -8.93772E+00
 +1.77293E+01 -3.17394E+00 +1.77465E+01 +2.94125E+00 +1.57179E+01 +8.70204E+00 +1.18824E+01 +1.34452E+01
 +6.68688E+00 +1.66266E+01 +7.33534E-01 +1.78833E+01 -5.28943E+00 +1.70754E+01 -1.06875E+01 +1.43011E+01
 -1.48401E+01 +9.88525E+00 -1.72715E+01 +4.34091E+00 -1.77058E+01 -1.68991E+00 -1.60980E+01 -7.51079E+00
 -1.26385E+01 -1.24512E+01 -7.73080E+00 -1.59440E+01 -1.94422E+00 -1.75900E+01 +4.05195E+00 -1.72042E+01
 +9.56598E+00 -1.48361E+01 +1.39634E+01 -1.07637E+01 +1.67402E+01 -5.46076E+00 +1.75803E+01 +4.58372E-01
 +1.63917E+01 +6.30980E+00 +1.33165E+01 +1.14192E+01 +8.71391E+00 +1.51994E+01 +3.11841E+00 +1.72180E+01
 -2.82251E+00 +1.72467E+01 -8.42316E+00 +1.52872E+01 -1.30388E+01 +1.15704E+01 -1.61397E+01 +6.52910E+00
 -1.73724E+01 +7.47846E-01 -1.65993E+01 -5.10511E+00 -1.39147E+01 -1.03549E+01 -9.63283E+00 -1.43978E+01
 -4.25124E+00 -1.67709E+01 +1.60690E+00 -1.72047E+01 +7.26511E+00 -1.56541E+01 +1.20716E+01 -1.23029E+01
 +1.54745E+01 -7.54193E+00 +1.70850E+01 -1.92346E+00 +1.67220E+01 +3.90263E+00 +1.44322E+01 +9.26422E+00
 +1.04845E+01 +1.35444E+01 +5.33813E+00 +1.62525E+01 -4.10698E-01 +1.70803E+01 -6.09776E+00 +1.59371E+01
 -1.10676E+01 +1.29595E+01 -1.47492E+01 +8.49557E+00 -1.67213E+01 +3.06347E+00 -1.67609E+01 -2.70814E+00
 -1.48682E+01 -8.15308E+00 -1.12664E+01 -1.26445E+01 -6.37486E+00 -1.56670E+01 -7.60744E-01 -1.68760E+01
 +4.92698E+00 -1.61365E+01 +1.00325E+01 -1.35387E+01 +1.39686E+01 -9.38673E+00 +1.62847E+01 -4.16314E+00
 +1.67177E+01 +1.52725E+00 +1.52224E+01 +7.02729E+00 +1.19762E+01 +1.17035E+01 +7.35752E+00 +1.50188E+01
 +1.90230E+00 +1.65944E+01 -3.75852E+00 +1.62532E+01 -8.97186E+00 +1.40393E+01 -1.31379E+01 +1.02125E+01
 -1.57790E+01 +5.21805E+00 -1.65945E+01 -3.65367E-01 -1.54950E+01 -5.89265E+00 -1.26121E+01 -1.07268E+01
 -8.28256E+00 -1.43122E+01 -3.00911E+00 -1.62388E+01 +2.59798E+00 -1.62887E+01 +7.89152E+00 -1.44607E+01
 +1.22621E+01 -1.09703E+01 +1.52081E+01 -6.22408E+00 +1.63937E+01 -7.72297E-01 +1.56864E+01 +4.75483E+00
 +1.31727E+01 +9.71997E+00 +9.14679E+00 +1.35522E+01 +4.07659E+00 +1.58125E+01 -1.45082E+00 +1.62444E+01
 -6.79711E+00 +1.48026E+01 -1.13464E+01 +1.16580E+01 -1.45764E+01 +7.17747E+00 -1.61179E+01 +1.88077E+00
 -1.57976E+01 -3.61943E+00 -1.36569E+01 -8.68860E+00 -9.94739E+00 -1.27435E+01 -5.10045E+00 -1.53191E+01
 +3.22285E-01 -1.61224E+01 +5.69425E+00 -1.50651E+01 +1.03963E+01 -1.22739E+01 +1.38882E+01 -8.07476E+00
 +1.57702E+01 -2.95535E+00 +1.58297E+01 +2.49189E+00 +1.40642E+01 +7.63821E+00 +1.06819E+01 +1.18911E+01
 +6.07670E+00 +1.47626E+01 +7.82571E-01 +1.59251E+01 -4.58848E+00 +1.52489E+01 -9.41710E+00 +1.28165E+01
 -1.31480E+01 +8.91287E+00 -1.53540E+01 +3.99158E+00 -1.57844E+01 -1.37750E+00 -1.43942E+01 -6.57431E+00
 -1.13482E+01 -1.10002E+01 -7.00168E+00 -1.41469E+01 -1.85892E+00 -1.56550E+01 +3.48521E+00 -1.53546E+01
 +8.41416E+00 -1.32850E+01 +1.23608E+01 -9.68907E+00 +1.48726E+01 -4.98529E+00 +1.56637E+01 +2.81359E-01
 +1.46471E+01 +5.50236E+00 +1.19447E+01 +1.00760E+01 +7.87205E+00 +1.34766E+01 +2.90220E+00 +1.53151E+01
 -2.38973E+00 +1.53836E+01 -7.39290E+00 +1.36785E+01 -1.15313E+01 +1.04010E+01 -1.43300E+01 +5.93263E+00
 -1.54698E+01 +7.91630E-01 -1.48234E+01 -4.42772E+00 -1.24699E+01 -9.12357E+00 -8.68483E+00 -1.27559E+01
 -3.90808E+00 -1.49087E+01 +1.30718E+00 -1.53374E+01 +6.35866E+00 -1.39971E+01 +1.06645E+01 -1.10466E+01
 +1.37301E+01 -6.83005E+00 +1.52053E+01 -1.83679E+00 +1.49240E+01 +3.35568E+00 +1.29230E+01 +8.14828E+00
 +9.43735E+00 +1.19896E+01 +4.87254E+00 +1.44391E+01 -2.42502E-01 +1.52180E+01 -5.31675E+00 +1.42407E+01
 -9.76537E+00 +1.16242E+01 -1.30771E+01 +7.67430E+00 -1.48731E+01 +2.84967E+00 -1.49500E+01 -2.29135E+00
 -1.33034E+01 -7.15533E+00 -1.01273E+01 -1.11823E+01 -5.79182E+00 -1.39100E+01 -7.99534E-01 -1.50275E+01
 +4.27239E+00 -1.44098E+01 +8.83907E+00 -1.21326E+01 +1.23754E+01 -8.46250E+00 +1.44762E+01 -3.82609E+00
 +1.49030E+01 +1.23973E+00 +1.36108E+01 +6.14993E+00 +1.07528E+01 +1.03389E+01 +6.66248E+00 +1.33255E+01
 +1.81439E+00 +1.47685E+01 -3.23069E+00 +1.45054E+01 -7.89068E+00 +1.25709E+01 -1.16294E+01 +9.19208E+00
 -1.40181E+01 +4.76214E+00 -1.47849E+01 -2.05630E-01 -1.38454E+01 -5.13723E+00 -1.13122E+01 -9.46425E+00
 -7.48140E+00 -1.26894E+01 -2.79776E+00 -1.44437E+01 +2.19664E+00 -1.45286E+01 +6.92528E+00 -1.29384E+01
 +1.08437E+01 -9.86081E+00 +1.35023E+01 -5.65419E+00 +1.45978E+01 -8.06342E-01 +1.40077E+01 +4.12229E+00
 +1.18043E+01 +8.56335E+00 +8.24576E+00 +1.20061E+01 +3.74559E+00 +1.40562E+01 -1.17507E+00 +1.44809E+01
 -5.94792E+00 +1.32351E+01 -1.00231E+01 +1.04668E+01 -1.29327E+01 +6.49890E+00 -1.43441E+01 +1.79178E+00
 -1.40985E+01 -3.11008E+00 -1.22283E+01 -7.64112E+00 -8.95309E+00 -1.12799E+01 -4.65407E+00 -1.36093E+01
 +1.70661E-01 -1.43640E+01 +4.96361E+00 -1.34610E+01 +9.17234E+00 -1.10086E+01 +1.23132E+01 -7.29323E+00
 +1.40267E+01 -2.74649E+00 +1.41190E+01 +2.10545E+00 +1.25834E+01 +6.70250E+00 +9.60122E+00 +1.05154E+01
 +5.51968E+00 +1.31065E+01 +8.12111E-01 +1.41803E+01 -3.97726E+00 +1.36167E+01 -8.29613E+00 +1.14849E+01
 -1.16478E+01 +8.03447E+00 -1.36484E+01 +3.66655E+00 -1.40706E+01 -1.11308E+00 -1.28697E+01 -5.75240E+00
 -1.01883E+01 -9.71696E+00 -6.33920E+00 -1.25514E+01 -1.76897E+00 -1.39319E+01 +2.99371E+00 -1.37029E+01
 +7.39934E+00 -1.18949E+01 +1.09409E+01 -8.72021E+00 +1.32124E+01 -4.54826E+00 +1.39551E+01 +1.37517E-01
 +1.30873E+01 +4.79568E+00 +1.07130E+01 +8.88933E+00 +7.10969E+00 +1.19480E+01 +2.69586E+00 +1.36216E+01
 -2.01766E+00 +1.37208E+01 -6.48676E+00 +1.22381E+01 -1.01969E+01 +9.34837E+00 -1.27222E+01 +5.38823E+00
 -1.37747E+01 +8.16893E-01 -1.32366E+01 -3.83714E+00 -1.11740E+01 -8.03716E+00 -7.82850E+00 -1.13001E+01
 -3.58896E+00 -1.32523E+01 +1.05366E+00 -1.36719E+01 +5.56317E+00 -1.25144E+01 +9.42005E+00 -9.91720E+00
 +1.21814E+01 -6.18331E+00 +1.35315E+01 -1.74600E+00 +1.33184E+01 +2.88144E+00 +1.15706E+01 +7.16511E+00
 +8.49331E+00 +1.06121E+01 +4.44469E+00 +1.28270E+01 -1.06123E-01 +1.35578E+01 -4.63328E+00 +1.27239E+01
 -8.61497E+00 +1.04253E+01 -1.15936E+01 +6.93065E+00 -1.32282E+01 +2.64587E+00 -1.33339E+01 -1.93316E+00
 -1.19022E+01 -6.27785E+00 -9.10211E+00 -9.88795E+00 -5.25976E+00 -1.23491E+01 -8.20740E-01 -1.33806E+01
 +3.70175E+00 -1.28670E+01 +7.78617E+00 -1.08715E+01 +1.09628E+01 -7.62770E+00 +1.28677E+01 -3.51279E+00
 +1.32844E+01 +9.96725E-01 +1.21688E+01 +5.38003E+00 +9.65320E+00 +9.13214E+00 +6.03112E+00 +1.18221E+01
 +1.72290E+00 +1.31425E+01 -2.77312E+00 +1.29446E+01 -6.93818E+00 +1.12550E+01 -1.02930E+01 +8.27222E+00
 -1.24528E+01 +4.34332E+00 -1.31717E+01 -7.64053E-02 -1.23705E+01 -4.47622E+00 -1.01452E+01 -8.34900E+00
 -6.75602E+00 -1.12496E+01 -2.59653E+00 -1.28461E+01 +1.85183E+00 -1.29578E+01 +6.07555E+00 -1.15755E+01
 +9.58831E+00 -8.86225E+00 +1.19870E+01 -5.13422E+00 +1.29978E+01 -8.23701E-01 +1.25077E+01 +3.57095E+00
 +1.05771E+01 +7.54293E+00 +7.43197E+00 +1.06354E+01 +3.43805E+00 +1.24941E+01 -9.42172E-01 +1.29079E+01
 -5.20279E+00 +1.18327E+01 -8.85295E+00 +9.39615E+00 -1.14734E+01 +5.88257E+00 -1.27647E+01 +1.69969E+00
 -1.25813E+01 -2.66863E+00 -1.09480E+01 -6.71835E+00 -8.05680E+00 -9.98344E+00 -4.24409E+00 -1.20895E+01
 +4.82944E-02 -1.27966E+01 +4.32434E+00 -1.20268E+01 +8.09115E+00 -9.87259E+00 +1.09158E+01 -6.58568E+00
 +1.24750E+01 -2.54785E+00 +1.25923E+01 +1.77356E+00 +1.12576E+01 +5.87966E+00 +8.62863E+00 +9.29768E+00
 +5.01154E+00 +1.16353E+01 +8.25825E-01 +1.26258E+01 -3.44458E+00 +1.21584E+01 -7.30720E+00 +1.02906E+01
 -1.03178E+01 +7.24116E+00 -1.21314E+01 +3.36469E+00 -1.25420E+01 -8.89914E-01 -1.15058E+01 -5.03126E+00
 -9.14587E+00 -8.58222E+00 -5.73756E+00 -1.11350E+01 -1.67639E+00 -1.23977E+01 +2.56782E+00 -1.22281E+01
 +6.50538E+00 -1.06493E+01 +9.68314E+00 -7.84691E+00 +1.17367E+01 -4.14697E+00 +1.24321E+01 +2.17230E-02
 +1.16927E+01 +4.17745E+00 +9.60724E+00 +7.84119E+00 +6.41954E+00 +1.05918E+01 +2.49982E+00 +1.21146E+01
 -1.69823E+00 +1.22370E+01 -5.68998E+00 +1.09485E+01 -9.01579E+00 +8.40110E+00 -1.12940E+01 +4.89167E+00
 -1.22645E+01 +8.27155E-01 -1.18188E+01 -3.32251E+00 -1.00118E+01 -7.07875E+00 -7.05517E+00 -1.00096E+01
 -3.29272E+00 -1.17791E+01 +8.39865E-01 -1.21864E+01 +4.86526E+00 -1.11879E+01 +8.31970E+00 -8.90220E+00
 +1.08064E+01 -5.59601E+00 +1.20412E+01 -1.65304E+00 +1.18848E+01 +2.47059E+00 +1.03587E+01 +6.29907E+00
 +7.64241E+00 +9.39181E+00 +4.05193E+00 +1.13941E+01 +3.37374E-03 +1.20780E+01 -4.03541E+00 +1.13678E+01
 -7.59887E+00 +9.34896E+00 -1.02774E+01 +6.25749E+00 -1.17645E+01 +2.45245E+00 -1.18917E+01 -1.62576E+00
 -1.06478E+01 -5.50631E+00 -8.17950E+00 -8.74238E+00 -4.77454E+00 -1.09625E+01 -8.27737E-01 -1.19134E+01
 +3.20457E+00 -1.14886E+01 +6.85735E+00 -9.74045E+00 +9.71048E+00 -6.87387E+00 +1.14371E+01 -3.22210E+00
 +1.18409E+01 +7.91942E-01 +1.08787E+01 +4.70461E+00 +8.66495E+00 +8.06513E+00 +5.45785E+00 +1.04875E+01
 +1.62965E+00 +1.16948E+01 -2.37680E+00 +1.15510E+01 -6.09921E+00 +1.00760E+01 -9.10918E+00 +7.44316E+00
