 Created: 16-Jan-2021
 $NMID
 ID='D:\BASISSIMULATI'
 FMTDAT='(8E13.5)'
 VOLUME=   1.00000E+00
 TRAMP=   1.00000E+00
 $END
 +1.68126E+02 +1.66815E+01 +1.51832E+02 +7.19794E+01 +1.16332E+02 +1.16752E+02 +6.74836E+01 +1.44417E+02
 +1.32520E+01 +1.51390E+02 -3.77306E+01 +1.37658E+02 -7.77096E+01 +1.06707E+02 -1.01163E+02 +6.47941E+01
 -1.05718E+02 +1.97371E+01 -9.24588E+01 -2.05609E+01 -6.55878E+01 -4.95601E+01 -3.15081E+01 -6.32361E+01
 +2.48120E+00 -6.07202E+01 +2.96194E+01 -4.43173E+01 +4.49700E+01 -1.89109E+01 +4.63107E+01 +9.11497E+00
 +3.44631E+01 +3.32179E+01 +1.30081E+01 +4.80324E+01 -1.25446E+01 +5.04357E+01 -3.59592E+01 +4.01368E+01
 -5.16018E+01 +1.96766E+01 -5.56256E+01 -6.15033E+00 -4.67772E+01 -3.13337E+01 -2.66620E+01 -4.99291E+01
 +5.81026E-01 -5.73235E+01 +2.91284E+01 -5.12293E+01 +5.26735E+01 -3.22040E+01 +6.57370E+01 -3.58981E+00
 +6.48236E+01 +2.91169E+01 +4.91895E+01 +5.93437E+01 +2.10641E+01 +8.07539E+01 -1.47235E+01 +8.85315E+01
 -5.16447E+01 +8.03828E+01 -8.27245E+01 +5.70522E+01 -1.01903E+02 +2.22452E+01 -1.05238E+02 -1.80330E+01
 -9.17109E+01 -5.65984E+01 -6.34724E+01 -8.64551E+01 -2.54777E+01 -1.02143E+02 +1.54266E+01 -1.00801E+02
 +5.17890E+01 -8.27473E+01 +7.69674E+01 -5.14429E+01 +8.63999E+01 -1.28610E+01 +7.84849E+01 +2.56331E+01
 +5.49012E+01 +5.66736E+01 +2.03036E+01 +7.42910E+01 -1.85497E+01 +7.50483E+01 -5.40703E+01 +5.86985E+01
 -7.92728E+01 +2.82358E+01 -8.90930E+01 -1.06662E+01 -8.13401E+01 -5.07239E+01 -5.71037E+01 -8.44142E+01
 -2.05390E+01 -1.05385E+02 +2.19257E+01 -1.09634E+02 +6.28037E+01 -9.62441E+01 +9.49543E+01 -6.75173E+01
 +1.12906E+02 -2.85121E+01 +1.13852E+02 +1.39399E+01 +9.81185E+01 +5.25379E+01 +6.90461E+01 +8.08833E+01
 +3.22879E+01 +9.46560E+01 -5.31285E+00 +9.23730E+01 -3.70533E+01 +7.55876E+01 -5.76456E+01 +4.85008E+01
 -6.41906E+01 +1.70682E+01 -5.66652E+01 -1.22151E+01 -3.78355E+01 -3.36101E+01 -1.26211E+01 -4.32531E+01
 +1.29572E+01 -3.98813E+01 +3.30314E+01 -2.50245E+01 +4.30908E+01 -2.63238E+00 +4.08978E+01 +2.17845E+01
 +2.69324E+01 +4.23236E+01 +4.27985E+00 +5.39328E+01 -2.20151E+01 +5.34767E+01 -4.59961E+01 +4.04122E+01
 -6.20353E+01 +1.69365E+01 -6.60163E+01 -1.24227E+01 -5.62232E+01 -4.16977E+01 -3.37540E+01 -6.46738E+01
 -2.37265E+00 -7.61512E+01 +3.21752E+01 -7.30246E+01 +6.32540E+01 -5.49633E+01 +8.46252E+01 -2.45547E+01
 +9.16782E+01 +1.31228E+01 +8.23639E+01 +5.14214E+01 +5.76456E+01 +8.33630E+01 +2.13761E+01 +1.02959E+02
 -2.03812E+01 +1.06359E+02 -6.04593E+01 +9.25977E+01 -9.19126E+01 +6.38044E+01 -1.09307E+02 +2.48274E+01
 -1.09731E+02 -1.76579E+01 -9.33242E+01 -5.63841E+01 -6.32444E+01 -8.48359E+01 -2.50531E+01 -9.84478E+01
 +1.43390E+01 -9.54260E+01 +4.79748E+01 -7.70427E+01 +7.01484E+01 -4.73467E+01 +7.74510E+01 -1.23526E+01
 +6.93662E+01 +2.11329E+01 +4.83063E+01 +4.68192E+01 +1.90864E+01 +6.01225E+01 -1.20543E+01 +5.90099E+01
 -3.86923E+01 +4.43381E+01 -5.54763E+01 +1.96270E+01 -5.91571E+01 -9.68181E+00 -4.91924E+01 -3.73326E+01
 -2.78127E+01 -5.75090E+01 +4.58842E-01 -6.59856E+01 +2.97347E+01 -6.09555E+01 +5.39531E+01 -4.33705E+01
 +6.80932E+01 -1.67331E+01 +6.91775E+01 +1.36167E+01 +5.68630E+01 +4.15761E+01 +3.35076E+01 +6.15024E+01
 +3.69974E+00 +6.93412E+01 -2.66543E+01 +6.34386E+01 -5.15038E+01 +4.48770E+01 -6.58568E+01 +1.72683E+01
 -6.67752E+01 -1.39523E+01 -5.39656E+01 -4.25963E+01 -2.98493E+01 -6.29409E+01 +9.01869E-01 -7.08606E+01
 +3.22745E+01 -6.46475E+01 +5.80883E+01 -4.53587E+01 +7.32075E+01 -1.66224E+01 +7.45507E+01 +1.60592E+01
 +6.17023E+01 +4.63772E+01 +3.70052E+01 +6.84417E+01 +5.11522E+00 +7.79305E+01 -2.78954E+01 +7.29342E+01
 -5.57113E+01 +5.43336E+01 -7.29973E+01 +2.56363E+01 -7.64315E+01 -7.69705E+00 -6.53503E+01 -3.93051E+01
 -4.18775E+01 -6.31530E+01 -1.05146E+01 -7.46962E+01 +2.27281E+01 -7.17543E+01 +5.14913E+01 -5.49277E+01
 +7.02915E+01 -2.74753E+01 +7.55730E+01 +5.31997E+00 +6.63855E+01 +3.71753E+01 +4.45550E+01 +6.20214E+01
 +1.43183E+01 +7.51695E+01 -1.85069E+01 +7.42064E+01 -4.76531E+01 +5.94453E+01 -6.76156E+01 +3.38457E+01
 -7.47097E+01 +2.42268E+00 -6.77692E+01 -2.87397E+01 -4.83519E+01 -5.36760E+01 -2.04136E+01 -6.76963E+01
 +1.04807E+01 -6.82872E+01 +3.82557E+01 -5.55843E+01 +5.75167E+01 -3.23231E+01 +6.45998E+01 -3.28421E+00
 +5.82792E+01 +2.56598E+01 +3.99918E+01 +4.87055E+01 +1.35395E+01 +6.12614E+01 -1.56715E+01 +6.08474E+01
 -4.17041E+01 +4.75771E+01 -5.92642E+01 +2.41286E+01 -6.47464E+01 -4.78846E+00 -5.69455E+01 -3.33642E+01
 -3.72957E+01 -5.58356E+01 -9.59138E+00 -6.76227E+01 +2.07555E+01 -6.62338E+01 +4.77751E+01 -5.17606E+01
 +6.61099E+01 -2.68678E+01 +7.20654E+01 +3.72039E+00 +6.43370E+01 +3.41369E+01 +4.42716E+01 +5.85119E+01
 +1.56123E+01 +7.21144E+01 -1.62235E+01 +7.22725E+01 -4.51905E+01 +5.88939E+01 -6.57844E+01 +3.44850E+01
 -7.41041E+01 +3.66641E+00 -6.86024E+01 -2.77207E+01 -5.03790E+01 -5.37427E+01 -2.29607E+01 -6.95167E+01
 +8.38765E+00 -7.21469E+01 +3.76861E+01 -6.12729E+01 +5.93963E+01 -3.91249E+01 +6.94878E+01 -1.00768E+01
 +6.62064E+01 +2.02143E+01 +5.03966E+01 +4.59125E+01 +2.53178E+01 +6.21356E+01 -4.00828E+00 +6.58968E+01
 -3.17894E+01 +5.66709E+01 -5.25989E+01 +3.64773E+01 -6.24342E+01 +9.46631E+00 -5.94914E+01 -1.89093E+01
 -4.45048E+01 -4.29730E+01 -2.05888E+01 -5.79429E+01 +7.38755E+00 -6.08690E+01 +3.37677E+01 -5.12083E+01
 +5.32265E+01 -3.09247E+01 +6.18217E+01 -4.09664E+00 +5.77711E+01 +2.38906E+01 +4.18051E+01 +4.74088E+01
 +1.70241E+01 +6.16967E+01 -1.17080E+01 +6.38012E+01 -3.87183E+01 +5.31621E+01 -5.86372E+01 +3.17296E+01
 -6.74536E+01 +3.58943E+00 -6.33049E+01 -2.58305E+01 -4.68478E+01 -5.08160E+01 -2.11392E+01 -6.64800E+01
 +8.95197E+00 -6.97166E+01 +3.76858E+01 -5.98080E+01 +5.95620E+01 -3.85693E+01 +7.03845E+01 -1.00004E+01
 +6.80732E+01 +2.04854E+01 +5.30651E+01 +4.71058E+01 +2.82277E+01 +6.48246E+01 -1.69779E+00 +7.03203E+01
 -3.10139E+01 +6.26214E+01 -5.41673E+01 +4.32850E+01 -6.68169E+01 +1.60864E+01 -6.66645E+01 -1.37191E+01
 -5.38856E+01 -4.04171E+01 -3.10807E+01 -5.89396E+01 -2.75635E+00 -6.58394E+01 +2.55595E+01 -5.99447E+01
 +4.83955E+01 -4.25694E+01 +6.13978E+01 -1.72394E+01 +6.21666E+01 +1.10094E+01 +5.07084E+01 +3.66224E+01
 +2.94164E+01 +5.46127E+01 +2.58584E+00 +6.15301E+01 -2.44393E+01 +5.61247E+01 -4.63189E+01 +3.95770E+01
 -5.87643E+01 +1.52512E+01 -5.93732E+01 -1.19780E+01 -4.80924E+01 -3.66903E+01 -2.72170E+01 -5.39894E+01
 -9.29437E-01 -6.04639E+01 +2.55310E+01 -5.48544E+01 +4.69032E+01 -3.82956E+01 +5.89417E+01 -1.40878E+01
 +5.92517E+01 +1.29575E+01 +4.77600E+01 +3.74668E+01 +2.67283E+01 +5.45645E+01 +3.08793E-01 +6.08331E+01
 -2.62722E+01 +5.49878E+01 -4.77409E+01 +3.81321E+01 -5.98129E+01 +1.35449E+01 -6.00368E+01 -1.39582E+01
 -4.82794E+01 -3.89657E+01 -2.67581E+01 -5.65288E+01 +3.85699E-01 -6.31299E+01 +2.78896E+01 -5.73740E+01
 +5.03928E+01 -4.02668E+01 +6.34788E+01 -1.50248E+01 +6.45351E+01 +1.35435E+01 +5.32637E+01 +3.99667E+01
 +3.17417E+01 +5.91687E+01 +4.02223E+00 +6.74497E+01 -2.46474E+01 +6.32001E+01 -4.88376E+01 +4.72096E+01
 -6.39817E+01 +2.25116E+01 -6.72529E+01 -6.20577E+00 -5.81017E+01 -3.35063E+01 -3.83522E+01 -5.42539E+01
 -1.18396E+01 -6.45984E+01 +1.63400E+01 -6.27093E+01 +4.08185E+01 -4.91140E+01 +5.69928E+01 -2.65791E+01
 +6.19072E+01 +4.41104E-01 +5.48112E+01 +2.66805E+01 +3.72852E+01 +4.70882E+01 +1.29132E+01 +5.78066E+01
 -1.34323E+01 +5.69120E+01 -3.65517E+01 +4.47720E+01 -5.19374E+01 +2.39543E+01 -5.66509E+01 -1.29367E+00
 -4.98878E+01 -2.58915E+01 -3.31220E+01 -4.49302E+01 -9.80107E+00 -5.46383E+01 +1.53431E+01 -5.31205E+01
 +3.72345E+01 -4.07242E+01 +5.14573E+01 -1.99641E+01 +5.51277E+01 +4.97924E+00 +4.74629E+01 +2.90877E+01
 +2.99356E+01 +4.74981E+01 +5.98498E+00 +5.64623E+01 -1.96588E+01 +5.40892E+01 -4.19041E+01 +4.07214E+01
 -5.62984E+01 +1.88734E+01 -5.99049E+01 -7.25549E+00 -5.18827E+01 -3.25990E+01 -3.36578E+01 -5.22123E+01
 -8.65216E+00 -6.22375E+01 +1.83785E+01 -6.06585E+01 +4.22659E+01 -4.76973E+01 +5.84320E+01 -2.57749E+01
 +6.37775E+01 +9.55336E-01 +5.72824E+01 +2.74108E+01 +4.02035E+01 +4.85629E+01 +1.58296E+01 +6.04090E+01
 -1.11570E+01 +6.07441E+01 -3.55875E+01 +4.95831E+01 -5.28062E+01 +2.91520E+01 -5.95686E+01 +3.45046E+00
 -5.46628E+01 -2.25274E+01 -3.91355E+01 -4.37628E+01 -1.60793E+01 -5.61833E+01 +9.97543E+00 -5.74467E+01
 +3.39457E+01 -4.73861E+01 +5.11839E+01 -2.80309E+01 +5.83770E+01 -3.20154E+00 +5.41831E+01 +2.22416E+01
 +3.94806E+01 +4.33486E+01 +1.71860E+01 +5.60422E+01 -8.32516E+00 +5.79068E+01 -3.20780E+01 +4.86493E+01
 -4.94710E+01 +3.01446E+01 -5.71707E+01 +6.05851E+00 -5.37558E+01 -1.88776E+01 -3.99843E+01 -3.97957E+01
 -1.86343E+01 -5.26437E+01 +6.04921E+00 -5.49737E+01 +2.91926E+01 -4.64133E+01 +4.62510E+01 -2.87302E+01
 +5.38978E+01 -5.47572E+00 +5.06735E+01 +1.87177E+01 +3.72655E+01 +3.90504E+01 +1.63670E+01 +5.14983E+01
 -7.85664E+00 +5.36022E+01 -3.05897E+01 +4.49484E+01 -4.73138E+01 +2.72474E+01 -5.46958E+01 +3.99554E+00
 -5.12423E+01 -2.02119E+01 -3.75940E+01 -4.05838E+01 -1.64008E+01 -5.30732E+01 +8.19581E+00 -5.51724E+01
 +3.13724E+01 -4.64056E+01 +4.85667E+01 -2.84260E+01 +5.63695E+01 -4.69555E+00 +5.31928E+01 +2.01875E+01
 +3.95816E+01 +4.13831E+01 +1.81120E+01 +5.47511E+01 -7.10808E+00 +5.76571E+01 -3.12338E+01 +4.94844E+01
 -4.96227E+01 +3.17553E+01 -5.87329E+01 +7.83565E+00 -5.68077E+01 -1.77169E+01 -4.42121E+01 -4.00350E+01
 -2.33583E+01 -5.48818E+01 +1.76506E+00 -5.94666E+01 +2.63684E+01 -5.29786E+01 +4.57880E+01 -3.67345E+01
 +5.63859E+01 -1.39148E+01 +5.62464E+01 +1.10613E+01 +4.55366E+01 +3.33971E+01 +2.64601E+01 +4.88490E+01
 +2.81617E+00 +5.45455E+01 -2.07483E+01 +4.95342E+01 -3.96485E+01 +3.49540E+01 -5.02539E+01 +1.37979E+01
 -5.05900E+01 -9.68304E+00 -4.07130E+01 -3.08188E+01 -2.26863E+01 -4.54368E+01 -1.65113E-01 -5.06766E+01
 +2.23288E+01 -4.55448E+01 +4.02989E+01 -3.11019E+01 +5.01579E+01 -1.02462E+01 +4.99297E+01 +1.28615E+01
 +3.96346E+01 +3.36190E+01 +2.12819E+01 +4.78884E+01 -1.52747E+00 +5.28090E+01 -2.43095E+01 +4.73580E+01
 -4.25771E+01 +3.25509E+01 -5.27206E+01 +1.12422E+01 -5.27143E+01 -1.24333E+01 -4.25139E+01 -3.38696E+01
