 Created: 16-Jan-2021
 $NMID
 ID='D:\BASISSIMULATI'
 FMTDAT='(8E13.5)'
 VOLUME=   1.00000E+00
 TRAMP=   1.00000E+00
 $END
 +1.04120E+02 +1.10077E+01 +8.45957E+01 +3.72781E+01 +3.66827E+01 +5.67258E+01 -1.31700E+01 +6.52568E+01
 -4.05395E+01 +5.71989E+01 -3.84068E+01 +3.20738E+01 -1.79936E+01 +1.11430E-01 +3.09853E+00 -2.15446E+01
 +1.36481E+01 -2.08013E+01 +1.26124E+01 -4.86041E-01 +4.32358E+00 +2.33359E+01 -7.15932E+00 +3.36405E+01
 -1.88638E+01 +2.46638E+01 -2.67123E+01 +3.97425E+00 -2.58254E+01 -1.58037E+01 -1.47642E+01 -2.68053E+01
 +1.14777E+00 -2.88877E+01 +1.27160E+01 -2.55635E+01 +1.46793E+01 -1.93905E+01 +1.08453E+01 -1.17798E+01
 +1.06317E+01 -5.41473E+00 +1.96979E+01 -3.99240E+00 +3.39017E+01 -7.94410E+00 +4.29210E+01 -1.11883E+01
 +4.00944E+01 -4.56679E+00 +2.85212E+01 +1.53378E+01 +1.72626E+01 +4.04470E+01 +1.17891E+01 +5.56667E+01
 +8.80969E+00 +5.11213E+01 +9.06904E-01 +3.11580E+01 -1.40923E+01 +1.10914E+01 -2.92199E+01 +4.01118E+00
 -3.44293E+01 +9.71921E+00 -2.65203E+01 +1.60816E+01 -1.25925E+01 +1.12560E+01 -3.33845E+00 -4.99984E+00
 -3.02292E+00 -2.14057E+01 -6.36484E+00 -2.58326E+01 -5.23767E+00 -1.59660E+01 +2.11772E+00 -3.65067E-01
 +9.11314E+00 +9.71848E+00 +8.05948E+00 +9.04389E+00 -1.03705E+00 +6.91967E-02 -9.32057E+00 -1.16798E+01
 -6.80930E+00 -2.19913E+01 +8.66460E+00 -2.78275E+01 +2.96959E+01 -2.51440E+01 +4.55107E+01 -9.93073E+00
 +4.93901E+01 +1.67855E+01 +4.07895E+01 +4.55427E+01 +2.24010E+01 +6.23437E+01 -2.42022E+00 +5.83918E+01
 -2.85512E+01 +3.72497E+01 -4.72867E+01 +1.22736E+01 -4.91275E+01 -3.85345E+00 -3.13423E+01 -7.98601E+00
 -3.37450E+00 -5.98644E+00 +1.71835E+01 -4.50424E+00 +1.70265E+01 -4.21485E+00 -2.09950E+00 -1.34696E+00
 -2.44035E+01 +5.12314E+00 -3.27611E+01 +9.57358E+00 -2.22035E+01 +4.43709E+00 -2.44446E+00 -1.09711E+01
 +1.20343E+01 -2.72449E+01 +1.44909E+01 -3.18430E+01 +9.68659E+00 -2.02383E+01 +6.84406E+00 -4.50234E-01
 +1.00563E+01 +1.37381E+01 +1.56386E+01 +1.46008E+01 +1.77140E+01 +6.30215E+00 +1.48723E+01 -1.59344E-01
 +1.06877E+01 +2.72492E+00 +8.43890E+00 +1.33207E+01 +6.78943E+00 +2.41480E+01 +1.56149E+00 +2.93234E+01
 -8.62149E+00 +2.82904E+01 -1.96119E+01 +2.33380E+01 -2.53654E+01 +1.54940E+01 -2.39917E+01 +4.29765E+00
 -1.93703E+01 -8.74034E+00 -1.64031E+01 -1.83531E+01 -1.52809E+01 -1.90958E+01 -1.15028E+01 -1.12367E+01
 -1.99052E+00 -2.07798E+00 +9.55299E+00 +7.36120E-02 +1.46975E+01 -6.04318E+00 +8.54434E+00 -1.30232E+01
 -4.23191E+00 -1.20750E+01 -1.24711E+01 -2.33345E+00 -8.48067E+00 +7.44541E+00 +4.78611E+00 +7.18587E+00
 +1.65967E+01 -4.07661E+00 +1.86223E+01 -1.61424E+01 +1.23190E+01 -1.64775E+01 +6.29453E+00 -1.68812E+00
 +6.69324E+00 +1.92486E+01 +1.06511E+01 +3.28214E+01 +9.48914E+00 +3.21447E+01 -1.81317E+00 +2.11340E+01
 -1.86723E+01 +8.91329E+00 -3.04732E+01 +1.15595E+00 -2.99214E+01 -3.04787E+00 -1.89339E+01 -7.05208E+00
 -5.88230E+00 -1.11986E+01 +2.14507E+00 -1.24432E+01 +4.10633E+00 -8.88643E+00 +3.06666E+00 -3.23160E+00
 +1.28553E+00 -6.37897E-01 -1.52696E+00 -3.20412E+00 -5.41684E+00 -7.50653E+00 -7.43517E+00 -8.32362E+00
 -3.52625E+00 -4.56902E+00 +6.31018E+00 -6.42442E-01 +1.58152E+01 -1.33564E+00 +1.70998E+01 -5.81004E+00
 +8.42529E+00 -7.67471E+00 -2.97368E+00 -1.75342E+00 -6.91838E+00 +9.48779E+00 +9.44049E-03 +1.71976E+01
 +1.06932E+01 +1.45891E+01 +1.38780E+01 +4.18007E+00 +4.86186E+00 -3.96697E+00 -9.93305E+00 -1.83913E+00
 -1.90210E+01 +8.46232E+00 -1.65468E+01 +1.63757E+01 -7.15556E+00 +1.28523E+01 -6.18717E-01 -1.04429E+00
 -2.05064E+00 -1.51791E+01 -7.55940E+00 -1.97020E+01 -9.16416E+00 -1.34416E+01 -3.32466E+00 -3.61766E+00
 +5.73692E+00 +1.85442E+00 +1.07662E+01 +1.22999E+00 +8.71997E+00 -1.38282E+00 +2.98551E+00 -1.85771E+00
 -1.00083E+00 -3.88815E-01 -1.29307E+00 +2.82889E-02 -1.50527E-01 -1.71855E+00 +4.18995E-02 -3.06113E+00
 +1.59598E-01 -1.03838E+00 +2.77592E+00 +3.46583E+00 +7.67794E+00 +6.01988E+00 +1.03792E+01 +3.66987E+00
 +6.32758E+00 -9.94290E-01 -3.36663E+00 -1.93005E+00 -1.14550E+01 +3.66532E+00 -1.09594E+01 +1.12626E+01
 -2.40984E+00 +1.26384E+01 +5.86839E+00 +4.25435E+00 +5.50237E+00 -8.20132E+00 -3.52832E+00 -1.43955E+01
 -1.24400E+01 -9.09820E+00 -1.20076E+01 +2.51819E+00 -1.63675E+00 +9.57009E+00 +9.88554E+00 +5.76242E+00
 +1.27504E+01 -4.77102E+00 +5.32436E+00 -1.17304E+01 -4.76764E+00 -8.62135E+00 -8.36275E+00 +1.41387E+00
 -3.32528E+00 +9.25792E+00 +4.33352E+00 +8.75874E+00 +7.15744E+00 +1.91802E+00 +3.43629E+00 -4.22063E+00
 -2.17880E+00 -4.91764E+00 -4.33875E+00 -1.55158E+00 -2.32408E+00 +1.29667E+00 +3.81202E-01 +1.33762E+00
 +8.97301E-01 +3.55477E-01 +1.44441E-01 +8.93616E-01 +8.84869E-01 +2.45225E+00 +3.41422E+00 +2.06842E+00
 +4.51259E+00 -1.40063E+00 +1.30764E+00 -4.73351E+00 -4.42089E+00 -3.26382E+00 -7.03647E+00 +3.46653E+00
 -2.90952E+00 +9.85571E+00 +4.83127E+00 +9.15717E+00 +8.42798E+00 +6.53175E-01 +3.16181E+00 -8.59800E+00
 -7.14976E+00 -1.00356E+01 -1.30124E+01 -2.06963E+00 -8.28740E+00 +7.88983E+00 +3.44553E+00 +1.03327E+01
 +1.18166E+01 +2.88808E+00 +9.33331E+00 -7.30338E+00 -1.60113E+00 -1.05408E+01 -1.11509E+01 -3.97019E+00
 -1.14171E+01 +5.82233E+00 -3.44871E+00 +9.38199E+00 +4.67348E+00 +3.38788E+00 +6.16501E+00 -6.70430E+00
 +1.68526E+00 -1.24195E+01 -2.42802E+00 -1.01343E+01 -1.21501E+00 -3.33458E+00 +4.17623E+00 +2.08654E+00
 +8.51116E+00 +3.75995E+00 +8.26200E+00 +3.84465E+00 +4.65915E+00 +4.98840E+00 +1.22297E+00 +6.62216E+00
 -6.36337E-01 +5.96903E+00 -2.57646E+00 +2.21472E+00 -5.99009E+00 -1.57843E+00 -8.90039E+00 -1.56488E+00
 -7.46917E+00 +2.13541E+00 -9.06009E-01 +4.79604E+00 +6.02934E+00 +1.97134E+00 +6.72587E+00 -5.11727E+00
 -4.44778E-01 -9.93124E+00 -9.41135E+00 -7.07983E+00 -1.14823E+01 +1.57557E+00 -3.81642E+00 +7.91550E+00
 +7.21808E+00 +5.28684E+00 +1.16678E+01 -4.63805E+00 +5.48216E+00 -1.30450E+01 -5.41014E+00 -1.23870E+01
 -1.05538E+01 -3.73719E+00 -4.68738E+00 +4.32494E+00 +7.65593E+00 +4.24727E+00 +1.68066E+01 -3.04512E+00
 +1.68743E+01 -9.13256E+00 +1.01553E+01 -6.37513E+00 +3.39046E+00 +4.78009E+00 +5.66175E-01 +1.63827E+01
 -1.40153E-01 +2.03240E+01 -2.75817E+00 +1.49694E+01 -7.97119E+00 +5.14588E+00 -1.19520E+01 -3.27426E+00
 -1.06371E+01 -7.97742E+00 -4.39952E+00 -9.84512E+00 +2.14126E+00 -9.56453E+00 +4.81975E+00 -6.20144E+00
 +3.78196E+00 +4.34928E-01 +2.31563E+00 +7.08947E+00 +2.34667E+00 +8.42365E+00 +2.12319E+00 +2.10289E+00
 -1.02103E+00 -7.75429E+00 -6.07873E+00 -1.33192E+01 -7.79761E+00 -1.01690E+01 -1.73127E+00 -1.77276E+00
 +1.01031E+01 +3.64937E+00 +1.95145E+01 +1.24769E+00 +1.91412E+01 -5.41935E+00 +9.62976E+00 -7.74670E+00
 -4.60290E-01 -7.30438E-01 -2.52117E+00 +1.17141E+01 +3.90737E+00 +2.01670E+01 +1.07116E+01 +1.84989E+01
 +9.10070E+00 +9.34432E+00 -1.84349E+00 +1.02870E+00 -1.42251E+01 -6.29111E-01 -1.86860E+01 +2.67275E+00
 -1.27226E+01 +4.53615E+00 -2.14885E+00 +1.01032E+00 +4.97682E+00 -5.50768E+00 +5.43154E+00 -9.27729E+00
 +2.24319E+00 -7.39147E+00 +1.75369E-01 -2.42793E+00 +8.45314E-01 +8.51959E-01 +2.39733E+00 +6.62029E-01
 +2.97152E+00 -5.42324E-01 +3.15636E+00 +2.78375E-01 +4.52305E+00 +2.73021E+00 +6.55370E+00 +3.39240E+00
 +6.44634E+00 +1.78204E-01 +2.73475E+00 -4.50512E+00 -1.47555E+00 -5.71098E+00 -3.19088E-01 -1.10768E+00
 +8.65650E+00 +6.41267E+00 +2.01509E+01 +1.17759E+01 +2.40276E+01 +1.31718E+01 +1.39095E+01 +1.36940E+01
 -6.35080E+00 +1.69815E+01 -2.48306E+01 +2.15446E+01 -3.08279E+01 +2.05756E+01 -2.29382E+01 +8.59858E+00
 -8.81402E+00 -1.12989E+01 +2.41887E+00 -2.75226E+01 +7.37024E+00 -2.85576E+01 +8.72136E+00 -1.28006E+01
 +9.71670E+00 +9.41939E+00 +9.63183E+00 +2.37043E+01 +5.22834E+00 +2.24123E+01 -3.86693E+00 +9.21321E+00
 -1.24471E+01 -5.58998E+00 -1.33964E+01 -1.36107E+01 -4.41363E+00 -1.30878E+01 +9.12899E+00 -7.10394E+00
 +1.83538E+01 +8.43698E-01 +1.81517E+01 +8.81131E+00 +1.06691E+01 +1.51189E+01 +2.19509E+00 +1.72604E+01
 -2.76289E+00 +1.37056E+01 -4.24837E+00 +6.77943E+00 -4.62243E+00 +2.35244E+00 -4.97333E+00 +5.09056E+00
 -4.61068E+00 +1.34131E+01 -3.67930E+00 +1.97613E+01 -4.74685E+00 +1.69548E+01 -1.03388E+01 +4.98436E+00
 -1.86602E+01 -8.49469E+00 -2.29417E+01 -1.47973E+01 -1.67232E+01 -1.17043E+01 -7.64446E-01 -4.61847E+00
 +1.56128E+01 -5.35858E-01 +2.12962E+01 -1.16311E+00 +1.27680E+01 -2.12148E+00 -2.61107E+00 +1.33725E+00
 -1.28138E+01 +8.45702E+00 -1.13183E+01 +1.32827E+01 -1.96260E+00 +1.08104E+01 +5.62204E+00 +2.44166E+00
 +5.18145E+00 -5.02746E+00 -1.12494E+00 -5.82561E+00 -5.94406E+00 -3.83951E-01 -4.22775E+00 +5.89930E+00
 +2.44103E+00 +8.65286E+00 +8.10522E+00 +8.76709E+00 +7.97335E+00 +1.05050E+01 +1.54995E+00 +1.58056E+01
 -8.64834E+00 +2.11092E+01 -1.98290E+01 +2.02237E+01 -2.95037E+01 +1.03112E+01 -3.41473E+01 -5.08325E+00
 -2.93982E+01 -1.87628E+01 -1.36228E+01 -2.52589E+01 +8.14597E+00 -2.35918E+01 +2.50173E+01 -1.56974E+01
 +2.70876E+01 -3.69128E+00 +1.32321E+01 +1.02729E+01 -7.31504E+00 +2.19483E+01 -2.16698E+01 +2.48549E+01
 -2.27496E+01 +1.45714E+01 -1.33479E+01 -5.63072E+00 -1.89074E+00 -2.41597E+01 +5.29608E+00 -2.82355E+01
 +7.76016E+00 -1.39087E+01 +8.14642E+00 +9.85091E+00 +7.22922E+00 +2.73902E+01 +2.83111E+00 +2.81891E+01
 -6.31477E+00 +1.43372E+01 -1.67201E+01 -2.36739E+00 -2.15824E+01 -1.04905E+01 -1.69544E+01 -7.17423E+00
 -6.44959E+00 +1.80547E+00 +8.96137E-01 +8.47333E+00 -1.71318E+00 +8.74868E+00 -1.26817E+01 +3.39216E+00
 -2.31961E+01 -4.95720E+00 -2.45876E+01 -1.41027E+01 -1.50784E+01 -2.17684E+01 -2.38843E-01 -2.44708E+01
 +1.21955E+01 -1.89751E+01 +1.76436E+01 -5.90070E+00 +1.58078E+01 +8.64336E+00 +8.41984E+00 +1.64589E+01
 -2.48906E+00 +1.35568E+01 -1.38954E+01 +3.51687E+00 -2.09063E+01 -5.67297E+00 -1.88150E+01 -8.54507E+00
 -7.47475E+00 -6.22862E+00 +6.58596E+00 -3.89201E+00 +1.39117E+01 -4.53753E+00 +9.59381E+00 -5.79296E+00
 -2.27025E+00 -3.02118E+00 -1.19242E+01 +4.74319E+00 -1.26176E+01 +1.25980E+01 -6.61586E+00 +1.39371E+01
 -2.72714E+00 +6.79615E+00 -7.55234E+00 -4.20689E+00 -1.87619E+01 -1.23595E+01 -2.67842E+01 -1.50785E+01
 -2.32445E+01 -1.54267E+01 -8.25344E+00 -1.75463E+01 +9.85689E+00 -2.11234E+01 +2.13954E+01 -2.10392E+01
