 Created: 16-Jan-2021
 $NMID
 ID='D:\BASISSIMULATI'
 FMTDAT='(8E13.5)'
 VOLUME=   1.00000E+00
 TRAMP=   1.00000E+00
 $END
 +9.44797E+01 +9.44304E+00 +7.40477E+01 +3.87075E+01 +2.30770E+01 +5.57833E+01 -2.99108E+01 +5.52376E+01
 -5.77475E+01 +3.67794E+01 -5.15239E+01 +7.43089E+00 -2.31130E+01 -1.95948E+01 +6.55667E+00 -3.14993E+01
 +2.25893E+01 -2.45387E+01 +2.31512E+01 -7.32800E+00 +1.56961E+01 +5.47545E+00 +8.61309E+00 +5.00578E+00
 +6.06429E+00 -4.44481E+00 +8.25662E+00 -9.47118E+00 +1.36887E+01 +5.28023E-02 +1.96988E+01 +2.11746E+01
 +2.18042E+01 +3.96325E+01 +1.50438E+01 +4.17919E+01 -1.75937E+00 +2.60947E+01 -2.25199E+01 +3.91562E+00
 -3.59511E+01 -1.04968E+01 -3.32239E+01 -1.15461E+01 -1.52098E+01 -5.11332E+00 +7.51073E+00 -1.11183E+00
 +2.25653E+01 -3.60570E+00 +2.48732E+01 -7.77132E+00 +1.88420E+01 -5.71635E+00 +1.21533E+01 +5.25131E+00
 +7.71171E+00 +1.98678E+01 +1.91649E+00 +2.95570E+01 -9.24222E+00 +2.92903E+01 -2.30299E+01 +2.03163E+01
 -2.99701E+01 +7.48412E+00 -2.20975E+01 -4.76597E+00 -1.82939E+00 -1.35664E+01 +1.76714E+01 -1.62636E+01
 +2.21723E+01 -1.02710E+01 +8.04426E+00 +3.95757E+00 -1.44045E+01 +1.98816E+01 -2.89766E+01 +2.67673E+01
 -2.60334E+01 +1.73211E+01 -8.90203E+00 -4.78529E+00 +1.02530E+01 -2.51938E+01 +2.02924E+01 -2.86395E+01
 +1.79447E+01 -1.10417E+01 +7.16355E+00 +1.64416E+01 -6.07676E+00 +3.54577E+01 -1.75638E+01 +3.42264E+01
 -2.46660E+01 +1.56437E+01 -2.48798E+01 -6.54830E+00 -1.67798E+01 -1.93267E+01 -3.02408E+00 -1.93479E+01
 +8.86217E+00 -1.24587E+01 +1.09122E+01 -6.09522E+00 +1.63659E+00 -2.78581E+00 -1.12418E+01 -3.91222E-01
 -1.61449E+01 +2.88546E+00 -7.42735E+00 +5.25634E+00 +9.05799E+00 +3.59961E+00 +2.01941E+01 -1.73192E+00
 +1.64227E+01 -5.61710E+00 -3.04387E-01 -2.69352E+00 -1.84482E+01 +6.57857E+00 -2.66802E+01 +1.48648E+01
 -2.25446E+01 +1.37688E+01 -1.25533E+01 +1.38879E+00 -4.66902E+00 -1.55465E+01 -1.06298E+00 -2.70370E+01
 +2.06812E+00 -2.75844E+01 +8.40862E+00 -1.92693E+01 +1.61612E+01 -8.02327E+00 +1.91773E+01 +2.25285E+00
 +1.32731E+01 +1.14912E+01 +9.82209E-01 +1.99776E+01 -1.02843E+01 +2.44938E+01 -1.48043E+01 +1.95357E+01
 -1.31394E+01 +3.32152E+00 -1.02622E+01 -1.76569E+01 -9.52481E+00 -3.13697E+01 -9.03726E+00 -2.91957E+01
 -4.31400E+00 -1.33615E+01 +5.74066E+00 +4.29099E+00 +1.61331E+01 +1.16958E+01 +1.96657E+01 +6.02655E+00
 +1.37621E+01 -4.97776E+00 +3.26876E+00 -1.05447E+01 -3.85246E+00 -6.06296E+00 -3.84001E+00 +4.14618E+00
 -2.16111E-01 +1.19827E+01 +3.90423E-01 +1.28266E+01 -4.61211E+00 +8.04451E+00 -1.09431E+01 +1.53155E+00
 -1.17815E+01 -4.83314E+00 -4.81053E+00 -1.16380E+01 +5.23005E+00 -1.84375E+01 +1.10748E+01 -2.12935E+01
 +9.90051E+00 -1.53336E+01 +5.63000E+00 -4.38536E-01 +4.30278E+00 +1.61108E+01 +7.39707E+00 +2.39486E+01
 +1.01080E+01 +1.79208E+01 +6.48482E+00 +2.82370E+00 -3.78753E+00 -1.02105E+01 -1.40175E+01 -1.27794E+01
 -1.62326E+01 -5.64398E+00 -8.53530E+00 +3.06774E+00 +3.08510E+00 +5.73347E+00 +1.02043E+01 +1.58227E+00
 +9.30643E+00 -4.05186E+00 +4.01611E+00 -5.92075E+00 +5.34305E-01 -3.79386E+00 +1.32951E+00 -1.40432E+00
 +3.48203E+00 -1.28784E+00 +2.88761E+00 -1.61226E+00 -6.41971E-01 +1.38090E+00 -3.06833E+00 +8.08091E+00
 -9.36677E-01 +1.35187E+01 +4.05850E+00 +1.15361E+01 +6.06579E+00 +1.30958E+00 +1.08688E+00 -1.05616E+01
 -8.10277E+00 -1.51588E+01 -1.35728E+01 -9.11074E+00 -9.39348E+00 +2.25260E+00 +2.44583E+00 +9.61016E+00
 +1.32593E+01 +7.84931E+00 +1.51162E+01 +8.91630E-02 +7.57340E+00 -5.96755E+00 -2.51776E+00 -5.43201E+00
 -7.59515E+00 -1.46563E-01 -5.81852E+00 +4.21488E+00 -1.41524E+00 +4.27991E+00 +6.46888E-01 +1.86618E+00
 -2.78545E-01 +9.98226E-01 -8.46208E-01 +2.76985E+00 +1.45697E+00 +3.91856E+00 +4.68728E+00 +7.70491E-01
 +4.27273E+00 -5.80122E+00 -1.52675E+00 -1.01299E+01 -8.56662E+00 -7.08679E+00 -9.99039E+00 +2.22318E+00
 -2.94660E+00 +1.04838E+01 +7.87258E+00 +1.04863E+01 +1.38184E+01 +1.90590E+00 +9.95273E+00 -8.08010E+00
 -4.47938E-01 -1.11223E+01 -8.88557E+00 -5.05758E+00 -9.26104E+00 +4.57046E+00 -2.88834E+00 +9.97352E+00
 +3.58546E+00 +8.04997E+00 +4.84764E+00 +2.23431E+00 +1.44863E+00 -1.90732E+00 -1.91733E+00 -2.32593E+00
 -1.95690E+00 -1.60382E+00 -4.59263E-02 -2.90439E+00 +7.05495E-02 -5.63843E+00 -2.71187E+00 -5.83634E+00
 -4.93757E+00 -9.21112E-01 -2.19338E+00 +6.42682E+00 +5.44760E+00 +9.93948E+00 +1.21678E+01 +5.80264E+00
 +1.12956E+01 -2.97808E+00 +1.88658E+00 -8.67771E+00 -9.59849E+00 -5.85689E+00 -1.45667E+01 +3.37105E+00
 -9.76221E+00 +1.10200E+01 +8.01373E-02 +1.04027E+01 +6.80621E+00 +2.02804E+00 +6.13329E+00 -7.23633E+00
 +7.65006E-01 -1.06228E+01 -3.20008E+00 -7.16223E+00 -2.49564E+00 -1.40510E+00 +7.42440E-01 +1.86808E+00
 +2.19326E+00 +2.15735E+00 +4.38605E-01 +2.51016E+00 -1.66936E+00 +4.90493E+00 -6.86310E-01 +7.22529E+00
 +2.93856E+00 +5.41364E+00 +4.74562E+00 -1.42042E+00 +9.89653E-01 -8.67780E+00 -6.70311E+00 -9.84129E+00
 -1.19582E+01 -2.85771E+00 -9.47767E+00 +7.07397E+00 -4.67037E-01 +1.15390E+01 +7.91158E+00 +6.32619E+00
 +8.88442E+00 -4.70942E+00 +2.24362E+00 -1.30134E+01 -5.57825E+00 -1.27386E+01 -7.57590E+00 -5.29347E+00
 -2.50138E+00 +2.85763E+00 +4.51034E+00 +6.44850E+00 +7.25743E+00 +5.46140E+00 +4.22741E+00 +3.49723E+00
 -7.75272E-01 +2.97954E+00 -3.24597E+00 +2.65699E+00 -2.68212E+00 -8.36465E-02 -2.45716E+00 -5.07812E+00
 -5.27309E+00 -8.48774E+00 -9.34195E+00 -6.62963E+00 -9.65822E+00 -5.89033E-01 -3.26419E+00 +3.70593E+00
 +6.97894E+00 +8.43463E-01 +1.42810E+01 -8.21207E+00 +1.38951E+01 -1.58230E+01 +7.33130E+00 -1.39388E+01
 +6.22678E-01 -1.46677E+00 -1.59898E+00 +1.40956E+01 -2.75363E-01 +2.24417E+01 -2.41622E-01 +1.85087E+01
 -4.57762E+00 +5.75760E+00 -1.08863E+01 -7.66762E+00 -1.33567E+01 -1.57006E+01 -8.50663E+00 -1.77546E+01
 +1.26104E+00 -1.65259E+01 +9.87760E+00 -1.36604E+01 +1.32579E+01 -8.29401E+00 +1.25723E+01 +3.34410E-01
 +1.19014E+01 +9.81335E+00 +1.29533E+01 +1.52055E+01 +1.26506E+01 +1.33502E+01 +6.42223E+00 +6.36642E+00
 -6.01898E+00 +2.40382E-01 -1.85332E+01 -6.61464E-01 -2.27980E+01 +2.15483E+00 -1.53338E+01 +2.76527E+00
 -7.30689E-01 -3.10611E+00 +1.20468E+01 -1.32588E+01 +1.68772E+01 -2.03018E+01 +1.46389E+01 -1.80376E+01
 +1.08912E+01 -6.93267E+00 +9.90283E+00 +6.44565E+00 +1.09744E+01 +1.52500E+01 +1.01841E+01 +1.76590E+01
 +5.09457E+00 +1.67361E+01 -2.65614E+00 +1.56163E+01 -9.20830E+00 +1.34932E+01 -1.22338E+01 +6.81849E+00
 -1.22984E+01 -5.54213E+00 -1.06290E+01 -1.88424E+01 -6.42507E+00 -2.48815E+01 +2.47841E+00 -1.86303E+01
 +1.57108E+01 -2.95357E+00 +2.76295E+01 +1.31353E+01 +2.98669E+01 +2.12517E+01 +1.81422E+01 +1.94429E+01
 -2.65115E+00 +1.22318E+01 -2.05123E+01 +5.68576E+00 -2.48253E+01 +2.60106E+00 -1.44246E+01 +1.92195E+00
 +1.71332E+00 +1.74322E+00 +1.17966E+01 +1.83951E+00 +1.02516E+01 +2.98494E+00 +9.59884E-01 +4.52672E+00
 -7.32990E+00 +3.89196E+00 -8.60260E+00 -6.08203E-01 -3.46622E+00 -6.58788E+00 +3.12441E+00 -8.21144E+00
 +6.93770E+00 -1.24175E+00 +7.19528E+00 +1.19025E+01 +5.22825E+00 +2.25142E+01 +1.79062E+00 +2.21696E+01
 -3.42099E+00 +1.01462E+01 -9.75986E+00 -5.16786E+00 -1.42114E+01 -1.26831E+01 -1.31777E+01 -7.54464E+00
 -6.24817E+00 +5.14562E+00 +2.12659E+00 +1.49424E+01 +5.59041E+00 +1.47271E+01 +1.30716E+00 +5.83963E+00
 -7.25491E+00 -4.27398E+00 -1.31502E+01 -8.95923E+00 -1.19800E+01 -7.26512E+00 -5.45546E+00 -3.03048E+00
 +8.28528E-01 -1.29777E-01 +3.01769E+00 +9.84877E-01 +2.26145E+00 +2.48160E+00 +2.34076E+00 +5.81149E+00
 +4.30634E+00 +9.79277E+00 +4.09877E+00 +1.19046E+01 -3.70899E+00 +1.08251E+01 -1.92628E+01 +7.14115E+00
 -3.46194E+01 +1.71573E+00 -3.84616E+01 -5.74486E+00 -2.50267E+01 -1.55359E+01 +3.58070E-01 -2.51962E+01
 +2.41538E+01 -2.88616E+01 +3.37778E+01 -2.10064E+01 +2.57474E+01 -2.14687E+00 +6.77873E+00 +1.90470E+01
 -1.20173E+01 +3.05185E+01 -2.24698E+01 +2.55557E+01 -2.28681E+01 +8.24872E+00 -1.66023E+01 -9.44419E+00
 -8.74845E+00 -1.70012E+01 -3.59458E+00 -1.32633E+01 -3.56048E+00 -6.31485E+00 -8.31232E+00 -5.69985E+00
 -1.39369E+01 -1.39613E+01 -1.39310E+01 -2.47150E+01 -3.27696E+00 -2.83845E+01 +1.63904E+01 -2.01203E+01
 +3.52079E+01 -3.20651E+00 +4.01737E+01 +1.40646E+01 +2.44434E+01 +2.43636E+01 -6.25125E+00 +2.49493E+01
 -3.59651E+01 +1.70907E+01 -4.87909E+01 +3.59229E+00 -3.93850E+01 -1.24491E+01 -1.56439E+01 -2.71836E+01
 +8.16179E+00 -3.59690E+01 +2.17335E+01 -3.53407E+01 +2.42320E+01 -2.56811E+01 +2.14985E+01 -1.16049E+01
 +1.89183E+01 +1.07418E+00 +1.68763E+01 +9.32962E+00 +1.22610E+01 +1.40321E+01 +3.36905E+00 +1.70919E+01
 -7.21749E+00 +1.77806E+01 -1.44662E+01 +1.25752E+01 -1.51637E+01 -6.41566E-01 -1.02362E+01 -1.81099E+01
 -3.20337E+00 -3.06837E+01 +3.11317E+00 -3.01794E+01 +8.16479E+00 -1.65246E+01 +1.24696E+01 +1.01120E+00
 +1.57318E+01 +1.04660E+01 +1.67969E+01 +6.58554E+00 +1.53643E+01 -4.99266E+00 +1.29687E+01 -1.24773E+01
 +1.14686E+01 -7.64948E+00 +1.04423E+01 +7.52375E+00 +6.81365E+00 +2.25892E+01 -1.88640E+00 +2.67153E+01
 -1.33714E+01 +1.63911E+01 -2.02379E+01 -2.88687E+00 -1.51274E+01 -2.10509E+01 +2.33921E+00 -2.96654E+01
 +2.32549E+01 -2.55818E+01 +3.48144E+01 -1.10601E+01 +2.97155E+01 +7.92694E+00 +1.18986E+01 +2.36816E+01
 -6.33468E+00 +2.92124E+01 -1.35587E+01 +2.15250E+01 -7.26473E+00 +4.36951E+00 +5.52430E+00 -1.24262E+01
 +1.47589E+01 -1.83056E+01 +1.49657E+01 -9.19439E+00 +7.91135E+00 +8.97205E+00 -6.45739E-01 +2.39403E+01
 -6.07576E+00 +2.58430E+01 -7.28775E+00 +1.42073E+01 -5.46922E+00 -2.33076E+00 -1.80141E+00 -1.31332E+01
 +3.10243E+00 -1.33440E+01 +8.11106E+00 -6.04770E+00 +1.10939E+01 +2.14139E+00 +1.03695E+01 +7.23755E+00
 +6.65576E+00 +1.00859E+01 +2.93225E+00 +1.33556E+01 +1.68390E+00 +1.72355E+01 +2.13921E+00 +1.85953E+01
 +7.14595E-01 +1.43964E+01 -5.17060E+00 +5.58244E+00 -1.35041E+01 -2.82393E+00 -1.83062E+01 -5.78359E+00
 -1.46138E+01 -2.58521E+00 -3.45366E+00 +2.70220E+00 +8.12578E+00 +5.01717E+00 +1.25500E+01 +2.66474E+00
 +8.04439E+00 -1.69106E+00 +1.83445E-02 -3.84777E+00 -3.88548E+00 -1.60406E+00 -6.55461E-01 +4.19298E+00
 +5.49372E+00 +1.12731E+01 +7.03064E+00 +1.77334E+01 -1.41191E-01 +2.19802E+01 -1.30975E+01 +2.16458E+01
