 Created: 16-Jan-2021
 $NMID
 ID='D:\BASISSIMULATI'
 FMTDAT='(8E13.5)'
 VOLUME=   1.00000E+00
 TRAMP=   1.00000E+00
 $END
 +3.46372E+01 +1.84590E+00 +1.97811E+01 +2.60316E+01 -7.80889E+00 +2.63873E+01 -2.16470E+01 +3.80929E+00
 -9.02591E+00 -1.86222E+01 +1.67803E+01 -1.83180E+01 +2.96969E+01 +4.84281E+00 +1.63509E+01 +2.85997E+01
 -1.10256E+01 +3.01630E+01 -2.67133E+01 +8.36616E+00 -1.66106E+01 -1.54223E+01 +8.21366E+00 -1.82955E+01
 +2.25735E+01 +1.92724E+00 +1.18165E+01 +2.48229E+01 -1.40355E+01 +2.74766E+01 -3.02818E+01 +6.79415E+00
 -2.16918E+01 -1.76936E+01 +2.81956E+00 -2.30372E+01 +1.91392E+01 -5.17113E+00 +1.15541E+01 +1.73924E+01
 -1.20989E+01 +2.18411E+01 -2.83450E+01 +3.28987E+00 -2.10729E+01 -2.06804E+01 +2.90119E+00 -2.73589E+01
 +2.07282E+01 -1.10017E+01 +1.58932E+01 +1.18284E+01 -5.86497E+00 +1.86425E+01 -2.24497E+01 +2.93253E+00
 -1.70967E+01 -1.97370E+01 +5.41373E+00 -2.71449E+01 +2.36811E+01 -1.20749E+01 +2.06662E+01 +1.08900E+01
 +1.38031E-01 +1.98174E+01 -1.73049E+01 +6.78895E+00 -1.44735E+01 -1.46526E+01 +5.79185E+00 -2.29845E+01
 +2.36866E+01 -9.71534E+00 +2.19112E+01 +1.25711E+01 +2.40402E+00 +2.27339E+01 -1.58439E+01 +1.16882E+01
 -1.54656E+01 -9.00627E+00 +2.49343E+00 -1.87065E+01 +1.99178E+01 -7.85206E+00 +1.94832E+01 +1.29587E+01
 +1.43938E+00 +2.35858E+01 -1.69295E+01 +1.40228E+01 -1.83367E+01 -6.09476E+00 -2.21708E+00 -1.71774E+01
 +1.50527E+01 -8.82712E+00 +1.63408E+01 +1.02799E+01 +3.66842E-01 +2.11697E+01 -1.73612E+01 +1.31464E+01
 -1.98822E+01 -6.00959E+00 -5.21870E+00 -1.79289E+01 +1.20171E+01 -1.16284E+01 +1.51008E+01 +6.03116E+00
 +1.41177E+00 +1.73685E+01 -1.53408E+01 +1.12223E+01 -1.87353E+01 -6.39036E+00 -5.58106E+00 -1.84630E+01
 +1.12847E+01 -1.36791E+01 +1.57593E+01 +2.78433E+00 +4.09991E+00 +1.46430E+01 -1.17608E+01 +1.04995E+01
 -1.61250E+01 -5.26559E+00 -4.79152E+00 -1.71103E+01 +1.11633E+01 -1.36199E+01 +1.64558E+01 +1.57007E+00
 +6.45129E+00 +1.36596E+01 -8.64194E+00 +1.12507E+01 -1.40165E+01 -2.75003E+00 -4.67619E+00 -1.43261E+01
 +1.00112E+01 -1.21809E+01 +1.57477E+01 +1.43516E+00 +7.23354E+00 +1.32694E+01 -6.97667E+00 +1.21527E+01
 -1.31182E+01 -2.99461E-01 -5.63047E+00 -1.16252E+01 +7.73742E+00 -1.08524E+01 +1.38046E+01 +9.76616E-01
 +6.82733E+00 +1.21830E+01 -6.20176E+00 +1.20352E+01 -1.26919E+01 +1.05027E+00 -6.75220E+00 -9.87160E+00
 +5.36843E+00 -1.02807E+01 +1.17102E+01 -2.11022E-01 +6.30497E+00 +1.02212E+01 -5.29716E+00 +1.09055E+01
 -1.17793E+01 +1.45878E+00 -7.14545E+00 -8.76216E+00 +3.71869E+00 -1.00133E+01 +1.01554E+01 -1.53303E+00
 +6.19199E+00 +8.08159E+00 -3.91659E+00 +9.50389E+00 -1.01918E+01 +1.65763E+00 -6.74458E+00 -7.59499E+00
 +2.75002E+00 -9.37415E+00 +8.99194E+00 -2.33863E+00 +6.21694E+00 +6.36617E+00 -2.44618E+00 +8.34059E+00
 -8.39053E+00 +2.03099E+00 -6.03359E+00 -6.11386E+00 +1.98983E+00 -8.20833E+00 +7.76199E+00 -2.54552E+00
 +5.92466E+00 +5.08988E+00 -1.33724E+00 +7.34630E+00 -6.79484E+00 +2.41092E+00 -5.35929E+00 -4.57255E+00
 +1.18714E+00 -6.81530E+00 +6.30083E+00 -2.45667E+00 +5.20726E+00 +3.96393E+00 -6.61106E-01 +6.23613E+00
 -5.43294E+00 +2.50104E+00 -4.68396E+00 -3.27311E+00 +4.56858E-01 -5.47122E+00 +4.78185E+00 -2.28727E+00
 +4.25745E+00 +2.84520E+00 -2.36806E-01 +4.91980E+00 -4.13813E+00 +2.23498E+00 -3.83575E+00 -2.26867E+00
 -9.79518E-03 -4.19974E+00 +3.40356E+00 -2.00703E+00 +3.24791E+00 +1.82283E+00 +5.52505E-02 +3.52080E+00
 -2.84286E+00 +1.73458E+00 -2.77326E+00 -1.45794E+00 -1.72582E-01 -2.90991E+00 +2.20534E+00 -1.51146E+00
 +2.19397E+00 +1.02416E+00 +1.84138E-01 +2.17073E+00 -1.62122E+00 +1.10342E+00 -1.58502E+00 -7.83145E-01
 -1.04215E-01 -1.57790E+00 +1.13683E+00 -7.81857E-01 +1.04770E+00 +4.80744E-01 +8.05247E-02 +9.04106E-01
 -5.65926E-01 +3.51861E-01 -3.62983E-01 -2.74939E-01 +1.33129E-01 -2.64180E-01 +1.73085E-01 +1.21874E-01
 -1.98769E-01 +1.55399E-01 -2.74258E-01 -2.98808E-01 +2.85026E-01 -5.48334E-01 +8.54425E-01 +9.90065E-03
 +5.28408E-01 +9.52434E-01 -6.59919E-01 +1.12672E+00 -1.50060E+00 +4.36276E-03 -8.45364E-01 -1.45512E+00
 +9.44183E-01 -1.61291E+00 +2.07311E+00 +3.40698E-02 +1.10905E+00 +2.01527E+00 -1.30003E+00 +2.18258E+00
 -2.77573E+00 +9.71049E-03 -1.55990E+00 -2.54893E+00 +1.45913E+00 -2.81486E+00 +3.32664E+00 -1.88551E-01
 +1.92114E+00 +2.92373E+00 -1.67394E+00 +3.29810E+00 -3.93682E+00 +2.15993E-01 -2.34706E+00 -3.49527E+00
 +1.86300E+00 -4.05073E+00 +4.61624E+00 -5.63658E-01 +2.95825E+00 +3.75498E+00 -1.77925E+00 +4.55086E+00
 -4.98230E+00 +7.24932E-01 -3.23497E+00 -4.16439E+00 +2.07601E+00 -5.18621E+00 +5.81533E+00 -9.85052E-01
 +4.07383E+00 +4.57169E+00 -1.75858E+00 +5.97144E+00 -6.05091E+00 +1.55702E+00 -4.37903E+00 -4.53956E+00
 +1.90910E+00 -6.22827E+00 +6.70976E+00 -1.51433E+00 +5.06098E+00 +5.24262E+00 -1.77898E+00 +7.37259E+00
 -7.26018E+00 +2.49805E+00 -5.86142E+00 -4.84376E+00 +1.29966E+00 -7.41545E+00 +7.26214E+00 -2.42542E+00
 +5.93636E+00 +5.45172E+00 -1.73957E+00 +8.41772E+00 -8.41808E+00 +3.23035E+00 -7.41945E+00 -5.34483E+00
 +5.52824E-01 -8.96062E+00 +7.80888E+00 -3.88906E+00 +7.07909E+00 +5.06466E+00 -1.20328E+00 +9.02768E+00
 -9.03559E+00 +3.76586E+00 -8.54643E+00 -5.91224E+00 +1.48411E-01 -1.06154E+01 +8.77424E+00 -5.56342E+00
 +8.85472E+00 +4.49259E+00 +1.43647E-01 +9.67932E+00 -8.85857E+00 +4.66070E+00 -9.08020E+00 -5.90338E+00
 +1.15238E-01 -1.16708E+01 +1.00298E+01 -6.71884E+00 +1.09840E+01 +4.43820E+00 +1.89556E+00 +1.10216E+01
 -8.40231E+00 +6.50522E+00 -9.64965E+00 -4.79014E+00 -3.02261E-01 -1.16854E+01 +1.06965E+01 -7.04609E+00
 +1.24988E+01 +5.03272E+00 +3.04968E+00 +1.29869E+01 -8.65504E+00 +9.04178E+00 -1.12022E+01 -3.00080E+00
 -2.00005E+00 -1.12512E+01 +9.94846E+00 -7.31275E+00 +1.26858E+01 +5.32282E+00 +3.06449E+00 +1.44508E+01
 -9.93728E+00 +1.10215E+01 -1.38177E+01 -1.84794E+00 -4.82361E+00 -1.16958E+01 +8.16519E+00 -8.83315E+00
 +1.21559E+01 +4.02777E+00 +2.80012E+00 +1.42032E+01 -1.11328E+01 +1.13670E+01 -1.61492E+01 -2.20529E+00
 -7.25099E+00 -1.36358E+01 +6.98064E+00 -1.19453E+01 +1.26072E+01 +1.09032E+00 +3.98778E+00 +1.24733E+01
 -1.05116E+01 +1.06151E+01 -1.65254E+01 -3.20326E+00 -7.75060E+00 -1.58658E+01 +7.70454E+00 -1.51414E+01
 +1.50695E+01 -1.73954E+00 +7.34897E+00 +1.11922E+01 -7.67636E+00 +1.08328E+01 -1.48988E+01 -2.67567E+00
 -6.66276E+00 -1.61706E+01 +9.57672E+00 -1.62356E+01 +1.83617E+01 -2.40344E+00 +1.13187E+01 +1.21991E+01
 -4.51772E+00 +1.35752E+01 -1.34307E+01 +6.09136E-01 -6.37757E+00 -1.36776E+01 +1.00212E+01 -1.47630E+01
 +1.97887E+01 -9.00540E-01 +1.31804E+01 +1.49908E+01 -3.66142E+00 +1.78335E+01 -1.45561E+01 +5.17090E+00
 -9.06698E+00 -1.02885E+01 +7.18494E+00 -1.30027E+01 +1.78757E+01 +1.49903E-01 +1.19119E+01 +1.66573E+01
 -5.60211E+00 +2.04883E+01 -1.81935E+01 +7.79445E+00 -1.40652E+01 -9.19208E+00 +2.29225E+00 -1.40116E+01
 +1.43710E+01 -2.09473E+00 +9.75627E+00 +1.46453E+01 -7.63248E+00 +1.93624E+01 -2.12256E+01 +6.77873E+00
 -1.79386E+01 -1.15203E+01 -1.02968E+00 -1.82925E+01 +1.29687E+01 -7.48976E+00 +1.03653E+01 +9.73786E+00
 -6.23659E+00 +1.58638E+01 -2.03688E+01 +4.14636E+00 -1.77499E+01 -1.46578E+01 -3.15039E-01 -2.26942E+01
 +1.55530E+01 -1.24476E+01 +1.49688E+01 +5.83366E+00 -8.72737E-01 +1.40771E+01 -1.57836E+01 +4.05768E+00
 -1.43752E+01 -1.44731E+01 +2.83345E+00 -2.32319E+01 +1.98060E+01 -1.32701E+01 +2.05885E+01 +6.19763E+00
 +4.91840E+00 +1.67085E+01 -1.14532E+01 +8.57315E+00 -1.21226E+01 -9.60577E+00 +3.89101E+00 -1.92877E+01
 +2.11001E+01 -1.01250E+01 +2.26318E+01 +9.84150E+00 +6.74073E+00 +2.19481E+01 -1.14139E+01 +1.51089E+01
 -1.45306E+01 -3.32472E+00 -8.08791E-02 -1.47095E+01 +1.71753E+01 -7.33577E+00 +1.95913E+01 +1.20701E+01
 +3.91411E+00 +2.48498E+01 -1.54605E+01 +1.86205E+01 -2.04923E+01 -5.95827E-01 -7.10817E+00 -1.42112E+01
 +1.08010E+01 -9.21654E+00 +1.49468E+01 +9.08622E+00 +5.44206E-01 +2.22377E+01 -1.89563E+01 +1.66603E+01
 -2.49643E+01 -3.03370E+00 -1.19025E+01 -1.84932E+01 +7.32694E+00 -1.55207E+01 +1.39329E+01 +2.06754E+00
 +1.59736E+00 +1.61732E+01 -1.73352E+01 +1.21164E+01 -2.39105E+01 -6.98541E+00 -1.10954E+01 -2.32210E+01
 +9.32195E+00 -2.13545E+01 +1.82170E+01 -3.69616E+00 +7.78854E+00 +1.21610E+01 -1.08417E+01 +1.05354E+01
 -1.85178E+01 -7.01588E+00 -6.79084E+00 -2.32158E+01 +1.38009E+01 -2.19483E+01 +2.40020E+01 -4.00762E+00
 +1.46236E+01 +1.36712E+01 -4.51121E+00 +1.45422E+01 -1.41929E+01 -1.41594E+00 -4.60541E+00 -1.77171E+01
 +1.50880E+01 -1.75071E+01 +2.57064E+01 -4.65637E-02 +1.67871E+01 +1.85602E+01 -3.21082E+00 +2.10805E+01
 -1.51848E+01 +5.94830E+00 -8.03863E+00 -1.12613E+01 +1.05218E+01 -1.30870E+01 +2.15679E+01 +2.75562E+00
 +1.34668E+01 +2.11639E+01 -6.75982E+00 +2.44130E+01 -2.03053E+01 +9.44884E+00 -1.49278E+01 -9.17327E+00
 +3.15514E+00 -1.35331E+01 +1.54129E+01 +1.73649E-01 +9.13870E+00 +1.79822E+01 -1.01551E+01 +2.18527E+01
 -2.41561E+01 +7.29655E+00 -1.96384E+01 -1.22721E+01 -1.32863E+00 -1.86565E+01 +1.27786E+01 -6.60973E+00
 +9.01788E+00 +1.11300E+01 -8.64747E+00 +1.63593E+01 -2.25732E+01 +3.20264E+00 -1.87051E+01 -1.61925E+01
 -2.74983E-01 -2.35563E+01 +1.54114E+01 -1.23116E+01 +1.38854E+01 +6.08939E+00 -2.42628E+00 +1.34264E+01
 -1.66805E+01 +2.50420E+00 -1.41308E+01 -1.58964E+01 +3.49340E+00 -2.36237E+01 +1.97411E+01 -1.28860E+01
 +1.95262E+01 +6.20898E+00 +3.79172E+00 +1.55905E+01 -1.15256E+01 +6.85361E+00 -1.11228E+01 -1.06390E+01
 +4.76380E+00 -1.90124E+01 +2.06866E+01 -9.36351E+00 +2.11284E+01 +9.60836E+00 +5.61135E+00 +2.01687E+01
 -1.09386E+01 +1.28518E+01 -1.28208E+01 -4.40789E+00 +1.16831E+00 -1.41471E+01 +1.66921E+01 -6.45684E+00
 +1.79654E+01 +1.14219E+01 +3.14607E+00 +2.22714E+01 -1.39638E+01 +1.57249E+01 -1.74525E+01 -1.70616E+00
 -4.77281E+00 -1.31063E+01 +1.09170E+01 -7.69269E+00 +1.37089E+01 +8.76142E+00 +4.57657E-01 +1.97035E+01
 -1.62628E+01 +1.40124E+01 -2.05212E+01 -3.22068E+00 -8.54261E+00 -1.57767E+01 +7.74350E+00 -1.21650E+01
 +1.24559E+01 +3.27366E+00 +1.23551E+00 +1.47651E+01 -1.46414E+01 +1.05692E+01 -1.93938E+01 -5.63506E+00
 -8.13161E+00 -1.84722E+01 +8.49615E+00 -1.59239E+01 +1.48017E+01 -9.59722E-01 +5.33897E+00 +1.15217E+01
