 Created: 16-Jan-2021
 $NMID
 ID='D:\BASISSIMULATI'
 FMTDAT='(8E13.5)'
 VOLUME=   1.00000E+00
 TRAMP=   1.00000E+00
 $END
 +5.57678E+01 +5.61951E+00 +5.09983E+01 +2.31728E+01 +4.06363E+01 +3.80815E+01 +2.59570E+01 +4.85820E+01
 +8.77285E+00 +5.34832E+01 -8.81086E+00 +5.23189E+01 -2.46797E+01 +4.54001E+01 -3.69900E+01 +3.37586E+01
 -4.44062E+01 +1.89927E+01 -4.62621E+01 +3.03958E+00 -4.26265E+01 -1.20927E+01 -3.42650E+01 -2.45930E+01
 -2.25085E+01 -3.30780E+01 -9.05026E+00 -3.67538E+01 +4.29635E+00 -3.54905E+01 +1.58439E+01 -2.98012E+01
 +2.42451E+01 -2.07358E+01 +2.86481E+01 -9.70815E+00 +2.87735E+01 +1.71321E+00 +2.49098E+01 +1.20210E+01
 +1.78328E+01 +1.99594E+01 +8.66672E+00 +2.46654E+01 -1.28759E+00 +2.57453E+01 -1.07321E+01 +2.32833E+01
 -1.85317E+01 +1.77865E+01 -2.38370E+01 +1.00826E+01 -2.61559E+01 +1.18850E+00 -2.53736E+01 -7.82768E+00
 -2.17225E+01 -1.59731E+01 -1.57175E+01 -2.24291E+01 -8.06732E+00 -2.66161E+01 +4.19711E-01 -2.82207E+01
 +8.92406E+00 -2.71911E+01 +1.66879E+01 -2.37081E+01 +2.30680E+01 -1.81411E+01 +2.75691E+01 -1.09988E+01
 +2.98606E+01 -2.88069E+00 +2.97821E+01 +5.56589E+00 +2.73424E+01 +1.36842E+01 +2.27149E+01 +2.08428E+01
 +1.62303E+01 +2.64699E+01 +8.36461E+00 +3.00893E+01 -2.80650E-01 +3.13589E+01 -9.01067E+00 +3.01075E+01
 -1.70836E+01 +2.63678E+01 -2.37711E+01 +2.03956E+01 -2.84296E+01 +1.26704E+01 -3.05751E+01 +3.87030E+00
 -2.99501E+01 -5.18065E+00 -2.65738E+01 -1.35903E+01 -2.07629E+01 -2.04953E+01 -1.31162E+01 -2.51653E+01
 -4.46154E+00 -2.71000E+01 +4.23302E+00 -2.61040E+01 +1.19736E+01 -2.23276E+01 +1.78659E+01 -1.62620E+01
 +2.12347E+01 -8.68926E+00 +2.17191E+01 -5.88893E-01 +1.93287E+01 +6.98663E+00 +1.44507E+01 +1.30511E+01
 +7.80393E+00 +1.68188E+01 +3.46352E-01 +1.78145E+01 -6.85379E+00 +1.59421E+01 -1.27640E+01 +1.15014E+01
 -1.65303E+01 +5.14874E+00 -1.75969E+01 -2.19155E+00 -1.57837E+01 -9.45513E+00 -1.13116E+01 -1.55848E+01
 -4.77227E+00 -1.96769E+01 +2.95513E+00 -2.11052E+01 +1.08253E+01 -1.96060E+01 +1.77707E+01 -1.53112E+01
 +2.28461E+01 -8.72713E+00 +2.53545E+01 -6.61969E-01 +2.49358E+01 +7.88638E+00 +2.16084E+01 +1.58654E+01
 +1.57588E+01 +2.23067E+01 +8.08156E+00 +2.64491E+01 -5.18375E-01 +2.78303E+01 -9.04781E+00 +2.63349E+01
 -1.65535E+01 +2.21958E+01 -2.22389E+01 +1.59501E+01 -2.55551E+01 +8.35861E+00 -2.62546E+01 +3.00516E-01
 -2.44043E+01 -7.33931E+00 -2.03577E+01 -1.37773E+01 -1.46940E+01 -1.84178E+01 -8.13340E+00 -2.09105E+01
 -1.44193E+00 -2.11728E+01 +4.66165E+00 -1.93791E+01 +9.58539E+00 -1.59191E+01 +1.29217E+01 -1.13346E+01
 +1.44782E+01 -6.24462E+00 +1.42805E+01 -1.26743E+00 +1.25498E+01 +3.04895E+00 +9.66108E+00 +6.28242E+00
 +6.08704E+00 +8.17287E+00 +2.33764E+00 +8.63725E+00 -1.09930E+00 +7.76406E+00 -3.80977E+00 +5.79029E+00
 -5.49312E+00 +3.06496E+00 -5.98697E+00 +4.08582E-03 -5.27651E+00 -2.95765E+00 -3.48870E+00 -5.41400E+00
 -8.73111E-01 -7.02884E+00 +2.22808E+00 -7.56926E+00 +5.41789E+00 -6.92774E+00 +8.28656E+00 -5.13192E+00
 +1.04544E+01 -2.34137E+00 +1.16117E+01 +1.16827E+00 +1.15520E+01 +5.03254E+00 +1.01959E+01 +8.83462E+00
 +7.60282E+00 +1.21479E+01 +3.96887E+00 +1.45810E+01 -3.89593E-01 +1.58203E+01 -5.06552E+00 +1.56662E+01
 -9.60157E+00 +1.40587E+01 -1.35376E+01 +1.10882E+01 -1.64600E+01 +6.99138E+00 -1.80483E+01 +2.12963E+00
 -1.81120E+01 -3.04639E+00 -1.66149E+01 -8.04366E+00 -1.36820E+01 -1.23796E+01 -9.58897E+00 -1.56350E+01
 -4.73315E+00 -1.75008E+01 +4.08663E-01 -1.78130E+01 +5.33278E+00 -1.65711E+01 +9.56438E+00 -1.39380E+01
 +1.27101E+01 -1.02211E+01 +1.45015E+01 -5.83671E+00 +1.48230E+01 -1.26143E+00 +1.37229E+01 +3.02227E+00
 +1.14045E+01 +6.58121E+00 +8.19907E+00 +9.07988E+00 +4.52504E+00 +1.03167E+01 +8.36778E-01 +1.02438E+01
 -2.42918E+00 +8.96857E+00 -4.90503E+00 +6.73685E+00 -6.33343E+00 +3.89997E+00 -6.59523E+00 +8.70371E-01
 -5.72051E+00 -1.92926E+00 -3.88174E+00 -4.11702E+00 -1.37039E+00 -5.39703E+00 +1.44006E+00 -5.59396E+00
 +4.14017E+00 -4.67282E+00 +6.33418E+00 -2.74219E+00 +7.68764E+00 -4.07038E-02 +7.96754E+00 +3.09140E+00
 +7.07059E+00 +6.25234E+00 +5.03656E+00 +9.02587E+00 +2.04536E+00 +1.10300E+01 -1.60195E+00 +1.19622E+01
 -5.51585E+00 +1.16356E+01 -9.26136E+00 +1.00025E+01 -1.24066E+01 +7.16311E+00 -1.45714E+01 +3.35687E+00
 -1.54714E+01 -1.06098E+00 -1.49512E+01 -5.65648E+00 -1.30048E+01 -9.96325E+00 -9.77883E+00 -1.35331E+01
 -5.55995E+00 -1.59853E+01 -7.45743E-01 -1.70495E+01 +4.19660E+00 -1.65969E+01 +8.78008E+00 -1.46563E+01
 +1.25505E+01 -1.14129E+01 +1.51363E+01 -7.18984E+00 +1.62896E+01 -2.41439E+00 +1.59141E+01 +2.42829E+00
 +1.40764E+01 +6.84781E+00 +1.09992E+01 +1.04025E+01 +7.03683E+00 +1.27483E+01 +2.63590E+00 +1.36769E+01
 -1.71448E+00 +1.31393E+01 -5.53798E+00 +1.12506E+01 -8.42498E+00 +8.27727E+00 -1.00792E+01 +4.60614E+00
 -1.03519E+01 +7.00153E-01 -9.25916E+00 -2.95536E+00 -6.98034E+00 -5.90925E+00 -3.83804E+00 -7.79783E+00
 -2.60780E-01 -8.38858E+00 +3.26690E+00 -7.60923E+00 +6.26173E+00 -5.55865E+00 +8.29994E+00 -2.49796E+00
 +9.06974E+00 +1.17765E+00 +8.41196E+00 +4.98345E+00 +6.34375E+00 +8.40158E+00 +3.06224E+00 +1.09430E+01
 -1.07308E+00 +1.22080E+01 -5.57783E+00 +1.19386E+01 -9.89661E+00 +1.00557E+01 -1.34675E+01 +6.67664E+00
 -1.57900E+01 +2.10981E+00 -1.64890E+01 -3.17387E+00 -1.53661E+01 -8.59033E+00 -1.24321E+01 -1.35078E+01
 -7.91570E+00 -1.73210E+01 -2.24634E+00 -1.95261E+01 +3.98892E+00 -1.97857E+01 +1.01094E+01 -1.79782E+01
 +1.54193E+01 -1.42208E+01 +1.92919E+01 -8.86562E+00 +2.12482E+01 -2.46573E+00 +2.10207E+01 +4.28529E+00
 +1.85934E+01 +1.06335E+01 +1.42111E+01 +1.58553E+01 +8.35636E+00 +1.93475E+01 +1.69544E+00 +2.07048E+01
 -5.00054E+00 +1.97745E+01 -1.09501E+01 +1.66796E+01 -1.54593E+01 +1.18081E+01 -1.80103E+01 +5.76642E+00
 -1.83283E+01 -6.94840E-01 -1.64186E+01 -6.77612E+00 -1.25658E+01 -1.17309E+01 -7.29840E+00 -1.49615E+01
 -1.31936E+00 -1.60965E+01 +4.58537E+00 -1.50369E+01 +9.64967E+00 -1.19680E+01 +1.32267E+01 -7.33210E+00
 +1.48719E+01 -1.76816E+00 +1.43982E+01 +3.97436E+00 +1.18959E+01 +9.13489E+00 +7.71639E+00 +1.30408E+01
 +2.42032E+00 +1.51929E+01 -3.29924E+00 +1.53252E+01 -8.70951E+00 +1.34335E+01 -1.31324E+01 +9.76716E+00
 -1.60285E+01 +4.78966E+00 -1.70588E+01 -8.87715E-01 -1.61186E+01 -6.58742E+00 -1.33390E+01 -1.16513E+01
 -9.05912E+00 -1.55183E+01 -3.77462E+00 -1.77855E+01 +1.92964E+00 -1.82441E+01 +7.45150E+00 -1.68906E+01
 +1.22391E+01 -1.39112E+01 +1.58457E+01 -9.64742E+00 +1.79672E+01 -4.54702E+00 +1.84588E+01 +8.89913E-01
 +1.73341E+01 +6.16353E+00 +1.47480E+01 +1.08193E+01 +1.09694E+01 +1.44820E+01 +6.34917E+00 +1.68778E+01
 +1.28644E+00 +1.78452E+01 -3.80193E+00 +1.73365E+01 -8.50884E+00 +1.54145E+01 -1.24606E+01 +1.22436E+01
 -1.53384E+01 +8.07984E+00 -1.68980E+01 +3.25725E+00 -1.69888E+01 -1.82900E+00 -1.55716E+01 -6.74506E+00
 -1.27323E+01 -1.10474E+01 -8.68820E+00 -1.43189E+01 -3.78475E+00 -1.62096E+01 +1.52327E+00 -1.64793E+01
 +6.70548E+00 -1.50361E+01 +1.12051E+01 -1.19638E+01 +1.44995E+01 -7.53275E+00 +1.61658E+01 -2.18764E+00
 +1.59424E+01 +3.48837E+00 +1.37774E+01 +8.83316E+00 +9.85357E+00 +1.31826E+01 +4.58457E+00 +1.59563E+01
 -1.42112E+00 +1.67398E+01 -7.42679E+00 +1.53513E+01 -1.26574E+01 +1.18819E+01 -1.64012E+01 +6.69930E+00
 -1.81101E+01 +4.14148E-01 -1.74818E+01 -6.19084E+00 -1.45131E+01 -1.22596E+01 -9.51208E+00 -1.69767E+01
 -3.06781E+00 -1.96804E+01 +4.02157E+00 -1.99584E+01 +1.08524E+01 -1.77109E+01 +1.65370E+01 -1.31714E+01
 +2.03253E+01 -6.88096E+00 +2.17090E+01 +3.82357E-01 +2.04930E+01 +7.70724E+00 +1.68229E+01 +1.41731E+01
 +1.11643E+01 +1.89751E+01 +4.23732E+00 +2.15326E+01 -3.08429E+00 +2.15650E+01 -9.89401E+00 +1.91239E+01
 -1.53758E+01 +1.45784E+01 -1.89115E+01 +8.55608E+00 -2.01568E+01 +1.84879E+00 -1.90765E+01 -4.70026E+00
 -1.59347E+01 -1.03126E+01 -1.12424E+01 -1.43757E+01 -5.67472E+00 -1.65153E+01 +3.15901E-02 -1.66301E+01
 +5.18174E+00 -1.48848E+01 +9.21339E+00 -1.16669E+01 +1.17610E+01 -7.51410E+00 +1.26865E+01 -3.02733E+00
 +1.20743E+01 +1.21769E+00 +1.01948E+01 +4.74608E+00 +7.44468E+00 +7.23653E+00 +4.27553E+00 +8.54524E+00
 +1.12380E+00 +8.70037E+00 -1.64763E+00 +7.87155E+00 -3.78778E+00 +6.32220E+00 -5.17241E+00 +4.35511E+00
 -5.79601E+00 +2.26126E+00 -5.74594E+00 +2.80321E-01 -5.16611E+00 -1.42177E+00 -4.21891E+00 -2.75694E+00
 -3.05314E+00 -3.70307E+00 -1.78376E+00 -4.28151E+00 -4.85902E-01 -4.53094E+00 +7.97805E-01 -4.48471E+00
 +2.04045E+00 -4.15716E+00 +3.21064E+00 -3.54197E+00 +4.25525E+00 -2.62237E+00 +5.09076E+00 -1.38999E+00
 +5.60659E+00 +1.33035E-01 +5.68073E+00 +1.87517E+00 +5.20521E+00 +3.70571E+00 +4.11587E+00 +5.43843E+00
 +2.42000E+00 +6.84989E+00 +2.14705E-01 +7.71051E+00 -2.30933E+00 +7.82362E+00 -4.88165E+00 +7.06528E+00
 -7.18293E+00 +5.41704E+00 -8.88902E+00 +2.98458E+00 -9.72141E+00 -3.03204E-03 -9.49551E+00 -3.21497E+00
 -8.15807E+00 -6.25930E+00 -5.80631E+00 -8.73709E+00 -2.68439E+00 -1.03016E+01 +8.43794E-01 -1.07130E+01
 +4.34193E+00 -9.87942E+00 +7.36220E+00 -7.87669E+00 +9.51019E+00 -4.94317E+00 +1.05037E+01 -1.44936E+00
 +1.02158E+01 +2.15319E+00 +8.69497E+00 +5.39628E+00 +6.15925E+00 +7.86256E+00 +2.96449E+00 +9.24568E+00
 -4.47831E-01 +9.39380E+00 -3.61538E+00 +8.32952E+00 -6.12205E+00 +6.24358E+00 -7.65700E+00 +3.46346E+00
 -8.05671E+00 +4.02276E-01 -7.32391E+00 -2.50375E+00 -5.62109E+00 -4.85933E+00 -3.24046E+00 -6.36579E+00
 -5.55692E-01 -6.86009E+00 +2.03631E+00 -6.33187E+00 +4.17430E+00 -4.91690E+00 +5.58316E+00 -2.86912E+00
 +6.10863E+00 -5.16537E-01 +5.73183E+00 +1.79106E+00 +4.56272E+00 +3.73433E+00 +2.81471E+00 +5.06826E+00
 +7.65847E-01 +5.65168E+00 -1.28651E+00 +5.45891E+00 -3.07001E+00 +4.57321E+00 -4.37372E+00 +3.16452E+00
 -5.07185E+00 +1.45660E+00 -5.13227E+00 -3.10440E-01 -4.60999E+00 -1.91584E+00 -3.62852E+00 -3.18655E+00
 -2.35330E+00 -4.01478E+00 -9.62609E-01 -4.36322E+00 +3.79053E-01 -4.25875E+00 +1.54101E+00 -3.77736E+00
 +2.43765E+00 -3.02422E+00 +3.03021E+00 -2.11299E+00 +3.32068E+00 -1.14840E+00 +3.34027E+00 -2.14443E-01
 +3.13577E+00 +6.30503E-01 +2.75720E+00 +1.35211E+00 +2.24900E+00 +1.93393E+00 +1.64630E+00 +2.36906E+00
