 Created: 16-Jan-2021
 $NMID
 ID='D:\BASISSIMULATI'
 FMTDAT='(8E13.5)'
 VOLUME=   1.00000E+00
 TRAMP=   1.00000E+00
 $END
 +6.11265E+01 +5.46107E+00 +4.42342E+01 +3.02404E+01 +5.40138E+00 +4.06908E+01 -3.13308E+01 +3.24500E+01
 -4.39885E+01 +9.75017E+00 -2.68332E+01 -1.61789E+01 +6.91030E+00 -3.19630E+01 +3.50563E+01 -2.88126E+01
 +4.15147E+01 -7.93488E+00 +2.57755E+01 +1.91083E+01 +1.02759E+00 +3.65606E+01 -1.64070E+01 +3.42171E+01
 -1.80022E+01 +1.44560E+01 -6.95194E+00 -8.87190E+00 +6.29269E+00 -1.97566E+01 +1.22907E+01 -1.13620E+01
 +8.43089E+00 +8.94539E+00 -9.26998E-01 +2.50057E+01 -8.68125E+00 +2.40550E+01 -9.82001E+00 +6.60408E+00
 -3.89116E+00 -1.36775E+01 +5.42303E+00 -2.02711E+01 +1.24652E+01 -6.61382E+00 +1.22621E+01 +1.84017E+01
 +3.03438E+00 +3.65802E+01 -1.21125E+01 +3.37241E+01 -2.55361E+01 +1.01724E+01 -2.84425E+01 -1.91876E+01
 -1.64406E+01 -3.52826E+01 +6.05778E+00 -2.79065E+01 +2.65121E+01 -2.21429E+00 +3.11485E+01 +2.53865E+01
 +1.44374E+01 +3.83425E+01 -1.55387E+01 +3.00832E+01 -4.07206E+01 +6.83125E+00 -4.44450E+01 -1.75736E+01
 -2.31276E+01 -3.03806E+01 +1.03216E+01 -2.64866E+01 +3.45336E+01 -9.77684E+00 +3.40404E+01 +1.01358E+01
 +9.88040E+00 +2.30883E+01 -2.12239E+01 +2.29267E+01 -3.85840E+01 +1.00369E+01 -3.17276E+01 -8.78156E+00
 -6.96918E+00 -2.33152E+01 +1.79384E+01 -2.51402E+01 +2.66757E+01 -1.27821E+01 +1.52630E+01 +6.46227E+00
 -6.41439E+00 +2.01878E+01 -2.26557E+01 +1.87075E+01 -2.30559E+01 +2.14727E+00 -8.77498E+00 -1.86111E+01
 +9.61953E+00 -2.87874E+01 +2.01119E+01 -2.01997E+01 +1.69365E+01 +2.15067E+00 +3.21474E+00 +2.27897E+01
 -1.21031E+01 +2.65115E+01 -2.00280E+01 +9.61303E+00 -1.63009E+01 -1.67963E+01 -3.02991E+00 -3.42632E+01
 +1.27870E+01 -3.00830E+01 +2.26976E+01 -6.51125E+00 +2.08501E+01 +2.06804E+01 +7.25604E+00 +3.32573E+01
 -1.13611E+01 +2.31508E+01 -2.43500E+01 -2.32538E+00 -2.30081E+01 -2.60288E+01 -6.53470E+00 -3.28960E+01
 +1.61175E+01 -1.96399E+01 +3.08198E+01 +4.10711E+00 +2.72561E+01 +2.31146E+01 +6.49756E+00 +2.65959E+01
 -1.86242E+01 +1.42019E+01 -3.15162E+01 -5.15950E+00 -2.31844E+01 -1.97549E+01 +1.08730E+00 -2.19754E+01
 +2.49253E+01 -1.18223E+01 +3.20848E+01 +4.15358E+00 +1.78326E+01 +1.69386E+01 -7.73376E+00 +1.97196E+01
 -2.68875E+01 +1.11370E+01 -2.67818E+01 -4.02008E+00 -8.25131E+00 -1.70481E+01 +1.52495E+01 -1.98831E+01
 +2.74618E+01 -1.00040E+01 +2.05967E+01 +7.22678E+00 +1.46962E-01 +2.09675E+01 -1.96411E+01 +2.14720E+01
 -2.58253E+01 +7.00008E+00 -1.51172E+01 -1.39159E+01 +4.80893E+00 -2.72922E+01 +2.11005E+01 -2.30786E+01
 +2.40688E+01 -2.74092E+00 +1.26341E+01 +2.07659E+01 -5.90628E+00 +3.13364E+01 -2.07465E+01 +2.09140E+01
 -2.37008E+01 -4.42228E+00 -1.32949E+01 -2.81418E+01 +4.81174E+00 -3.44216E+01 +2.08551E+01 -1.90007E+01
 +2.59474E+01 +7.93183E+00 +1.68257E+01 +2.87871E+01 -1.94871E+00 +3.04823E+01 -1.98896E+01 +1.28717E+01
 -2.62239E+01 -1.18596E+01 -1.64766E+01 -2.78807E+01 +4.09506E+00 -2.61008E+01 +2.30322E+01 -9.28338E+00
 +2.82988E+01 +1.08930E+01 +1.63320E+01 +2.20281E+01 -5.09678E+00 +1.86246E+01 -2.17030E+01 +4.51526E+00
 -2.23191E+01 -1.06042E+01 -6.72529E+00 -1.75724E+01 +1.40260E+01 -1.29623E+01 +2.52886E+01 -4.07034E-01
 +1.91785E+01 +1.20709E+01 +1.91886E-01 +1.68385E+01 -1.79979E+01 +1.09562E+01 -2.22847E+01 -2.10553E+00
 -9.42379E+00 -1.42411E+01 +1.17205E+01 -1.72786E+01 +2.64368E+01 -8.08106E+00 +2.43672E+01 +8.82466E+00
 +6.49365E+00 +2.31906E+01 -1.57145E+01 +2.50870E+01 -2.80579E+01 +1.16402E+01 -2.27977E+01 -1.00780E+01
 -3.28021E+00 -2.66171E+01 +1.85786E+01 -2.65538E+01 +2.98274E+01 -8.42284E+00 +2.41001E+01 +1.74364E+01
 +4.90539E+00 +3.49514E+01 -1.68478E+01 +3.26720E+01 -2.92006E+01 +1.15141E+01 -2.56754E+01 -1.55227E+01
 -8.59002E+00 -3.16780E+01 +1.23780E+01 -2.72675E+01 +2.55176E+01 -5.76352E+00 +2.35320E+01 +1.88395E+01
 +7.68116E+00 +3.13641E+01 -1.27929E+01 +2.50797E+01 -2.59200E+01 +5.34383E+00 -2.41232E+01 -1.46922E+01
 -8.95018E+00 -2.29413E+01 +9.74476E+00 -1.57722E+01 +1.99840E+01 +5.87460E-01 +1.54314E+01 +1.49036E+01
 -3.93634E-01 +1.83723E+01 -1.64575E+01 +9.79948E+00 -2.17170E+01 -4.37499E+00 -1.27245E+01 -1.46841E+01
 +3.96875E+00 -1.46848E+01 +1.63803E+01 -4.77154E+00 +1.55102E+01 +8.31774E+00 +1.71443E+00 +1.57984E+01
 -1.54524E+01 +1.23293E+01 -2.38333E+01 -5.34716E-01 -1.71064E+01 -1.50282E+01 +7.80174E-01 -2.17725E+01
 +1.81848E+01 -1.56984E+01 +2.35389E+01 +3.26898E-01 +1.30240E+01 +1.66934E+01 -6.91238E+00 +2.27418E+01
 -2.37172E+01 +1.36493E+01 -2.67234E+01 -5.93813E+00 -1.38088E+01 -2.42284E+01 +7.37306E+00 -2.94960E+01
 +2.41608E+01 -1.77272E+01 +2.65749E+01 +4.36862E+00 +1.32525E+01 +2.32378E+01 -7.82250E+00 +2.69821E+01
 -2.41031E+01 +1.30317E+01 -2.58965E+01 -1.00641E+01 -1.20758E+01 -2.79793E+01 +9.24128E+00 -2.96607E+01
 +2.54713E+01 -1.42409E+01 +2.70400E+01 +8.57703E+00 +1.31411E+01 +2.47757E+01 -7.72535E+00 +2.47997E+01
 -2.28709E+01 +9.27852E+00 -2.31651E+01 -1.17378E+01 -8.65176E+00 -2.52838E+01 +1.15144E+01 -2.34772E+01
 +2.48365E+01 -8.06870E+00 +2.33301E+01 +1.10537E+01 +8.46025E+00 +2.22186E+01 -9.98974E+00 +1.91324E+01
 -2.03306E+01 +4.48720E+00 -1.64545E+01 -1.20395E+01 -1.54571E+00 -2.00046E+01 +1.42893E+01 -1.47203E+01
 +2.07725E+01 -4.13737E-02 +1.40893E+01 +1.42715E+01 -8.72835E-01 +1.89141E+01 -1.39824E+01 +1.10657E+01
 -1.66080E+01 -3.80189E+00 -7.21236E+00 -1.55423E+01 +7.76201E+00 -1.60671E+01 +1.81777E+01 -4.78736E+00
 +1.68345E+01 +1.08733E+01 +4.19942E+00 +2.03192E+01 -1.17705E+01 +1.68389E+01 -2.06263E+01 +2.20086E+00
 -1.61404E+01 -1.43091E+01 -5.06519E-01 -2.18473E+01 +1.67158E+01 -1.50914E+01 +2.44274E+01 +2.18277E+00
 +1.70600E+01 +1.93611E+01 -1.57900E+00 +2.56321E+01 -2.03019E+01 +1.67746E+01 -2.73620E+01 -2.16959E+00
 -1.79187E+01 -1.99478E+01 +2.64494E+00 -2.59208E+01 +2.18465E+01 -1.64672E+01 +2.78505E+01 +2.86767E+00
 +1.69422E+01 +2.06896E+01 -4.09909E+00 +2.65151E+01 -2.22978E+01 +1.69647E+01 -2.66800E+01 -2.24505E+00
 -1.50738E+01 -1.96943E+01 +4.81234E+00 -2.50692E+01 +2.05580E+01 -1.53674E+01 +2.29334E+01 +3.25791E+00
 +1.14179E+01 +1.92459E+01 -6.00542E+00 +2.27874E+01 -1.83028E+01 +1.19915E+01 -1.83540E+01 -5.90135E+00
 -7.02777E+00 -1.91775E+01 +7.90328E+00 -1.92861E+01 +1.69572E+01 -6.47107E+00 +1.48176E+01 +1.04076E+01
 +3.34563E+00 +1.98463E+01 -9.86431E+00 +1.54951E+01 -1.62995E+01 +4.75568E-01 -1.17696E+01 -1.47689E+01
 +1.00047E+00 -1.96389E+01 +1.39465E+01 -1.06370E+01 +1.85521E+01 +6.26384E+00 +1.12312E+01 +1.97130E+01
 -4.07181E+00 +2.06608E+01 -1.78978E+01 +8.36565E+00 -2.10147E+01 -9.23665E+00 -1.05032E+01 -2.08527E+01
 +7.78935E+00 -1.91347E+01 +2.24152E+01 -5.18558E+00 +2.35080E+01 +1.24121E+01 +9.46721E+00 +2.30873E+01
 -1.14469E+01 +2.06535E+01 -2.60636E+01 +6.73601E+00 -2.48245E+01 -1.04842E+01 -8.23974E+00 -2.11464E+01
 +1.32109E+01 -1.92793E+01 +2.58519E+01 -6.03677E+00 +2.17742E+01 +1.10155E+01 +3.93384E+00 +2.21125E+01
 -1.60193E+01 +2.07792E+01 -2.55780E+01 +7.64247E+00 -1.94681E+01 -9.67916E+00 -2.61168E+00 -2.08422E+01
 +1.36984E+01 -1.89885E+01 +1.94428E+01 -5.20467E+00 +1.20658E+01 +1.18004E+01 -2.63530E+00 +2.10208E+01
 -1.49434E+01 +1.63369E+01 -1.75932E+01 +8.00523E-01 -9.91055E+00 -1.51446E+01 +2.49413E+00 -2.06382E+01
 +1.16930E+01 -1.19367E+01 +1.22827E+01 +4.81489E+00 +4.29062E+00 +1.77356E+01 -7.17302E+00 +1.75266E+01
 -1.50022E+01 +4.09611E+00 -1.41620E+01 -1.32841E+01 -4.65398E+00 -2.24674E+01 +8.19267E+00 -1.69595E+01
 +1.64880E+01 -4.29766E-01 +1.44107E+01 +1.59098E+01 +2.17839E+00 +2.10688E+01 -1.32942E+01 +1.16609E+01
 -2.20800E+01 -6.10602E+00 -1.75155E+01 -2.08691E+01 -1.13474E+00 -2.36143E+01 +1.74172E+01 -1.31417E+01
 +2.61271E+01 +3.77283E+00 +1.86240E+01 +1.70368E+01 -1.00666E+00 +1.93448E+01 -2.03267E+01 +1.00096E+01
 -2.65983E+01 -5.26317E+00 -1.54394E+01 -1.79256E+01 +6.00475E+00 -2.12060E+01 +2.37758E+01 -1.34830E+01
 +2.65277E+01 +9.96123E-01 +1.30956E+01 +1.42774E+01 -7.02557E+00 +1.88361E+01 -2.04483E+01 +1.18143E+01
 -1.89733E+01 -2.93278E+00 -4.65834E+00 -1.65615E+01 +1.23058E+01 -2.03267E+01 +2.09236E+01 -1.12645E+01
 +1.65600E+01 +5.30447E+00 +3.22822E+00 +1.86663E+01 -9.91238E+00 +1.96656E+01 -1.48361E+01 +7.20152E+00
 -9.36088E+00 -1.04803E+01 +2.33069E+00 -2.10987E+01 +1.29191E+01 -1.68743E+01 +1.63878E+01 -2.56184E-01
 +1.10754E+01 +1.74879E+01 +1.21275E-01 +2.40707E+01 -1.04093E+01 +1.48787E+01 -1.46270E+01 -3.72798E+00
 -9.85434E+00 -1.89209E+01 +1.68484E+00 -2.04340E+01 +1.35629E+01 -7.59666E+00 +1.84121E+01 +1.05538E+01
 +1.24062E+01 +2.18727E+01 -1.70899E+00 +1.94535E+01 -1.54936E+01 +5.84160E+00 -1.98140E+01 -9.42684E+00
 -1.11086E+01 -1.66588E+01 +5.48407E+00 -1.21853E+01 +1.89142E+01 +6.33371E-02 +1.96023E+01 +1.19300E+01
 +6.42089E+00 +1.64466E+01 -1.19576E+01 +1.16677E+01 -2.27851E+01 +1.03431E+00 -1.82430E+01 -9.17092E+00
 -1.23430E+00 -1.33432E+01 +1.64250E+01 -9.25625E+00 +2.22975E+01 +9.64315E-01 +1.21507E+01 +1.17748E+01
 -7.07149E+00 +1.68012E+01 -2.22237E+01 +1.22716E+01 -2.31745E+01 -2.99404E-01 -9.61908E+00 -1.40715E+01
 +9.15645E+00 -2.03370E+01 +2.09732E+01 -1.40312E+01 +1.88784E+01 +2.18212E+00 +5.12044E+00 +1.85693E+01
 -1.11783E+01 +2.41549E+01 -2.03426E+01 +1.42562E+01 -1.78983E+01 -5.60818E+00 -6.35634E+00 -2.27448E+01
 +7.23671E+00 -2.56911E+01 +1.56828E+01 -1.22616E+01 +1.52023E+01 +8.65018E+00 +6.72163E+00 +2.30785E+01
 -5.05111E+00 +2.16536E+01 -1.39475E+01 +6.00479E+00 -1.51912E+01 -1.26796E+01 -7.86716E+00 -2.17559E+01
 +4.15443E+00 -1.59018E+01 +1.38329E+01 -3.00526E-01 +1.49061E+01 +1.36977E+01 +6.13881E+00 +1.68578E+01
 -7.12473E+00 +8.15639E+00 -1.58725E+01 -5.35038E+00 -1.34824E+01 -1.41360E+01 -8.46761E-01 -1.28034E+01
 +1.35036E+01 -3.09367E+00 +1.90259E+01 +8.15045E+00 +1.08760E+01 +1.39095E+01 -6.00351E+00 +1.11789E+01
 -1.98539E+01 +2.07485E+00 -2.03875E+01 -8.03985E+00 -6.44768E+00 -1.36671E+01 +1.27422E+01 -1.17720E+01
 +2.39024E+01 -3.03287E+00 +1.91017E+01 +8.37802E+00 +1.39642E+00 +1.64415E+01 -1.73706E+01 +1.61330E+01
 -2.48985E+01 +6.48991E+00 -1.67874E+01 -7.91632E+00 +9.29223E-01 -1.87386E+01 +1.64651E+01 -1.86582E+01
