 Created: 16-Jan-2021
 $NMID
 ID='D:\BASISSIMULATI'
 FMTDAT='(8E13.5)'
 VOLUME=   1.00000E+00
 TRAMP=   1.00000E+00
 $END
 +1.02575E+02 +7.33521E+00 +7.44219E+01 +6.66031E+01 +1.38849E+01 +8.98839E+01 -4.45572E+01 +6.52294E+01
 -6.83447E+01 +8.38408E+00 -4.57345E+01 -4.69378E+01 +7.94802E+00 -6.91493E+01 +6.01559E+01 -4.70924E+01
 +8.07823E+01 +4.28907E+00 +5.96330E+01 +5.38865E+01 +1.13742E+01 +7.34891E+01 -3.44976E+01 +5.42258E+01
 -5.20079E+01 +1.06498E+01 -3.39631E+01 -2.94206E+01 +4.95085E+00 -4.24873E+01 +3.85105E+01 -2.33505E+01
 +4.57686E+01 +1.28662E+01 +2.37177E+01 +4.13025E+01 -1.18028E+01 +4.34435E+01 -3.69917E+01 +1.84957E+01
 -3.55061E+01 -1.68163E+01 -8.63076E+00 -3.94647E+01 +2.59761E+01 -3.49618E+01 +4.58284E+01 -6.44222E+00
 +3.79629E+01 +2.75352E+01 +7.07978E+00 +4.48312E+01 -2.74564E+01 +3.36563E+01 -4.36925E+01 -7.44976E-02
 -3.06477E+01 -3.63734E+01 +4.96519E+00 -5.33915E+01 +4.28258E+01 -4.06355E+01 +6.12335E+01 -5.18844E+00
 +4.99742E+01 +3.26547E+01 +1.61471E+01 +5.14969E+01 -2.03218E+01 +4.13252E+01 -3.85397E+01 +9.01269E+00
 -2.86999E+01 -2.61599E+01 +2.70229E+00 -4.39956E+01 +3.72484E+01 -3.49387E+01 +5.56199E+01 -5.01019E+00
 +4.85955E+01 +2.84130E+01 +2.16895E+01 +4.70826E+01 -8.89095E+00 +4.22550E+01 -2.61490E+01 +1.89983E+01
 -2.20063E+01 -7.68424E+00 -1.23253E+00 -2.21647E+01 +2.23005E+01 -1.72018E+01 +3.43562E+01 +2.55361E+00
 +2.86380E+01 +2.42261E+01 +9.83217E+00 +3.49220E+01 -1.00419E+01 +2.93389E+01 -1.93629E+01 +1.23169E+01
 -1.38496E+01 -4.85145E+00 +1.39527E+00 -1.17418E+01 +1.56688E+01 -5.11138E+00 +1.96430E+01 +9.56799E+00
 +1.10963E+01 +2.20308E+01 -4.05562E+00 +2.39087E+01 -1.58499E+01 +1.39302E+01 -1.67343E+01 -1.53281E+00
 -6.28481E+00 -1.27410E+01 +8.70915E+00 -1.28531E+01 +1.87094E+01 -2.20198E+00 +1.75289E+01 +1.20524E+01
 +6.19977E+00 +2.05724E+01 -7.78007E+00 +1.77901E+01 -1.52683E+01 +5.39065E+00 -1.12766E+01 -8.82195E+00
 +1.91469E+00 -1.59020E+01 +1.62506E+01 -1.14061E+01 +2.30134E+01 +1.85295E+00 +1.83004E+01 +1.56412E+01
 +5.41820E+00 +2.15286E+01 -7.27960E+00 +1.61821E+01 -1.17075E+01 +3.39721E+00 -5.13849E+00 -8.38216E+00
 +8.13750E+00 -1.14485E+01 +1.96020E+01 -3.69733E+00 +2.19450E+01 +1.00950E+01 +1.36889E+01 +2.13639E+01
 +7.48091E-02 +2.32277E+01 -1.03283E+01 +1.48504E+01 -1.11134E+01 +1.92724E+00 -2.11958E+00 -7.00096E+00
 +1.04923E+01 -6.04230E+00 +1.82171E+01 +4.25542E+00 +1.56944E+01 +1.72470E+01 +4.19355E+00 +2.44578E+01
 -9.15215E+00 +2.10575E+01 -1.59008E+01 +9.03178E+00 -1.17543E+01 -4.00934E+00 +5.88775E-01 -9.67113E+00
 +1.30508E+01 -4.19934E+00 +1.72941E+01 +8.98832E+00 +1.01146E+01 +2.13429E+01 -4.34819E+00 +2.45772E+01
 -1.70692E+01 +1.60234E+01 -1.97969E+01 +5.25618E-01 -1.03726E+01 -1.24273E+01 +5.69097E+00 -1.46162E+01
 +1.84722E+01 -4.36876E+00 +1.97988E+01 +1.21696E+01 +8.47610E+00 +2.46803E+01 -8.74371E+00 +2.50579E+01
 -2.11730E+01 +1.25815E+01 -2.07855E+01 -5.41199E+00 -7.32279E+00 -1.78897E+01 +1.13236E+01 -1.69123E+01
 +2.38077E+01 -2.66549E+00 +2.22914E+01 +1.64441E+01 +7.39042E+00 +2.88004E+01 -1.20119E+01 +2.66916E+01
 -2.40727E+01 +1.11588E+01 -2.12339E+01 -8.46747E+00 -4.95896E+00 -2.01537E+01 +1.50023E+01 -1.65132E+01
 +2.64574E+01 +5.80946E-01 +2.22021E+01 +2.09981E+01 +4.49440E+00 +3.24282E+01 -1.62087E+01 +2.78655E+01
 -2.75384E+01 +9.92663E+00 -2.27186E+01 -1.06682E+01 -4.70792E+00 -2.15641E+01 +1.55723E+01 -1.62616E+01
 +2.58599E+01 +1.94447E+00 +1.99883E+01 +2.19882E+01 +1.59307E+00 +3.17827E+01 -1.81699E+01 +2.55609E+01
 -2.74780E+01 +7.31365E+00 -2.10455E+01 -1.17621E+01 -3.25304E+00 -2.02026E+01 +1.46933E+01 -1.33037E+01
 +2.17775E+01 +4.10051E+00 +1.39886E+01 +2.07965E+01 -3.29613E+00 +2.62821E+01 -1.88198E+01 +1.73445E+01
 -2.26245E+01 +9.78682E-03 -1.23796E+01 -1.43541E+01 +5.13485E+00 -1.63259E+01 +1.83497E+01 -4.51020E+00
 +1.83366E+01 +1.34636E+01 +4.65390E+00 +2.57205E+01 -1.41421E+01 +2.37467E+01 -2.57571E+01 +8.03272E+00
 -2.19795E+01 -1.18897E+01 -4.16130E+00 -2.31960E+01 +1.71856E+01 -1.78357E+01 +2.86177E+01 +2.09908E+00
 +2.20943E+01 +2.51704E+01 +2.82747E-01 +3.72710E+01 -2.45672E+01 +3.02320E+01 -3.76979E+01 +7.10927E+00
 -3.07092E+01 -1.92005E+01 -6.85877E+00 -3.33623E+01 +2.05088E+01 -2.66888E+01 +3.56089E+01 -2.46921E+00
 +2.94640E+01 +2.57231E+01 +5.25398E+00 +4.18308E+01 -2.34451E+01 +3.66420E+01 -4.05231E+01 +1.31319E+01
 -3.66544E+01 -1.53352E+01 -1.45769E+01 -3.28445E+01 +1.27323E+01 -3.01389E+01 +2.98046E+01 -9.76110E+00
 +2.76762E+01 +1.58131E+01 +8.80709E+00 +3.17827E+01 -1.48691E+01 +2.97185E+01 -2.93919E+01 +1.21623E+01
 -2.70972E+01 -9.46644E+00 -1.08063E+01 -2.21602E+01 +8.48530E+00 -1.92250E+01 +1.87717E+01 -3.97713E+00
 +1.44931E+01 +1.28670E+01 -3.21968E-01 +2.02801E+01 -1.50457E+01 +1.39418E+01 -1.95322E+01 -1.21275E+00
 -1.07293E+01 -1.44291E+01 +5.37697E+00 -1.62812E+01 +1.76966E+01 -4.93355E+00 +1.73233E+01 +1.25020E+01
 +3.51774E+00 +2.44245E+01 -1.54785E+01 +2.22359E+01 -2.74265E+01 +6.12474E+00 -2.38337E+01 -1.45980E+01
 -5.61570E+00 -2.69816E+01 +1.69642E+01 -2.24569E+01 +3.02280E+01 -2.44774E+00 +2.53845E+01 +2.20000E+01
 +4.14492E+00 +3.65312E+01 -2.18709E+01 +3.20417E+01 -3.77457E+01 +1.03338E+01 -3.40394E+01 -1.66230E+01
 -1.24965E+01 -3.35129E+01 +1.47752E+01 -3.06014E+01 +3.22500E+01 -9.48466E+00 +2.99907E+01 +1.77722E+01
 +9.40832E+00 +3.56266E+01 -1.76180E+01 +3.40666E+01 -3.57173E+01 +1.43303E+01 -3.49569E+01 -1.19921E+01
 -1.64635E+01 -2.98751E+01 +8.51718E+00 -2.96393E+01 +2.54497E+01 -1.24052E+01 +2.50841E+01 +1.09258E+01
 +8.67220E+00 +2.64098E+01 -1.31800E+01 +2.53825E+01 -2.71715E+01 +9.37537E+00 -2.53486E+01 -1.12189E+01
 -9.66233E+00 -2.37532E+01 +9.60915E+00 -2.10742E+01 +2.04532E+01 -5.67935E+00 +1.65776E+01 +1.21622E+01
 +1.13436E+00 +2.10272E+01 -1.55060E+01 +1.55139E+01 -2.24420E+01 -4.85344E-01 -1.51570E+01 -1.63952E+01
 +1.66475E+00 -2.17523E+01 +1.71592E+01 -1.28877E+01 +2.12170E+01 +4.70846E+00 +1.09586E+01 +1.98297E+01
 -7.33749E+00 +2.26487E+01 -2.20981E+01 +1.10092E+01 -2.37218E+01 -8.06181E+00 -1.07064E+01 -2.26241E+01
 +9.22989E+00 -2.32598E+01 +2.38018E+01 -9.04932E+00 +2.37484E+01 +1.16735E+01 +8.66097E+00 +2.63258E+01
 -1.26016E+01 +2.57975E+01 -2.72302E+01 +1.01279E+01 -2.62838E+01 -1.13950E+01 -1.02033E+01 -2.58242E+01
 +1.13874E+01 -2.44253E+01 +2.54972E+01 -8.00944E+00 +2.36487E+01 +1.35485E+01 +7.00326E+00 +2.73100E+01
 -1.43924E+01 +2.51128E+01 -2.77502E+01 +8.45938E+00 -2.52904E+01 -1.25030E+01 -8.86135E+00 -2.52334E+01
 +1.13463E+01 -2.24093E+01 +2.31266E+01 -6.24505E+00 +1.96896E+01 +1.30637E+01 +3.64598E+00 +2.37173E+01
 -1.48238E+01 +1.95264E+01 -2.43806E+01 +3.53304E+00 -1.94931E+01 -1.41048E+01 -3.67138E+00 -2.25463E+01
 +1.29437E+01 -1.69662E+01 +2.00311E+01 -1.38165E+00 +1.35075E+01 +1.40640E+01 -2.06386E+00 +1.95699E+01
 -1.65040E+01 +1.18136E+01 -2.05118E+01 -4.06444E+00 -1.15221E+01 -1.78103E+01 +4.72936E+00 -2.05851E+01
 +1.78759E+01 -1.05582E+01 +1.94940E+01 +5.93553E+00 +8.44992E+00 +1.83831E+01 -8.33156E+00 +1.87227E+01
 -2.01624E+01 +6.46551E+00 -1.92822E+01 -1.08982E+01 -5.77934E+00 -2.24855E+01 +1.23352E+01 -2.07763E+01
 +2.39825E+01 -6.35540E+00 +2.18308E+01 +1.23123E+01 +6.87693E+00 +2.39744E+01 -1.20425E+01 +2.14534E+01
 -2.35460E+01 +6.07981E+00 -2.05954E+01 -1.30287E+01 -4.78444E+00 -2.44231E+01 +1.45844E+01 -2.12073E+01
 +2.60745E+01 -5.17646E+00 +2.29557E+01 +1.42861E+01 +7.17607E+00 +2.58569E+01 -1.19050E+01 +2.30242E+01
 -2.31968E+01 +7.86514E+00 -2.04877E+01 -1.03784E+01 -5.99106E+00 -2.09732E+01 +1.12399E+01 -1.81094E+01
 +2.09464E+01 -4.17053E+00 +1.78295E+01 +1.20264E+01 +4.49494E+00 +2.08017E+01 -1.05045E+01 +1.74787E+01
 -1.81603E+01 +4.95219E+00 -1.45311E+01 -8.49504E+00 -2.88537E+00 -1.45990E+01 +8.73986E+00 -1.02611E+01
 +1.28659E+01 +7.77789E-01 +7.32157E+00 +1.06704E+01 -3.58474E+00 +1.27214E+01 -1.21185E+01 +5.73218E+00
 -1.23277E+01 -5.34779E+00 -3.98953E+00 -1.28168E+01 +7.26160E+00 -1.14012E+01 +1.36832E+01 -1.82207E+00
 +1.05964E+01 +9.58460E+00 -3.97056E-01 +1.49677E+01 -1.22717E+01 +1.01400E+01 -1.70095E+01 -2.51689E+00
 -1.07952E+01 -1.53398E+01 +3.34965E+00 -2.01109E+01 +1.72248E+01 -1.32686E+01 +2.24229E+01 +1.69012E+00
 +1.55415E+01 +1.61693E+01 +3.89904E-01 +2.16266E+01 -1.42009E+01 +1.47603E+01 -1.96393E+01 -4.53462E-01
 -1.26959E+01 -1.51120E+01 +2.61182E+00 -2.06783E+01 +1.74719E+01 -1.39929E+01 +2.35246E+01 +9.91513E-01
 +1.77096E+01 +1.57127E+01 +3.84230E+00 +2.21316E+01 -9.90528E+00 +1.73579E+01 -1.59644E+01 +5.04819E+00
 -1.17213E+01 -7.11215E+00 -7.06620E-01 -1.21547E+01 +9.92086E+00 -7.85980E+00 +1.38841E+01 +2.29727E+00
 +9.46503E+00 +1.16773E+01 +1.71641E-01 +1.47479E+01 -7.83717E+00 +1.03864E+01 -9.79913E+00 +2.23442E+00
 -5.27234E+00 -3.96068E+00 +1.85028E+00 -4.20243E+00 +6.12803E+00 +1.19906E+00 +4.28419E+00 +7.97270E+00
 -2.58110E+00 +1.08488E+01 -9.70656E+00 +7.18085E+00 -1.18517E+01 -1.14746E+00 -6.88731E+00 -8.80790E+00
 +2.55875E+00 -1.04675E+01 +1.05482E+01 -4.40437E+00 +1.15599E+01 +6.05899E+00 +4.18306E+00 +1.43489E+01
 -7.61624E+00 +1.46766E+01 -1.66148E+01 +5.85218E+00 -1.66898E+01 -7.57437E+00 -6.78585E+00 -1.77384E+01
 +8.03576E+00 -1.81435E+01 +1.93078E+01 -7.80232E+00 +2.01618E+01 +7.78329E+00 +9.65023E+00 +1.96012E+01
 -6.33121E+00 +2.04460E+01 -1.82783E+01 +9.41842E+00 -1.86948E+01 -7.21056E+00 -6.75355E+00 -1.94840E+01
 +1.09075E+01 -1.96582E+01 +2.39177E+01 -7.00280E+00 +2.43366E+01 +1.14909E+01 +1.15625E+01 +2.50923E+01
 -7.07360E+00 +2.57363E+01 -2.05445E+01 +1.30024E+01 -2.07483E+01 -5.43722E+00 -7.51597E+00 -1.83136E+01
 +1.11224E+01 -1.75723E+01 +2.36989E+01 -3.36273E+00 +2.22784E+01 +1.59151E+01 +7.37989E+00 +2.86418E+01
 -1.22343E+01 +2.70749E+01 -2.48617E+01 +1.21499E+01 -2.30443E+01 -7.02628E+00 -8.19601E+00 -1.87497E+01
 +1.02376E+01 -1.59532E+01 +2.06232E+01 -6.05971E-01 +1.63829E+01 +1.74966E+01 +1.13361E-01 +2.68434E+01
 -1.80277E+01 +2.14225E+01 -2.66947E+01 +4.51044E+00 -2.05040E+01 -1.33724E+01 -3.45347E+00 -2.10922E+01
 +1.35780E+01 -1.39565E+01 +1.97106E+01 +3.27237E+00 +1.09966E+01 +1.93469E+01 -6.99429E+00 +2.36574E+01
