 Created: 16-Jan-2021
 $NMID
 ID='D:\BASISSIMULATI'
 FMTDAT='(8E13.5)'
 VOLUME=   1.00000E+00
 TRAMP=   1.00000E+00
 $END
 +6.52330E+01 +1.05357E+01 +5.56520E+01 -1.06157E+01 +2.16028E+01 -1.82079E+01 -1.72279E+01 -3.26634E+00
 -3.92240E+01 +2.65231E+01 -3.45579E+01 +5.16656E+01 -1.09073E+01 +5.39584E+01 +1.24708E+01 +2.90292E+01
 +1.81600E+01 -1.01629E+01 +2.39207E+00 -4.13045E+01 -2.26788E+01 -4.69501E+01 -3.76634E+01 -2.55887E+01
 -2.96097E+01 +7.72648E+00 -1.33807E+00 +3.14987E+01 +2.99304E+01 +3.18473E+01 +4.37954E+01 +1.11592E+01
 +3.02533E+01 -1.42896E+01 -3.45782E+00 -2.59309E+01 -3.73289E+01 -1.57680E+01 -5.14029E+01 +8.19445E+00
 -3.84512E+01 +2.75593E+01 -8.17115E+00 +2.63146E+01 +1.97198E+01 +2.09528E+00 +2.87241E+01 -3.17032E+01
 +1.62417E+01 -5.44220E+01 -5.35737E+00 -5.15880E+01 -1.77799E+01 -2.43637E+01 -9.70488E+00 +1.12452E+01
 +1.52413E+01 +3.48242E+01 +4.07887E+01 +3.46394E+01 +4.89985E+01 +1.47358E+01 +3.24782E+01 -8.50234E+00
 -3.83244E-01 -1.78070E+01 -3.06595E+01 -6.69696E+00 -4.10902E+01 +1.64331E+01 -2.71220E+01 +3.43982E+01
 +4.81141E-01 +3.32184E+01 +2.30486E+01 +1.18529E+01 +2.63682E+01 -1.68742E+01 +9.75206E+00 -3.47300E+01
 -1.41081E+01 -3.01843E+01 -2.81717E+01 -6.06630E+00 -2.27388E+01 +2.22964E+01 -1.92094E+00 +3.71312E+01
 +1.93503E+01 +2.97224E+01 +2.56167E+01 +5.76134E+00 +1.14733E+01 -1.88534E+01 -1.46745E+01 -2.87786E+01
 -3.61281E+01 -1.92811E+01 -3.89189E+01 +1.05697E+00 -2.09494E+01 +1.65986E+01 +6.77628E+00 +1.54892E+01
 +2.75220E+01 -2.27695E+00 +2.97693E+01 -2.49169E+01 +1.44576E+01 -3.68754E+01 -6.16854E+00 -2.93176E+01
 -1.71252E+01 -6.05404E+00 -1.08019E+01 +1.89874E+01 +8.13931E+00 +3.09443E+01 +2.62124E+01 +2.36700E+01
 +3.04162E+01 +3.47167E+00 +1.70609E+01 -1.54040E+01 -5.77798E+00 -2.03643E+01 -2.37065E+01 -8.68418E+00
 -2.56002E+01 +1.10521E+01 -1.08891E+01 +2.50567E+01 +1.02484E+01 +2.37394E+01 +2.37731E+01 +8.06761E+00
 +2.10515E+01 -1.12805E+01 +4.33169E+00 -2.12454E+01 -1.50915E+01 -1.51773E+01 -2.46170E+01 +2.79436E+00
 -1.87049E+01 +2.06350E+01 -2.31246E+00 +2.64692E+01 +1.27494E+01 +1.63868E+01 +1.59323E+01 -3.16631E+00
 +5.02771E+00 -1.98651E+01 -1.24852E+01 -2.37233E+01 -2.45892E+01 -1.35281E+01 -2.28129E+01 +2.70767E+00
 -7.81544E+00 +1.34056E+01 +1.11766E+01 +1.12697E+01 +2.25710E+01 -1.94822E+00 +2.00179E+01 -1.68527E+01
 +6.36740E+00 -2.28878E+01 -8.53581E+00 -1.54617E+01 -1.45898E+01 +1.04443E+00 -8.12003E+00 +1.62922E+01
 +5.91340E+00 +2.08916E+01 +1.75197E+01 +1.25352E+01 +1.85350E+01 -2.67836E+00 +8.08375E+00 -1.44824E+01
 -6.95904E+00 -1.52951E+01 -1.66916E+01 -5.09063E+00 -1.48333E+01 +8.87189E+00 -2.83455E+00 +1.71282E+01
 +1.12202E+01 +1.43878E+01 +1.80684E+01 +2.93757E+00 +1.33676E+01 -9.10804E+00 +3.92161E-01 -1.34093E+01
 -1.23600E+01 -7.02265E+00 -1.69226E+01 +5.70494E+00 -1.10742E+01 +1.61455E+01 +4.26316E-01 +1.71916E+01
 +9.28132E+00 +7.93530E+00 +9.34708E+00 -5.85114E+00 +7.22756E-01 -1.56468E+01 -1.04509E+01 -1.58135E+01
 -1.62430E+01 -7.15912E+00 -1.23034E+01 +3.86174E+00 -7.46685E-01 +9.64925E+00 +1.13170E+01 +6.56390E+00
 +1.65328E+01 -2.77647E+00 +1.21082E+01 -1.14592E+01 +1.49387E+00 -1.30739E+01 -8.09135E+00 -6.06732E+00
 -1.05367E+01 +5.24808E+00 -4.81790E+00 +1.36331E+01 +4.53683E+00 +1.37667E+01 +1.06987E+01 +5.73113E+00
 +9.23498E+00 -5.14856E+00 +1.07135E+00 -1.19196E+01 -8.22190E+00 -1.05898E+01 -1.22595E+01 -2.62477E+00
 -8.15838E+00 +6.24486E+00 +1.55454E+00 +1.00055E+01 +1.06705E+01 +6.40136E+00 +1.34398E+01 -1.66652E+00
 +8.32282E+00 -8.25250E+00 -1.12812E+00 -8.48819E+00 -8.76881E+00 -1.90348E+00 -9.99481E+00 +7.26879E+00
 -4.71337E+00 +1.29562E+01 +2.79208E+00 +1.13081E+01 +6.92849E+00 +3.22415E+00 +4.65804E+00 -6.30440E+00
 -2.45716E+00 -1.15367E+01 -9.37175E+00 -9.72914E+00 -1.10276E+01 -2.79191E+00 -5.80538E+00 +4.18682E+00
 +3.36085E+00 +6.47709E+00 +1.09208E+01 +2.88139E+00 +1.23590E+01 -3.57445E+00 +7.10290E+00 -7.84003E+00
 -1.22371E+00 -6.38386E+00 -7.30887E+00 +3.39557E-01 -7.68552E+00 +8.15434E+00 -2.91351E+00 +1.19516E+01
 +3.00604E+00 +9.10121E+00 +5.51295E+00 +1.19653E+00 +2.66576E+00 -7.01023E+00 -3.54221E+00 -1.07305E+01
 -8.58878E+00 -8.21216E+00 -8.55937E+00 -1.73153E+00 -2.86865E+00 +4.09748E+00 +5.27118E+00 +5.49561E+00
 +1.09359E+01 +2.01116E+00 +1.07128E+01 -3.32033E+00 +4.90182E+00 -6.19813E+00 -2.75046E+00 -4.10206E+00
 -7.56369E+00 +1.92385E+00 -6.97236E+00 +7.94996E+00 -2.07899E+00 +9.82124E+00 +3.27571E+00 +5.98568E+00
 +5.23283E+00 -1.41813E+00 +2.55028E+00 -7.93447E+00 -2.62203E+00 -9.68974E+00 -6.31167E+00 -5.87554E+00
 -5.52932E+00 +8.20103E-01 -3.83475E-01 +6.07614E+00 +5.93090E+00 +6.80930E+00 +9.25181E+00 +3.12386E+00
 +7.23758E+00 -1.92945E+00 +9.45513E-01 -4.56048E+00 -5.84674E+00 -2.87546E+00 -9.10551E+00 +1.85027E+00
 -7.13628E+00 +6.09995E+00 -1.59365E+00 +6.57916E+00 +3.72559E+00 +2.52168E+00 +5.45257E+00 -3.72967E+00
 +2.83939E+00 -8.25352E+00 -1.87265E+00 -8.15212E+00 -5.10317E+00 -3.47473E+00 -4.43788E+00 +2.81658E+00
 -2.76351E-01 +6.79698E+00 +4.47817E+00 +6.12894E+00 +6.44585E+00 +1.51949E+00 +4.11630E+00 -3.85100E+00
 -1.08277E+00 -6.49973E+00 -5.71215E+00 -4.93138E+00 -6.61029E+00 -5.24905E-01 -3.00394E+00 +3.53107E+00
 +2.96657E+00 +4.48293E+00 +7.64168E+00 +1.89251E+00 +8.21140E+00 -2.11253E+00 +4.48399E+00 -4.35936E+00
 -1.09151E+00 -2.86350E+00 -5.11498E+00 +1.75147E+00 -5.47137E+00 +6.60867E+00 -2.61857E+00 +8.46457E+00
 +8.94370E-01 +5.85907E+00 +2.29447E+00 +9.68531E-02 +5.34851E-01 -5.57891E+00 -2.99940E+00 -8.05371E+00
 -5.48795E+00 -6.27521E+00 -4.67259E+00 -1.79784E+00 -4.84745E-01 +2.36933E+00 +4.80371E+00 +3.79223E+00
 +8.01040E+00 +2.14643E+00 +7.09748E+00 -7.40869E-01 +2.48941E+00 -2.31010E+00 -3.20351E+00 -1.13732E+00
 -6.84831E+00 +2.03756E+00 -6.72659E+00 +4.81453E+00 -3.48427E+00 +4.81020E+00 +4.79938E-01 +1.35730E+00
 +2.71410E+00 -3.92864E+00 +2.32730E+00 -8.10148E+00 +4.46393E-01 -8.72437E+00 -7.42500E-01 -5.38563E+00
 +3.37269E-01 +8.88313E-02 +3.44212E+00 +4.83091E+00 +6.58863E+00 +6.71613E+00 +7.36770E+00 +5.56535E+00
 +4.59861E+00 +3.01608E+00 -7.93631E-01 +1.22401E+00 -6.26583E+00 +1.32362E+00 -9.18528E+00 +2.69873E+00
 -8.39559E+00 +3.52874E+00 -4.81386E+00 +2.19468E+00 -7.14076E-01 -1.44726E+00 +1.78026E+00 -5.81015E+00
 +1.97760E+00 -8.52118E+00 +8.52911E-01 -7.93508E+00 +1.46596E-01 -4.20815E+00 +1.00266E+00 +7.72073E-01
 +3.10366E+00 +4.54029E+00 +4.88828E+00 +5.52181E+00 +4.68056E+00 +3.86645E+00 +1.93750E+00 +1.14908E+00
 -2.24863E+00 -7.99131E-01 -5.74299E+00 -1.10711E+00 -6.66474E+00 -3.16970E-01 -4.53204E+00 +1.84318E-01
 -5.15428E-01 -6.90992E-01 +3.33643E+00 -2.83490E+00 +5.35940E+00 -4.92382E+00 +5.19012E+00 -5.28742E+00
 +3.76950E+00 -3.06690E+00 +2.50017E+00 +1.12866E+00 +2.18540E+00 +5.51228E+00 +2.49113E+00 +8.16086E+00
 +2.28022E+00 +8.12063E+00 +5.51815E-01 +5.86635E+00 -2.69509E+00 +2.85508E+00 -6.29029E+00 +5.21476E-01
 -8.54380E+00 -5.89492E-01 -8.28467E+00 -9.89082E-01 -5.59281E+00 -1.65357E+00 -1.74525E+00 -3.14113E+00
 +1.56879E+00 -5.06498E+00 +3.22938E+00 -6.29927E+00 +3.22346E+00 -5.76904E+00 +2.42608E+00 -3.26504E+00
 +1.83640E+00 +2.91611E-01 +1.83578E+00 +3.32857E+00 +1.98645E+00 +4.53055E+00 +1.48396E+00 +3.57754E+00
 -9.38386E-02 +1.24210E+00 -2.30466E+00 -1.18249E+00 -3.99408E+00 -2.70544E+00 -3.99713E+00 -3.15167E+00
 -1.91382E+00 -3.04917E+00 +1.57260E+00 -3.02859E+00 +5.05390E+00 -3.21105E+00 +7.19132E+00 -3.05002E+00
 +7.42006E+00 -1.75018E+00 +6.11736E+00 +1.04181E+00 +4.17059E+00 +4.78619E+00 +2.29346E+00 +8.19095E+00
 +5.92085E-01 +9.88490E+00 -1.32368E+00 +9.18934E+00 -3.79942E+00 +6.48109E+00 -6.60205E+00 +2.91758E+00
 -8.82816E+00 -2.73298E-01 -9.36950E+00 -2.45078E+00 -7.63906E+00 -3.73812E+00 -4.05300E+00 -4.64654E+00
 +8.79401E-02 -5.47096E+00 +3.27026E+00 -5.93704E+00 +4.56641E+00 -5.38209E+00 +4.04748E+00 -3.34709E+00
 +2.56339E+00 -1.34267E-01 +1.07808E+00 +3.11709E+00 +4.37901E-02 +4.95798E+00 -7.49793E-01 +4.45136E+00
 -1.77404E+00 +1.75144E+00 -3.14110E+00 -1.95484E+00 -4.26713E+00 -5.11918E+00 -4.12151E+00 -6.68053E+00
 -1.93336E+00 -6.54097E+00 +2.12977E+00 -5.38307E+00 +6.81714E+00 -4.00316E+00 +1.03479E+01 -2.66855E+00
 +1.13489E+01 -9.76958E-01 +9.58736E+00 +1.67753E+00 +6.02457E+00 +5.38374E+00 +2.16753E+00 +9.30001E+00
 -8.41387E-01 +1.19160E+01 -2.78635E+00 +1.18845E+01 -4.23616E+00 +8.89531E+00 -5.84246E+00 +3.98966E+00
 -7.62059E+00 -9.35513E-01 -8.76898E+00 -4.15083E+00 -8.19573E+00 -4.99976E+00 -5.40004E+00 -4.11158E+00
 -1.06961E+00 -2.80865E+00 +3.08384E+00 -2.13579E+00 +5.21822E+00 -2.18794E+00 +4.43677E+00 -2.19371E+00
 +1.34151E+00 -1.27312E+00 -2.31841E+00 +6.97544E-01 -4.69254E+00 +2.77015E+00 -4.89471E+00 +3.43753E+00
 -3.39937E+00 +1.66290E+00 -1.53263E+00 -2.27801E+00 -4.37101E-01 -6.75754E+00 -2.45012E-01 -9.65069E+00
 -4.29914E-02 -9.56544E+00 +1.34784E+00 -6.65510E+00 +4.33564E+00 -2.47623E+00 +8.02441E+00 +1.01740E+00
 +1.06102E+01 +2.67897E+00 +1.04905E+01 +2.77501E+00 +7.35512E+00 +2.60689E+00 +2.50485E+00 +3.43436E+00
 -1.85964E+00 +5.46675E+00 -3.94384E+00 +7.63986E+00 -3.41493E+00 +8.34950E+00 -1.51316E+00 +6.63930E+00
 -1.50604E-01 +3.00583E+00 -6.05831E-01 -7.73390E-01 -2.69354E+00 -2.71956E+00 -4.96240E+00 -1.93684E+00
 -5.77116E+00 +7.67571E-01 -4.49009E+00 +3.36939E+00 -1.98639E+00 +3.92189E+00 -4.39521E-02 +1.81055E+00
 -1.06665E-01 -1.86553E+00 -2.21384E+00 -5.03974E+00 -4.88203E+00 -6.04916E+00 -6.04892E+00 -4.70836E+00
 -4.46335E+00 -2.36636E+00 -5.82486E-01 -9.19788E-01 +3.64896E+00 -1.46746E+00 +6.01624E+00 -3.53653E+00
 +5.45142E+00 -5.41874E+00 +2.70772E+00 -5.39051E+00 -1.59691E-01 -2.97484E+00 -1.15852E+00 +6.38289E-01
 +3.45161E-01 +3.32982E+00 +3.26543E+00 +3.47016E+00 +5.59811E+00 +1.06185E+00 +5.82441E+00 -2.18265E+00
 +3.94834E+00 -3.90857E+00 +1.45447E+00 -2.63897E+00 +2.16825E-01 +1.25863E+00 +1.11652E+00 +5.80160E+00
 +3.33610E+00 +8.66257E+00 +4.84382E+00 +8.63115E+00 +3.76735E+00 +6.29614E+00 -2.63607E-01 +3.51210E+00
 -5.72567E+00 +2.04084E+00 -1.00544E+01 +2.31569E+00 -1.12000E+01 +3.18430E+00 -8.86977E+00 +2.80649E+00
