 Created: 16-Jan-2021
 $NMID
 ID='D:\BASISSIMULATI'
 FMTDAT='(8E13.5)'
 VOLUME=   1.00000E+00
 TRAMP=   1.00000E+00
 $END
 +1.21706E+02 +1.16955E+01 +1.08288E+02 +5.54683E+01 +7.85515E+01 +8.98756E+01 +3.79533E+01 +1.09050E+02
 -6.11477E+00 +1.09999E+02 -4.57367E+01 +9.31384E+01 -7.39726E+01 +6.21798E+01 -8.61590E+01 +2.33799E+01
 -8.07597E+01 -1.56844E+01 -5.96069E+01 -4.75817E+01 -2.74913E+01 -6.64455E+01 +8.81334E+00 -6.90738E+01
 +4.18953E+01 -5.54976E+01 +6.51560E+01 -2.89142E+01 +7.40813E+01 +4.99512E+00 +6.70890E+01 +3.92234E+01
 +4.57885E+01 +6.68401E+01 +1.46101E+01 +8.23596E+01 -2.01184E+01 +8.28077E+01 -5.14596E+01 +6.82775E+01
 -7.32617E+01 +4.18699E+01 -8.13833E+01 +9.03654E+00 -7.45061E+01 -2.35420E+01 -5.43774E+01 -4.93157E+01
 -2.54349E+01 -6.31897E+01 +6.10551E+00 -6.25521E+01 +3.35186E+01 -4.77986E+01 +5.09387E+01 -2.22521E+01
 +5.45566E+01 +8.50783E+00 +4.34057E+01 +3.77697E+01 +1.95783E+01 +5.90476E+01 -1.21698E+01 +6.73996E+01
 -4.53519E+01 +6.04447E+01 -7.30350E+01 +3.88759E+01 -8.92243E+01 +6.36374E+00 -9.00722E+01 -3.11320E+01
 -7.46740E+01 -6.65102E+01 -4.52892E+01 -9.29122E+01 -6.94254E+00 -1.05069E+02 +3.35194E+01 -1.00352E+02
 +6.87351E+01 -7.93071E+01 +9.22444E+01 -4.55891E+01 +9.97381E+01 -5.27866E+00 +8.98976E+01 +3.42649E+01
 +6.46607E+01 +6.58055E+01 +2.88601E+01 +8.36110E+01 -1.06944E+01 +8.45462E+01 -4.65146E+01 +6.86679E+01
 -7.18602E+01 +3.92052E+01 -8.20184E+01 +1.93301E+00 -7.51903E+01 -3.59420E+01 -5.28131E+01 -6.71633E+01
 -1.92607E+01 -8.58089E+01 +1.90188E+01 -8.84083E+01 +5.47561E+01 -7.45808E+01 +8.12620E+01 -4.70730E+01
 +9.37018E+01 -1.11923E+01 +8.99998E+01 +2.62465E+01 +7.11990E+01 +5.82558E+01 +4.12128E+01 +7.90279E+01
 +6.02079E+00 +8.50420E+01 -2.75278E+01 +7.57123E+01 -5.30666E+01 +5.34547E+01 -6.59538E+01 +2.31643E+01
 -6.41606E+01 -8.78882E+00 -4.86345E+01 -3.58432E+01 -2.30699E+01 -5.25549E+01 +6.86326E+00 -5.56723E+01
 +3.46779E+01 -4.47658E+01 +5.43825E+01 -2.22911E+01 +6.16874E+01 +6.92368E+00 +5.48651E+01 +3.66631E+01
 +3.50963E+01 +6.05841E+01 +6.23228E+00 +7.34984E+01 -2.59765E+01 +7.24242E+01 -5.50321E+01 +5.71968E+01
 -7.49933E+01 +3.05173E+01 -8.16710E+01 -2.56959E+00 -7.34801E+01 -3.56679E+01 -5.17770E+01 -6.22947E+01
 -2.06141E+01 -7.71679E+01 +1.40396E+01 -7.72635E+01 +4.54617E+01 -6.24314E+01 +6.74938E+01 -3.54486E+01
 +7.57548E+01 -1.49658E+00 +6.85119E+01 +3.28355E+01 +4.70364E+01 +6.08279E+01 +1.53745E+01 +7.69382E+01
 -2.04234E+01 +7.78849E+01 -5.34674E+01 +6.32933E+01 -7.73568E+01 +3.57793E+01 -8.74176E+01 +4.52323E-01
 -8.16057E+01 -3.60652E+01 -6.09017E+01 -6.69107E+01 -2.91205E+01 -8.63005E+01 +7.82708E+00 -9.06374E+01
 +4.30742E+01 -7.91937E+01 +7.01197E+01 -5.42372E+01 +8.40730E+01 -2.05790E+01 +8.25812E+01 +1.53686E+01
 +6.62603E+01 +4.68373E+01 +3.85495E+01 +6.80095E+01 +5.01879E+00 +7.51303E+01 -2.77306E+01 +6.72122E+01
 -5.33578E+01 +4.61947E+01 -6.70125E+01 +1.65347E+01 -6.62633E+01 -1.56923E+01 -5.15468E+01 -4.39980E+01
 -2.60506E+01 -6.27590E+01 +4.94154E+00 -6.83141E+01 +3.51118E+01 -5.96675E+01 +5.83656E+01 -3.86628E+01
 +7.00369E+01 -9.59585E+00 +6.78036E+01 +2.16537E+01 +5.21353E+01 +4.87987E+01 +2.61868E+01 +6.63963E+01
 -4.83994E+00 +7.09266E+01 -3.47359E+01 +6.14875E+01 -5.75222E+01 +3.99685E+01 -6.86392E+01 +1.06717E+01
 -6.58516E+01 -2.05443E+01 -4.96934E+01 -4.74284E+01 -2.33644E+01 -6.45775E+01 +7.90117E+00 -6.85089E+01
 +3.78674E+01 -5.83542E+01 +6.05284E+01 -3.60371E+01 +7.12953E+01 -5.90010E+00 +6.79057E+01 +2.61450E+01
 +5.08759E+01 +5.37769E+01 +2.34075E+01 +7.15069E+01 -9.23379E+00 +7.57580E+01 -4.07442E+01 +6.55709E+01
 -6.50131E+01 +4.27971E+01 -7.73161E+01 +1.17426E+01 -7.52384E+01 -2.16690E+01 -5.91463E+01 -5.10488E+01
 -3.21158E+01 -7.07859E+01 +6.67238E-01 -7.71371E+01 +3.29177E+01 -6.89513E+01 +5.84740E+01 -4.78879E+01
 +7.24944E+01 -1.80861E+01 +7.23931E+01 +1.46475E+01 +5.83333E+01 +4.39737E+01 +3.31837E+01 +6.42563E+01
 +1.94648E+00 +7.16553E+01 -2.92277E+01 +6.48662E+01 -5.42458E+01 +4.53603E+01 -6.82617E+01 +1.70830E+01
 -6.86168E+01 -1.43313E+01 -5.53486E+01 -4.26706E+01 -3.11697E+01 -6.23656E+01 -9.21997E-01 -6.95788E+01
 +2.93830E+01 -6.29492E+01 +5.37504E+01 -4.38495E+01 +6.73807E+01 -1.61050E+01 +6.76086E+01 +1.47677E+01
 +5.44208E+01 +4.26512E+01 +3.04510E+01 +6.20332E+01 +4.54611E-01 +6.90896E+01 -2.96317E+01 +6.24332E+01
 -5.38603E+01 +4.33822E+01 -6.74426E+01 +1.56964E+01 -6.76890E+01 -1.51656E+01 -5.45349E+01 -4.31214E+01
 -3.05505E+01 -6.26597E+01 -4.34001E-01 -6.99223E+01 +2.99125E+01 -6.34587E+01 +5.45407E+01 -4.45086E+01
 +6.86214E+01 -1.67562E+01 +6.93883E+01 +1.43938E+01 +5.66765E+01 +4.28757E+01 +3.29504E+01 +6.31489E+01
 +2.81772E+00 +7.12797E+01 -2.78752E+01 +6.57055E+01 -5.31870E+01 +4.75337E+01 -6.82408E+01 +2.03178E+01
 -7.01720E+01 -1.06438E+01 -5.86794E+01 -3.93482E+01 -3.60734E+01 -6.02612E+01 -6.81337E+00 -6.93961E+01
 +2.33734E+01 -6.50842E+01 +4.86172E+01 -4.82892E+01 +6.40546E+01 -2.24046E+01 +6.67750E+01 +7.42395E+00
 +5.63798E+01 +3.53163E+01 +3.50469E+01 +5.58156E+01 +7.08901E+00 +6.49582E+01 -2.19060E+01 +6.10445E+01
 -4.61812E+01 +4.49630E+01 -6.09468E+01 +2.00029E+01 -6.33205E+01 -8.80473E+00 -5.28908E+01 -3.56874E+01
 -3.17899E+01 -5.52743E+01 -4.26624E+00 -6.36578E+01 +2.41606E+01 -5.91642E+01 +4.77936E+01 -4.26823E+01
 +6.18860E+01 -1.74859E+01 +6.35810E+01 +1.14135E+01 +5.24779E+01 +3.82570E+01 +3.07141E+01 +5.76754E+01
 +2.54769E+00 +6.57503E+01 -2.64786E+01 +6.07900E+01 -5.06257E+01 +4.36676E+01 -6.50872E+01 +1.76564E+01
 -6.69353E+01 -1.22072E+01 -5.57002E+01 -4.01064E+01 -3.34681E+01 -6.05805E+01 -4.47942E+00 -6.95933E+01
 +2.56942E+01 -6.53233E+01 +5.12334E+01 -4.85216E+01 +6.72022E+01 -2.23688E+01 +7.05075E+01 +8.14151E+00
 +6.04984E+01 +3.71719E+01 +3.90901E+01 +5.91726E+01 +1.03891E+01 +6.99555E+01 -2.01062E+01 +6.75009E+01
 -4.65738E+01 +5.23408E+01 -6.39936E+01 +2.74459E+01 -6.91149E+01 -2.36074E+00 -6.10737E+01 -3.13461E+01
 -4.15452E+01 -5.39825E+01 -1.44006E+01 -6.60154E+01 +1.50594E+01 -6.52780E+01 +4.11456E+01 -5.20941E+01
 +5.88887E+01 -2.91921E+01 +6.49996E+01 -1.15221E+00 +5.84945E+01 +2.65051E+01 +4.08644E+01 +4.84069E+01
 +1.57584E+01 +6.03786E+01 -1.17540E+01 +6.02518E+01 -3.61938E+01 +4.82717E+01 -5.27572E+01 +2.70269E+01
 -5.82601E+01 +9.17409E-01 -5.17565E+01 -2.47317E+01 -3.47108E+01 -4.47343E+01 -1.06928E+01 -5.50748E+01
 +1.53449E+01 -5.37031E+01 +3.80595E+01 -4.09368E+01 +5.27873E+01 -1.93919E+01 +5.64744E+01 +6.54212E+00
 +4.82879E+01 +3.15798E+01 +2.97851E+01 +5.05946E+01 +4.60844E+00 +5.96430E+01 -2.22340E+01 +5.67552E+01
 -4.53597E+01 +4.23355E+01 -6.00804E+01 +1.90940E+01 -6.33351E+01 -8.47826E+00 -5.43065E+01 -3.49875E+01
 -3.45958E+01 -5.51967E+01 -7.92251E+00 -6.50581E+01 +2.05927E+01 -6.25155E+01 +4.54234E+01 -4.79195E+01
 +6.17144E+01 -2.39721E+01 +6.62326E+01 +4.78712E+00 +5.80026E+01 +3.28559E+01 +3.85049E+01 +5.48329E+01
 +1.13971E+01 +6.64635E+01 -1.81884E+01 +6.54646E+01 -4.46318E+01 +5.19670E+01 -6.29083E+01 +2.84911E+01
 -6.95536E+01 -5.40851E-01 -6.33260E+01 -2.96575E+01 -4.54368E+01 -5.33924E+01 -1.93073E+01 -6.73331E+01
 +1.01011E+01 -6.89609E+01 +3.72498E+01 -5.81214E+01 +5.70916E+01 -3.70347E+01 +6.60370E+01 -9.84596E+00
 +6.26302E+01 +1.81923E+01 +4.78069E+01 +4.17467E+01 +2.46847E+01 +5.64356E+01 -2.06860E+00 +5.96675E+01
 -2.71626E+01 +5.11224E+01 -4.57249E+01 +3.27854E+01 -5.42497E+01 +8.52866E+00 -5.12699E+01 -1.66728E+01
 -3.76212E+01 -3.77343E+01 -1.62523E+01 -5.04684E+01 +8.38281E+00 -5.24055E+01 +3.12232E+01 -4.32694E+01
 +4.76154E+01 -2.50143E+01 +5.42397E+01 -1.41928E+00 +4.97668E+01 +2.26778E+01 +3.51163E+01 +4.23538E+01
 +1.32657E+01 +5.35878E+01 -1.13494E+01 +5.40664E+01 -3.37254E+01 +4.36480E+01 -4.92936E+01 +2.43943E+01
 -5.48371E+01 +1.62362E-01 -4.91402E+01 -2.41608E+01 -3.32406E+01 -4.36305E+01 -1.02362E+01 -5.42312E+01
 +1.53196E+01 -5.36823E+01 +3.83113E+01 -4.19037E+01 +5.40714E+01 -2.10489E+01 +5.93060E+01 +4.90300E+00
 +5.27547E+01 +3.09164E+01 +3.54542E+01 +5.18798E+01 +1.05532E+01 +6.36051E+01 -1.72871E+01 +6.36517E+01
 -4.27898E+01 +5.18121E+01 -6.10817E+01 +3.01645E+01 -6.86373E+01 +2.68113E+00 -6.39633E+01 -2.55312E+01
 -4.78903E+01 -4.92117E+01 -2.34147E+01 -6.39557E+01 +4.87740E+00 -6.70595E+01 +3.16921E+01 -5.80348E+01
 +5.20445E+01 -3.86948E+01 +6.22121E+01 -1.27959E+01 +6.04401E+01 +1.46935E+01 +4.72643E+01 +3.85546E+01
 +2.53891E+01 +5.43224E+01 -8.52602E-01 +5.91365E+01 -2.63498E+01 +5.22764E+01 -4.62086E+01 +3.52773E+01
 -5.66954E+01 +1.16074E+01 -5.59476E+01 -1.40270E+01 -4.43128E+01 -3.66110E+01 -2.42535E+01 -5.18022E+01
 +1.59240E-01 -5.67710E+01 +2.40636E+01 -5.07364E+01 +4.27717E+01 -3.50955E+01 +5.26912E+01 -1.31230E+01
 +5.20237E+01 +1.06962E+01 +4.11033E+01 +3.15678E+01 +2.23105E+01 +4.53443E+01 -4.18545E-01 +4.93454E+01
 -2.23884E+01 +4.28838E+01 -3.90878E+01 +2.73910E+01 -4.70929E+01 +6.12239E+00 -4.47510E+01 -1.65004E+01
 -3.25102E+01 -3.57783E+01 -1.28306E+01 -4.76774E+01 +1.03060E+01 -4.96395E+01 +3.21885E+01 -4.10992E+01
 +4.83167E+01 -2.36056E+01 +5.53002E+01 -5.24254E-01 +5.15415E+01 +2.36224E+01 +3.75646E+01 +4.40459E+01
 +1.59268E+01 +5.66386E+01 -9.27229E+00 +5.87903E+01 -3.31873E+01 +4.99131E+01 -5.11731E+01 +3.15704E+01
 -5.96963E+01 +7.18538E+00 -5.70314E+01 -1.86170E+01 -4.36066E+01 -4.09042E+01 -2.19303E+01 -5.53933E+01
 +3.88791E+00 -5.92841E+01 +2.89280E+01 -5.18049E+01 +4.84092E+01 -3.43650E+01 +5.86121E+01 -1.02850E+01
 +5.75960E+01 +1.58443E+01 +4.55698E+01 +3.90473E+01 +2.48470E+01 +5.49222E+01 -6.06319E-01 +6.04863E+01
 -2.59419E+01 +5.47429E+01 -4.63669E+01 +3.88632E+01 -5.80659E+01 +1.59468E+01 -5.89292E+01 -9.58951E+00
 -4.89461E+01 -3.28739E+01 -3.01877E+01 -4.95246E+01 -6.38739E+00 -5.64926E+01 +1.78002E+01 -5.26393E+01
 +3.77122E+01 -3.89376E+01 +4.95859E+01 -1.82598E+01 +5.12827E+01 +5.20365E+00 +4.26897E+01 +2.67780E+01
 +2.57200E+01 +4.22267E+01 +3.91608E+00 +4.85805E+01 -1.82644E+01 +4.47103E+01 -3.63380E+01 +3.15349E+01
 -4.66839E+01 +1.18217E+01 -4.72564E+01 -1.03749E+01 -3.79822E+01 -3.05276E+01 -2.07655E+01 -4.45400E+01
