 Created: 16-Jan-2021
 $NMID
 ID='D:\BASISSIMULATI'
 FMTDAT='(8E13.5)'
 VOLUME=   1.00000E+00
 TRAMP=   1.00000E+00
 $END
 +6.27973E+01 +7.53891E+00 +5.52809E+01 +1.41999E+01 +3.43935E+01 +2.06111E+01 +7.34025E+00 +2.75310E+01
 -1.69224E+01 +3.33539E+01 -3.15025E+01 +3.48589E+01 -3.40851E+01 +2.93973E+01 -2.70342E+01 +1.70929E+01
 -1.53655E+01 +1.55854E+00 -3.98552E+00 -1.14779E+01 +4.20821E+00 -1.69488E+01 +8.52867E+00 -1.30493E+01
 +9.35150E+00 -2.16482E+00 +6.78923E+00 +1.03908E+01 +3.18492E-01 +1.90572E+01 -1.03423E+01 +2.05757E+01
 -2.38362E+01 +1.50273E+01 -3.64882E+01 +4.98419E+00 -4.31976E+01 -6.43832E+00 -3.97124E+01 -1.72492E+01
 -2.50789E+01 -2.69266E+01 -2.75244E+00 -3.54058E+01 +2.04860E+01 -4.16740E+01 +3.74122E+01 -4.32344E+01
 +4.35578E+01 -3.71128E+01 +3.90093E+01 -2.19543E+01 +2.78718E+01 +1.29217E-01 +1.57926E+01 +2.33537E+01
 +7.02855E+00 +4.02084E+01 +2.71635E+00 +4.47574E+01 +1.19510E+00 +3.55851E+01 -6.08667E-02 +1.67345E+01
 -2.29604E+00 -3.97137E+00 -4.55441E+00 -1.84062E+01 -4.55240E+00 -2.16276E+01 -6.94628E-01 -1.36336E+01
 +6.19038E+00 +1.33039E+00 +1.26569E+01 +1.72724E+01 +1.42651E+01 +2.92253E+01 +8.11201E+00 +3.48180E+01
 -5.26229E+00 +3.40960E+01 -2.17878E+01 +2.81816E+01 -3.57074E+01 +1.79933E+01 -4.23052E+01 +3.99954E+00
 -3.99692E+01 -1.29236E+01 -3.04893E+01 -3.03838E+01 -1.75903E+01 -4.42507E+01 -4.75268E+00 -4.99040E+01
 +6.28555E+00 -4.44885E+01 +1.55138E+01 -2.88776E+01 +2.33628E+01 -8.01397E+00 +2.92624E+01 +1.08624E+01
 +3.12464E+01 +2.13471E+01 +2.70603E+01 +2.07521E+01 +1.61218E+01 +1.11795E+01 +9.70123E-01 -1.78028E+00
 -1.29888E+01 -1.19671E+01 -1.96409E+01 -1.55511E+01 -1.52119E+01 -1.23677E+01 -5.18580E-01 -5.13609E+00
 +1.89372E+01 +2.72949E+00 +3.52364E+01 +9.23210E+00 +4.15563E+01 +1.45294E+01 +3.51238E+01 +1.99770E+01
 +1.81367E+01 +2.62930E+01 -3.66270E+00 +3.22252E+01 -2.38052E+01 +3.47386E+01 -3.77048E+01 +3.07117E+01
 -4.37840E+01 +1.90916E+01 -4.28691E+01 +2.09646E+00 -3.66641E+01 -1.53983E+01 -2.65328E+01 -2.80410E+01
 -1.33876E+01 -3.25254E+01 +1.46023E+00 -2.90104E+01 +1.54218E+01 -2.06649E+01 +2.47388E+01 -1.17042E+01
 +2.59060E+01 -5.16587E+00 +1.77306E+01 -1.75207E+00 +2.72425E+00 -3.09766E-01 -1.32722E+01 +5.70389E-01
 -2.33575E+01 +1.06933E+00 -2.27013E+01 -1.21696E-01 -1.08927E+01 -4.60692E+00 +7.80206E+00 -1.24573E+01
 +2.64523E+01 -2.10966E+01 +3.86711E+01 -2.58853E+01 +4.13093E+01 -2.23290E+01 +3.52803E+01 -8.74632E+00
 +2.42820E+01 +1.21881E+01 +1.23806E+01 +3.40706E+01 +1.97419E+00 +4.94005E+01 -6.73271E+00 +5.28974E+01
 -1.46690E+01 +4.37774E+01 -2.22014E+01 +2.58452E+01 -2.81097E+01 +5.47900E+00 -3.00153E+01 -1.12915E+01
 -2.60110E+01 -2.10396E+01 -1.63773E+01 -2.35066E+01 -4.14529E+00 -2.05462E+01 +6.02530E+00 -1.44404E+01
 +1.01087E+01 -6.78373E+00 +6.80928E+00 +1.46590E+00 -1.76284E+00 +9.11204E+00 -1.12489E+01 +1.40047E+01
 -1.73410E+01 +1.33607E+01 -1.78627E+01 +5.21276E+00 -1.34463E+01 -9.84071E+00 -6.53754E+00 -2.78354E+01
 +4.94376E-01 -4.24240E+01 +6.83191E+00 -4.74386E+01 +1.32967E+01 -3.98047E+01 +2.10455E+01 -2.12246E+01
 +2.98431E+01 +2.37279E+00 +3.72180E+01 +2.34115E+01 +3.92712E+01 +3.59549E+01 +3.28260E+01 +3.80048E+01
 +1.76744E+01 +3.17137E+01 -2.52039E+00 +2.16114E+01 -2.13840E+01 +1.20255E+01 -3.25832E+01 +5.20271E+00
 -3.27386E+01 +1.05623E+00 -2.29384E+01 -1.62331E+00 -8.06909E+00 -3.55022E+00 +5.60163E+00 -4.12967E+00
 +1.32310E+01 -2.00446E+00 +1.31329E+01 +3.47995E+00 +6.71486E+00 +1.10145E+01 -3.00505E+00 +1.73006E+01
 -1.31719E+01 +1.84848E+01 -2.20461E+01 +1.22877E+01 -2.87515E+01 -4.69297E-01 -3.23487E+01 -1.59400E+01
 -3.12382E+01 -2.89861E+01 -2.36163E+01 -3.56131E+01 -8.87031E+00 -3.47219E+01 +1.10180E+01 -2.82114E+01
 +3.12047E+01 -1.94762E+01 +4.54151E+01 -1.13128E+01 +4.85900E+01 -4.55924E+00 +3.94050E+01 +1.73571E+00
 +2.12274E+01 +8.84356E+00 +8.46589E-01 +1.66823E+01 -1.44712E+01 +2.31728E+01 -2.01133E+01 +2.51851E+01
 -1.58482E+01 +2.05652E+01 -5.35916E+00 +9.96325E+00 +5.98639E+00 -2.79111E+00 +1.37863E+01 -1.21843E+01
 +1.62338E+01 -1.36723E+01 +1.40392E+01 -6.03915E+00 +9.03442E+00 +7.86672E+00 +2.59743E+00 +2.24387E+01
 -5.01153E+00 +3.19273E+01 -1.40566E+01 +3.29364E+01 -2.40663E+01 +2.55260E+01 -3.29904E+01 +1.25305E+01
 -3.75841E+01 -2.25720E+00 -3.49745E+01 -1.58271E+01 -2.44995E+01 -2.66447E+01 -8.61060E+00 -3.41469E+01
 +7.87051E+00 -3.77378E+01 +1.98654E+01 -3.62815E+01 +2.43825E+01 -2.86548E+01 +2.17693E+01 -1.50594E+01
 +1.51812E+01 +1.89505E+00 +8.63043E+00 +1.73455E+01 +4.80860E+00 +2.58727E+01 +3.96505E+00 +2.40317E+01
 +4.41992E+00 +1.23467E+01 +4.24504E+00 -4.46163E+00 +2.91999E+00 -1.93315E+01 +1.82173E+00 -2.59548E+01
 +3.19727E+00 -2.15463E+01 +8.29227E+00 -7.88284E+00 +1.59061E+01 +9.83824E+00 +2.24265E+01 +2.55898E+01
 +2.34904E+01 +3.51048E+01 +1.63849E+01 +3.71593E+01 +1.79163E+00 +3.31168E+01 -1.61837E+01 +2.53457E+01
 -3.17721E+01 +1.56885E+01 -4.01370E+01 +4.93984E+00 -3.93972E+01 -6.52449E+00 -3.10554E+01 -1.76710E+01
 -1.87739E+01 -2.62962E+01 -6.37551E+00 -2.96722E+01 +3.71108E+00 -2.60823E+01 +1.07755E+01 -1.62623E+01
 +1.50177E+01 -3.69155E+00 +1.64495E+01 +6.67813E+00 +1.44641E+01 +1.06959E+01 +8.46656E+00 +7.04888E+00
 -9.00199E-01 -2.11196E+00 -1.09440E+01 -1.23389E+01 -1.73863E+01 -1.91884E+01 -1.61627E+01 -2.03425E+01
 -5.69282E+00 -1.63770E+01 +1.17127E+01 -9.84994E+00 +3.02905E+01 -3.40278E+00 +4.30969E+01 +1.86544E+00
 +4.50472E+01 +6.73242E+00 +3.51682E+01 +1.27511E+01 +1.69118E+01 +2.05219E+01 -3.57650E+00 +2.85675E+01
 -2.02471E+01 +3.36610E+01 -2.95141E+01 +3.25160E+01 -3.10826E+01 +2.38487E+01 -2.70828E+01 +9.52721E+00
 -2.03162E+01 -5.96467E+00 -1.27996E+01 -1.75245E+01 -5.40616E+00 -2.17934E+01 +1.44778E+00 -1.85818E+01
 +6.85699E+00 -1.06281E+01 +9.14366E+00 -1.95030E+00 +6.62335E+00 +4.16849E+00 -1.02193E+00 +6.40274E+00
 -1.17548E+01 +5.26153E+00 -2.14459E+01 +1.96297E+00 -2.55120E+01 -2.73994E+00 -2.11465E+01 -8.89439E+00
 -8.89315E+00 -1.66329E+01 +7.40225E+00 -2.50179E+01 +2.23206E+01 -3.14530E+01 +3.13676E+01 -3.23585E+01
 +3.28804E+01 -2.49642E+01 +2.83419E+01 -9.24521E+00 +2.10494E+01 +1.12390E+01 +1.40373E+01 +3.03205E+01
 +8.53757E+00 +4.17125E+01 +3.84694E+00 +4.17988E+01 -1.46350E+00 +3.12675E+01 -7.91730E+00 +1.47230E+01
 -1.42455E+01 -1.49238E+00 -1.78932E+01 -1.20956E+01 -1.66348E+01 -1.48420E+01 -1.02561E+01 -1.08095E+01
 -1.17461E+00 -3.11476E+00 +6.49694E+00 +4.97085E+00 +8.97484E+00 +1.13556E+01 +4.76493E+00 +1.52922E+01
 -4.57020E+00 +1.66095E+01 -1.52554E+01 +1.48532E+01 -2.32242E+01 +9.15259E+00 -2.59821E+01 -9.90069E-01
 -2.33877E+01 -1.45583E+01 -1.70566E+01 -2.84778E+01 -8.96423E+00 -3.83309E+01 -2.68489E-01 -4.01884E+01
 +8.86908E+00 -3.26298E+01 +1.84435E+01 -1.77618E+01 +2.74864E+01 -5.29980E-01 +3.36459E+01 +1.34279E+01
 +3.39971E+01 +2.02823E+01 +2.67582E+01 +1.95385E+01 +1.28756E+01 +1.38143E+01 -3.62812E+00 +7.09698E+00
 -1.70024E+01 +2.55356E+00 -2.22730E+01 +1.15570E+00 -1.76212E+01 +1.80510E+00 -5.34298E+00 +2.69084E+00
 +9.16235E+00 +2.86795E+00 +1.98531E+01 +2.97614E+00 +2.26657E+01 +4.64020E+00 +1.69799E+01 +8.99662E+00
 +5.32662E+00 +1.53894E+01 -8.26517E+00 +2.11882E+01 -2.01991E+01 +2.29660E+01 -2.84523E+01 +1.83863E+01
 -3.25057E+01 +7.66798E+00 -3.24734E+01 -6.28329E+00 -2.83064E+01 -1.91887E+01 -1.97665E+01 -2.74031E+01
 -7.19641E+00 -2.94662E+01 +7.57602E+00 -2.63649E+01 +2.10730E+01 -2.04884E+01 +2.91890E+01 -1.40489E+01
 +2.90433E+01 -8.00893E+00 +2.06505E+01 -2.14312E+00 +7.34907E+00 +3.94397E+00 -5.44015E+00 +9.69317E+00
 -1.26008E+01 +1.32890E+01 -1.16301E+01 +1.25470E+01 -3.64769E+00 +6.50959E+00 +7.40174E+00 -3.30285E+00
 +1.68533E+01 -1.29408E+01 +2.15307E+01 -1.75884E+01 +2.08735E+01 -1.39193E+01 +1.65064E+01 -1.96648E+00
 +1.07171E+01 +1.45762E+01 +4.91706E+00 +2.98641E+01 -9.35492E-01 +3.84629E+01 -7.67925E+00 +3.76356E+01
 -1.56291E+01 +2.82218E+01 -2.36031E+01 +1.38032E+01 -2.90653E+01 -1.21017E+00 -2.93971E+01 -1.34314E+01
 -2.35306E+01 -2.13476E+01 -1.28909E+01 -2.49664E+01 -9.83893E-01 -2.48255E+01 +8.20846E+00 -2.12463E+01
 +1.21211E+01 -1.43967E+01 +1.07036E+01 -5.03075E+00 +6.12517E+00 +4.81352E+00 +1.34061E+00 +1.19344E+01
 -1.55741E+00 +1.31510E+01 -2.19688E+00 +7.02469E+00 -1.55279E+00 -4.91099E+00 -7.22136E-01 -1.82966E+01
 +2.18193E-01 -2.76208E+01 +2.41295E+00 -2.86689E+01 +7.29037E+00 -2.04811E+01 +1.50957E+01 -5.77042E+00
 +2.39369E+01 +1.04209E+01 +3.01332E+01 +2.30793E+01 +2.98651E+01 +2.93212E+01 +2.12757E+01 +2.91801E+01
 +5.81139E+00 +2.48324E+01 -1.20481E+01 +1.89165E+01 -2.66256E+01 +1.30521E+01 -3.35187E+01 +7.41318E+00
 -3.14195E+01 +1.44963E+00 -2.23858E+01 -4.91314E+00 -1.05457E+01 -1.05528E+01 -6.39973E-02 -1.34938E+01
 +6.49101E+00 -1.21411E+01 +8.61724E+00 -6.58225E+00 +7.20754E+00 +9.71750E-01 +3.43932E+00 +7.01942E+00
 -1.91705E+00 +8.47951E+00 -8.34849E+00 +4.30188E+00 -1.48848E+01 -3.97699E+00 -1.95703E+01 -1.30671E+01
 -1.97845E+01 -1.96457E+01 -1.34753E+01 -2.19434E+01 -6.52891E-01 -2.02898E+01 +1.58452E+01 -1.63891E+01
 +3.10023E+01 -1.18987E+01 +3.95765E+01 -7.30236E+00 +3.84401E+01 -1.83429E+00 +2.80726E+01 +5.51566E+00
 +1.23754E+01 +1.46374E+01 -3.12183E+00 +2.35820E+01 -1.37196E+01 +2.91131E+01 -1.73944E+01 +2.83411E+01
 -1.51532E+01 +2.05146E+01 -9.89230E+00 +7.86525E+00 -4.58112E+00 -5.10243E+00 -8.73980E-01 -1.35854E+01
 +1.14069E+00 -1.46909E+01 +2.13208E+00 -8.70014E+00 +2.40895E+00 +1.24765E+00 +1.37301E+00 +1.07979E+01
 -2.04058E+00 +1.63861E+01 -8.25757E+00 +1.65347E+01 -1.61257E+01 +1.18907E+01 -2.29157E+01 +4.24680E+00
 -2.54369E+01 -4.64762E+00 -2.16941E+01 -1.36837E+01 -1.21020E+01 -2.21330E+01 +5.16651E-01 -2.89382E+01
 +1.22153E+01 -3.23138E+01 +1.97818E+01 -3.02013E+01 +2.21179E+01 -2.14777E+01 +2.03837E+01 -7.18420E+00
 +1.69104E+01 +9.13494E+00 +1.36271E+01 +2.24610E+01 +1.10102E+01 +2.83613E+01 +8.18493E+00 +2.50643E+01
 +4.03646E+00 +1.44113E+01 -1.48454E+00 +1.10614E+00 -6.81187E+00 -9.39991E+00 -9.43159E+00 -1.33021E+01
 -7.42316E+00 -9.89995E+00 -9.20553E-01 -1.45756E+00 +7.47712E+00 +8.29117E+00 +1.37165E+01 +1.60430E+01
