 Created: 16-Jan-2021
 $NMID
 ID='D:\BASISSIMULATI'
 FMTDAT='(8E13.5)'
 VOLUME=   1.00000E+00
 TRAMP=   1.00000E+00
 $END
 +3.64727E+01 +3.65632E+00 +3.34054E+01 +1.52400E+01 +2.63903E+01 +2.48886E+01 +1.65210E+01 +3.12376E+01
 +5.34210E+00 +3.34969E+01 -5.43502E+00 +3.15820E+01 -1.42433E+01 +2.61128E+01 -1.99393E+01 +1.82799E+01
 -2.19979E+01 +9.60721E+00 -2.05846E+01 +1.65569E+00 -1.64962E+01 -4.27222E+00 -1.09804E+01 -7.37194E+00
 -5.47268E+00 -7.47363E+00 -1.30226E+00 -5.05180E+00 +5.74707E-01 -1.10762E+00 -2.36558E-01 +3.05159E+00
 -3.49646E+00 +6.09109E+00 -8.38609E+00 +6.93003E+00 -1.36787E+01 +4.97020E+00 -1.79931E+01 +2.27042E-01
 -2.00782E+01 -6.66227E+00 -1.90733E+01 -1.45549E+01 -1.46925E+01 -2.20196E+01 -7.29726E+00 -2.76127E+01
 +2.15648E+00 -3.01583E+01 +1.22867E+01 -2.89797E+01 +2.15363E+01 -2.40356E+01 +2.84588E+01 -1.59366E+01
 +3.19825E+01 -5.83898E+00 +3.16047E+01 +4.76445E+00 +2.74776E+01 +1.43141E+01 +2.03724E+01 +2.14638E+01
 +1.15278E+01 +2.53165E+01 +2.41502E+00 +2.55736E+01 -5.53635E+00 +2.25681E+01 -1.11975E+01 +1.71797E+01
 -1.39369E+01 +1.06482E+01 -1.37159E+01 +4.32433E+00 -1.10694E+01 -5.93909E-01 -6.97485E+00 -3.28786E+00
 -2.64003E+00 -3.46470E+00 +7.50001E-01 -1.39685E+00 +2.27514E+00 +2.15134E+00 +1.46509E+00 +6.09336E+00
 -1.60871E+00 +9.25204E+00 -6.35087E+00 +1.06064E+01 -1.17646E+01 +9.50490E+00 -1.66537E+01 +5.80413E+00
 -1.98643E+01 -9.43589E-02 -2.05176E+01 -7.31480E+00 -1.81890E+01 -1.46713E+01 -1.29993E+01 -2.08923E+01
 -5.60031E+00 -2.48625E+01 +2.94133E+00 -2.58336E+01 +1.13384E+01 -2.35662E+01 +1.83186E+01 -1.83733E+01
 +2.28546E+01 -1.10617E+01 +2.43462E+01 -2.78004E+00 +2.27202E+01 +5.19301E+00 +1.84301E+01 +1.16817E+01
 +1.23577E+01 +1.58211E+01 +5.63830E+00 +1.72027E+01 -5.57698E-01 +1.59294E+01 -5.24248E+00 +1.25735E+01
 -7.78710E+00 +8.04696E+00 -8.02353E+00 +3.41103E+00 -6.25483E+00 -3.36013E-01 -3.17371E+00 -2.45232E+00
 +2.92190E-01 -2.58972E+00 +3.17669E+00 -8.49685E-01 +4.67382E+00 +2.25101E+00 +4.30000E+00 +5.89611E+00
 +1.98898E+00 +9.14281E+00 -1.89790E+00 +1.11169E+01 -6.64648E+00 +1.11915E+01 -1.13334E+01 +9.11483E+00
 -1.50095E+01 +5.06257E+00 -1.68870E+01 -3.93320E-01 -1.64930E+01 -6.39299E+00 -1.37622E+01 -1.19515E+01
 -9.04962E+00 -1.61443E+01 -3.06373E+00 -1.82785E+01 +3.26603E+00 -1.80192E+01 +8.96153E+00 -1.54455E+01
 +1.31738E+01 -1.10290E+01 +1.53332E+01 -5.53896E+00 +1.52432E+01 +1.05258E-01 +1.31029E+01 +5.00529E+00
 +9.45473E+00 +8.44583E+00 +5.06995E+00 +1.00168E+01 +7.95440E-01 +9.67420E+00 -2.60779E+00 +7.72918E+00
 -4.60351E+00 +4.77097E+00 -4.97077E+00 +1.53946E+00 -3.83035E+00 -1.22570E+00 -1.60428E+00 -2.93012E+00
 +1.08161E+00 -3.23586E+00 +3.53119E+00 -2.11859E+00 +5.12070E+00 +1.38673E-01 +5.42267E+00 +3.01186E+00
 +4.28746E+00 +5.84757E+00 +1.86805E+00 +7.99707E+00 -1.41511E+00 +8.94597E+00 -4.96069E+00 +8.41448E+00
 -8.10623E+00 +6.40984E+00 -1.02570E+01 +3.22201E+00 -1.09992E+01 -6.34937E-01 -1.01755E+01 -4.52280E+00
 -7.91052E+00 -7.80050E+00 -4.58218E+00 -9.94259E+00 -7.46358E-01 -1.06328E+01 +2.96946E+00 -9.81579E+00
 +5.98226E+00 -7.69794E+00 +7.85711E+00 -4.70042E+00 +8.37928E+00 -1.37355E+00 +7.58247E+00 +1.70891E+00
 +5.72967E+00 +4.05505E+00 +3.25240E+00 +5.33995E+00 +6.61492E-01 +5.45550E+00 -1.55233E+00 +4.51705E+00
 -3.00872E+00 +2.82785E+00 -3.50245E+00 +8.09975E-01 -3.03127E+00 -1.08349E+00 -1.78374E+00 -2.45720E+00
 -9.12728E-02 -3.04650E+00 +1.64454E+00 -2.76131E+00 +3.03424E+00 -1.69407E+00 +3.77596E+00 -9.22212E-02
 +3.71027E+00 +1.69774E+00 +2.84468E+00 +3.30249E+00 +1.34481E+00 +4.39551E+00 -5.04221E-01 +4.75806E+00
 -2.35737E+00 +4.31667E+00 -3.87765E+00 +3.15085E+00 -4.79905E+00 +1.47171E+00 -4.97289E+00 -4.23209E-01
 -4.38968E+00 -2.20887E+00 -3.17377E+00 -3.59341E+00 -1.55366E+00 -4.36913E+00 +1.85076E-01 -4.44490E+00
 +1.75440E+00 -3.85505E+00 +2.91489E+00 -2.74478E+00 +3.51452E+00 -1.33650E+00 +3.50856E+00 +1.15259E-01
 +2.95845E+00 +1.37111E+00 +2.01177E+00 +2.24728E+00 +8.68475E-01 +2.64254E+00 -2.59150E-01 +2.54777E+00
 -1.18471E+00 +2.03801E+00 -1.77734E+00 +1.25043E+00 -1.97832E+00 +3.53453E-01 -1.80273E+00 -4.86179E-01
 -1.32798E+00 -1.13200E+00 -6.72572E-01 -1.49761E+00 +2.95934E-02 -1.55502E+00 +6.54098E-01 -1.33141E+00
 +1.10560E+00 -8.96953E-01 +1.32953E+00 -3.46844E-01 +1.31474E+00 +2.17995E-01 +1.08851E+00 +7.07814E-01
 +7.06104E-01 +1.05608E+00 +2.37777E-01 +1.22538E+00 -2.43683E-01 +1.20754E+00 -6.72905E-01 +1.01938E+00
 -9.98457E-01 +6.96213E-01 -1.18577E+00 +2.84675E-01 -1.21747E+00 -1.63313E-01 -1.09240E+00 -5.95242E-01
 -8.24201E-01 -9.61449E-01 -4.40184E-01 -1.21787E+00 +1.95399E-02 -1.32917E+00 +5.03628E-01 -1.27253E+00
 +9.52467E-01 -1.04204E+00 +1.30337E+00 -6.52772E-01 +1.49837E+00 -1.43315E-01 +1.49374E+00 +4.25093E-01
 +1.26981E+00 +9.73588E-01 +8.38894E-01 +1.41547E+00 +2.48896E-01 +1.66985E+00 -4.19233E-01 +1.67695E+00
 -1.06093E+00 +1.41228E+00 -1.56387E+00 +8.96397E-01 -1.82787E+00 +1.97207E-01 -1.78525E+00 -5.76684E-01
 -1.41770E+00 -1.29158E+00 -7.65382E-01 -1.81138E+00 +7.44139E-02 -2.02333E+00 +9.60039E-01 -1.86204E+00
 +1.72844E+00 -1.32680E+00 +2.22459E+00 -4.87569E-01 +2.33201E+00 +5.22170E-01 +1.99847E+00 +1.52583E+00
 +1.25113E+00 +2.33431E+00 +1.97236E-01 +2.78136E+00 -9.90724E-01 +2.75710E+00 -2.10372E+00 +2.23288E+00
 -2.93395E+00 +1.27181E+00 -3.31457E+00 +2.20633E-02 -3.15381E+00 -1.30675E+00 -2.45635E+00 -2.48058E+00
 -1.32681E+00 -3.28451E+00 +4.58835E-02 -3.56464E+00 +1.42141E+00 -3.26010E+00 +2.55247E+00 -2.41811E+00
 +3.23216E+00 -1.18845E+00 +3.33543E+00 +2.02281E-01 +2.84588E+00 +1.49254E+00 +1.86201E+00 +2.43610E+00
 +5.81085E-01 +2.85091E+00 -7.37138E-01 +2.65702E+00 -1.82039E+00 +1.89538E+00 -2.43789E+00 +7.23215E-01
 -2.44795E+00 -6.13788E-01 -1.82944E+00 -1.82800E+00 -6.90213E-01 -2.64625E+00 +7.49803E-01 -2.86525E+00
 +2.19838E+00 -2.39505E+00 +3.34652E+00 -1.28152E+00 +3.92921E+00 +2.97310E-01 +3.77943E+00 +2.06107E+00
 +2.86490E+00 +3.67791E+00 +1.29948E+00 +4.82714E+00 -6.73539E-01 +5.26152E+00 -2.72358E+00 +4.85709E+00
 -4.49313E+00 +3.64059E+00 -5.66460E+00 +1.78840E+00 -6.02100E+00 -4.03247E-01 -5.48862E+00 -2.57154E+00
 -4.15281E+00 -4.35414E+00 -2.24365E+00 -5.45700E+00 -9.37141E-02 -5.70996E+00 +1.92432E+00 -5.09907E+00
 +3.46820E+00 -3.76915E+00 +4.29122E+00 -1.99563E+00 +4.28912E+00 -1.31093E-01 +3.51954E+00 +1.46365E+00
 +2.18979E+00 +2.49019E+00 +6.15205E-01 +2.77133E+00 -8.44022E-01 +2.28619E+00 -1.85537E+00 +1.17464E+00
 -2.18151E+00 -2.90266E-01 -1.72960E+00 -1.75657E+00 -5.72280E-01 -2.86416E+00 +1.06401E+00 -3.31798E+00
 +2.84154E+00 -2.94952E+00 +4.37653E+00 -1.75407E+00 +5.31470E+00 +1.03624E-01 +5.40238E+00 +2.31710E+00
 +4.53910E+00 +4.49404E+00 +2.80143E+00 +6.22986E+00 +4.32776E-01 +7.18488E+00 -2.19889E+00 +7.15007E+00
 -4.66779E+00 +6.08865E+00 -6.56873E+00 +4.14531E+00 -7.59211E+00 +1.62100E+00 -7.58125E+00 -1.08191E+00
 -6.56075E+00 -3.53377E+00 -4.73067E+00 -5.35675E+00 -2.42748E+00 -6.29386E+00 -5.93413E-02 -6.25447E+00
 +1.97154E+00 -5.32788E+00 +3.34471E+00 -3.76215E+00 +3.88057E+00 -1.91279E+00 +3.57146E+00 -1.71170E-01
 +2.57897E+00 +1.11309E+00 +1.19794E+00 +1.70073E+00 -2.05334E-01 +1.50901E+00 -1.26867E+00 +6.26408E-01
 -1.70830E+00 -7.06795E-01 -1.37734E+00 -2.14819E+00 -2.96869E-01 -3.32336E+00 +1.34635E+00 -3.90253E+00
 +3.23526E+00 -3.66881E+00 +4.98393E+00 -2.56447E+00 +6.21314E+00 -7.06212E-01 +6.62532E+00 +1.63360E+00
 +6.06425E+00 +4.07616E+00 +4.54801E+00 +6.20651E+00 +2.26862E+00 +7.65110E+00 -4.41335E-01 +8.14799E+00
 -3.16886E+00 +7.59592E+00 -5.49578E+00 +6.07317E+00 -7.07458E+00 +3.82260E+00 -7.69046E+00 +1.20608E+00
 -7.29793E+00 -1.36295E+00 -6.02513E+00 -3.49546E+00 -4.14557E+00 -4.89693E+00 -2.02310E+00 -5.41830E+00
 -4.09543E-02 -5.07816E+00 +1.47101E+00 -4.05255E+00 +2.29716E+00 -2.63482E+00 +2.37323E+00 -1.17387E+00
 +1.79309E+00 -3.05602E-03 +7.84338E-01 +6.26088E-01 -3.41980E-01 +5.92676E-01 -1.25738E+00 -7.16598E-02
 -1.68429E+00 -1.19164E+00 -1.45350E+00 -2.48575E+00 -5.39437E-01 -3.62471E+00 +9.33501E-01 -4.29903E+00
 +2.71433E+00 -4.28252E+00 +4.47394E+00 -3.47926E+00 +5.86893E+00 -1.94503E+00 +6.60827E+00 +1.20821E-01
 +6.50985E+00 +2.41117E+00 +5.53618E+00 +4.56759E+00 +3.80250E+00 +6.24641E+00 +1.55604E+00 +7.18152E+00
 -8.69176E-01 +7.23223E+00 -3.11326E+00 +6.40713E+00 -4.85508E+00 +4.85983E+00 -5.86842E+00 +2.85799E+00
 -6.05934E+00 +7.31930E-01 -5.47782E+00 -1.18690E+00 -4.30233E+00 -2.62580E+00 -2.80101E+00 -3.41762E+00
 -1.27719E+00 -3.52610E+00 -1.05220E-02 -3.04532E+00 +7.95217E-01 -2.17436E+00 +1.04763E+00 -1.17271E+00
 +7.78187E-01 -3.05521E-01 +1.30001E-01 +2.10213E-01 -6.76036E-01 +2.48128E-01 -1.38956E+00 -2.04199E-01
 -1.78363E+00 -1.04541E+00 -1.70170E+00 -2.08317E+00 -1.08971E+00 -3.07465E+00 -7.20328E-03 -3.77652E+00
 +1.38416E+00 -3.99429E+00 +2.85200E+00 -3.62146E+00 +4.13809E+00 -2.66121E+00 +5.00782E+00 -1.22657E+00
 +5.29440E+00 +4.80373E-01 +4.92980E+00 +2.20589E+00 +3.95654E+00 +3.69110E+00 +2.51870E+00 +4.71859E+00
 +8.34295E-01 +5.15016E+00 -8.45084E-01 +4.94916E+00 -2.27970E+00 +4.18332E+00 -3.28314E+00 +3.00846E+00
 -3.75241E+00 +1.63679E+00 -3.68144E+00 +2.96144E-01 -3.15603E+00 -8.11567E-01 -2.33210E+00 -1.54498E+00
 -1.40210E+00 -1.84482E+00 -5.56398E-01 -1.73871E+00 +5.26880E-02 -1.32929E+00 +3.37429E-01 -7.68714E-01
 +2.87359E-01 -2.25019E-01 -3.39244E-02 +1.52743E-01 -5.06268E-01 +2.63681E-01 -9.80701E-01 +7.33371E-02
 -1.31167E+00 -3.82086E-01 -1.38711E+00 -1.00578E+00 -1.15065E+00 -1.66192E+00 -6.12056E-01 -2.20421E+00
 +1.55771E-01 -2.50551E+00 +1.03204E+00 -2.48273E+00 +1.87197E+00 -2.11232E+00 +2.53464E+00 -1.43406E+00
 +2.90909E+00 -5.42462E-01 +2.93380E+00 +4.31599E-01 +2.60639E+00 +1.34526E+00 +1.98188E+00 +2.06929E+00
 +1.16069E+00 +2.50990E+00 +2.69055E-01 +2.62300E+00 -5.63989E-01 +2.41876E+00 -1.22873E+00 +1.95610E+00
 -1.65175E+00 +1.32891E+00 -1.80522E+00 +6.47222E-01 -1.70728E+00 +1.68689E-02 -1.41415E+00 -4.78102E-01
 -1.00619E+00 -7.87493E-01 -5.70998E-01 -8.99744E-01 -1.86943E-01 -8.39116E-01 +8.97164E-02 -6.56627E-01
