 Created: 16-Jan-2021
 $NMID
 ID='D:\BASISSIMULATI'
 FMTDAT='(8E13.5)'
 VOLUME=   1.00000E+00
 TRAMP=   1.00000E+00
 $END
 +5.67133E+01 +5.31217E+00 +4.99469E+01 +2.72356E+01 +3.50939E+01 +4.46851E+01 +1.45844E+01 +5.48410E+01
 -8.23980E+00 +5.60737E+01 -2.96699E+01 +4.82057E+01 -4.62324E+01 +3.25364E+01 -5.52524E+01 +1.16275E+01
 -5.52854E+01 -1.11153E+01 -4.63486E+01 -3.19977E+01 -2.99144E+01 -4.76362E+01 -8.66803E+00 -5.55068E+01
 +1.39313E+01 -5.43520E+01 +3.42137E+01 -4.43817E+01 +4.88942E+01 -2.72358E+01 +5.56050E+01 -5.71414E+00
 +5.32774E+01 +1.66806E+01 +4.23117E+01 +3.63129E+01 +2.45087E+01 +5.00042E+01 +2.77397E+00 +5.55484E+01
 -1.93563E+01 +5.20662E+01 -3.82905E+01 +4.01453E+01 -5.09648E+01 +2.17410E+01 -5.53385E+01 -1.44455E-01
 -5.07230E+01 -2.19515E+01 -3.78895E+01 -4.01424E+01 -1.89408E+01 -5.17747E+01 +3.03329E+00 -5.49777E+01
 +2.44601E+01 -4.92528E+01 +4.18646E+01 -3.55513E+01 +5.24332E+01 -1.61162E+01 +5.44682E+01 +5.88484E+00
 +4.76610E+01 +2.68759E+01 +3.31381E+01 +4.34538E+01 +1.32753E+01 +5.29400E+01 -8.69157E+00 +5.38131E+01
 -2.91931E+01 +4.59532E+01 -4.49068E+01 +3.06574E+01 -5.32952E+01 +1.04260E+01 -5.30156E+01 -1.14462E+01
 -4.41353E+01 -3.14064E+01 -2.81166E+01 -4.62210E+01 -7.57637E+00 -5.34993E+01 +1.41415E+01 -5.20794E+01
 +3.35106E+01 -4.22135E+01 +4.73941E+01 -2.55235E+01 +5.35533E+01 -4.73428E+00 +5.10084E+01 +1.67708E+01
 +4.01940E+01 +3.55010E+01 +2.28856E+01 +4.84243E+01 +1.90752E+00 +5.34586E+01 -1.93274E+01 +4.98069E+01
 -3.73732E+01 +3.80836E+01 -4.93102E+01 +2.02108E+01 -5.32169E+01 -8.96253E-01 -4.84796E+01 -2.18049E+01
 -3.58888E+01 -3.91233E+01 -1.75067E+01 -5.00507E+01 +3.66950E+00 -5.28303E+01 +2.41972E+01 -4.70314E+01
 +4.07476E+01 -3.36166E+01 +5.06453E+01 -1.47813E+01 +5.23013E+01 +6.40484E+00 +4.54676E+01 +2.64987E+01
 +3.12741E+01 +4.22428E+01 +1.20423E+01 +5.10938E+01 -9.09511E+00 +5.16329E+01 -2.87038E+01 +4.37935E+01
 -4.36062E+01 +2.88685E+01 -5.13964E+01 +9.29728E+00 -5.08283E+01 -1.17333E+01 -4.20150E+01 -3.08074E+01
 -2.64071E+01 -4.48353E+01 -6.55401E+00 -5.15537E+01 +1.43126E+01 -4.98910E+01 +3.28047E+01 -4.01379E+01
 +4.59280E+01 -2.38972E+01 +5.15668E+01 -3.82004E+00 +4.88251E+01 +1.68265E+01 +3.81686E+01 +3.46912E+01
 +2.13463E+01 +4.68826E+01 +1.10285E+00 +5.14370E+01 -1.92687E+01 +4.76346E+01 -3.64629E+01 +3.61133E+01
 -4.76980E+01 +1.87618E+01 -5.11662E+01 -1.59022E+00 -4.63243E+01 -2.16331E+01 -3.39787E+01 -3.81159E+01
 -1.61512E+01 -4.83732E+01 +4.25194E+00 -5.07564E+01 +2.39140E+01 -4.48988E+01 +3.96468E+01 -3.17713E+01
 +4.89077E+01 -1.35220E+01 +5.02103E+01 +6.87528E+00 +4.33633E+01 +2.61059E+01 +2.94981E+01 +4.10528E+01
 +1.08818E+01 +4.93015E+01 -9.45334E+00 +4.95307E+01 -2.82037E+01 +4.17232E+01 -4.23310E+01 +2.71660E+01
 -4.95550E+01 +8.23777E+00 -4.87208E+01 -1.19795E+01 -3.99840E+01 -3.02023E+01 -2.47820E+01 -4.34793E+01
 -5.59743E+00 -4.96687E+01 +1.44471E+01 -4.77841E+01 +3.20974E+01 -3.81515E+01 +4.44958E+01 -2.23533E+01
 +4.96439E+01 -2.96800E+00 +4.67246E+01 +1.68502E+01 +3.62318E+01 +3.38848E+01 +1.98870E+01 +4.53790E+01
 +3.56666E-01 +4.94819E+01 -1.91825E+01 +4.55463E+01 -3.55604E+01 +3.42310E+01 -4.61277E+01 +1.73904E+01
 -4.91845E+01 -2.22954E+00 -4.42538E+01 -2.14384E+01 -3.21555E+01 -3.71209E+01 -1.48705E+01 -4.67413E+01
 +4.78370E+00 -4.87541E+01 +2.36125E+01 -4.28517E+01 +3.85630E+01 -3.00117E+01 +4.72194E+01 -1.23348E+01
 +4.81930E+01 +7.29908E+00 +4.13451E+01 +2.56994E+01 +2.78064E+01 +3.98840E+01 +9.79023E+00 +4.75620E+01
 -9.76909E+00 +4.75041E+01 -2.76943E+01 +3.97391E+01 -4.10813E+01 +2.55461E+01 -4.77695E+01 +7.24405E+00
 -4.66906E+01 -1.21874E+01 -3.80391E+01 -2.95927E+01 -2.32377E+01 -4.21530E+01 -4.70328E+00 -4.78428E+01
 +1.45477E+01 -4.57561E+01 +3.13901E+01 -3.62509E+01 +4.30974E+01 -2.08881E+01 +4.77829E+01 -2.17492E+00
 +4.47042E+01 +1.68442E+01 +3.43803E+01 +3.30827E+01 +1.85042E+01 +4.39129E+01 -3.34176E-01 +4.75914E+01
 -1.90711E+01 +4.35392E+01 -3.46668E+01 +3.24332E+01 -4.45988E+01 +1.60930E+01 -4.72701E+01 -2.81725E+00
 -4.22653E+01 -2.12229E+01 -3.04158E+01 -3.61391E+01 -1.36613E+01 -4.51544E+01 +5.26769E+00 -4.68211E+01
 +2.32945E+01 -4.08872E+01 +3.74966E+01 -2.83344E+01 +4.55795E+01 -1.12161E+01 +4.62471E+01 +7.67903E+00
 +3.94097E+01 +2.52808E+01 +2.61954E+01 +3.87368E+01 +8.76432E+00 +4.58742E+01 -1.00450E+01 +4.55508E+01
 -2.71774E+01 +3.78379E+01 -3.98574E+01 +2.40054E+01 -4.60389E+01 +6.31283E+00 -4.47354E+01 -1.23595E+01
 -3.61771E+01 -2.89797E+01 -2.17707E+01 -4.08564E+01 -3.86838E+00 -4.60746E+01 +1.46167E+01 -4.38043E+01
 +3.06838E+01 -3.44328E+01 +4.17324E+01 -1.94982E+01 +4.59824E+01 -1.43768E+00 +4.27614E+01 +1.68108E+01
 +3.26106E+01 +3.22860E+01 +1.71945E+01 +4.24841E+01 -9.72684E-01 +4.57639E+01 -1.89364E+01 +4.16105E+01
 -3.37827E+01 +3.07164E+01 -4.31107E+01 +1.48662E+01 -4.54209E+01 -3.35625E+00 -4.03559E+01 -2.09884E+01
 -2.87562E+01 -3.51710E+01 -1.25200E+01 -4.36118E+01 +5.70668E+00 -4.49556E+01 +2.29618E+01 -3.90022E+01
 +3.64481E+01 -2.67359E+01 +4.39871E+01 -1.01627E+01 +4.43705E+01 +8.01781E+00 +3.75541E+01 +2.48518E+01
 +2.46619E+01 +3.76115E+01 +7.80080E+00 +4.42369E+01 -1.02836E+01 +4.36685E+01 -2.66542E+01 +3.60166E+01
 -3.86592E+01 +2.25404E+01 -4.43618E+01 +5.44096E+00 -4.28527E+01 -1.24983E+01 -3.43948E+01 -2.83648E+01
 -2.03777E+01 -3.95894E+01 -3.08966E+00 -4.43627E+01 +1.46563E+01 -4.19264E+01 +2.99797E+01 -3.26939E+01
 +4.04007E+01 -1.81802E+01 +4.42408E+01 -7.53323E-01 +4.08934E+01 +1.67521E+01 +3.09196E+01 +3.14956E+01
 +1.59544E+01 +4.10921E+01 -1.56172E+00 +4.39976E+01 -1.87805E+01 +3.97575E+01 -3.29091E+01 +2.90775E+01
 -4.16629E+01 +1.37067E+01 -4.36351E+01 -3.84929E+00 -3.85229E+01 -2.07367E+01 -2.71734E+01 -3.42174E+01
 -1.14436E+01 -4.21126E+01 +6.10333E+00 -4.31555E+01 +2.26160E+01 -3.71940E+01 +3.54179E+01 -2.52130E+01
 +4.24413E+01 -9.17143E+00 +4.25612E+01 +8.31792E+00 +3.57756E+01 +2.44138E+01 +2.32025E+01 +3.65083E+01
 +6.89660E+00 +4.26492E+01 -1.04873E+01 +4.18551E+01 -2.61261E+01 +3.42722E+01 -3.74869E+01 +2.11479E+01
 -4.27370E+01 +4.62543E+00 -4.10402E+01 -1.26060E+01 -3.26891E+01 -2.77490E+01 -1.90553E+01 -3.83518E+01
 -2.36419E+00 -4.27057E+01 +1.46687E+01 -4.01199E+01 +2.92788E+01 -3.10313E+01 +3.91020E+01 -1.69310E+01
 +4.25565E+01 -1.19014E-01 +3.90977E+01 +1.66700E+01 +2.93043E+01 +3.07123E+01 +1.47810E+01 +3.97365E+01
 -2.10403E+00 +4.22910E+01 -1.86053E+01 +3.79776E+01 -3.20465E+01 +2.75134E+01 -4.02546E+01 +1.26115E+01
 -4.19111E+01 -4.29901E+00 -3.67635E+01 -2.04696E+01 -2.56642E+01 -3.32786E+01 -1.04289E+01 -4.06561E+01
 +6.46014E+00 -4.14189E+01 +2.22587E+01 -3.54599E+01 +3.44063E+01 -2.37626E+01 +4.09411E+01 -8.23930E+00
 +4.08171E+01 +8.58178E+00 +3.40711E+01 +2.39683E+01 +2.18142E+01 +3.54275E+01 +6.04876E+00 +4.11100E+01
 -1.06584E+01 +4.01084E+01 -2.55944E+01 +3.26019E+01 -3.63404E+01 +1.98249E+01 -4.11633E+01 +3.86339E+00
 -3.92957E+01 -1.26848E+01 -3.10572E+01 -2.71335E+01 -1.78006E+01 -3.71436E+01 -1.68918E+00 -4.11023E+01
 +1.46558E+01 -3.83824E+01 +2.85820E+01 -2.94420E+01 +3.78360E+01 -1.57473E+01 +4.09280E+01 +4.67948E-01
 +3.73720E+01 +1.65666E+01 +2.77615E+01 +2.99370E+01 +1.36710E+01 +3.84167E+01 -2.60221E+00 +4.06422E+01
 -1.84123E+01 +3.62683E+01 -3.11955E+01 +2.60209E+01 -3.88853E+01 +1.15776E+01 -4.02469E+01 -4.70792E+00
 -3.50752E+01 -2.01887E+01 -2.42258E+01 -3.23551E+01 -9.47307E+00 -3.92416E+01 +6.77953E+00 -3.97440E+01
 +2.18914E+01 -3.37970E+01 +3.34136E+01 -2.23815E+01 +3.94857E+01 -7.36340E+00 +3.91362E+01 +8.81166E+00
 +3.24380E+01 +2.35165E+01 +2.04937E+01 +3.43690E+01 +5.25446E+00 +3.96181E+01 -1.07991E+01 +3.84262E+01
 -2.50602E+01 +3.10029E+01 -3.52197E+01 +1.85681E+01 -3.96395E+01 +3.15207E+00 -3.76169E+01 -1.27367E+01
 -2.94963E+01 -2.65192E+01 -1.66104E+01 -3.59644E+01 -1.06198E+00 -3.95510E+01 +1.46197E+01 -3.67116E+01
 +2.78901E+01 -2.79231E+01 +3.66022E+01 -1.46263E+01 +3.93539E+01 +1.01014E+00 +3.57138E+01 +1.64435E+01
 +2.62884E+01 +2.91702E+01 +1.26216E+01 +3.71323E+01 -3.05874E+00 +3.90499E+01 -1.82034E+01 +3.46270E+01
 -3.03567E+01 +2.45973E+01 -3.75543E+01 +1.06019E+01 -3.86408E+01 -5.07838E+00 -3.34554E+01 -1.98954E+01
 -2.28550E+01 -3.14473E+01 -8.57318E+00 -3.78681E+01 +7.06376E+00 -3.81289E+01 +2.15154E+01 -3.22028E+01
 +3.24400E+01 -2.10669E+01 +3.80740E+01 -6.54098E+00 +3.75166E+01 +9.00973E+00 +3.08737E+01 +2.30596E+01
 +1.92384E+01 +3.33330E+01 +4.51100E+00 +3.81724E+01 -1.09113E+01 +3.68065E+01 -2.45246E+01 +2.94724E+01
 -3.41248E+01 +1.73749E+01 -3.81643E+01 +2.48885E+00 -3.60017E+01 -1.27637E+01 -2.80035E+01 -2.59070E+01
 -1.54820E+01 -3.48142E+01 -4.80028E-01 -3.80506E+01 +1.45622E+01 -3.51053E+01 +2.72040E+01 -2.64719E+01
 +3.54003E+01 -1.35651E+01 +3.78327E+01 +1.51002E+00 +3.41207E+01 +1.63024E+01 +2.48822E+01 +2.84126E+01
 +1.16299E+01 +3.58827E+01 -3.47599E+00 +3.75122E+01 -1.79800E+01 +3.30516E+01 -2.95305E+01 +2.32397E+01
 -3.62609E+01 +9.68190E+00 -3.70912E+01 -5.41267E+00 -3.19016E+01 -1.95912E+01 -2.15492E+01 -3.05555E+01
 -7.72655E+00 -3.65349E+01 +7.31500E+00 -3.65717E+01 +2.11320E+01 -3.06749E+01 +3.14857E+01 -1.98160E+01
 +3.67051E+01 -5.76937E+00 +3.59562E+01 +9.17805E+00 +2.93755E+01 +2.25989E+01 +1.80453E+01 +3.23195E+01
 +3.81580E+00 +3.67720E+01 -1.09971E+01 +3.52474E+01 -2.39886E+01 +2.80078E+01 -3.30554E+01 +1.62424E+01
 -3.67365E+01 +1.87122E+00 -3.44480E+01 -1.27675E+01 -2.65763E+01 -2.52979E+01 -1.44125E+01 -3.36925E+01
 +5.90966E-02 -3.65996E+01 +1.44848E+01 -3.35614E+01 +2.65242E+01 -2.50856E+01 +3.42300E+01 -1.25611E+01
 +3.63628E+01 +1.96994E+00 +3.25907E+01 +1.61449E+01 +2.35403E+01 +2.76648E+01 +1.06934E+01 +3.46674E+01
 -3.85622E+00 +3.60278E+01 -1.77437E+01 +3.15395E+01 -2.87174E+01 +2.19454E+01 -3.50044E+01 +8.81480E+00
 -3.55964E+01 -5.71295E+00 -3.04115E+01 -1.92773E+01 -2.03056E+01 -2.96800E+01 -6.93059E+00 -3.52412E+01
 +7.53530E+00 -3.50708E+01 +2.07423E+01 -2.92107E+01 +3.05509E+01 -1.86261E+01 +3.53781E+01 -5.04606E+00
 +3.44533E+01 +9.31857E+00 +2.79410E+01 +2.21353E+01 +1.69118E+01 +3.13285E+01 +3.16640E+00 +3.54157E+01
