 Created: 16-Jan-2021
 $NMID
 ID='D:\BASISSIMULATI'
 FMTDAT='(8E13.5)'
 VOLUME=   1.00000E+00
 TRAMP=   1.00000E+00
 $END
 +3.77546E+01 +3.52641E+00 +3.32381E+01 +1.82065E+01 +2.32566E+01 +2.98615E+01 +9.48082E+00 +3.65644E+01
 -5.78881E+00 +3.72230E+01 -2.00129E+01 +3.17610E+01 -3.08422E+01 +2.11251E+01 -3.65121E+01 +7.11918E+00
 -3.61348E+01 -7.90673E+00 -2.98403E+01 -2.14567E+01 -1.87435E+01 -3.13104E+01 -4.74488E+00 -3.58925E+01
 +9.79991E+00 -3.45288E+01 +2.24822E+01 -2.75458E+01 +3.12457E+01 -1.61990E+01 +3.47248E+01 -2.44551E+00
 +3.24605E+01 +1.13975E+01 +2.49584E+01 +2.30492E+01 +1.35818E+01 +3.06466E+01 +3.03508E-01 +3.30465E+01
 -1.26409E+01 +2.99992E+01 -2.31344E+01 +2.21657E+01 -2.95297E+01 +1.09816E+01 -3.09112E+01 -1.60716E+00
 -2.72250E+01 -1.34862E+01 -1.92595E+01 -2.27324E+01 -8.48371E+00 -2.79294E+01 +3.22386E+00 -2.83863E+01
 +1.39054E+01 -2.42260E+01 +2.18553E+01 -1.63313E+01 +2.58955E+01 -6.16568E+00 +2.55503E+01 +4.49762E+00
 +2.10938E+01 +1.38875E+01 +1.34686E+01 +2.05322E+01 +4.09463E+00 +2.34918E+01 -5.39470E+00 +2.24890E+01
 -1.34385E+01 +1.79204E+01 -1.88074E+01 +1.07523E+01 -2.07923E+01 +2.32476E+00 -1.92923E+01 -5.89744E+00
 -1.47946E+01 -1.25803E+01 -8.25313E+00 -1.67382E+01 -8.95755E-01 -1.78786E+01 +6.00442E+00 -1.60506E+01
 +1.13496E+01 -1.17983E+01 +1.43922E+01 -6.02950E+00 +1.48361E+01 +1.68136E-01 +1.28510E+01 +5.72974E+00
 +9.00405E+00 +9.79584E+00 +4.12596E+00 +1.18442E+01 -8.58315E-01 +1.17509E+01 -5.10178E+00 +9.77444E+00
 -7.97843E+00 +6.47266E+00 -9.17315E+00 +2.57212E+00 -8.70616E+00 -1.18130E+00 -6.89275E+00 -4.16129E+00
 -4.25143E+00 -5.96404E+00 -1.38241E+00 -6.45857E+00 +1.15757E+00 -5.77920E+00 +2.95903E+00 -4.26655E+00
 +3.82351E+00 -2.37328E+00 +3.77765E+00 -5.56512E-01 +3.03884E+00 +8.19799E-01 +1.94358E+00 +1.55311E+00
 +8.56377E-01 +1.62880E+00 +8.03976E-02 +1.20223E+00 -2.10744E-01 +5.43271E-01 -6.14841E-03 -4.22724E-02
 +5.50034E-01 -2.95444E-01 +1.20366E+00 -7.20710E-02 +1.66153E+00 +6.19308E-01 +1.67131E+00 +1.61768E+00
 +1.09178E+00 +2.64754E+00 -6.28843E-02 +3.38584E+00 -1.61520E+00 +3.54271E+00 -3.25539E+00 +2.93770E+00
 -4.60525E+00 +1.55416E+00 -5.30148E+00 -4.41300E-01 -5.08089E+00 -2.71965E+00 -3.84860E+00 -4.84785E+00
 -1.71414E+00 -6.37364E+00 +1.01401E+00 -6.92004E+00 +3.87592E+00 -6.26990E+00 +6.34196E+00 -4.42277E+00
 +7.91356E+00 -1.61111E+00 +8.22355E+00 +1.72922E+00 +7.11596E+00 +5.03024E+00 +4.68879E+00 +7.69256E+00
 +1.28988E+00 +9.19707E+00 -2.53505E+00 +9.20639E+00 -6.13401E+00 +7.63636E+00 -8.86380E+00 +4.68296E+00
 -1.02078E+01 +7.98222E-01 -9.87452E+00 -3.38188E+00 -7.85775E+00 -7.14551E+00 -4.44700E+00 -9.82990E+00
 -1.84469E-01 -1.09408E+01 +4.22437E+00 -1.02442E+01 +8.03124E+00 -7.81418E+00 +1.05755E+01 -4.02576E+00
 +1.14014E+01 +5.04699E-01 +1.03405E+01 +5.02311E+00 +7.54488E+00 +8.76665E+00 +3.46486E+00 +1.10956E+01
 -1.22621E+00 +1.16047E+01 -5.74593E+00 +1.01951E+01 -9.33646E+00 +7.09209E+00 -1.13943E+01 +2.80866E+00
 -1.15734E+01 -1.94217E+00 -9.84447E+00 -6.36854E+00 -6.49881E+00 -9.73445E+00 -2.09834E+00 -1.14844E+01
 +2.62105E+00 -1.13364E+01 +6.87488E+00 -9.32786E+00 +9.96275E+00 -5.80688E+00 +1.13854E+01 -1.37046E+00
 +1.09264E+01 +3.23835E+00 +8.68495E+00 +7.25687E+00 +5.05523E+00 +1.00308E+01 +6.55828E-01 +1.11221E+01
 -3.77693E+00 +1.03785E+01 -7.51384E+00 +7.95420E+00 -9.95410E+00 +4.27844E+00 -1.07227E+01 -2.11202E-02
 -9.72805E+00 -4.22675E+00 -7.17119E+00 -7.65153E+00 -3.50582E+00 -9.75248E+00 +6.42597E-01 -1.02170E+01
 +4.58435E+00 -9.00889E+00 +7.68088E+00 -6.36742E+00 +9.44869E+00 -2.76075E+00 +9.63481E+00 +1.19727E+00
 +8.25203E+00 +4.85201E+00 +5.56937E+00 +7.61668E+00 +2.06051E+00 +9.06668E+00 -1.67977E+00 +9.00435E+00
 -5.03660E+00 +7.48456E+00 -7.47612E+00 +4.79801E+00 -8.63017E+00 +1.41646E+00 -8.35111E+00 -2.08987E+00
 -6.72888E+00 -5.14840E+00 -4.06873E+00 -7.27739E+00 -8.34571E-01 -8.16136E+00 +2.43150E+00 -7.69687E+00
 +5.19978E+00 -6.00233E+00 +7.03837E+00 -3.39149E+00 +7.67987E+00 -3.16107E-01 +7.05915E+00 +2.71165E+00
 +5.31718E+00 +5.20403E+00 +2.77138E+00 +6.77560E+00 -1.41399E-01 +7.20204E+00 -2.93923E+00 +6.45097E+00
 -5.17420E+00 +4.68086E+00 -6.50335E+00 +2.20932E+00 -6.74045E+00 -5.43153E-01 -5.88085E+00 -3.12397E+00
 -4.09652E+00 -5.12217E+00 -1.70291E+00 -6.23306E+00 +8.96066E-01 -6.30377E+00 +3.27545E+00 -5.35317E+00
 +5.05796E+00 -3.56372E+00 +5.97300E+00 -1.24743E+00 +5.89692E+00 +1.20778E+00 +4.86870E+00 +3.40232E+00
 +3.07924E+00 +4.98921E+00 +8.36712E-01 +5.72819E+00 -1.48579E+00 +5.52137E+00 -3.51163E+00 +4.42528E+00
 -4.92096E+00 +2.63800E+00 -5.50062E+00 +4.64068E-01 -5.17573E+00 -1.73679E+00 -4.01859E+00 -3.60850E+00
 -2.23388E+00 -4.85565E+00 -1.23042E-01 -5.28957E+00 +1.96607E+00 -4.85637E+00 +3.69592E+00 -3.64301E+00
 +4.79333E+00 -1.86055E+00 +5.09218E+00 +1.91978E-01 +4.55823E+00 +2.17731E+00 +3.29239E+00 +3.77485E+00
 +1.51214E+00 +4.73206E+00 -4.85339E-01 +4.90411E+00 -2.37243E+00 +4.27553E+00 -3.84442E+00 +2.96075E+00
 -4.66848E+00 +1.18373E+00 -4.72024E+00 -7.59895E-01 -4.00249E+00 -2.55171E+00 -2.64292E+00 -3.90241E+00
 -8.71750E-01 -4.59838E+00 +1.01699E+00 -4.53537E+00 +2.71411E+00 -3.73403E+00 +3.94574E+00 -2.33490E+00
 +4.51744E+00 -5.74052E-01 +4.34489E+00 +1.25663E+00 +3.46621E+00 +2.85770E+00 +2.03420E+00 +3.97113E+00
 +2.89912E-01 +4.42186E+00 -1.47782E+00 +4.14533E+00 -2.98020E+00 +3.19662E+00 -3.97571E+00 +1.73981E+00
 -4.30891E+00 +1.97710E-02 -3.93477E+00 -1.67902E+00 -2.92446E+00 -3.07958E+00 -1.45212E+00 -3.95761E+00
 +2.35150E-01 -4.17746E+00 +1.85875E+00 -3.71308E+00 +3.15467E+00 -2.65060E+00 +3.91648E+00 -1.17258E+00
 +4.02821E+00 +4.73351E-01 +3.48192E+00 +2.01607E+00 +2.37723E+00 +3.20564E+00 +9.03284E-01 +3.85382E+00
 -6.93612E-01 +3.86385E+00 -2.15122E+00 +3.24464E+00 -3.23445E+00 +2.10753E+00 -3.77318E+00 +6.46373E-01
 -3.68890E+00 -8.95560E-01 -3.00583E+00 -2.26604E+00 -1.84513E+00 -3.24507E+00 -4.03485E-01 -3.68008E+00
 +1.08018E+00 -3.50945E+00 +2.36424E+00 -2.77087E+00 +3.24351E+00 -1.59344E+00 +3.58179E+00 -1.75172E-01
 +3.33263E+00 +1.25022E+00 +2.54528E+00 +2.45161E+00 +1.35510E+00 +3.23766E+00 -3.95904E-02 +3.48686E+00
 -1.41040E+00 +3.16599E+00 -2.53587E+00 +2.33402E+00 -3.23686E+00 +1.13134E+00 -3.40452E+00 -2.43758E-01
 -3.01677E+00 -1.56748E+00 -2.14082E+00 -2.62642E+00 -9.21505E-01 -3.25140E+00 +4.42393E-01 -3.34390E+00
 +1.73007E+00 -2.89115E+00 +2.73380E+00 -1.96759E+00 +3.29173E+00 -7.22740E-01 +3.31330E+00 +6.42641E-01
 +2.79354E+00 +1.90827E+00 +1.81393E+00 +2.86910E+00 +5.29860E-01 +3.36768E+00 -8.53478E-01 +3.31931E+00
 -2.11306E+00 +2.72597E+00 -3.04308E+00 +1.67685E+00 -3.48763E+00 +3.35440E-01 -3.36620E+00 -1.08527E+00
 -2.68766E+00 -2.35562E+00 -1.55070E+00 -3.26540E+00 -1.30120E-01 -3.65772E+00 +1.34912E+00 -3.45525E+00
 +2.64645E+00 -2.67480E+00 +3.54378E+00 -1.42732E+00 +3.88114E+00 +9.68763E-02 +3.58446E+00 +1.65613E+00
 +2.68052E+00 +2.99460E+00 +1.29644E+00 +3.88316E+00 -3.57054E-01 +4.15765E+00 -2.01655E+00 +3.74831E+00
 -3.40677E+00 +2.69516E+00 -4.28515E+00 +1.14624E+00 -4.48325E+00 -6.61838E-01 -3.93792E+00 -2.43889E+00
 -2.70671E+00 -3.88658E+00 -9.64130E-01 -4.74752E+00 +1.02170E+00 -4.85011E+00 +2.92911E+00 -4.14132E+00
 +4.43401E+00 -2.70150E+00 +5.26400E+00 -7.37575E-01 +5.24676E+00 +1.44525E+00 +4.34405E+00 +3.48991E+00
 +2.66498E+00 +5.04497E+00 +4.55055E-01 +5.82423E+00 -1.93845E+00 +5.65845E+00 -4.12014E+00 +4.52985E+00
 -5.71110E+00 +2.58271E+00 -6.41405E+00 +1.06967E-01 -6.06786E+00 -2.50383E+00 -4.68159E+00 -4.81443E+00
 -2.44125E+00 -6.41987E+00 +3.13514E-01 -7.01595E+00 +3.13996E+00 -6.45580E+00 +5.56302E+00 -4.78225E+00
 +7.15480E+00 -2.22919E+00 +7.60977E+00 +8.09691E-01 +6.80229E+00 +3.84107E+00 +4.81592E+00 +6.35188E+00
 +1.93803E+00 +7.89605E+00 -1.38076E+00 +8.17354E+00 -4.59689E+00 +7.08747E+00 -7.16297E+00 +4.76883E+00
 -8.62111E+00 +1.56291E+00 -8.68452E+00 -2.02145E+00 -7.29278E+00 -5.39276E+00 -4.63027E+00 -7.97485E+00
 -1.10328E+00 -9.30572E+00 +2.72182E+00 -9.12027E+00 +6.20995E+00 -7.40194E+00 +8.76340E+00 -4.39342E+00
 +9.92493E+00 -5.63244E-01 +9.45977E+00 +3.46742E+00 +7.40198E+00 +7.02624E+00 +4.05597E+00 +9.50281E+00
 -4.82395E-02 +1.04542E+01 -4.23959E+00 +9.68450E+00 -7.81673E+00 +7.28404E+00 -1.01666E+01 +3.62054E+00
 -1.08706E+01 -7.17458E-01 -9.77953E+00 -5.01603E+00 -7.04410E+00 -8.55478E+00 -3.09487E+00 -1.07289E+01
 +1.42628E+00 -1.11540E+01 +5.77168E+00 -9.73432E+00 +9.21315E+00 -6.68338E+00 +1.11656E+01 -2.49177E+00
 +1.12880E+01 +2.15276E+00 +9.54350E+00 +6.47964E+00 +6.20857E+00 +9.76518E+00 +1.82874E+00 +1.14554E+01
 -2.87192E+00 +1.12610E+01 -7.11232E+00 +9.20730E+00 -1.01861E+01 +5.63176E+00 -1.15812E+01 +1.12743E+00
 -1.10667E+01 -3.55681E+00 -8.73178E+00 -7.64269E+00 -4.97014E+00 -1.04540E+01 -4.12764E-01 -1.15306E+01
 +4.17960E+00 -1.07050E+01 +8.04553E+00 -8.12879E+00 +1.05514E+01 -4.24534E+00 +1.12972E+01 +2.88026E-01
 +1.01816E+01 +4.71283E+00 +7.41558E+00 +8.29857E+00 +3.48265E+00 +1.04656E+01 -9.46586E-01 +1.08806E+01
 -5.13067E+00 +9.50870E+00 -8.38366E+00 +6.61424E+00 -1.01897E+01 +2.70996E+00 -1.02866E+01 -1.53467E+00
 -8.70385E+00 -5.41012E+00 -5.75081E+00 -8.28762E+00 -1.95662E+00 -9.72321E+00 +2.02539E+00 -9.52748E+00
 +5.53209E+00 -7.78984E+00 +8.00301E+00 -4.85425E+00 +9.07185E+00 -1.25218E+00 +8.62137E+00 +2.39443E+00
 +6.79364E+00 +5.48230E+00 +3.95526E+00 +7.52855E+00 +6.25093E-01 +8.24775E+00 -2.62113E+00 +7.59153E+00
 -5.25201E+00 +5.74538E+00 -6.86925E+00 +3.08499E+00 -7.26890E+00 +1.01546E-01 -6.46561E+00 -2.68940E+00
 -4.67710E+00 -4.83848E+00 -2.27380E+00 -6.03637E+00 +2.95665E-01 -6.15855E+00 +2.58846E+00 -5.27451E+00
 +4.24511E+00 -3.62153E+00 +5.04699E+00 -1.55002E+00 +4.94432E+00 +5.48070E-01 +4.05123E+00 +2.31328E+00
 +2.61082E+00 +3.48136E+00 +9.38811E-01 +3.92339E+00 -6.42253E-01 +3.65717E+00 -1.86482E+00 +2.82959E+00
 -2.56246E+00 +1.67528E+00 -2.69223E+00 +4.61271E-01 -2.33021E+00 -5.70358E-01 -1.64297E+00 -1.24995E+00
 -8.42295E-01 -1.50876E+00 -1.33634E-01 -1.38355E+00 +3.30340E-01 -9.97528E-01 +4.81201E-01 -5.23122E-01
