 Created: 16-Jan-2021
 $NMID
 ID='D:\BASISSIMULATI'
 FMTDAT='(8E13.5)'
 VOLUME=   1.00000E+00
 TRAMP=   1.00000E+00
 $END
 +4.47832E+01 +2.82701E+00 +2.90574E+01 +3.02061E+01 -5.87403E-01 +3.30107E+01 -1.70110E+01 +1.17463E+01
 -6.87749E+00 -1.03403E+01 +1.67298E+01 -1.02249E+01 +2.75205E+01 +1.24166E+01 +1.19543E+01 +3.50733E+01
 -1.74253E+01 +3.45543E+01 -3.41651E+01 +9.70053E+00 -2.35581E+01 -1.74432E+01 +3.25235E+00 -2.29762E+01
 +2.03175E+01 -4.09530E+00 +1.21224E+01 +1.86349E+01 -1.16211E+01 +2.16836E+01 -2.58823E+01 +1.57372E+00
 -1.50365E+01 -2.18837E+01 +1.17871E+01 -2.50974E+01 +2.95793E+01 -3.77070E+00 +2.17166E+01 +2.29224E+01
 -4.08578E+00 +3.09474E+01 -2.35301E+01 +1.45279E+01 -1.94228E+01 -8.69403E+00 +1.86842E+00 -1.52502E+01
 +1.70718E+01 +1.15912E+00 +9.04400E+00 +2.36681E+01 -1.63908E+01 +2.88900E+01 -3.61025E+01 +9.79113E+00
 -3.20932E+01 -1.74908E+01 -8.76479E+00 -2.93349E+01 +1.16680E+01 -1.73710E+01 +1.09030E+01 +3.85833E+00
 -7.86893E+00 +1.15305E+01 -2.35217E+01 -3.02355E+00 -1.79566E+01 -2.59676E+01 +6.11015E+00 -3.46281E+01
 +2.77789E+01 -1.96480E+01 +2.82309E+01 +5.97768E+00 +8.76611E+00 +1.95921E+01 -1.08307E+01 +1.07222E+01
 -1.17384E+01 -9.20165E+00 +5.73879E+00 -1.84825E+01 +2.28785E+01 -6.54740E+00 +2.11521E+01 +1.58059E+01
 +4.21593E-01 +2.70983E+01 -2.09392E+01 +1.61409E+01 -2.38816E+01 -7.18941E+00 -6.95230E+00 -2.16740E+01
 +1.26948E+01 -1.52659E+01 +1.62511E+01 +3.62399E+00 +1.46333E+00 +1.48359E+01 -1.55557E+01 +6.38765E+00
 -1.63989E+01 -1.38842E+01 +1.55478E+00 -2.61318E+01 +2.26202E+01 -1.78853E+01 +2.80581E+01 +3.94129E+00
 +1.40601E+01 +1.99375E+01 -4.97182E+00 +1.70030E+01 -1.07567E+01 +6.83963E-01 +1.10959E+00 -1.07664E+01
 +1.72217E+01 -4.50451E+00 +1.98052E+01 +1.43844E+01 +4.19369E+00 +2.80004E+01 -1.66656E+01 +2.31189E+01
 -2.48210E+01 +3.90948E+00 -1.45470E+01 -1.23313E+01 +2.53677E+00 -1.19946E+01 +9.15534E+00 +1.96768E+00
 -7.68215E-01 +1.34608E+01 -1.65004E+01 +9.30221E+00 -2.13208E+01 -7.88923E+00 -8.97079E+00 -2.23886E+01
 +1.03096E+01 -2.07336E+01 +1.97954E+01 -4.65582E+00 +1.23473E+01 +1.08689E+01 -3.09618E+00 +1.22537E+01
 -1.06492E+01 +2.13649E-01 -3.04766E+00 -1.14565E+01 +1.15328E+01 -9.71946E+00 +1.77956E+01 +4.93122E+00
 +8.38508E+00 +1.90936E+01 -9.02582E+00 +1.95783E+01 -1.92942E+01 +6.07421E+00 -1.43838E+01 -8.85069E+00
 -7.42553E-01 -1.21050E+01 +7.43799E+00 -2.56450E+00 +2.20170E+00 +8.34104E+00 -1.06361E+01 +8.18258E+00
 -1.74990E+01 -4.25725E+00 -1.04442E+01 -1.79330E+01 +5.18353E+00 -2.03767E+01 +1.60791E+01 -9.66776E+00
 +1.38090E+01 +4.02894E+00 +2.59202E+00 +8.54295E+00 -5.30189E+00 +1.35581E+00 -1.72166E+00 -8.42703E+00
 +9.58516E+00 -9.38352E+00 +1.69489E+01 +9.63572E-01 +1.23192E+01 +1.38559E+01 -9.83363E-01 +1.79249E+01
 -1.16604E+01 +1.01008E+01 -1.13669E+01 -1.75532E+00 -2.43631E+00 -6.75286E+00 +4.90217E+00 -1.45612E+00
 +2.76209E+00 +7.20872E+00 -6.82407E+00 +9.14137E+00 -1.41880E+01 +1.06470E+00 -1.16203E+01 -1.03983E+01
 -7.85262E-01 -1.52897E+01 +9.09655E+00 -9.87388E+00 +1.02156E+01 +9.34829E-02 +3.42139E+00 +5.27121E+00
 -3.11819E+00 +1.77993E+00 -2.19127E+00 -5.41245E+00 +5.48944E+00 -7.76807E+00 +1.22635E+01 -1.67497E+00
 +1.11687E+01 +8.14219E+00 +2.63141E+00 +1.33598E+01 -6.17431E+00 +1.00503E+01 -8.35830E+00 +2.13927E+00
 -3.71656E+00 -2.76251E+00 +1.57570E+00 -7.89179E-01 +1.33502E+00 +4.75769E+00 -4.61505E+00 +7.05500E+00
 -1.05306E+01 +2.60319E+00 -1.05326E+01 -5.46144E+00 -4.25048E+00 -1.05761E+01 +3.06585E+00 -9.06471E+00
 +5.75866E+00 -3.35996E+00 +3.02078E+00 +7.46405E-01 -8.05596E-01 -1.71782E-01 -8.42861E-01 -4.12474E+00
 +3.53235E+00 -6.05855E+00 +8.31408E+00 -2.99188E+00 +8.96475E+00 +3.16548E+00 +4.76308E+00 +7.64598E+00
 -7.58603E-01 +7.42702E+00 -3.40824E+00 +3.83718E+00 -2.22646E+00 +8.57297E-01 +3.67440E-02 +1.09900E+00
 +2.48244E-03 +3.48979E+00 -2.96632E+00 +4.70927E+00 -6.35096E+00 +2.64840E+00 -7.13181E+00 -1.61023E+00
 -4.67434E+00 -5.03737E+00 -1.07346E+00 -5.60817E+00 +1.08806E+00 -3.96713E+00 +1.12787E+00 -2.38328E+00
 +5.09001E-01 -2.34367E+00 +1.00532E+00 -3.27669E+00 +2.85857E+00 -3.47424E+00 +4.72387E+00 -1.98896E+00
 +5.18672E+00 +5.03716E-01 +4.10640E+00 +2.56759E+00 +2.47951E+00 +3.44695E+00 +1.22812E+00 +3.53339E+00
 +3.66456E-01 +3.56663E+00 -6.38180E-01 +3.67379E+00 -1.93845E+00 +3.36173E+00 -3.01279E+00 +2.33282E+00
 -3.32872E+00 +1.01357E+00 -3.07283E+00 +9.31755E-02 -2.95838E+00 -3.61660E-01 -3.26517E+00 -1.05496E+00
 -3.29391E+00 -2.55054E+00 -2.05205E+00 -4.31532E+00 +4.54965E-01 -4.96413E+00 +2.83101E+00 -3.67254E+00
 +3.47948E+00 -1.28287E+00 +2.28902E+00 +2.75379E-01 +9.56563E-01 -1.04622E-01 +1.34987E+00 -1.40959E+00
 +3.43875E+00 -1.37113E+00 +5.02880E+00 +1.14813E+00 +3.84788E+00 +4.65976E+00 +3.04934E-02 +6.20113E+00
 -3.63319E+00 +4.23729E+00 -4.22744E+00 +4.25399E-01 -1.65819E+00 -1.75873E+00 +1.03880E+00 -4.20060E-01
 +6.11834E-01 +2.69015E+00 -3.01310E+00 +3.72336E+00 -6.35216E+00 +6.08225E-01 -5.65707E+00 -4.57437E+00
 -7.83397E-01 -7.30686E+00 +4.31293E+00 -5.00995E+00 +5.22905E+00 +2.09169E-01 +1.48884E+00 +3.37113E+00
 -2.77676E+00 +1.47044E+00 -2.78242E+00 -3.38225E+00 +2.05332E+00 -5.83009E+00 +7.23117E+00 -2.56291E+00
 +7.41270E+00 +4.13757E+00 +1.78465E+00 +8.30563E+00 -4.82196E+00 +6.04226E+00 -6.43093E+00 -4.83997E-01
 -1.80633E+00 -4.91549E+00 +4.12926E+00 -2.87587E+00 +4.99166E+00 +3.56249E+00 -6.83041E-01 +7.68828E+00
 -7.70899E+00 +4.71456E+00 -9.12870E+00 -3.27943E+00 -3.10432E+00 -9.06492E+00 +4.99781E+00 -7.21697E+00
 +7.62624E+00 +4.29370E-01 +2.44559E+00 +6.33901E+00 -5.17861E+00 +4.57584E+00 -7.28299E+00 -3.22516E+00
 -1.18929E+00 -9.22571E+00 +7.59930E+00 -6.99967E+00 +1.05628E+01 +1.97408E+00 +4.53214E+00 +9.45824E+00
 -4.96391E+00 +8.37336E+00 -8.87953E+00 -1.62618E-01 -3.49181E+00 -7.70285E+00 +5.76908E+00 -6.64045E+00
 +9.46322E+00 +2.21153E+00 +3.42259E+00 +1.01792E+01 -6.92582E+00 +9.11716E+00 -1.16385E+01 -4.70768E-01
 -5.97091E+00 -9.65036E+00 +4.77508E+00 -9.64020E+00 +1.02174E+01 -4.84420E-01 +5.01982E+00 +8.77754E+00
 -5.71568E+00 +8.83881E+00 -1.12539E+01 -6.63000E-01 -5.73055E+00 -1.05604E+01 +5.90319E+00 -1.09936E+01
 +1.24929E+01 -1.15569E+00 +7.54476E+00 +9.67561E+00 -4.25639E+00 +1.10502E+01 -1.14204E+01 +1.62195E+00
 -6.84322E+00 -9.33643E+00 +5.09081E+00 -1.08719E+01 +1.26015E+01 -1.14035E+00 +7.99765E+00 +1.05722E+01
 -4.63305E+00 +1.27770E+01 -1.32008E+01 +3.07196E+00 -9.36362E+00 -9.30322E+00 +3.18550E+00 -1.23429E+01
 +1.21378E+01 -3.04913E+00 +8.54626E+00 +9.45459E+00 -4.29005E+00 +1.27020E+01 -1.38518E+01 +3.11976E+00
 -1.05692E+01 -1.02801E+01 +2.69691E+00 -1.45432E+01 +1.32512E+01 -5.44974E+00 +1.08878E+01 +8.19386E+00
 -2.03437E+00 +1.30168E+01 -1.27246E+01 +4.17508E+00 -1.03977E+01 -9.74483E+00 +3.06591E+00 -1.49675E+01
 +1.47592E+01 -6.00887E+00 +1.32639E+01 +8.79209E+00 -1.08695E-01 +1.52532E+01 -1.24284E+01 +7.18958E+00
 -1.16929E+01 -7.41335E+00 +1.36799E+00 -1.40736E+01 +1.38482E+01 -5.97663E+00 +1.32046E+01 +9.20956E+00
 -3.89977E-01 +1.66693E+01 -1.40255E+01 +8.90173E+00 -1.45493E+01 -6.81092E+00 -1.45843E+00 -1.53559E+01
 +1.24690E+01 -8.51362E+00 +1.35720E+01 +6.91610E+00 +7.09760E-01 +1.56445E+01 -1.34842E+01 +8.83495E+00
 -1.48666E+01 -7.12358E+00 -1.67718E+00 -1.66997E+01 +1.35653E+01 -1.03532E+01 +1.61594E+01 +6.03763E+00
 +3.58735E+00 +1.67677E+01 -1.19189E+01 +1.15863E+01 -1.52490E+01 -4.22799E+00 -3.21444E+00 -1.49338E+01
 +1.22161E+01 -9.70707E+00 +1.55307E+01 +6.65815E+00 +2.88389E+00 +1.82737E+01 -1.39852E+01 +1.36126E+01
 -1.90743E+01 -3.16031E+00 -7.71617E+00 -1.61265E+01 +8.79851E+00 -1.30918E+01 +1.41919E+01 +2.47218E+00
 +3.13335E+00 +1.47540E+01 -1.34442E+01 +1.10540E+01 -1.89419E+01 -5.69307E+00 -7.34101E+00 -1.96240E+01
 +1.07793E+01 -1.73504E+01 +1.84297E+01 -1.06405E+00 +8.74332E+00 +1.35068E+01 -8.29201E+00 +1.23940E+01
 -1.55547E+01 -2.95421E+00 -5.54746E+00 -1.70393E+01 +1.21785E+01 -1.54558E+01 +2.02660E+01 +9.36348E-01
 +1.05126E+01 +1.67002E+01 -8.00944E+00 +1.67933E+01 -1.76811E+01 +1.25411E+00 -9.46745E+00 -1.47703E+01
 +8.26146E+00 -1.57605E+01 +1.78918E+01 -9.80710E-01 +9.80176E+00 +1.47731E+01 -8.15447E+00 +1.56336E+01
 -1.82373E+01 +2.48363E-01 -1.01420E+01 -1.67606E+01 +8.85209E+00 -1.89636E+01 +2.08684E+01 -4.13506E+00
 +1.47985E+01 +1.35400E+01 -2.88863E+00 +1.72736E+01 -1.44822E+01 +4.05542E+00 -8.37079E+00 -1.24026E+01
 +9.53569E+00 -1.50814E+01 +2.14993E+01 -3.62426E-01 +1.52559E+01 +1.83041E+01 -3.95158E+00 +2.34081E+01
 -1.83891E+01 +1.04081E+01 -1.50495E+01 -7.84590E+00 +1.71572E+00 -1.36473E+01 +1.44989E+01 -1.71603E+00
 +9.90111E+00 +1.56482E+01 -8.29568E+00 +2.06037E+01 -2.27368E+01 +7.26554E+00 -1.93981E+01 -1.24293E+01
 -1.29865E+00 -2.02530E+01 +1.43791E+01 -9.39120E+00 +1.29827E+01 +8.95392E+00 -3.38269E+00 +1.65214E+01
 -1.79818E+01 +5.82785E+00 -1.58655E+01 -1.25305E+01 +1.44965E+00 -2.02521E+01 +1.73859E+01 -9.26257E+00
 +1.64419E+01 +1.03061E+01 -6.76547E-01 +1.98984E+01 -1.77069E+01 +1.05512E+01 -1.86359E+01 -8.43137E+00
 -3.24341E+00 -1.86068E+01 +1.27790E+01 -1.04125E+01 +1.32429E+01 +7.51572E+00 -2.64821E+00 +1.68194E+01
 -1.94517E+01 +7.40826E+00 -2.05127E+01 -1.26016E+01 -4.19948E+00 -2.47059E+01 +1.44918E+01 -1.79599E+01
 +1.85195E+01 +4.51011E-01 +5.33128E+00 +1.23129E+01 -1.07722E+01 +6.20374E+00 -1.27236E+01 -1.13683E+01
 +2.54657E+00 -2.23661E+01 +2.10354E+01 -1.48947E+01 +2.52709E+01 +5.11450E+00 +1.13096E+01 +1.96019E+01
 -7.44792E+00 +1.58847E+01 -1.33199E+01 -1.10827E+00 -1.51746E+00 -1.37786E+01 +1.53146E+01 -9.11287E+00
 +1.95790E+01 +8.60689E+00 +6.01048E+00 +2.20215E+01 -1.31119E+01 +1.76872E+01 -1.98846E+01 -7.58194E-01
 -8.17943E+00 -1.60863E+01 +1.04449E+01 -1.41892E+01 +1.80434E+01 +2.30206E+00 +7.73453E+00 +1.67399E+01
 -9.71943E+00 +1.48058E+01 -1.65664E+01 -1.50195E+00 -5.50112E+00 -1.58660E+01 +1.31426E+01 -1.36292E+01
 +2.14247E+01 +3.86518E+00 +1.12299E+01 +2.05448E+01 -7.90454E+00 +2.11990E+01 -1.81426E+01 +6.15906E+00
 -1.07028E+01 -9.21256E+00 +5.72145E+00 -9.64607E+00 +1.36231E+01 +5.10447E+00 +3.90055E+00 +2.00685E+01
