 Created: 16-Jan-2021
 $NMID
 ID='D:\BASISSIMULATI'
 FMTDAT='(8E13.5)'
 VOLUME=   1.00000E+00
 TRAMP=   1.00000E+00
 $END
 +6.49531E+01 +1.06249E+01 +5.57741E+01 -1.18233E+01 +2.26496E+01 -1.95462E+01 -1.41884E+01 -3.18379E+00
 -3.33301E+01 +2.84815E+01 -2.66764E+01 +5.46067E+01 -4.17552E+00 +5.70148E+01 +1.42483E+01 +3.29070E+01
 +1.33709E+01 -3.41144E+00 -6.73257E+00 -3.06515E+01 -3.14680E+01 -3.49321E+01 -4.27217E+01 -1.82334E+01
 -3.17403E+01 +4.51015E+00 -4.76454E+00 +1.67765E+01 +2.19585E+01 +1.17142E+01 +3.34793E+01 -4.42103E+00
 +2.54898E+01 -1.81628E+01 +5.65153E+00 -1.89438E+01 -1.29492E+01 -6.00348E+00 -2.07550E+01 +1.21572E+01
 -1.68345E+01 +2.43304E+01 -7.50317E+00 +2.38798E+01 -6.74872E-01 +1.19033E+01 -5.42469E-01 -4.87643E+00
 -5.90917E+00 -1.89356E+01 -1.22240E+01 -2.58339E+01 -1.49318E+01 -2.52071E+01 -1.17036E+01 -1.94428E+01
 -2.81757E+00 -1.18378E+01 +9.48307E+00 -5.41255E+00 +2.16873E+01 -2.26322E+00 +2.97236E+01 -2.86401E+00
 +3.02434E+01 -5.42710E+00 +2.24875E+01 -6.25465E+00 +9.56757E+00 -1.73808E+00 -2.38225E+00 +8.79495E+00
 -7.47778E+00 +2.15075E+01 -3.98539E+00 +2.95604E+01 +4.04988E+00 +2.73665E+01 +9.16787E+00 +1.48518E+01
 +5.67669E+00 -1.59878E+00 -5.92869E+00 -1.27512E+01 -1.87493E+01 -1.25492E+01 -2.40137E+01 -2.33643E+00
 -1.73307E+01 +9.93595E+00 -2.13934E+00 +1.51807E+01 +1.22969E+01 +9.51606E+00 +1.70687E+01 -3.06834E+00
 +9.61744E+00 -1.36370E+01 -4.68979E+00 -1.46891E+01 -1.64278E+01 -5.40099E+00 -1.85603E+01 +7.93129E+00
 -1.09000E+01 +1.63683E+01 +3.45062E-01 +1.43821E+01 +7.26287E+00 +3.26056E+00 +5.63176E+00 -1.02224E+01
 -2.65921E+00 -1.85434E+01 -1.14333E+01 -1.81075E+01 -1.45802E+01 -1.08711E+01 -9.81372E+00 -2.33492E+00
 +4.14092E-01 +2.25698E+00 +1.08994E+01 +8.96864E-01 +1.68649E+01 -4.59342E+00 +1.63288E+01 -1.01600E+01
 +1.06387E+01 -1.19563E+01 +3.37268E+00 -8.25688E+00 -1.54550E+00 -1.57487E-01 -1.67841E+00 +8.96986E+00
 +2.75423E+00 +1.49843E+01 +8.83367E+00 +1.49738E+01 +1.22839E+01 +8.96526E+00 +9.86437E+00 +3.38489E-01
 +1.64337E+00 -5.71521E+00 -8.42592E+00 -5.23221E+00 -1.44937E+01 +1.72385E+00 -1.25374E+01 +1.05799E+01
 -3.43899E+00 +1.49183E+01 +6.99793E+00 +1.08736E+01 +1.16055E+01 +2.42134E-01 +6.83018E+00 -1.02187E+01
 -4.42357E+00 -1.32517E+01 -1.44486E+01 -6.37409E+00 -1.60653E+01 +5.93237E+00 -7.91894E+00 +1.50274E+01
 +4.24174E+00 +1.41759E+01 +1.15119E+01 +3.52701E+00 +8.30963E+00 -9.77698E+00 -3.36798E+00 -1.66500E+01
 -1.51896E+01 -1.26709E+01 -1.84689E+01 -1.35112E+00 -1.05170E+01 +8.44493E+00 +3.36603E+00 +9.07659E+00
 +1.37807E+01 -1.87771E-01 +1.41123E+01 -1.26297E+01 +5.27444E+00 -1.90785E+01 -5.19158E+00 -1.46823E+01
 -8.89905E+00 -2.38983E+00 -2.87242E+00 +9.38520E+00 +8.39482E+00 +1.30438E+01 +1.64939E+01 +7.25554E+00
 +1.54403E+01 -2.42452E+00 +5.98512E+00 -8.03439E+00 -5.21686E+00 -5.22721E+00 -1.07288E+01 +3.70924E+00
 -7.73483E+00 +1.19198E+01 +2.82762E-01 +1.33154E+01 +6.59436E+00 +7.01943E+00 +6.42503E+00 -2.31191E+00
 +3.03157E-01 -8.25080E+00 -6.78119E+00 -7.36073E+00 -9.44617E+00 -1.36969E+00 -5.92682E+00 +4.62378E+00
 +9.42037E-01 +6.22155E+00 +6.21277E+00 +2.84522E+00 +6.59903E+00 -2.30290E+00 +2.61513E+00 -5.06320E+00
 -2.30975E+00 -3.51321E+00 -4.71781E+00 +8.85270E-01 -3.61190E+00 +4.78285E+00 -7.53608E-01 +5.61901E+00
 +1.13225E+00 +3.31824E+00 +5.75346E-01 -1.11681E-01 -1.74863E+00 -2.43615E+00 -3.91310E+00 -2.84569E+00
 -4.42006E+00 -2.17228E+00 -3.20886E+00 -1.77788E+00 -1.32358E+00 -2.27196E+00 +2.18203E-01 -3.15716E+00
 +1.23368E+00 -3.53255E+00 +2.20433E+00 -3.03847E+00 +3.45475E+00 -2.12128E+00 +4.58857E+00 -1.43683E+00
 +4.77399E+00 -1.06099E+00 +3.60488E+00 -3.45924E-01 +1.67177E+00 +1.38132E+00 +2.12578E-01 +3.92482E+00
 +6.60967E-02 +6.03327E+00 +8.46261E-01 +6.23321E+00 +1.14437E+00 +4.06309E+00 -2.93130E-01 +6.46445E-01
 -3.34646E+00 -1.98608E+00 -6.32883E+00 -2.38950E+00 -7.10260E+00 -8.46380E-01 -4.71353E+00 +8.02943E-01
 -2.64061E-01 +5.90285E-01 +3.72430E+00 -1.96339E+00 +5.05259E+00 -5.31914E+00 +3.40609E+00 -6.95056E+00
 +5.51560E-01 -5.20748E+00 -1.00011E+00 -6.24588E-01 +1.18624E-01 +4.32387E+00 +3.09409E+00 +6.87515E+00
 +5.51112E+00 +5.84982E+00 +5.12353E+00 +2.40419E+00 +1.52538E+00 -8.53001E-01 -3.47749E+00 -1.71920E+00
 -7.04709E+00 +9.81263E-02 -7.19845E+00 +2.86726E+00 -4.08098E+00 +4.13452E+00 +1.91261E-01 +2.49096E+00
 +2.98898E+00 -1.42441E+00 +2.87815E+00 -5.33907E+00 +4.55870E-01 -6.85261E+00 -2.18443E+00 -5.00061E+00
 -2.93330E+00 -8.56583E-01 -1.08140E+00 +3.17651E+00 +2.23866E+00 +4.88227E+00 +4.82491E+00 +3.56939E+00
 +4.85468E+00 +4.09245E-01 +2.07071E+00 -2.39100E+00 -2.03456E+00 -3.01896E+00 -5.13194E+00 -1.18358E+00
 -5.48241E+00 +1.75054E+00 -2.99114E+00 +3.67827E+00 +7.56017E-01 +3.12685E+00 +3.48602E+00 +2.19728E-01
 +3.64099E+00 -3.37384E+00 +1.31981E+00 -5.47335E+00 -1.82113E+00 -4.75846E+00 -3.63778E+00 -1.61524E+00
 -2.86213E+00 +2.07931E+00 +9.88229E-02 +4.10665E+00 +3.42850E+00 +3.27479E+00 +5.05731E+00 +1.53244E-01
 +3.97744E+00 -3.27978E+00 +8.88816E-01 -4.85328E+00 -2.22610E+00 -3.52726E+00 -3.33258E+00 -1.37781E-02
 -1.61903E+00 +3.67351E+00 +1.96356E+00 +5.45416E+00 +5.22942E+00 +4.44590E+00 +6.04493E+00 +1.49676E+00
 +3.61682E+00 -1.33745E+00 -9.83100E-01 -2.06790E+00 -5.38680E+00 -4.67499E-02 -7.29146E+00 +3.53430E+00
 -5.83397E+00 +6.26860E+00 -2.14938E+00 +5.97538E+00 +1.27943E+00 +2.12816E+00 +2.16170E+00 -3.62778E+00
 -7.97983E-02 -8.28945E+00 -3.79735E+00 -9.25935E+00 -6.05929E+00 -6.01440E+00 -4.56833E+00 -5.73850E-01
 +6.40611E-01 +3.66792E+00 +6.92023E+00 +4.11774E+00 +1.05091E+01 +7.75844E-01 +8.96617E+00 -3.63546E+00
 +2.94095E+00 -5.44992E+00 -4.02803E+00 -2.65245E+00 -7.72282E+00 +3.49424E+00 -6.07030E+00 +9.05004E+00
 -6.25044E-01 +9.98445E+00 +4.43349E+00 +5.04608E+00 +5.21839E+00 -3.13335E+00 +9.68321E-01 -9.61703E+00
 -5.26333E+00 -1.04527E+01 -8.67191E+00 -5.40403E+00 -6.14317E+00 +1.85510E+00 +1.37455E+00 +6.30591E+00
 +9.33533E+00 +5.13423E+00 +1.26567E+01 -2.76770E-01 +9.23718E+00 -5.37559E+00 +1.41163E+00 -5.77967E+00
 -5.71333E+00 -5.13580E-01 -7.85079E+00 +7.20621E+00 -4.46510E+00 +1.22134E+01 +1.04290E+00 +1.10318E+01
 +3.96533E+00 +4.28313E+00 +1.76135E+00 -3.83205E+00 -4.15263E+00 -8.53083E+00 -9.52558E+00 -7.70264E+00
 -1.03857E+01 -3.11154E+00 -5.82989E+00 +1.18324E+00 +1.47573E+00 +1.88602E+00 +7.29493E+00 -1.27150E+00
 +8.73736E+00 -5.60100E+00 +5.98440E+00 -7.61175E+00 +1.75007E+00 -5.53510E+00 -8.91444E-01 -4.11559E-01
 -6.05381E-01 +4.85479E+00 +1.61206E+00 +7.56856E+00 +3.52362E+00 +6.87259E+00 +3.39082E+00 +3.91524E+00
 +1.05742E+00 +7.24526E-01 -2.22031E+00 -1.18609E+00 -4.79459E+00 -1.50440E+00 -5.60976E+00 -8.64278E-01
 -4.54281E+00 -1.36817E-01 -2.14807E+00 +9.61691E-02 +7.45717E-01 -3.51402E-01 +3.26170E+00 -1.36822E+00
 +4.58705E+00 -2.56584E+00 +4.21075E+00 -3.23941E+00 +2.29847E+00 -2.54872E+00 -1.43083E-01 -6.33238E-02
 -1.69051E+00 +3.63400E+00 -1.44527E+00 +6.88456E+00 +1.53509E-01 +7.76656E+00 +1.40853E+00 +5.40177E+00
 +5.15020E-01 +8.00102E-01 -2.93919E+00 -3.56095E+00 -7.30239E+00 -5.32881E+00 -9.71841E+00 -3.96441E+00
 -8.07287E+00 -1.21660E+00 -2.64475E+00 +1.14590E-01 +3.84341E+00 -1.68425E+00 +7.95504E+00 -5.79062E+00
 +7.86780E+00 -9.25361E+00 +4.59723E+00 -9.05950E+00 +1.18290E+00 -4.37434E+00 +4.16523E-01 +2.70622E+00
 +2.79008E+00 +8.48696E+00 +6.17614E+00 +1.01302E+01 +7.44749E+00 +7.46690E+00 +4.80541E+00 +2.90176E+00
 -8.93732E-01 -4.19676E-01 -6.71964E+00 -7.77303E-01 -9.63925E+00 +1.16202E+00 -8.41563E+00 +3.13206E+00
 -4.16513E+00 +3.05548E+00 +6.19796E-01 +4.75781E-01 +3.70655E+00 -3.28238E+00 +4.26030E+00 -6.11798E+00
 +2.90561E+00 -6.45831E+00 +9.79925E-01 -4.00884E+00 -3.27474E-01 +3.08010E-01 -4.58747E-01 +4.90290E+00
 +4.29890E-01 +8.12152E+00 +1.57304E+00 +8.73364E+00 +1.81681E+00 +6.37009E+00 +9.14445E-02 +1.85899E+00
 -3.83837E+00 -2.86077E+00 -8.74292E+00 -5.55847E+00 -1.20885E+01 -5.06239E+00 -1.13173E+01 -2.28676E+00
 -5.67905E+00 +4.12533E-02 +2.69845E+00 -8.43290E-01 +9.61415E+00 -5.50072E+00 +1.13394E+01 -1.13010E+01
 +7.29728E+00 -1.37920E+01 +8.13235E-01 -9.81488E+00 -2.96225E+00 -2.13839E-01 -7.59944E-01 +1.00677E+01
 +6.13411E+00 +1.49838E+01 +1.24285E+01 +1.15887E+01 +1.25236E+01 +2.38831E+00 +4.81942E+00 -6.11909E+00
 -6.61922E+00 -7.93122E+00 -1.45374E+01 -1.90517E+00 -1.35448E+01 +7.27894E+00 -4.12167E+00 +1.24431E+01
 +7.46482E+00 +9.21502E+00 +1.34477E+01 -5.90889E-01 +1.00209E+01 -1.01048E+01 -7.24001E-03 -1.23209E+01
 -9.33577E+00 -5.22810E+00 -1.15138E+01 +6.63303E+00 -5.56989E+00 +1.53517E+01 +3.45184E+00 +1.52278E+01
 +8.36098E+00 +6.67146E+00 +5.15051E+00 -4.35040E+00 -4.15452E+00 -1.07642E+01 -1.31193E+01 -9.35869E+00
 -1.56247E+01 -2.67368E+00 -1.01249E+01 +3.34970E+00 -4.06414E-01 +3.95289E+00 +7.44003E+00 -1.11657E+00
 +9.35473E+00 -7.84292E+00 +5.73855E+00 -1.12388E+01 +4.63847E-01 -9.00160E+00 -2.39155E+00 -2.83907E+00
 -1.41614E+00 +3.21312E+00 +1.68760E+00 +5.86103E+00 +4.01596E+00 +4.57847E+00 +3.89879E+00 +1.29615E+00
 +1.90467E+00 -1.56617E+00 -9.93772E-02 -2.88781E+00 -7.05562E-01 -3.09829E+00 +7.08778E-02 -3.05385E+00
 +1.28904E+00 -2.86149E+00 +2.30305E+00 -1.81738E+00 +3.38305E+00 +5.84095E-01 +5.11684E+00 +3.70193E+00
 +7.25112E+00 +5.95012E+00 +8.26642E+00 +6.11629E+00 +6.35302E+00 +4.61057E+00 +1.10802E+00 +3.36828E+00
 -5.56545E+00 +4.25915E+00 -1.03789E+01 +7.24900E+00 -1.09219E+01 +9.96383E+00 -7.54373E+00 +9.27184E+00
 -3.24866E+00 +3.81298E+00 -1.49943E+00 -4.52635E+00 -3.52996E+00 -1.15238E+01 -7.27719E+00 -1.34247E+01
 -8.86875E+00 -9.60378E+00 -5.62411E+00 -3.05015E+00 +1.70226E+00 +1.75703E+00 +9.19072E+00 +2.03627E+00
 +1.24063E+01 -1.40966E+00 +9.49150E+00 -4.98612E+00 +2.43501E+00 -5.13272E+00 -4.37119E+00 -1.03711E+00
 -7.16589E+00 +4.76173E+00 -5.21637E+00 +8.24682E+00 -9.35150E-01 +6.80860E+00 +2.17948E+00 +1.02402E+00
 +2.12725E+00 -5.85385E+00 -3.59633E-01 -1.01582E+01 -2.65289E+00 -1.01052E+01 -2.30827E+00 -6.57538E+00
 +1.21243E+00 -2.07851E+00 +6.31090E+00 +1.11296E+00 +1.04462E+01 +2.27625E+00 +1.17291E+01 +2.25320E+00
