 Created: 16-Jan-2021
 $NMID
 ID='D:\BASISSIMULATI'
 FMTDAT='(8E13.5)'
 VOLUME=   1.00000E+00
 TRAMP=   1.00000E+00
 $END
 +5.83456E+01 +8.72017E+00 +5.13892E+01 -3.40731E+00 +2.62726E+01 -9.21518E+00 -6.05432E+00 -2.90680E+00
 -3.17347E+01 +1.36796E+01 -4.07985E+01 +3.18692E+01 -3.17870E+01 +4.08970E+01 -1.18765E+01 +3.39843E+01
 +7.39094E+00 +1.23813E+01 +1.63419E+01 -1.48809E+01 +1.19903E+01 -3.54384E+01 -1.03746E+00 -3.98699E+01
 -1.37427E+01 -2.64620E+01 -1.81611E+01 -1.97791E+00 -1.18517E+01 +2.18817E+01 +9.68482E-01 +3.43592E+01
 +1.21206E+01 +3.07417E+01 +1.43249E+01 +1.41221E+01 +5.43183E+00 -6.85447E+00 -1.03143E+01 -2.27860E+01
 -2.45830E+01 -2.81563E+01 -2.94533E+01 -2.34337E+01 -2.15794E+01 -1.38003E+01 -3.80917E+00 -5.57477E+00
 +1.64650E+01 -2.54093E+00 +3.11463E+01 -4.22397E+00 +3.52980E+01 -6.86165E+00 +2.90353E+01 -6.21818E+00
 +1.66898E+01 -4.10790E-01 +4.03319E+00 +8.92340E+00 -4.70506E+00 +1.76792E+01 -8.40528E+00 +2.17626E+01
 -8.61244E+00 +1.94256E+01 -7.72071E+00 +1.20956E+01 -7.14480E+00 +3.33746E+00 -6.64299E+00 -3.26997E+00
 -5.05962E+00 -5.98204E+00 -1.76991E+00 -5.39287E+00 +2.32666E+00 -3.46071E+00 +5.05318E+00 -1.86769E+00
 +4.33162E+00 -8.92749E-01 -2.45429E-01 +4.51877E-01 -6.77913E+00 +3.18820E+00 -1.19241E+01 +7.00271E+00
 -1.28197E+01 +9.83347E+00 -8.91197E+00 +8.88297E+00 -2.45992E+00 +2.53441E+00 +2.71465E+00 -8.06272E+00
 +3.57422E+00 -1.89103E+01 -1.05304E-01 -2.49057E+01 -5.34440E+00 -2.25865E+01 -7.59702E+00 -1.23151E+01
 -3.56205E+00 +1.48609E+00 +6.48227E+00 +1.23956E+01 +1.83110E+01 +1.53536E+01 +2.57601E+01 +9.48632E+00
 +2.41167E+01 -1.26060E+00 +1.30006E+01 -1.01665E+01 -2.98878E+00 -1.14311E+01 -1.63940E+01 -3.50015E+00
 -2.07624E+01 +9.87644E+00 -1.41693E+01 +2.15387E+01 -4.16610E-01 +2.48013E+01 +1.28549E+01 +1.72132E+01
 +1.82014E+01 +2.08663E+00 +1.24004E+01 -1.31156E+01 -1.74258E+00 -2.07163E+01 -1.68331E+01 -1.69578E+01
 -2.48317E+01 -4.06786E+00 -2.13802E+01 +1.08951E+01 -8.16536E+00 +1.98096E+01 +7.96545E+00 +1.78323E+01
 +1.86553E+01 +5.95880E+00 +1.84768E+01 -9.57150E+00 +7.77078E+00 -2.06771E+01 -7.61509E+00 -2.17752E+01
 -1.94950E+01 -1.27088E+01 -2.16739E+01 +1.28972E+00 -1.31074E+01 +1.25195E+01 +1.74467E+00 +1.49857E+01
 +1.54604E+01 +7.56113E+00 +2.16324E+01 -5.52528E+00 +1.81113E+01 -1.70549E+01 +7.83396E+00 -2.06907E+01
 -3.07877E+00 -1.42549E+01 -8.79223E+00 -7.14315E-01 -6.85552E+00 +1.35365E+01 +7.11261E-01 +2.20571E+01
 +8.80704E+00 +2.15569E+01 +1.22259E+01 +1.32637E+01 +8.52728E+00 +1.89479E+00 -7.35961E-01 -7.04148E+00
 -1.09921E+01 -1.00664E+01 -1.71771E+01 -7.19591E+00 -1.63760E+01 -1.42193E+00 -9.18604E+00 +3.30322E+00
 +8.14026E-01 +4.33896E+00 +9.05369E+00 +1.63122E+00 +1.22606E+01 -2.59558E+00 +9.84854E+00 -5.38909E+00
 +3.80244E+00 -4.87166E+00 -2.68293E+00 -1.26348E+00 -6.93169E+00 +3.37127E+00 -7.93026E+00 +6.39403E+00
 -6.38691E+00 +6.07753E+00 -3.87652E+00 +2.46898E+00 -1.72167E+00 -2.77462E+00 -3.05780E-01 -7.37168E+00
 +8.51331E-01 -9.58757E+00 +2.43753E+00 -8.93968E+00 +4.63304E+00 -6.13725E+00 +6.83412E+00 -2.43547E+00
 +7.98122E+00 +1.10953E+00 +7.24555E+00 +4.02530E+00 +4.60417E+00 +6.29464E+00 +9.23282E-01 +7.92554E+00
 -2.49946E+00 +8.61568E+00 -4.63492E+00 +7.80490E+00 -5.22075E+00 +5.10458E+00 -4.75793E+00 +7.97579E-01
 -4.03713E+00 -3.98291E+00 -3.53011E+00 -7.60311E+00 -3.06310E+00 -8.67554E+00 -1.99838E+00 -6.79437E+00
 +1.89610E-01 -2.81662E+00 +3.33041E+00 +1.51327E+00 +6.38312E+00 +4.42063E+00 +7.84945E+00 +4.97687E+00
 +6.58629E+00 +3.50787E+00 +2.55866E+00 +1.30827E+00 -2.93165E+00 -1.68939E-01 -7.73242E+00 -1.76729E-01
 -9.83173E+00 +9.08814E-01 -8.34409E+00 +1.86016E+00 -3.96319E+00 +1.40026E+00 +1.37244E+00 -9.34790E-01
 +5.43405E+00 -4.38435E+00 +6.77819E+00 -7.26446E+00 +5.38298E+00 -7.84040E+00 +2.52697E+00 -5.30120E+00
 +2.59012E-03 -2.97290E-01 -8.91139E-01 +5.26959E+00 -2.70472E-02 +9.11617E+00 +1.55698E+00 +9.66555E+00
 +2.32547E+00 +6.79532E+00 +1.19065E+00 +1.86692E+00 -1.79203E+00 -2.96740E+00 -5.36362E+00 -5.81398E+00
 -7.67673E+00 -5.90531E+00 -7.26369E+00 -3.85806E+00 -3.84790E+00 -1.22039E+00 +1.42989E+00 +4.25037E-01
 +6.49623E+00 +3.17612E-01 +9.30224E+00 -1.11217E+00 +8.77741E+00 -2.54095E+00 +5.30927E+00 -2.54549E+00
 +5.19895E-01 -4.60687E-01 -3.53830E+00 +3.15850E+00 -5.36007E+00 +6.72733E+00 -4.65353E+00 +8.39316E+00
 -2.37498E+00 +6.99124E+00 -1.34023E-01 +2.70800E+00 +7.11299E-01 -2.89913E+00 -2.05112E-01 -7.56203E+00
 -2.07087E+00 -9.33886E+00 -3.36623E+00 -7.52798E+00 -2.75296E+00 -3.00625E+00 +8.81572E-02 +2.18589E+00
 +4.13272E+00 +5.81983E+00 +7.41369E+00 +6.53728E+00 +7.98657E+00 +4.46380E+00 +4.98653E+00 +1.06500E+00
 -7.77150E-01 -1.68323E+00 -7.04077E+00 -2.38045E+00 -1.10702E+01 -9.67032E-01 -1.09575E+01 +1.25411E+00
 -6.58717E+00 +2.37550E+00 +2.38177E-01 +1.03346E+00 +6.61634E+00 -2.67977E+00 +9.92654E+00 -7.07490E+00
 +9.08537E+00 -9.63877E+00 +5.02964E+00 -8.36737E+00 +1.64304E-01 -2.96700E+00 -2.94646E+00 +4.75063E+00
 -2.95535E+00 +1.15650E+01 -4.32217E-01 +1.43503E+01 +2.50567E+00 +1.16468E+01 +3.45007E+00 +4.47881E+00
 +1.16288E+00 -4.04670E+00 -3.58036E+00 -1.02055E+01 -8.27583E+00 -1.14604E+01 -1.00063E+01 -7.68097E+00
 -7.10264E+00 -1.13795E+00 -2.39136E-01 +4.72732E+00 +7.68657E+00 +7.11204E+00 +1.28981E+01 +5.27695E+00
 +1.26498E+01 +8.29256E-01 +6.70342E+00 -3.27699E+00 -2.43219E+00 -4.46359E+00 -1.06644E+01 -2.01534E+00
 -1.43090E+01 +2.50019E+00 -1.18865E+01 +6.12284E+00 -4.79486E+00 +6.21308E+00 +3.47864E+00 +2.03397E+00
 +9.17087E+00 -4.69334E+00 +1.01130E+01 -1.05982E+01 +6.68179E+00 -1.24195E+01 +1.37269E+00 -8.77048E+00
 -2.70950E+00 -9.51714E-01 -3.57632E+00 +7.63601E+00 -1.34772E+00 +1.31723E+01 +1.99658E+00 +1.33013E+01
 +3.90588E+00 +8.23594E+00 +2.81403E+00 +5.35228E-01 -9.32746E-01 -6.27342E+00 -5.28511E+00 -9.45445E+00
 -7.68601E+00 -8.27701E+00 -6.54748E+00 -4.10092E+00 -2.16579E+00 +5.99971E-01 +3.42500E+00 +3.64856E+00
 +7.54833E+00 +4.20460E+00 +8.29133E+00 +2.91514E+00 +5.44149E+00 +1.21124E+00 +4.76691E-01 +2.73624E-01
 -4.31340E+00 +3.29694E-01 -7.02272E+00 +6.77731E-01 -6.96356E+00 +3.47287E-01 -4.73736E+00 -1.09325E+00
 -1.62216E+00 -3.13826E+00 +1.25210E+00 -4.62057E+00 +3.40434E+00 -4.47255E+00 +4.92144E+00 -2.46159E+00
 +5.96213E+00 +5.95871E-01 +6.29720E+00 +3.29648E+00 +5.29514E+00 +4.49694E+00 +2.42264E+00 +3.99354E+00
 -2.07875E+00 +2.58089E+00 -6.87132E+00 +1.44042E+00 -9.91429E+00 +1.26115E+00 -9.47756E+00 +1.69877E+00
 -5.23079E+00 +1.58507E+00 +1.28477E+00 -1.88179E-01 +7.20611E+00 -3.66541E+00 +9.73916E+00 -7.41057E+00
 +7.66897E+00 -9.07937E+00 +2.11514E+00 -6.77414E+00 -3.97554E+00 -4.26284E-01 -7.40085E+00 +7.68243E+00
 -6.49574E+00 +1.37364E+01 -2.11189E+00 +1.42598E+01 +2.83727E+00 +8.09306E+00 +5.07760E+00 -2.65876E+00
 +2.98174E+00 -1.33604E+01 -2.29883E+00 -1.90192E+01 -7.31686E+00 -1.68179E+01 -8.25886E+00 -7.65216E+00
 -3.28456E+00 +4.21773E+00 +6.07670E+00 +1.32905E+01 +1.53736E+01 +1.56359E+01 +1.94216E+01 +1.08917E+01
 +1.51257E+01 +2.35075E+00 +3.39436E+00 -4.92604E+00 -1.09781E+01 -6.94431E+00 -2.15209E+01 -2.99228E+00
 -2.32992E+01 +4.00388E+00 -1.54510E+01 +9.20045E+00 -1.68807E+00 +8.68335E+00 +1.15415E+01 +1.84300E+00
 +1.82817E+01 -8.08480E+00 +1.59983E+01 -1.56677E+01 +6.68197E+00 -1.62494E+01 -4.41121E+00 -8.62192E+00
 -1.16532E+01 +4.09253E+00 -1.19810E+01 +1.58801E+01 -6.30897E+00 +2.08646E+01 +1.28083E+00 +1.63283E+01
 +6.03745E+00 +4.12566E+00 +5.28621E+00 -1.02437E+01 -1.11275E-01 -2.03907E+01 -6.35758E+00 -2.21527E+01
 -8.98937E+00 -1.54593E+01 -5.50686E+00 -4.05322E+00 +3.11656E+00 +6.66271E+00 +1.28695E+01 +1.24151E+01
 +1.88152E+01 +1.19938E+01 +1.77017E+01 +7.39738E+00 +9.65207E+00 +2.28676E+00 -1.93668E+00 -2.54211E-01
 -1.21596E+01 +6.42584E-01 -1.70304E+01 +3.44165E+00 -1.52752E+01 +5.43342E+00 -8.62563E+00 +4.54786E+00
 -6.11201E-01 +6.49575E-01 +5.35963E+00 -4.40840E+00 +7.54641E+00 -7.92553E+00 +6.30107E+00 -7.95200E+00
 +3.33160E+00 -4.38882E+00 +4.20429E-01 +1.01383E+00 -1.56522E+00 +5.68406E+00 -2.83205E+00 +7.61814E+00
 -4.04137E+00 +6.31487E+00 -5.46244E+00 +2.77657E+00 -6.54755E+00 -1.30289E+00 -6.24074E+00 -4.56853E+00
 -3.79754E+00 -6.59111E+00 +4.78987E-01 -7.70544E+00 +5.14632E+00 -8.32550E+00 +8.31451E+00 -8.31305E+00
 +8.72910E+00 -6.91945E+00 +6.55698E+00 -3.39643E+00 +3.33491E+00 +2.13653E+00 +1.05279E+00 +8.22726E+00
 +9.05916E-01 +1.24884E+01 +2.50091E+00 +1.27752E+01 +4.05992E+00 +8.51032E+00 +3.56309E+00 +1.32497E+00
 +1.61068E-01 -5.49719E+00 -5.03684E+00 -8.60672E+00 -9.37174E+00 -6.39386E+00 -1.01084E+01 +1.36449E-02
 -6.16084E+00 +7.20292E+00 +9.72673E-01 +1.12269E+01 +7.72315E+00 +9.74268E+00 +1.02551E+01 +3.34968E+00
 +6.62428E+00 -4.66305E+00 -1.93247E+00 -1.00814E+01 -1.13841E+01 -1.01001E+01 -1.68732E+01 -4.92544E+00
 -1.52673E+01 +2.28040E+00 -6.91388E+00 +7.13116E+00 +4.39774E+00 +6.49047E+00 +1.33158E+01 +3.10072E-01
 +1.56818E+01 -8.22364E+00 +1.06963E+01 -1.43638E+01 +1.32372E+00 -1.44074E+01 -7.29336E+00 -7.79812E+00
 -1.05635E+01 +2.45202E+00 -6.85175E+00 +1.12916E+01 +1.72412E+00 +1.43039E+01 +1.05099E+01 +1.00827E+01
 +1.48556E+01 +1.01675E+00 +1.25860E+01 -7.95045E+00 +5.07053E+00 -1.19211E+01 -3.64594E+00 -8.61136E+00
 -9.12588E+00 +4.76426E-01 -8.95260E+00 +1.08744E+01 -3.95672E+00 +1.74886E+01 +2.37663E+00 +1.71902E+01
 +5.93952E+00 +1.02990E+01 +4.31636E+00 +2.37835E-01 -1.89181E+00 -8.36840E+00 -9.42839E+00 -1.20697E+01
 -1.41820E+01 -1.01776E+01 -1.34098E+01 -4.79432E+00 -7.17670E+00 +6.02963E-01 +1.72589E+00 +3.14684E+00
 +9.27236E+00 +2.02073E+00 +1.22533E+01 -1.37116E+00 +9.78807E+00 -4.47873E+00 +3.56149E+00 -5.21560E+00
 -3.22975E+00 -3.15414E+00 -7.55750E+00 +3.36460E-01 -7.94565E+00 +3.00779E+00 -4.88951E+00 +3.10843E+00
 -2.34896E-01 +4.05576E-01 +3.99377E+00 -3.70319E+00 +6.59742E+00 -6.99151E+00 +7.52120E+00 -7.61180E+00
 +7.44204E+00 -5.01767E+00 +7.01814E+00 -1.31325E-01 +6.34406E+00 +5.24807E+00 +4.95435E+00 +9.37937E+00
 +2.32098E+00 +1.13059E+01 -1.54241E+00 +1.10219E+01 -5.81638E+00 +9.11089E+00 -9.16271E+00 +6.20250E+00
