 Created: 16-Jan-2021
 $NMID
 ID='D:\BASISSIMULATI'
 FMTDAT='(8E13.5)'
 VOLUME=   1.00000E+00
 TRAMP=   1.00000E+00
 $END
 +7.40885E+01 +1.65517E+00 +3.82517E+01 +6.12390E+01 -2.92142E+01 +5.86083E+01 -5.64252E+01 +8.50034E-01
 -1.85112E+01 -4.54999E+01 +3.64249E+01 -3.02207E+01 +4.38611E+01 +2.51698E+01 -3.78183E+00 +5.44610E+01
 -5.05073E+01 +2.36555E+01 -4.28433E+01 -3.09638E+01 +8.43838E+00 -4.63399E+01 +4.18151E+01 -6.35373E+00
 +1.72395E+01 +3.96112E+01 -3.67779E+01 +3.42976E+01 -5.55749E+01 -2.04202E+01 -1.28838E+01 -6.44631E+01
 +4.81168E+01 -4.74774E+01 +6.28296E+01 +1.38839E+01 +1.75483E+01 +5.45041E+01 -3.59848E+01 +3.36902E+01
 -3.95070E+01 -2.04477E+01 +6.94626E+00 -4.45735E+01 +4.73816E+01 -1.21536E+01 +3.49915E+01 +3.81908E+01
 -1.52167E+01 +4.88472E+01 -4.56498E+01 +9.49283E+00 -2.34581E+01 -3.25156E+01 +2.21421E+01 -2.82462E+01
 +3.48261E+01 +1.58633E+01 -2.85865E+00 +4.57607E+01 -4.87870E+01 +2.26684E+01 -4.93656E+01 -3.15956E+01
 -9.62996E-01 -5.87811E+01 +4.55653E+01 -2.99285E+01 +4.19982E+01 +2.23293E+01 -3.76920E+00 +4.10450E+01
 -3.80712E+01 +8.69521E+00 -2.26606E+01 -3.48093E+01 +2.32802E+01 -3.88909E+01 +4.69648E+01 +6.04286E-01
 +2.27688E+01 +3.86125E+01 -1.98898E+01 +3.37761E+01 -3.21387E+01 -4.66345E+00 -2.35004E+00 -2.91972E+01
 +3.13621E+01 -9.98708E+00 +2.61984E+01 +3.06153E+01 -1.54022E+01 +4.41864E+01 -4.82737E+01 +1.22024E+01
 -3.59806E+01 -3.25030E+01 +7.97176E+00 -4.28378E+01 +3.57676E+01 -1.02466E+01 +1.91380E+01 +2.66640E+01
 -1.99425E+01 +2.64212E+01 -3.55559E+01 -9.16658E+00 -9.94293E+00 -3.87812E+01 +2.78566E+01 -2.93830E+01
 +3.65422E+01 +7.20042E+00 +9.44014E+00 +2.96215E+01 -1.96172E+01 +1.50392E+01 -1.65861E+01 -1.57225E+01
 +1.36474E+01 -2.36903E+01 +3.38373E+01 +2.67128E+00 +1.79575E+01 +3.43502E+01 -1.87806E+01 +3.53748E+01
 -3.73835E+01 +3.88282E+00 -1.92302E+01 -2.60970E+01 +1.35631E+01 -2.33136E+01 +2.39089E+01 +6.11411E+00
 +1.42961E+00 +2.68713E+01 -2.71035E+01 +1.48576E+01 -2.91122E+01 -1.64874E+01 -2.68255E+00 -3.27947E+01
 +2.28056E+01 -1.79465E+01 +2.10183E+01 +9.00377E+00 -2.10145E+00 +1.71423E+01 -1.68526E+01 -7.79743E-01
 -4.80147E+00 -2.12106E+01 +2.03865E+01 -1.79784E+01 +2.93982E+01 +7.46517E+00 +1.10931E+01 +2.80984E+01
 -1.51488E+01 +2.23326E+01 -2.18185E+01 -1.94121E+00 -4.09499E+00 -1.70796E+01 +1.57413E+01 -7.10818E+00
 +1.42236E+01 +1.50924E+01 -7.19429E+00 +2.34001E+01 -2.48932E+01 +8.02987E+00 -2.02659E+01 -1.44584E+01
 +1.04646E-01 -2.08450E+01 +1.33082E+01 -7.17620E+00 +6.54321E+00 +8.24796E+00 -9.32559E+00 +6.86115E+00
 -1.35229E+01 -9.17379E+00 +4.57166E-01 -2.04366E+01 +1.79269E+01 -1.30379E+01 +2.02736E+01 +5.80745E+00
 +5.91595E+00 +1.65469E+01 -8.66361E+00 +9.44895E+00 -8.00041E+00 -5.19578E+00 +5.37729E+00 -9.56428E+00
 +1.47814E+01 +1.56371E+00 +8.60798E+00 +1.57147E+01 -7.14081E+00 +1.74126E+01 -1.64307E+01 +5.26019E+00
 -1.12371E+01 -7.51375E+00 +4.63187E-01 -8.50976E+00 +4.79620E+00 +4.95046E-01 -2.25087E+00 +6.81059E+00
 -1.11845E+01 +1.86917E+00 -1.05900E+01 -9.42415E+00 -4.54658E-02 -1.49337E+01 +9.97962E+00 -9.12296E+00
 +1.02025E+01 +1.29704E+00 +2.45674E+00 +5.50857E+00 -3.22655E+00 +5.82926E-01 -2.09288E-01 -6.04617E+00
 +7.78787E+00 -5.55926E+00 +1.15175E+01 +2.49991E+00 +6.61018E+00 +1.03063E+01 -2.14045E+00 +1.07103E+01
 -6.63524E+00 +4.64953E+00 -4.22531E+00 -7.39426E-01 +2.44434E-01 -3.33789E-01 +5.41524E-01 +3.84069E+00
 -4.08638E+00 +5.65253E+00 -8.64358E+00 +1.93127E+00 -8.24602E+00 -4.37003E+00 -3.23787E+00 -7.79079E+00
 +1.68858E+00 -6.18033E+00 +2.72199E+00 -2.42590E+00 +5.87730E-01 -8.45324E-01 -8.75915E-01 -2.62906E+00
 +9.19520E-01 -5.06193E+00 +4.79014E+00 -4.76831E+00 +7.32962E+00 -1.19503E+00 +6.43139E+00 +3.09943E+00
 +3.11792E+00 +5.15798E+00 +2.09642E-01 +4.34190E+00 -4.64220E-01 +2.54408E+00 +4.33636E-01 +2.07170E+00
 +7.08934E-01 +3.41596E+00 -1.08455E+00 +4.91310E+00 -4.19600E+00 +4.43782E+00 -6.32393E+00 +1.50580E+00
 -5.74914E+00 -2.13942E+00 -3.00585E+00 -4.04539E+00 -4.65419E-01 -3.34169E+00 -8.23827E-02 -1.60862E+00
 -1.42008E+00 -1.31875E+00 -2.03449E+00 -3.23914E+00 -4.26186E-02 -5.45537E+00 +3.68884E+00 -5.24129E+00
 +6.18014E+00 -2.00576E+00 +5.36875E+00 +1.84792E+00 +2.36782E+00 +3.29584E+00 +3.60615E-01 +1.89986E+00
 +1.13847E+00 +2.92343E-01 +3.06227E+00 +1.21525E+00 +2.86819E+00 +4.29512E+00 -5.33842E-01 +6.26043E+00
 -4.55290E+00 +4.56142E+00 -5.59448E+00 +3.96244E-01 -3.06377E+00 -2.40389E+00 -1.34437E-01 -1.56505E+00
 -2.41640E-01 +1.05183E+00 -3.16244E+00 +1.52104E+00 -5.17797E+00 -1.64665E+00 -3.25636E+00 -5.66930E+00
 +1.43664E+00 -6.49814E+00 +4.72583E+00 -3.32176E+00 +4.01637E+00 +5.43875E-01 +1.07878E+00 +1.40402E+00
 -1.29340E-01 -7.11547E-01 +1.93171E+00 -2.27423E+00 +4.66410E+00 -4.95004E-01 +4.44392E+00 +3.36485E+00
 +9.05418E-01 +5.43737E+00 -2.58999E+00 +3.72757E+00 -2.81582E+00 +3.98803E-01 -3.52631E-01 -7.70513E-01
 +1.18364E+00 +1.24077E+00 -5.95975E-01 +3.57825E+00 -4.07919E+00 +2.88442E+00 -5.52862E+00 -8.12078E-01
 -3.33661E+00 -4.16095E+00 +2.74473E-01 -4.29999E+00 +1.92307E+00 -1.91804E+00 +8.39645E-01 -1.42591E-01
 -6.16001E-01 -7.93543E-01 -3.85704E-02 -2.47910E+00 +2.17906E+00 -2.58532E+00 +3.54367E+00 -5.31163E-01
 +2.61231E+00 +1.65173E+00 +6.63601E-01 +1.92212E+00 -2.97689E-02 +6.77086E-01 +9.67501E-01 +8.37641E-02
 +1.83391E+00 +1.27898E+00 +8.77097E-01 +2.97936E+00 -1.34653E+00 +3.14511E+00 -2.78021E+00 +1.49724E+00
 -2.40856E+00 -2.68590E-01 -1.32868E+00 -7.04710E-01 -1.09235E+00 -3.22617E-01 -1.60937E+00 -6.20051E-01
 -1.41117E+00 -1.82269E+00 +1.03833E-01 -2.44866E+00 +1.53912E+00 -1.38019E+00 +1.20142E+00 +3.18267E-01
 -4.63334E-01 +4.80481E-01 -1.05953E+00 -1.29616E+00 +7.96998E-01 -2.73418E+00 +3.38227E+00 -1.47723E+00
 +3.59946E+00 +1.76827E+00 +7.94328E-01 +3.65414E+00 -2.07872E+00 +2.10645E+00 -1.79362E+00 -9.14234E-01
 +1.08292E+00 -1.51556E+00 +2.55479E+00 +1.31068E+00 +2.63040E-02 +4.05095E+00 -4.09902E+00 +2.68841E+00
 -4.82334E+00 -2.11103E+00 -6.17602E-01 -5.14425E+00 +4.12774E+00 -2.62016E+00 +3.80406E+00 +2.90305E+00
 -1.61512E+00 +4.90834E+00 -5.90720E+00 +4.92089E-01 -3.55417E+00 -5.69200E+00 +3.45897E+00 -6.33966E+00
 +7.33867E+00 -1.01052E-01 +3.37851E+00 +6.27154E+00 -4.13626E+00 +5.40153E+00 -6.42389E+00 -1.88892E+00
 -4.75685E-01 -6.99450E+00 +6.89265E+00 -3.38687E+00 +6.58184E+00 +5.30391E+00 -1.91355E+00 +8.89917E+00
 -9.19280E+00 +2.48190E+00 -6.49609E+00 -7.24119E+00 +3.72684E+00 -9.08881E+00 +9.92577E+00 -4.40602E-01
 +4.58774E+00 +9.05927E+00 -6.57193E+00 +8.18442E+00 -1.05919E+01 -2.63079E+00 -2.23283E+00 -1.11144E+01
 +9.35021E+00 -7.04279E+00 +1.06528E+01 +5.50629E+00 -4.02101E-01 +1.21920E+01 -1.13775E+01 +4.85278E+00
 -9.28525E+00 -8.48722E+00 +4.04731E+00 -1.22652E+01 +1.33490E+01 -1.42056E+00 +7.26496E+00 +1.20477E+01
 -8.01309E+00 +1.23530E+01 -1.51379E+01 -1.66589E+00 -5.44904E+00 -1.44668E+01 +1.04850E+01 -1.12732E+01
 +1.44520E+01 +4.59559E+00 +1.63344E+00 +1.49248E+01 -1.32520E+01 +7.42738E+00 -1.25333E+01 -9.58608E+00
 +3.69875E+00 -1.61997E+01 +1.69651E+01 -3.91743E+00 +1.14117E+01 +1.38181E+01 -7.38834E+00 +1.65057E+01
 -1.80540E+01 +3.97523E-01 -7.82631E+00 -1.63793E+01 +1.21141E+01 -1.41550E+01 +1.87535E+01 +5.33334E+00
 +3.64512E+00 +2.01362E+01 -1.67315E+01 +1.29050E+01 -1.92870E+01 -8.82275E+00 -8.82212E-01 -2.06571E+01
 +1.75640E+01 -9.19735E+00 +1.48375E+01 +1.21956E+01 -5.88270E+00 +1.84096E+01 -2.01981E+01 +1.68135E+00
 -1.05752E+01 -1.88374E+01 +1.28157E+01 -1.87882E+01 +2.31202E+01 +2.90851E+00 +7.74606E+00 +2.19406E+01
 -1.63557E+01 +1.61664E+01 -2.14404E+01 -8.42961E+00 -9.32318E-01 -2.37380E+01 +2.22367E+01 -1.14641E+01
 +2.12937E+01 +1.53806E+01 -3.57362E+00 +2.66584E+01 -2.48426E+01 +9.40521E+00 -1.88099E+01 -1.70044E+01
 +7.14484E+00 -2.27407E+01 +2.28032E+01 -1.78587E+00 +9.89719E+00 +2.09102E+01 -1.64914E+01 +1.81326E+01
 -2.50359E+01 -7.79021E+00 -4.57280E+00 -2.70674E+01 +2.22477E+01 -1.66905E+01 +2.45130E+01 +1.23888E+01
 -1.05995E+00 +2.70185E+01 -2.54521E+01 +9.81372E+00 -2.01027E+01 -2.01773E+01 +1.00151E+01 -2.85074E+01
 +3.12895E+01 -4.65405E+00 +1.94532E+01 +2.54188E+01 -1.25505E+01 +2.84095E+01 -2.90431E+01 +1.59211E+00
 -1.22711E+01 -2.40220E+01 +1.72998E+01 -1.92458E+01 +2.46190E+01 +9.66948E+00 +6.71472E-01 +2.82133E+01
 -2.67968E+01 +1.36501E+01 -2.52289E+01 -1.81915E+01 +4.68834E+00 -3.06967E+01 +2.90458E+01 -8.83054E+00
 +1.94629E+01 +2.27590E+01 -1.37283E+01 +2.74019E+01 -3.24698E+01 -1.36500E+00 -1.42557E+01 -3.15976E+01
 +2.16854E+01 -2.88277E+01 +3.56961E+01 +4.60831E+00 +1.25902E+01 +3.19121E+01 -2.11167E+01 +2.35145E+01
 -2.75353E+01 -9.42586E+00 -6.74223E-01 -2.81297E+01 +2.69933E+01 -1.09343E+01 +2.22678E+01 +2.17723E+01
 -1.01717E+01 +3.12314E+01 -3.29492E+01 +5.42549E+00 -1.92567E+01 -2.65216E+01 +1.56409E+01 -2.76643E+01
 +3.13700E+01 +3.82693E+00 +8.87441E+00 +3.17716E+01 -2.70141E+01 +2.30633E+01 -3.52647E+01 -1.40830E+01
 -5.36801E+00 -3.87918E+01 +3.03383E+01 -2.36506E+01 +3.30989E+01 +1.42240E+01 +1.49374E+00 +3.27212E+01
 -2.74190E+01 +1.25889E+01 -2.07607E+01 -2.11023E+01 +1.26776E+01 -2.83102E+01 +3.30630E+01 -2.97206E-01
 +1.58587E+01 +3.04376E+01 -1.96234E+01 +2.79517E+01 -3.24689E+01 -5.26419E+00 -7.64338E+00 -3.07832E+01
 +2.61167E+01 -1.85063E+01 +2.89634E+01 +1.81833E+01 -4.09725E+00 +3.70852E+01 -3.67843E+01 +1.52570E+01
 -3.23899E+01 -2.44493E+01 +4.57917E+00 -3.89152E+01 +3.35015E+01 -1.33695E+01 +2.36441E+01 +2.22990E+01
 -1.14486E+01 +2.79419E+01 -3.02190E+01 -1.25897E+00 -1.09935E+01 -3.00694E+01 +2.35241E+01 -2.43193E+01
 +3.29981E+01 +9.68922E+00 +6.31146E+00 +3.27541E+01 -2.55627E+01 +1.83569E+01 -2.54497E+01 -1.64437E+01
 +6.80565E+00 -3.05093E+01 +3.36832E+01 -6.15199E+00 +2.28604E+01 +2.99902E+01 -1.54835E+01 +3.68953E+01
 -3.97420E+01 +5.80531E+00 -2.37923E+01 -2.96906E+01 +1.37226E+01 -3.15895E+01 +3.09199E+01 -9.76367E-02
 +1.01449E+01 +2.74481E+01 -2.27761E+01 +1.96048E+01 -2.89552E+01 -1.36746E+01 -1.14272E+00 -3.33581E+01
 +2.85388E+01 -1.66872E+01 +2.61776E+01 +1.68142E+01 -4.68797E+00 +2.83206E+01 -2.73388E+01 +4.82506E+00
