 Created: 19-Jan-2021
 $NMID
 ID='D:\BASISSIMULATI'
 FMTDAT='(8E13.5)'
 VOLUME=   1.00000E+00
 TRAMP=   1.00000E+00
 $END
 +3.36035E+01 +1.02806E+00 +2.97897E+01 +1.45258E+01 +2.01635E+01 +2.45203E+01 +7.21974E+00 +2.86398E+01
 -5.71007E+00 +2.60768E+01 -1.53564E+01 +1.77884E+01 -1.93844E+01 +6.21876E+00 -1.70031E+01 -5.37899E+00
 -9.14726E+00 -1.38268E+01 +1.80907E+00 -1.68697E+01 +1.27209E+01 -1.37564E+01 +2.05314E+01 -5.40087E+00
 +2.30837E+01 +5.90785E+00 +1.96666E+01 +1.71556E+01 +1.11549E+01 +2.54257E+01 -2.79061E-01 +2.86656E+01
 -1.17889E+01 +2.61919E+01 -2.06300E+01 +1.88099E+01 -2.48719E+01 +8.53079E+00 -2.38593E+01 -2.01646E+00
 -1.83092E+01 -1.03050E+01 -1.00395E+01 -1.45615E+01 -1.42356E+00 -1.41783E+01 +5.26757E+00 -9.78937E+00
 +8.44887E+00 -3.01371E+00 +7.58177E+00 +4.04296E+00 +3.23009E+00 +9.37644E+00 -3.17942E+00 +1.15974E+01
 -9.80344E+00 +1.02388E+01 -1.48979E+01 +5.79204E+00 -1.72582E+01 -5.12095E-01 -1.64735E+01 -7.09493E+00
 -1.29452E+01 -1.24709E+01 -7.69017E+00 -1.56143E+01 -2.00609E+00 -1.61608E+01 +2.89356E+00 -1.44096E+01
 +6.17281E+00 -1.11512E+01 +7.52380E+00 -7.39024E+00 +7.15415E+00 -4.05563E+00 +5.63906E+00 -1.77912E+00
 +3.70157E+00 -7.93749E-01 +1.99520E+00 -9.60132E-01 +9.51463E-01 -1.88977E+00 +7.24420E-01 -3.11018E+00
 +1.22908E+00 -4.21312E+00 +2.24098E+00 -4.94286E+00 +3.50973E+00 -5.20918E+00 +4.84306E+00 -5.03857E+00
 +6.13615E+00 -4.49736E+00 +7.34631E+00 -3.62602E+00 +8.43546E+00 -2.41384E+00 +9.31451E+00 -8.22836E-01
 +9.82117E+00 +1.15281E+00 +9.74718E+00 +3.42181E+00 +8.90951E+00 +5.75919E+00 +7.23969E+00 +7.82245E+00
 +4.85529E+00 +9.22456E+00 +2.08014E+00 +9.64582E+00 -6.04199E-01 +8.94880E+00 -2.66989E+00 +7.25538E+00
 -3.68829E+00 +4.95359E+00 -3.46577E+00 +2.62269E+00 -2.12526E+00 +8.90944E-01 -1.02518E-01 +2.63511E-01
 +1.94941E+00 +9.70452E-01 +3.32596E+00 +2.88177E+00 +3.46311E+00 +5.51915E+00 +2.10131E+00 +8.16651E+00
 -6.27029E-01 +1.00526E+01 -4.21451E+00 +1.05570E+01 -7.89902E+00 +9.38193E+00 -1.08567E+01 +6.64197E+00
 -1.24158E+01 +2.84457E+00 -1.22332E+01 -1.23466E+00 -1.03859E+01 -4.74899E+00 -7.35103E+00 -6.99691E+00
 -3.88219E+00 -7.59979E+00 -8.13661E-01 -6.59372E+00 +1.15306E+00 -4.41238E+00 +1.62459E+00 -1.76709E+00
 +6.07403E-01 +5.41953E-01 -1.50583E+00 +1.83226E+00 -4.04851E+00 +1.70907E+00 -6.25854E+00 +1.56067E-01
 -7.47423E+00 -2.47365E+00 -7.29683E+00 -5.55968E+00 -5.67952E+00 -8.37925E+00 -2.92394E+00 -1.02897E+01
 +4.09678E-01 -1.08815E+01 +3.65131E+00 -1.00650E+01 +6.18779E+00 -8.07315E+00 +7.60459E+00 -5.38537E+00
 +7.76936E+00 -2.59700E+00 +6.84103E+00 -2.70469E-01 +5.20828E+00 +1.19355E+00 +3.37823E+00 +1.63546E+00
 +1.84707E+00 +1.15160E+00 +9.85283E-01 +4.72788E-02 +9.63743E-01 -1.25475E+00 +1.73386E+00 -2.32387E+00
 +3.06063E+00 -2.82132E+00 +4.59469E+00 -2.56800E+00 +5.96203E+00 -1.56832E+00 +6.84852E+00 +9.67974E-03
 +7.06080E+00 +1.88769E+00 +6.55326E+00 +3.74724E+00 +5.42024E+00 +5.29884E+00 +3.86056E+00 +6.33526E+00
 +2.12645E+00 +6.76051E+00 +4.69961E-01 +6.59273E+00 -9.01845E-01 +5.94532E+00 -1.85642E+00 +4.99415E+00
 -2.34757E+00 +3.93954E+00 -2.41146E+00 +2.97049E+00 -2.15081E+00 +2.23633E+00 -1.71184E+00 +1.82783E+00
 -1.25819E+00 +1.76843E+00 -9.44839E-01 +2.01483E+00 -8.94328E-01 +2.46585E+00 -1.17733E+00 +2.97884E+00
 -1.79967E+00 +3.39231E+00 -2.69823E+00 +3.55290E+00 -3.74760E+00 +3.34351E+00 -4.77835E+00 +2.70803E+00
 -5.60557E+00 +1.66753E+00 -6.06375E+00 +3.23264E-01 -6.04163E+00 -1.15631E+00 -5.50939E+00 -2.56404E+00
 -4.53118E+00 -3.69363E+00 -3.25821E+00 -4.38276E+00 -1.90202E+00 -4.54997E+00 -6.92223E-01 -4.21621E+00
 +1.72700E-01 -3.50466E+00 +5.70414E-01 -2.61712E+00 +4.84579E-01 -1.79102E+00 +1.14926E-02 -1.24616E+00
 -6.59325E-01 -1.13317E+00 -1.28725E+00 -1.49641E+00 -1.63622E+00 -2.26052E+00 -1.53112E+00 -3.24504E+00
 -9.01343E-01 -4.20440E+00 +1.99365E-01 -4.88437E+00 +1.60209E+00 -5.08200E+00 +3.05946E+00 -4.69455E+00
 +4.30144E+00 -3.74554E+00 +5.09733E+00 -2.38146E+00 +5.30896E+00 -8.39497E-01 +4.92268E+00 +6.06159E-01
 +4.05213E+00 +1.70674E+00 +2.91141E+00 +2.29531E+00 +1.76490E+00 +2.32379E+00 +8.65756E-01 +1.87198E+00
 +3.97728E-01 +1.12659E+00 +4.33886E-01 +3.35669E-01 +9.21826E-01 -2.50670E-01 +1.69840E+00 -4.39050E-01
 +2.53006E+00 -1.37373E-01 +3.16885E+00 +6.25019E-01 +3.41079E+00 +1.70581E+00 +3.14291E+00 +2.88418E+00
 +2.36834E+00 +3.91282E+00 +1.20420E+00 +4.57490E+00 -1.46605E-01 +4.73289E+00 -1.44258E+00 +4.35822E+00
 -2.45846E+00 +3.53535E+00 -3.03495E+00 +2.44018E+00 -3.11226E+00 +1.29833E+00 -2.74016E+00 +3.33313E-01
 -2.06300E+00 -2.83238E-01 -1.28386E+00 -4.68132E-01 -6.16532E-01 -2.42090E-01 -2.36512E-01 +2.78781E-01
 -2.42225E-01 +9.12843E-01 -6.34843E-01 +1.45676E+00 -1.32078E+00 +1.73299E+00 -2.13562E+00 +1.63010E+00
 -2.88356E+00 +1.12693E+00 -3.38289E+00 +2.95706E-01 -3.50714E+00 -7.16248E-01 -3.21262E+00 -1.72130E+00
 -2.54652E+00 -2.53456E+00 -1.63413E+00 -3.01511E+00 -6.48835E-01 -3.09617E+00 +2.27874E-01 -2.79754E+00
 +8.47008E-01 -2.21819E+00 +1.12394E+00 -1.51109E+00 +1.05464E+00 -8.46750E-01 +7.12996E-01 -3.74107E-01
 +2.30606E-01 -1.87763E-01 -2.35811E-01 -3.08856E-01 -5.41423E-01 -6.83415E-01 -5.86074E-01 -1.19789E+00
 -3.35574E-01 -1.70757E+00 +1.72891E-01 -2.07096E+00 +8.41717E-01 -2.18187E+00 +1.53696E+00 -1.99223E+00
 +2.11949E+00 -1.52092E+00 +2.47589E+00 -8.47307E-01 +2.54227E+00 -9.17960E-02 +2.31622E+00 +6.11689E-01
 +1.85485E+00 +1.14483E+00 +1.26019E+00 +1.42932E+00 +6.55747E-01 +1.44161E+00 +1.59627E-01 +1.21539E+00
 -1.39974E-01 +8.32041E-01 -2.02031E-01 +4.01554E-01 -3.95188E-02 +3.83179E-02 +2.85076E-01 -1.63161E-01
 +6.74247E-01 -1.47782E-01 +1.01681E+00 +8.90866E-02 +1.21177E+00 +5.01001E-01 +1.19003E+00 +1.00032E+00
 +9.29617E-01 +1.47662E+00 +4.61376E-01 +1.82015E+00 -1.36341E-01 +1.94568E+00 -7.53212E-01 +1.81190E+00
 -1.26997E+00 +1.43209E+00 -1.58440E+00 +8.73359E-01 -1.63478E+00 +2.43914E-01 -1.41543E+00 -3.29497E-01
 -9.80413E-01 -7.29610E-01 -4.33571E-01 -8.75992E-01 +9.35868E-02 -7.45307E-01 +4.71767E-01 -3.79173E-01
 +6.04904E-01 +1.23102E-01 +4.54801E-01 +6.26163E-01 +5.29074E-02 +9.90229E-01 -5.04471E-01 +1.10544E+00
 -1.07734E+00 +9.20479E-01 -1.51516E+00 +4.57995E-01 -1.69413E+00 -1.87915E-01 -1.54946E+00 -8.72277E-01
 -1.09410E+00 -1.43356E+00 -4.18529E-01 -1.73354E+00 +3.29015E-01 -1.69278E+00 +9.77585E-01 -1.31244E+00
 +1.37542E+00 -6.76532E-01 +1.42822E+00 +6.67047E-02 +1.12394E+00 +7.40022E-01 +5.37516E-01 +1.18044E+00
 -1.85998E-01 +1.27983E+00 -8.66154E-01 +1.01252E+00 -1.33106E+00 +4.42784E-01 -1.45978E+00 -2.89761E-01
 -1.21261E+00 -1.00353E+00 -6.41694E-01 -1.51889E+00 +1.20627E-01 -1.70189E+00 +8.93025E-01 -1.49726E+00
 +1.48832E+00 -9.42581E-01 +1.75824E+00 -1.60358E-01 +1.62916E+00 +6.70126E-01 +1.12042E+00 +1.35447E+00
 +3.40997E-01 +1.72860E+00 -5.34696E-01 +1.69741E+00 -1.30625E+00 +1.25785E+00 -1.79303E+00 +5.01039E-01
 -1.87598E+00 -4.06943E-01 -1.52600E+00 -1.26164E+00 -8.12526E-01 -1.86600E+00 +1.09963E-01 -2.07551E+00
 +1.03490E+00 -1.83249E+00 +1.74928E+00 -1.18187E+00 +2.08221E+00 -2.64253E-01 +1.94571E+00 +7.12969E-01
 +1.35833E+00 +1.52087E+00 +4.45338E-01 +1.96120E+00 -5.85639E-01 +1.91410E+00 -1.48937E+00 +1.36997E+00
 -2.03899E+00 +4.37343E-01 -2.08082E+00 -6.76661E-01 -1.57496E+00 -1.71042E+00 -6.11132E-01 -2.40755E+00
 +6.05839E-01 -2.57897E+00 +1.79924E+00 -2.15232E+00 +2.68384E+00 -1.19588E+00 +3.03507E+00 +9.07028E-02
 +2.74713E+00 +1.41861E+00 +1.86483E+00 +2.47656E+00 +5.79609E-01 +3.00661E+00 -8.11453E-01 +2.87047E+00
 -1.97509E+00 +2.08900E+00 -2.62361E+00 +8.43230E-01 -2.58868E+00 -5.64963E-01 -1.86770E+00 -1.78445E+00
 -6.29889E-01 -2.50159E+00 +8.21235E-01 -2.52037E+00 +2.12061E+00 -1.81500E+00 +2.93213E+00 -5.40702E-01
 +3.03384E+00 +1.00147E+00 +2.37590E+00 +2.43755E+00 +1.09561E+00 +3.41328E+00 -5.14738E-01 +3.68296E+00
 -2.07963E+00 +3.17142E+00 -3.23334E+00 +1.99322E+00 -3.71045E+00 +4.23923E-01 -3.41062E+00 -1.16876E+00
 -2.42152E+00 -2.41637E+00 -9.94421E-01 -3.03979E+00 +5.20227E-01 -2.91548E+00 +1.76014E+00 -2.10162E+00
 +2.43882E+00 -8.18943E-01 +2.41168E+00 +6.07437E-01 +1.70515E+00 +1.82901E+00 +5.03532E-01 +2.55678E+00
 -9.00931E-01 +2.62580E+00 -2.18029E+00 +2.02692E+00 -3.04683E+00 +9.00725E-01 -3.31458E+00 -5.02200E-01
 -2.93358E+00 -1.88229E+00 -1.99179E+00 -2.95771E+00 -6.87744E-01 -3.52150E+00 +7.16839E-01 -3.47813E+00
 +1.95244E+00 -2.85456E+00 +2.79313E+00 -1.78725E+00 +3.09535E+00 -4.90614E-01 +2.81923E+00 +7.84876E-01
 +2.03164E+00 +1.79736E+00 +8.92757E-01 +2.35447E+00 -3.70838E-01 +2.34586E+00 -1.50307E+00 +1.76405E+00
 -2.26148E+00 +7.10695E-01 -2.46188E+00 -6.13842E-01 -2.01826E+00 -1.93904E+00 -9.70328E-01 -2.96972E+00
 +5.09526E-01 -3.44357E+00 +2.13597E+00 -3.19130E+00 +3.55880E+00 -2.18642E+00 +4.43399E+00 -5.70299E-01
 +4.50487E+00 +1.35856E+00 +3.67463E+00 +3.19536E+00 +2.04986E+00 +4.51401E+00 -6.12952E-02 +4.96949E+00
 -2.20291E+00 +4.39328E+00 -3.87017E+00 +2.85500E+00 -4.63287E+00 +6.69284E-01 -4.25304E+00 -1.66113E+00
 -2.76412E+00 -3.55795E+00 -4.85892E-01 -4.51108E+00 +2.03556E+00 -4.21746E+00 +4.15350E+00 -2.67657E+00
 +5.28328E+00 -2.12685E-01 +5.06076E+00 +2.58823E+00 +3.45267E+00 +5.01632E+00 +7.85321E-01 +6.41785E+00
 -2.32136E+00 +6.37109E+00 -5.10239E+00 +4.80962E+00 -6.84274E+00 +2.05674E+00 -7.06800E+00 -1.24304E+00
 -5.67864E+00 -4.28146E+00 -2.98905E+00 -6.29364E+00 +3.42818E-01 -6.76056E+00 +3.47951E+00 -5.55182E+00
 +5.62013E+00 -2.96832E+00 +6.21119E+00 +3.28975E-01 +5.09525E+00 +3.48724E+00 +2.55639E+00 +5.68310E+00
 -7.50956E-01 +6.33820E+00 -3.97135E+00 +5.27108E+00 -6.27114E+00 +2.74460E+00 -7.05488E+00 -6.03702E-01
 -6.11794E+00 -3.92918E+00 -3.69522E+00 -6.40013E+00 -3.94557E-01 -7.41139E+00 +2.96568E+00 -6.73504E+00
 +5.56981E+00 -4.57005E+00 +6.81170E+00 -1.48043E+00 +6.44131E+00 +1.75852E+00 +4.61488E+00 +4.36248E+00
 +1.83972E+00 +5.73457E+00 -1.16753E+00 +5.60544E+00 -3.66818E+00 +4.08390E+00 -5.08408E+00 +1.61013E+00
 -5.12932E+00 -1.17066E+00 -3.86123E+00 -3.57689E+00 -1.64392E+00 -5.05618E+00 +9.59667E-01 -5.30698E+00
