 Created: 19-Jan-2021
 $NMID
 ID='D:\BASISSIMULATI'
 FMTDAT='(8E13.5)'
 VOLUME=   1.00000E+00
 TRAMP=   1.00000E+00
 $END
 +2.81339E+01 +1.30226E-01 +2.38838E+01 +1.48276E+01 +1.25772E+01 +2.51170E+01 -2.43096E+00 +2.79625E+01
 -1.66967E+01 +2.25344E+01 -2.60024E+01 +1.04507E+01 -2.76039E+01 -4.70453E+00 -2.10398E+01 -1.84447E+01
 -8.26388E+00 -2.67088E+01 +6.93578E+00 -2.70614E+01 +2.00605E+01 -1.94107E+01 +2.72322E+01 -6.03178E+00
 +2.63394E+01 +9.10989E+00 +1.76588E+01 +2.15338E+01 +3.76960E+00 +2.75701E+01 -1.12125E+01 +2.54437E+01
 -2.28553E+01 +1.57963E+01 -2.77209E+01 +1.49272E+00 -2.43811E+01 -1.32299E+01 -1.38364E+01 -2.40170E+01
 +7.83505E-01 -2.76847E+01 +1.51488E+01 -2.31596E+01 +2.50116E+01 -1.17927E+01 +2.74624E+01 +3.04376E+00
 +2.17880E+01 +1.69568E+01 +9.67925E+00 +2.58334E+01 -5.27291E+00 +2.70565E+01 -1.86423E+01 +2.02764E+01
 -2.64776E+01 +7.51066E+00 -2.64706E+01 -7.45613E+00 -1.86355E+01 -2.01945E+01 -5.30177E+00 -2.69408E+01
 +9.57895E+00 -2.57094E+01 +2.16036E+01 -1.68771E+01 +2.72206E+01 -3.06760E+00 +2.47790E+01 +1.16274E+01
 +1.50134E+01 +2.28608E+01 +8.23317E-01 +2.73160E+01 -1.35880E+01 +2.36862E+01 -2.39583E+01 +1.30575E+01
 -2.72273E+01 -1.41596E+00 -2.24394E+01 -1.54480E+01 -1.10230E+01 -2.48896E+01 +3.63518E+00 -2.69559E+01
 +1.71954E+01 -2.10474E+01 +2.56492E+01 -8.92397E+00 +2.65046E+01 +5.81953E+00 +1.95205E+01 +1.88189E+01
 +6.77477E+00 +2.62326E+01 -7.95447E+00 +2.58771E+01 -2.03083E+01 +1.78696E+01 -2.66370E+01 +4.59013E+00
 -2.50785E+01 -1.00259E+01 -1.61062E+01 -2.16540E+01 -2.38488E+00 -2.68603E+01 +1.20201E+01 -2.41151E+01
 +2.28479E+01 -1.42428E+01 +2.69019E+01 -1.73966E-01 +2.29940E+01 +1.39242E+01 +1.22923E+01 +2.38825E+01
 -2.02772E+00 +2.67625E+01 -1.57257E+01 +2.17236E+01 -2.47516E+01 +1.02684E+01 -2.64437E+01 -4.20543E+00
 -2.03131E+01 -1.74129E+01 -8.18496E+00 -2.54502E+01 +6.34461E+00 -2.59486E+01 +1.89751E+01 -1.87726E+01
 +2.59744E+01 -6.05627E+00 +2.52814E+01 +8.43108E+00 +1.71131E+01 +2.04024E+01 +3.89685E+00 +2.63214E+01
 -1.04510E+01 +2.44472E+01 -2.16858E+01 +1.53463E+01 -2.64898E+01 +1.72138E+00 -2.34526E+01 -1.23912E+01
 -1.34846E+01 -2.28173E+01 +4.55439E-01 -2.64793E+01 +1.42390E+01 -2.23050E+01 +2.37900E+01 -1.15411E+01
 +2.62908E+01 +2.61896E+00 +2.10127E+01 +1.59823E+01 +9.52899E+00 +2.45982E+01 -4.75470E+00 +2.59263E+01
 -1.76099E+01 +1.95853E+01 -2.52372E+01 +7.46231E+00 -2.53893E+01 -6.84842E+00 -1.80328E+01 -1.91114E+01
 -5.35517E+00 -2.57035E+01 +8.88625E+00 -2.46840E+01 +2.04774E+01 -1.63664E+01 +2.59947E+01 -3.22192E+00
 +2.38160E+01 +1.08547E+01 +1.45978E+01 +2.16993E+01 +1.07703E+00 +2.61098E+01 -1.27410E+01 +2.27920E+01
 -2.27695E+01 +1.27393E+01 -2.60487E+01 -1.06502E+00 -2.16195E+01 -1.45327E+01 -1.08038E+01 -2.36815E+01
 +3.18983E+00 -2.58128E+01 +1.62182E+01 -2.03072E+01 +2.44300E+01 -8.80487E+00 +2.54044E+01 +5.28321E+00
 +1.88644E+01 +1.77868E+01 +6.75609E+00 +2.50107E+01 -7.33121E+00 +2.48270E+01 -1.92284E+01 +1.73016E+01
 -2.54205E+01 +4.67150E+00 -2.40855E+01 -9.32029E+00 -1.56298E+01 -2.05339E+01 -2.56530E+00 -2.56575E+01
 +1.12373E+01 -2.31854E+01 +2.16951E+01 -1.38608E+01 +2.57207E+01 -4.51753E-01 +2.21337E+01 +1.30698E+01
 +1.20068E+01 +2.27051E+01 -1.65490E+00 +2.56107E+01 -1.48058E+01 +2.09381E+01 -2.35576E+01 +1.00809E+01
 -2.53291E+01 -3.74051E+00 -1.96073E+01 -1.64340E+01 -8.09615E+00 -2.42476E+01 +5.79117E+00 -2.48784E+01
 +1.79441E+01 -1.81509E+01 +2.47714E+01 -6.06634E+00 +2.42625E+01 +7.79325E+00 +1.65793E+01 +1.93264E+01
 +4.00527E+00 +2.51262E+01 -9.73350E+00 +2.34864E+01 -2.05723E+01 +1.49036E+01 -2.53103E+01 +1.92696E+00
 -2.25559E+01 -1.15992E+01 -1.31356E+01 -2.16739E+01 +1.54544E-01 -2.53233E+01 +1.33781E+01 -2.14782E+01
 +2.26246E+01 -1.12875E+01 +2.51660E+01 +2.22522E+00 +2.02611E+01 +1.50587E+01 +9.37222E+00 +2.34188E+01
 -4.27119E+00 +2.48402E+01 -1.66301E+01 +1.89135E+01 -2.40517E+01 +7.40292E+00 -2.43489E+01 -6.27883E+00
 -1.74450E+01 -1.80823E+01 -5.39310E+00 -2.45198E+01 +8.23480E+00 -2.36961E+01 +1.94061E+01 -1.58662E+01
 +2.48209E+01 -3.35646E+00 +2.28871E+01 +1.01262E+01 +1.41880E+01 +2.05931E+01 +1.30682E+00 +2.49537E+01
 -1.19406E+01 +2.19280E+01 -2.16361E+01 +1.24224E+01 -2.49181E+01 -7.41967E-01 -2.08259E+01 -1.36662E+01
 -1.05815E+01 -2.25287E+01 +2.77613E+00 -2.47150E+01 +1.52918E+01 -1.95890E+01 +2.32656E+01 -8.67806E+00
 +2.43467E+01 +4.78207E+00 +1.82261E+01 +1.68069E+01 +6.72525E+00 +2.38426E+01 -6.74642E+00 +2.38164E+01
 -1.82019E+01 +1.67471E+01 -2.42566E+01 +4.73640E+00 -2.31285E+01 -8.65616E+00 -1.51625E+01 -1.94679E+01
 -2.72505E+00 -2.45054E+01 +1.04987E+01 -2.22882E+01 +2.05970E+01 -1.34833E+01 +2.45884E+01 -7.04830E-01
 +2.13021E+01 +1.22620E+01 +1.17213E+01 +2.15823E+01 -1.31063E+00 +2.45055E+01 -1.39346E+01 +2.01773E+01
 -2.24179E+01 +9.88885E+00 -2.42583E+01 -3.30781E+00 -1.89221E+01 -1.55055E+01 -7.99848E+00 -2.30988E+01
 +5.27335E+00 -2.38492E+01 +1.69649E+01 -1.75456E+01 +2.36211E+01 -6.06320E+00 +2.32815E+01 +7.19419E+00
 +1.60575E+01 +1.83033E+01 +4.09625E+00 +2.39822E+01 -9.05762E+00 +2.25600E+01 -1.95123E+01 +1.44685E+01
 -2.41802E+01 +2.11101E+00 -2.16902E+01 -1.08514E+01 -1.27897E+01 -2.05844E+01 -1.20896E-01 -2.42148E+01
 +1.25637E+01 -2.06786E+01 +2.15130E+01 -1.10327E+01 +2.40863E+01 +1.86067E+00 +1.95327E+01 +1.41836E+01
 +9.20981E+00 +2.22927E+01 -3.82041E+00 +2.37965E+01 -1.57004E+01 +1.82608E+01 -2.29187E+01 +7.33356E+00
 -2.33480E+01 -5.74524E+00 -1.68721E+01 -1.71045E+01 -5.41681E+00 -2.33877E+01 +7.62239E+00 -2.27447E+01
 +1.83870E+01 -1.53765E+01 +2.36972E+01 -3.47265E+00 +2.19912E+01 +9.43946E+00 +1.37845E+01 +1.95398E+01
 +1.51428E+00 +2.38459E+01 -1.11845E+01 +2.10934E+01 -2.05558E+01 +1.21073E+01 -2.38335E+01 -4.45074E-01
 -2.00579E+01 -1.28461E+01 -1.03566E+01 -2.14288E+01 +2.39222E+00 -2.36610E+01 +1.44136E+01 -1.88925E+01
 +2.21536E+01 -8.54445E+00 +2.33301E+01 +4.31412E+00 +1.76054E+01 +1.58767E+01 +6.68338E+00 +2.27260E+01
 -6.19798E+00 +2.28439E+01 -1.72262E+01 +1.62061E+01 -2.31429E+01 +4.78611E+00 -2.22064E+01 -8.03130E+00
 -1.47043E+01 -1.84535E+01 -2.86557E+00 -2.34022E+01 +9.80200E+00 -2.14225E+01 +1.95510E+01 -1.31107E+01
 +2.35029E+01 -9.34798E-01 +2.04983E+01 +1.14985E+01 +1.14365E+01 +2.05118E+01 -9.93186E-01 +2.34451E+01
 -1.31096E+01 +1.94405E+01 -2.13302E+01 +9.69317E+00 -2.32300E+01 -2.90543E+00 -1.82571E+01 -1.46250E+01
 -7.89289E+00 -2.20013E+01 +4.78914E+00 -2.28596E+01 +1.60350E+01 -1.69564E+01 +2.25212E+01 -6.04800E+00
 +2.23372E+01 +6.63179E+00 +1.55478E+01 +1.73305E+01 +4.17111E+00 +2.28873E+01 -8.42119E+00 +2.16671E+01
 -1.85034E+01 +1.40412E+01 -2.30978E+01 +2.27500E+00 -2.08544E+01 -1.01455E+01 -1.24474E+01 -1.95463E+01
 -3.72500E-01 -2.31519E+01 +1.17936E+01 -1.99053E+01 +2.04529E+01 -1.07773E+01 +2.30502E+01 +1.52356E+00
 +1.88268E+01 +1.33545E+01 +9.04257E+00 +2.12177E+01 -3.40046E+00 +2.27938E+01 -1.48184E+01 +1.76268E+01
 -2.18362E+01 +7.25521E+00 -2.23854E+01 -5.24567E+00 -1.63139E+01 -1.61756E+01 -5.42747E+00 -2.23049E+01
 +7.04693E+00 -2.18284E+01 +1.74178E+01 -1.48975E+01 +2.26215E+01 -3.57182E+00 +2.11273E+01 +8.79233E+00
 +1.33875E+01 +1.85370E+01 +1.70088E+00 +2.27844E+01 -1.04704E+01 +2.02873E+01 -1.95262E+01 +1.17946E+01
 -2.27934E+01 -1.72703E-01 -1.93149E+01 -1.20702E+01 -1.01299E+01 -2.03795E+01 +2.03632E+00 -2.26491E+01
 +1.35813E+01 -1.82171E+01 +2.10918E+01 -8.40491E+00 +2.23531E+01 +3.87748E+00 +1.70021E+01 +1.49939E+01
 +6.63149E+00 +2.16588E+01 -5.68391E+00 +2.19082E+01 -1.62991E+01 +1.56784E+01 -2.20776E+01 +4.82182E+00
 -2.13181E+01 -7.44362E+00 -1.42555E+01 -1.74885E+01 -2.98823E+00 -2.23459E+01 +9.14501E+00 -2.05874E+01
 +1.85548E+01 -1.27434E+01 +2.24627E+01 -1.14317E+00 +1.97216E+01 +1.07769E+01 +1.11527E+01 +1.94913E+01
 -7.00907E-01 +2.24279E+01 -1.23286E+01 +1.87274E+01 -2.02922E+01 +9.49453E+00 -2.22424E+01 -2.53160E+00
 -1.76118E+01 -1.37902E+01 -7.78029E+00 -2.09530E+01 +4.33666E+00 -2.19082E+01 +1.51521E+01 -1.63831E+01
 +2.14698E+01 -6.02180E+00 +2.14283E+01 +6.10408E+00 +1.50500E+01 +1.64058E+01 +4.23107E+00 +2.18397E+01
 -7.82214E+00 +2.08066E+01 -1.75432E+01 +1.36220E+01 -2.20611E+01 +2.42032E+00 -2.00478E+01 -9.47952E+00
 -1.21090E+01 -1.85573E+01 -6.01798E-01 -2.21330E+01 +1.10654E+01 -1.91578E+01 +1.94419E+01 -1.05218E+01
 +2.20558E+01 +1.21222E+00 +1.81432E+01 +1.25693E+01 +8.87126E+00 +2.01916E+01 -3.00956E+00 +2.18306E+01
 -1.39817E+01 +1.70113E+01 -2.08019E+01 +7.16882E+00 -2.14597E+01 -4.77820E+00 -1.57703E+01 -1.52934E+01
 -5.42618E+00 -2.12695E+01 +6.50641E+00 -2.09463E+01 +1.64961E+01 -1.44292E+01 +2.15919E+01 -3.65524E+00
 +2.02943E+01 +8.18273E+00 +1.29973E+01 +1.75823E+01 +1.86804E+00 +2.17675E+01 -9.79615E+00 +1.95090E+01
 -1.85451E+01 +1.14847E+01 -2.17960E+01 +7.66925E-02 -1.85962E+01 -1.13361E+01 -9.90204E+00 -1.93786E+01
 +1.70675E+00 -2.16778E+01 +1.27926E+01 -1.75626E+01 +2.00779E+01 -8.26021E+00 +2.14143E+01 +3.47034E+00
 +1.64158E+01 +1.41562E+01 +6.57056E+00 +2.06390E+01 -5.20230E+00 +2.10081E+01 -1.54182E+01 +1.51640E+01
 -2.10585E+01 +4.84467E+00 -2.04625E+01 -6.89113E+00 -1.38161E+01 -1.65706E+01 -3.09431E+00 -2.13346E+01
 +8.52568E+00 -1.97818E+01 +1.76062E+01 -1.23816E+01 +2.14658E+01 -1.33137E+00 +1.89714E+01 +1.00952E+01
 +1.08706E+01 +1.85184E+01 -4.32234E-01 +2.14521E+01 -1.15895E+01 +1.80372E+01 -1.93019E+01 +9.29358E+00
 -2.12942E+01 -2.18464E+00 -1.69861E+01 -1.29988E+01 -7.66151E+00 -1.99519E+01 +3.91411E+00 -2.09938E+01
 +1.43141E+01 -1.58257E+01 +2.04647E+01 -5.98559E+00 +2.05537E+01 +5.60914E+00 +1.45643E+01 +1.55269E+01
 +4.27729E+00 +2.08374E+01 -7.25847E+00 +1.99774E+01 -1.66296E+01 +1.32109E+01 -2.10682E+01 +2.54827E+00
 -1.92695E+01 -8.85125E+00 -1.17751E+01 -1.76153E+01 -8.10234E-01 -2.11563E+01 +1.03770E+01 -1.84353E+01
 +1.84779E+01 -1.02668E+01 +2.11018E+01 +9.25077E-01 +1.74811E+01 +1.18258E+01 +8.69657E+00 +1.92122E+01
 -2.64601E+00 +2.09055E+01 -1.31883E+01 +1.64139E+01 -1.98139E+01 +7.07524E+00 -2.05696E+01 -4.34106E+00
 -1.52412E+01 -1.44557E+01 -5.41395E+00 -2.02795E+01 +5.99894E+00 -2.00970E+01 +1.56199E+01 -1.39716E+01
