 Created: 19-Jan-2021
 $NMID
 ID='D:\BASISSIMULATI'
 FMTDAT='(8E13.5)'
 VOLUME=   1.00000E+00
 TRAMP=   1.00000E+00
 $END
 +3.12035E+01 -6.24496E-04 +2.63326E+01 +1.58636E+01 +1.34315E+01 +2.59510E+01 -2.51889E+00 +2.67041E+01
 -1.54242E+01 +1.82276E+01 -2.04757E+01 +4.21943E+00 -1.60307E+01 -9.51190E+00 -4.23452E+00 -1.73534E+01
 +9.85374E+00 -1.61032E+01 +2.02798E+01 -6.22388E+00 +2.25561E+01 +8.35613E+00 +1.54346E+01 +2.18080E+01
 +1.39302E+00 +2.87105E+01 -1.43487E+01 +2.61879E+01 -2.58889E+01 +1.50354E+01 -2.89632E+01 -6.05665E-01
 -2.26080E+01 -1.48873E+01 -9.51613E+00 -2.25569E+01 +5.04739E+00 -2.10115E+01 +1.53347E+01 -1.12958E+01
 +1.73807E+01 +2.34132E+00 +1.05516E+01 +1.41497E+01 -2.22937E+00 +1.91614E+01 -1.56599E+01 +1.51516E+01
 -2.41681E+01 +3.50720E+00 -2.41174E+01 -1.13345E+01 -1.52358E+01 -2.36464E+01 -7.13521E-01 -2.86704E+01
 +1.40642E+01 -2.44841E+01 +2.36398E+01 -1.27391E+01 +2.46217E+01 +2.00924E+00 +1.69957E+01 +1.41100E+01
 +4.09905E+00 +1.90423E+01 -8.72326E+00 +1.51801E+01 -1.62425E+01 +4.40384E+00 -1.54081E+01 -8.67253E+00
 -6.53687E+00 -1.85468E+01 +6.83395E+00 -2.10105E+01 +1.93619E+01 -1.48068E+01 +2.60169E+01 -2.11415E+00
 +2.40628E+01 +1.23259E+01 +1.41228E+01 +2.30851E+01 -8.33664E-02 +2.61819E+01 -1.32185E+01 +2.06314E+01
 -2.04310E+01 +8.80577E+00 -1.92510E+01 -4.52781E+00 -1.05335E+01 -1.41025E+01 +1.91321E+00 -1.62273E+01
 +1.28590E+01 -1.02250E+01 +1.77296E+01 +1.32943E+00 +1.44089E+01 +1.36526E+01 +4.05914E+00 +2.16594E+01
 -9.35790E+00 +2.19730E+01 -2.06579E+01 +1.42482E+01 -2.54809E+01 +1.29032E+00 -2.19985E+01 -1.20655E+01
 -1.16115E+01 -2.08643E+01 +1.62643E+00 -2.19727E+01 +1.26234E+01 -1.52866E+01 +1.72556E+01 -3.73821E+00
 +1.39751E+01 +7.89071E+00 +4.38768E+00 +1.48716E+01 -7.41426E+00 +1.43919E+01 -1.64926E+01 +6.64631E+00
 -1.90216E+01 -5.26629E+00 -1.37907E+01 -1.65892E+01 -2.66381E+00 -2.27959E+01 +1.01746E+01 -2.13707E+01
 +1.98807E+01 -1.27836E+01 +2.28558E+01 -2.81747E-01 +1.81445E+01 +1.14081E+01 +7.78015E+00 +1.79452E+01
 -4.04708E+00 +1.70699E+01 -1.26600E+01 +9.46309E+00 -1.47379E+01 -1.55954E+00 -9.60591E+00 -1.13857E+01
 +5.29915E-01 -1.59400E+01 +1.14844E+01 -1.32870E+01 +1.87643E+01 -4.37466E+00 +1.93440E+01 +7.36449E+00
 +1.28452E+01 +1.73860E+01 +1.66399E+00 +2.18295E+01 -9.99433E+00 +1.90280E+01 -1.77811E+01 +1.01381E+01
 -1.89078E+01 -1.34405E+00 -1.32177E+01 -1.09810E+01 -3.21108E+00 -1.51448E+01 +6.97305E+00 -1.24281E+01
 +1.32067E+01 -4.16601E+00 +1.29977E+01 +6.12707E+00 +6.45179E+00 +1.41707E+01 -3.79983E+00 +1.66162E+01
 -1.36649E+01 +1.23572E+01 -1.92175E+01 +2.94366E+00 -1.82409E+01 -8.05439E+00 -1.10801E+01 -1.64692E+01
 -4.78736E-01 -1.91757E+01 +9.52489E+00 -1.53017E+01 +1.51952E+01 -6.53874E+00 +1.45570E+01 +3.55759E+00
 +8.14180E+00 +1.09897E+01 -1.25997E+00 +1.28936E+01 -9.73111E+00 +8.64724E+00 -1.37867E+01 +8.21342E-02
 -1.17416E+01 -9.27252E+00 -4.35187E+00 -1.56031E+01 +5.51322E+00 -1.63179E+01 +1.40248E+01 -1.10523E+01
 +1.79102E+01 -1.78579E+00 +1.57293E+01 +7.96395E+00 +8.41361E+00 +1.45391E+01 -1.13319E+00 +1.55750E+01
 -9.20261E+00 +1.09045E+01 -1.27466E+01 +2.58599E+00 -1.05608E+01 -5.94172E+00 -3.72501E+00 -1.12340E+01
 +4.86043E+00 -1.11946E+01 +1.16461E+01 -5.87952E+00 +1.38418E+01 +2.55875E+00 +1.05049E+01 +1.07494E+01
 +2.88477E+00 +1.54473E+01 -6.09843E+00 +1.48063E+01 -1.30239E+01 +9.08365E+00 -1.53178E+01 +5.06877E-01
 -1.22461E+01 -7.62978E+00 -5.16996E+00 -1.22725E+01 +3.02623E+00 -1.17982E+01 +9.09343E+00 -6.62196E+00
 +1.06992E+01 +1.00529E+00 +7.32577E+00 +7.91698E+00 +4.39205E-01 +1.12935E+01 -7.12391E+00 +9.76559E+00
 -1.22972E+01 +3.92839E+00 -1.29951E+01 -3.92624E+00 -8.91638E+00 -1.07387E+01 -1.63204E+00 -1.38954E+01
 +6.06272E+00 -1.22455E+01 +1.12653E+01 -6.52391E+00 +1.21029E+01 +9.72867E-01 +8.44348E+00 +7.31714E+00
 +1.90969E+00 +1.01093E+01 -4.79568E+00 +8.40587E+00 -8.97415E+00 +3.05728E+00 -8.99143E+00 -3.66612E+00
 -4.89725E+00 -8.99742E+00 +1.62944E+00 -1.07722E+01 +7.97404E+00 -8.26798E+00 +1.16328E+01 -2.45938E+00
 +1.11940E+01 +4.39838E+00 +6.86849E+00 +9.68000E+00 +3.73355E-01 +1.14258E+01 -5.77405E+00 +9.09350E+00
 -9.25900E+00 +3.73669E+00 -8.86970E+00 -2.44640E+00 -4.94361E+00 -7.00246E+00 +8.04857E-01 -8.19120E+00
 +5.99281E+00 -5.64986E+00 +8.52229E+00 -5.00579E-01 +7.39823E+00 +5.12812E+00 +3.09282E+00 +8.96331E+00
 -2.67559E+00 +9.48491E+00 -7.64758E+00 +6.50468E+00 -9.92237E+00 +1.20754E+00 -8.69358E+00 -4.34729E+00
 -4.53610E+00 -8.05513E+00 +8.56536E-01 -8.59033E+00 +5.36659E+00 -5.90247E+00 +7.29340E+00 -1.19832E+00
 +6.00694E+00 +3.56904E+00 +2.16215E+00 +6.48925E+00 -2.59770E+00 +6.44372E+00 -6.31730E+00 +3.52143E+00
 -7.50789E+00 -1.05232E+00 -5.71922E+00 -5.43182E+00 -1.68579E+00 -7.89513E+00 +2.99719E+00 -7.51678E+00
 +6.52599E+00 -4.50656E+00 +7.60190E+00 -9.14075E-02 +5.92328E+00 +3.99852E+00 +2.26951E+00 +6.22446E+00
 -1.84258E+00 +5.83493E+00 -4.78023E+00 +3.13156E+00 -5.44000E+00 -6.88467E-01 -3.66157E+00 -4.03674E+00
 -2.55354E-01 -5.57356E+00 +3.35333E+00 -4.72645E+00 +5.70912E+00 -1.88711E+00 +5.90147E+00 +1.77915E+00
 +3.90269E+00 +4.82172E+00 +5.44915E-01 +6.08672E+00 -2.84123E+00 +5.15898E+00 -4.96995E+00 +2.49497E+00
 -5.10355E+00 -7.93639E-01 -3.31820E+00 -3.40578E+00 -4.36851E-01 -4.37147E+00 +2.32993E+00 -3.41844E+00
 +3.88021E+00 -1.04634E+00 +3.65118E+00 +1.70811E+00 +1.81582E+00 +3.70785E+00 -8.21593E-01 +4.17131E+00
 -3.17582E+00 +2.96521E+00 -4.32552E+00 +6.25202E-01 -3.87080E+00 -1.89064E+00 -2.06495E+00 -3.60411E+00
 +3.21131E-01 -3.90637E+00 +2.33382E+00 -2.77927E+00 +3.22651E+00 -7.68618E-01 +2.74472E+00 +1.26690E+00
 +1.19745E+00 +2.51786E+00 -7.02072E-01 +2.54527E+00 -2.14917E+00 +1.43330E+00 -2.57836E+00 -2.78801E-01
 -1.87667E+00 -1.84506E+00 -3.99403E-01 -2.62974E+00 +1.20615E+00 -2.35908E+00 +2.28538E+00 -1.20856E+00
 +2.44536E+00 +3.00304E-01 +1.69796E+00 +1.53928E+00 +4.25353E-01 +2.04087E+00 -8.06547E-01 +1.68044E+00
 -1.49883E+00 +7.02051E-01 -1.42459E+00 -4.13304E-01 -7.03976E-01 -1.17095E+00 +2.74867E-01 -1.27621E+00
 +1.04535E+00 -7.46915E-01 +1.27360E+00 +1.18114E-01 +8.97491E-01 +8.92542E-01 +1.35983E-01 +1.22343E+00
 -6.28692E-01 +9.87566E-01 -1.03701E+00 +3.35044E-01 -9.18956E-01 -3.94995E-01 -3.66043E-01 -8.43038E-01
 +3.21833E-01 -8.01855E-01 +7.86850E-01 -3.12699E-01 +7.88916E-01 +3.58685E-01 +3.23512E-01 +8.53788E-01
 -3.73973E-01 +8.98262E-01 -9.40186E-01 +4.40280E-01 -1.06043E+00 -3.16074E-01 -6.27245E-01 -1.00060E+00
 +1.94992E-01 -1.25085E+00 +1.03358E+00 -8.90502E-01 +1.47436E+00 -2.80761E-02 +1.25815E+00 +9.74420E-01
 +4.16200E-01 +1.65473E+00 -7.21979E-01 +1.66077E+00 -1.65926E+00 +9.23957E-01 -1.94815E+00 -2.86734E-01
 -1.40046E+00 -1.46196E+00 -1.93408E-01 -2.06570E+00 +1.18237E+00 -1.77609E+00 +2.11949E+00 -6.46819E-01
 +2.15655E+00 +8.88230E-01 +1.19410E+00 +2.17897E+00 -4.34423E-01 +2.62993E+00 -2.07732E+00 +1.96543E+00
 -3.02583E+00 +3.72553E-01 -2.81725E+00 -1.54772E+00 -1.45087E+00 -3.01156E+00 +5.81678E-01 -3.37648E+00
 +2.47538E+00 -2.42457E+00 +3.43534E+00 -4.80993E-01 +3.01467E+00 +1.69200E+00 +1.32355E+00 +3.19258E+00
 -9.86001E-01 +3.35244E+00 -2.96502E+00 +2.03131E+00 -3.75058E+00 -2.95236E-01 -2.93248E+00 -2.70236E+00
 -7.48824E-01 -4.17916E+00 +1.97966E+00 -4.04615E+00 +4.16165E+00 -2.25470E+00 +4.87463E+00 +5.61683E-01
 +3.75474E+00 +3.31704E+00 +1.17258E+00 +4.90053E+00 -1.88695E+00 +4.63319E+00 -4.20380E+00 +2.56590E+00
 -4.81484E+00 -5.11219E-01 -3.42026E+00 -3.36355E+00 -5.33344E-01 -4.80159E+00 +2.69812E+00 -4.17138E+00
 +4.93796E+00 -1.64408E+00 +5.20219E+00 +1.82185E+00 +3.27561E+00 +4.84244E+00 -1.70705E-01 +6.15769E+00
 -3.81987E+00 +5.15021E+00 -6.22190E+00 +2.12016E+00 -6.37841E+00 -1.80441E+00 -4.16336E+00 -5.09739E+00
 -4.02702E-01 -6.44070E+00 +3.43044E+00 -5.26534E+00 +5.79323E+00 -2.00522E+00 +5.69683E+00 +2.04844E+00
 +3.12434E+00 +5.24527E+00 -9.33097E-01 +6.23468E+00 -4.84797E+00 +4.52294E+00 -6.99703E+00 +6.99331E-01
 -6.41888E+00 -3.76978E+00 -3.22267E+00 -7.10777E+00 +1.42465E+00 -7.93613E+00 +5.73879E+00 -5.84163E+00
 +8.01975E+00 -1.56904E+00 +7.33806E+00 +3.24813E+00 +3.92790E+00 +6.72235E+00 -8.78785E-01 +7.46511E+00
 -5.16233E+00 +5.15758E+00 -7.17460E+00 +7.04087E-01 -6.04747E+00 -4.10343E+00 -2.16375E+00 -7.28668E+00
 +2.96688E+00 -7.47390E+00 +7.28857E+00 -4.46734E+00 +9.01326E+00 +6.48454E-01 +7.34583E+00 +5.91143E+00
 +2.82665E+00 +9.24871E+00 -2.85457E+00 +9.30476E+00 -7.51023E+00 +5.99967E+00 -9.31984E+00 +5.87473E-01
 -7.56557E+00 -4.81922E+00 -2.94068E+00 -8.07854E+00 +2.70191E+00 -7.87679E+00 +7.07085E+00 -4.27075E+00
 +8.34755E+00 +1.30913E+00 +5.92547E+00 +6.60628E+00 +6.77806E-01 +9.42737E+00 -5.36282E+00 +8.52355E+00
 -9.79527E+00 +4.11014E+00 -1.08034E+01 -2.19009E+00 -7.89299E+00 -7.96796E+00 -2.11384E+00 -1.09747E+01
 +4.33204E+00 -1.00213E+01 +8.94897E+00 -5.47020E+00 +9.93809E+00 +8.85243E-01 +6.92567E+00 +6.51445E+00
 +1.13369E+00 +9.14949E+00 -5.08455E+00 +7.69596E+00 -9.16864E+00 +2.68935E+00 -9.37276E+00 -3.89283E+00
 -5.47833E+00 -9.39833E+00 +1.09221E+00 -1.15494E+01 +7.81530E+00 -9.35918E+00 +1.20542E+01 -3.54726E+00
 +1.21072E+01 +3.71925E+00 +7.89923E+00 +9.66576E+00 +1.03423E+00 +1.20046E+01 -5.81989E+00 +9.85083E+00
 -9.97945E+00 +4.09176E+00 -9.81331E+00 -2.94514E+00 -5.40593E+00 -8.40267E+00 +1.45495E+00 -1.00279E+01
 +7.97012E+00 -7.08004E+00 +1.14334E+01 -6.47701E-01 +1.03143E+01 +6.75951E+00 +4.88574E+00 +1.21913E+01
 -2.85717E+00 +1.34256E+01 -9.96663E+00 +9.86334E+00 -1.37000E+01 +2.78832E+00 -1.26109E+01 -5.11884E+00
 -7.13732E+00 -1.08280E+01 +5.52194E-01 -1.21580E+01 +7.40296E+00 -8.65146E+00 +1.06803E+01 -1.77259E+00
 +9.06160E+00 +5.65653E+00 +3.17847E+00 +1.05673E+01 -4.61342E+00 +1.08660E+01 -1.11534E+01 +6.28138E+00
 -1.37261E+01 -1.50423E+00 -1.11487E+01 -9.49937E+00 -4.26069E+00 -1.45762E+01 +4.38417E+00 -1.47102E+01
 +1.15113E+01 -9.79553E+00 +1.44147E+01 -1.70555E+00 +1.20335E+01 +6.43079E+00 +5.38544E+00 +1.14587E+01
 -2.82101E+00 +1.14489E+01 -9.25011E+00 +6.47312E+00 -1.12611E+01 -1.40816E+00 -7.96645E+00 -8.94922E+00
