 Created: 19-Jan-2021
 $NMID
 ID='D:\BASISSIMULATI'
 FMTDAT='(8E13.5)'
 VOLUME=   1.00000E+00
 TRAMP=   1.00000E+00
 $END
 +3.51878E+01 +3.24785E-02 +3.48177E+01 +4.64073E+00 +3.37078E+01 +9.12296E+00 +3.18915E+01 +1.33538E+01
 +2.94240E+01 +1.72158E+01 +2.63801E+01 +2.06034E+01 +2.28518E+01 +2.34260E+01 +1.89456E+01 +2.56109E+01
 +1.47786E+01 +2.71055E+01 +1.04753E+01 +2.78790E+01 +6.16278E+00 +2.79230E+01 +1.96732E+00 +2.72516E+01
 -1.98995E+00 +2.59010E+01 -5.59682E+00 +2.39282E+01 -8.75347E+00 +2.14084E+01 -1.13756E+01 +1.84331E+01
 -1.33968E+01 +1.51066E+01 -1.47709E+01 +1.15425E+01 -1.54726E+01 +7.86034E+00 -1.54985E+01 +4.18095E+00
 -1.48667E+01 +6.23136E-01 -1.36161E+01 -2.70041E+00 -1.18044E+01 -5.68662E+00 -9.50661E+00 -8.24528E+00
 -6.81169E+00 -1.03018E+01 -3.81978E+00 -1.17992E+01 -6.38597E-01 -1.27001E+01 +2.62018E+00 -1.29873E+01
 +5.84472E+00 -1.26639E+01 +8.92673E+00 -1.17533E+01 +1.17650E+01 -1.02976E+01 +1.42685E+01 -8.35587E+00
 +1.63596E+01 -6.00225E+00 +1.79760E+01 -3.32277E+00 +1.90728E+01 -4.12392E-01 +1.96235E+01 +2.62843E+00
 +1.96207E+01 +5.69724E+00 +1.90758E+01 +8.69311E+00 +1.80185E+01 +1.15201E+01 +1.64949E+01 +1.40904E+01
 +1.45661E+01 +1.63272E+01 +1.23055E+01 +1.81673E+01 +9.79614E+00 +1.95625E+01 +7.12728E+00 +2.04817E+01
 +4.39156E+00 +2.09111E+01 +1.68139E+00 +2.08545E+01 -9.14213E-01 +2.03328E+01 -3.31273E+00 +1.93829E+01
 -5.44099E+00 +1.80562E+01 -7.23756E+00 +1.64163E+01 -8.65479E+00 +1.45364E+01 -9.66021E+00 +1.24967E+01
 -1.02375E+01 +1.03813E+01 -1.03867E+01 +8.27489E+00 -1.01242E+01 +6.25996E+00 -9.48129E+00 +4.41350E+00
 -8.50353E+00 +2.80440E+00 -7.24829E+00 +1.49099E+00 -5.78269E+00 +5.19058E-01 -4.18094E+00 -7.97242E-02
 -2.52150E+00 -2.88793E-01 -8.84097E-01 -1.07145E-01 +6.53239E-01 +4.50781E-01 +2.01709E+00 +1.35579E+00
 +3.14136E+00 +2.56511E+00 +3.96965E+00 +4.02416E+00 +4.45735E+00 +5.66854E+00 +4.57323E+00 +7.42659E+00
 +4.30051E+00 +9.22203E+00 +3.63748E+00 +1.09768E+01 +2.59750E+00 +1.26140E+01 +1.20851E+00 +1.40607E+01
 -4.88056E-01 +1.52507E+01 -2.43876E+00 +1.61266E+01 -4.58011E+00 +1.66425E+01 -6.84089E+00 +1.67652E+01
 -9.14469E+00 +1.64758E+01 -1.14127E+01 +1.57698E+01 -1.35666E+01 +1.46581E+01 -1.55311E+01 +1.31659E+01
 -1.72370E+01 +1.13325E+01 -1.86234E+01 +9.20934E+00 -1.96401E+01 +6.85863E+00 -2.02489E+01 +4.35103E+00
 -2.04259E+01 +1.76319E+00 -2.01612E+01 -8.24849E-01 -1.94603E+01 -3.33248E+00 -1.83434E+01 -5.68130E+00
 -1.68447E+01 -7.79778E+00 -1.50118E+01 -9.61586E+00 -1.29032E+01 -1.10792E+01 -1.05872E+01 -1.21431E+01
 -8.13915E+00 -1.27759E+01 -5.63886E+00 -1.29605E+01 -3.16808E+00 -1.26944E+01 -8.07697E-01 -1.19900E+01
 +1.36500E+00 -1.08743E+01 +3.27889E+00 -9.38780E+00 +4.87138E+00 -7.58331E+00 +6.09047E+00 -5.52397E+00
 +6.89647E+00 -3.28129E+00 +7.26327E+00 -9.32678E-01 +7.17915E+00 +1.44110E+00 +6.64714E+00 +3.75860E+00
 +5.68485E+00 +5.94038E+00 +4.32383E+00 +7.91160E+00 +2.60844E+00 +9.60443E+00 +5.94397E-01 +1.09603E+01
 -1.65318E+00 +1.19316E+01 -4.06192E+00 +1.24833E+01 -6.55460E+00 +1.25941E+01 -9.05168E+00 +1.22567E+01
 -1.14739E+01 +1.14781E+01 -1.37450E+01 +1.02794E+01 -1.57937E+01 +8.69463E+00 -1.75566E+01 +6.76997E+00
 -1.89796E+01 +4.56173E+00 -2.00198E+01 +2.13465E+00 -2.06467E+01 -4.40373E-01 -2.08430E+01 -3.08859E+00
 -2.06052E+01 -5.73388E+00 -1.99430E+01 -8.30122E+00 -1.88793E+01 -1.07191E+01 -1.74493E+01 -1.29217E+01
 -1.56986E+01 -1.48510E+01 -1.36822E+01 -1.64584E+01 -1.14622E+01 -1.77065E+01 -9.10591E+00 -1.85694E+01
 -6.68331E+00 -1.90342E+01 -4.26493E+00 -1.91003E+01 -1.91953E+00 -1.87799E+01 +2.88140E-01 -1.80970E+01
 +2.29934E+00 -1.70863E+01 +4.06312E+00 -1.57922E+01 +5.53783E+00 -1.42668E+01 +6.69228E+00 -1.25680E+01
 +7.50648E+00 -1.07579E+01 +7.97212E+00 -8.90012E+00 +8.09251E+00 -7.05807E+00 +7.88220E+00 -5.29265E+00
 +7.36626E+00 -3.66034E+00 +6.57915E+00 -2.21145E+00 +5.56335E+00 -9.88539E-01 +4.36775E+00 -2.52541E-02
 +3.04583E+00 +6.54632E-01 +1.65375E+00 +1.03775E+00 +2.48370E-01 +1.12133E+00 -1.11467E+00 +9.13011E-01
 -2.38285E+00 +4.30332E-01 -3.50843E+00 -3.00130E-01 -4.45001E+00 -1.24390E+00 -5.17377E+00 -2.35998E+00
 -5.65441E+00 -3.60245E+00 -5.87587E+00 -4.92214E+00 -5.83158E+00 -6.26846E+00 -5.52448E+00 -7.59112E+00
 -4.96669E+00 -8.84194E+00 -4.17881E+00 -9.97642E+00 -3.18907E+00 -1.09552E+01 -2.03204E+00 -1.17455E+01
 -7.47391E-01 -1.23216E+01 +6.21730E-01 -1.26661E+01 +2.03024E+00 -1.27701E+01 +3.43275E+00 -1.26333E+01
 +4.78522E+00 -1.22639E+01 +6.04641E+00 -1.16778E+01 +7.17933E+00 -1.08984E+01 +8.15239E+00 -9.95490E+00
 +8.94043E+00 -8.88178E+00 +9.52544E+00 -7.71705E+00 +9.89703E+00 -6.50094E+00 +1.00526E+01 -5.27443E+00
 +9.99732E+00 -4.07773E+00 +9.74364E+00 -2.94890E+00 +9.31080E+00 -1.92256E+00 +8.72393E+00 -1.02866E+00
 +8.01300E+00 -2.91606E-01 +7.21169E+00 +2.70552E-01 +6.35605E+00 +6.46591E-01 +5.48320E+00 +8.32378E-01
 +4.62996E+00 +8.30859E-01 +3.83152E+00 +6.51800E-01 +3.12023E+00 +3.11291E-01 +2.52452E+00 -1.68961E-01
 +2.06793E+00 -7.62534E-01 +1.76839E+00 -1.43932E+00 +1.63770E+00 -2.16671E+00 +1.68119E+00 -2.91075E+00
 +1.89773E+00 -3.63743E+00 +2.27984E+00 -4.31389E+00 +2.81410E+00 -4.90955E+00 +3.48176E+00 -5.39713E+00
 +4.25948E+00 -5.75360E+00 +5.12029E+00 -5.96087E+00 +6.03455E+00 -6.00635E+00 +6.97110E+00 -5.88325E+00
 +7.89834E+00 -5.59073E+00 +8.78540E+00 -5.13381E+00 +9.60311E+00 -4.52303E+00 +1.03251E+01 -3.77402E+00
 +1.09285E+01 -2.90679E+00 +1.13947E+01 -1.94500E+00 +1.17101E+01 -9.14999E-01 +1.18662E+01 +1.55093E-01
 +1.18598E+01 +1.23643E+00 +1.16929E+01 +2.30043E+00 +1.13730E+01 +3.31974E+00 +1.09119E+01 +4.26915E+00
 +1.03258E+01 +5.12641E+00 +9.63434E+00 +5.87284E+00 +8.86001E+00 +6.49392E+00 +8.02704E+00 +6.97965E+00
 +7.16072E+00 +7.32469E+00 +6.28643E+00 +7.52846E+00 +5.42877E+00 +7.59494E+00 +4.61078E+00 +7.53241E+00
 +3.85316E+00 +7.35299E+00 +3.17371E+00 +7.07208E+00 +2.58676E+00 +6.70771E+00 +2.10288E+00 +6.27981E+00
 +1.72862E+00 +5.80945E+00 +1.46649E+00 +5.31807E+00 +1.31501E+00 +4.82668E+00 +1.26898E+00 +4.35521E+00
 +1.31979E+00 +3.92182E+00 +1.45591E+00 +3.54235E+00 +1.66341E+00 +3.22988E+00 +1.92659E+00 +2.99442E+00
 +2.22861E+00 +2.84268E+00 +2.55215E+00 +2.77800E+00 +2.88005E+00 +2.80044E+00 +3.19592E+00 +2.90692E+00
 +3.48468E+00 +3.09151E+00 +3.73304E+00 +3.34582E+00 +3.92988E+00 +3.65944E+00 +4.06650E+00 +4.02040E+00
 +4.13681E+00 +4.41577E+00 +4.13741E+00 +4.83215E+00 +4.06749E+00 +5.25621E+00 +3.92874E+00 +5.67516E+00
 +3.72507E+00 +6.07723E+00 +3.46233E+00 +6.45201E+00 +3.14793E+00 +6.79076E+00 +2.79045E+00 +7.08660E+00
 +2.39917E+00 +7.33464E+00 +1.98369E+00 +7.53201E+00 +1.55353E+00 +7.67779E+00 +1.11766E+00 +7.77286E+00
 +6.84303E-01 +7.81970E+00 +2.60554E-01 +7.82214E+00 -1.47750E-01 +7.78500E+00 -5.36179E-01 +7.71382E+00
 -9.01750E-01 +7.61450E+00 -1.24290E+00 +7.49292E+00 -1.55938E+00 +7.35473E+00 -1.85210E+00 +7.20498E+00
 -2.12294E+00 +7.04799E+00 -2.37447E+00 +6.88713E+00 -2.60967E+00 +6.72476E+00 -2.83171E+00 +6.56218E+00
 -3.04362E+00 +6.39968E+00 -3.24809E+00 +6.23664E+00 -3.44720E+00 +6.07169E+00 -3.64232E+00 +5.90289E+00
 -3.83393E+00 +5.72798E+00 -4.02163E+00 +5.54460E+00 -4.20409E+00 +5.35061E+00 -4.37919E+00 +5.14426E+00
 -4.54409E+00 +4.92445E+00 -4.69544E+00 +4.69090E+00 -4.82964E+00 +4.44431E+00 -4.94301E+00 +4.18640E+00
 -5.03213E+00 +3.91995E+00 -5.09411E+00 +3.64877E+00 -5.12681E+00 +3.37752E+00 -5.12910E+00 +3.11161E+00
 -5.10104E+00 +2.85692E+00 -5.04403E+00 +2.61954E+00 -4.96085E+00 +2.40548E+00 -4.85571E+00 +2.22030E+00
 -4.73414E+00 +2.06885E+00 -4.60286E+00 +1.95490E+00 -4.46956E+00 +1.88088E+00 -4.34265E+00 +1.84766E+00
 -4.23088E+00 +1.85435E+00 -4.14301E+00 +1.89821E+00 -4.08739E+00 +1.97462E+00 -4.07158E+00 +2.07714E+00
 -4.10193E+00 +2.19766E+00 -4.18323E+00 +2.32662E+00 -4.31839E+00 +2.45332E+00 -4.50818E+00 +2.56633E+00
 -4.75106E+00 +2.65386E+00 -5.04309E+00 +2.70430E+00 -5.37793E+00 +2.70666E+00 -5.74696E+00 +2.65107E+00
 -6.13948E+00 +2.52928E+00 -6.54302E+00 +2.33508E+00 -6.94377E+00 +2.06463E+00 -7.32699E+00 +1.71682E+00
 -7.67758E+00 +1.29339E+00 -7.98068E+00 +7.99080E-01 -8.22220E+00 +2.41560E-01 -8.38946E+00 -3.68694E-01
 -8.47172E+00 -1.01867E+00 -8.46069E+00 -1.69320E+00 -8.35098E+00 -2.37542E+00 -8.14043E+00 -3.04738E+00
 -7.83033E+00 -3.69061E+00 -7.42552E+00 -4.28685E+00 -6.93436E+00 -4.81871E+00 -6.36858E+00 -5.27039E+00
 -5.74293E+00 -5.62830E+00 -5.07480E+00 -5.88169E+00 -4.38364E+00 -6.02313E+00 -3.69030E+00 -6.04893E+00
 -3.01633E+00 -5.95940E+00 -2.38319E+00 -5.75899E+00 -1.81145E+00 -5.45623E+00 -1.32000E+00 -5.06363E+00
 -9.25279E-01 -4.59724E+00 -6.40601E-01 -4.07628E+00 -4.75550E-01 -3.52244E+00 -4.35506E-01 -2.95921E+00
 -5.21318E-01 -2.41101E+00 -7.29129E-01 -1.90238E+00 -1.05037E+00 -1.45702E+00 -1.47195E+00 -1.09689E+00
 -1.97658E+00 -8.41381E-01 -2.54331E+00 -7.06476E-01 -3.14817E+00 -7.04079E-01 -3.76501E+00 -8.41447E-01
 -4.36634E+00 -1.12079E+00 -4.92435E+00 -1.53902E+00 -5.41191E+00 -2.08776E+00 -5.80359E+00 -2.75342E+00
 -6.07663E+00 -3.51761E+00 -6.21187E+00 -4.35765E+00 -6.19453E+00 -5.24727E+00 -6.01490E+00 -6.15748E+00
 -5.66881E+00 -7.05752E+00 -5.15796E+00 -7.91597E+00 -4.49000E+00 -8.70184E+00 -3.67843E+00 -9.38568E+00
 -2.74227E+00 -9.94073E+00 -1.70552E+00 -1.03440E+01 -5.96435E-01 -1.05769E+01 +5.53386E-01 -1.06265E+01
 +1.71003E+00 -1.04859E+01 +2.83842E+00 -1.01543E+01 +3.90356E+00 -9.63777E+00 +4.87174E+00 -8.94887E+00
 +5.71178E+00 -8.10638E+00 +6.39623E+00 -7.13482E+00 +6.90235E+00 -6.06372E+00 +7.21309E+00 -4.92670E+00
 +7.31780E+00 -3.76035E+00 +7.21270E+00 -2.60302E+00 +6.90125E+00 -1.49353E+00 +6.39412E+00 -4.69792E-01
 +5.70897E+00 +4.32532E-01 +4.87003E+00 +1.18132E+00 +3.90732E+00 +1.74920E+00 +2.85578E+00 +2.11458E+00
 +1.75409E+00 +2.26254E+00 +6.43461E-01 +2.18549E+00 -4.33799E-01 +1.88353E+00 -1.43572E+00 +1.36466E+00
 -2.32212E+00 +6.44610E-01 -3.05605E+00 -2.53532E-01 -3.60513E+00 -1.30001E+00 -3.94274E+00 -2.45929E+00
 -4.04905E+00 -3.69117E+00 -3.91183E+00 -4.95212E+00 -3.52700E+00 -6.19665E+00 -2.89888E+00 -7.37893E+00
