 Created: 19-Jan-2021
 $NMID
 ID='D:\BASISSIMULATI'
 FMTDAT='(8E13.5)'
 VOLUME=   1.00000E+00
 TRAMP=   1.00000E+00
 $END
 +2.23755E+01 +5.47478E-01 +2.10412E+01 +7.22889E+00 +1.75373E+01 +1.30079E+01 +1.23514E+01 +1.71699E+01
 +6.19922E+00 +1.92369E+01 -8.32253E-02 +1.90350E+01 -5.66351E+00 +1.67155E+01 -9.83521E+00 +1.27272E+01
 -1.21198E+01 +7.74442E+00 -1.23329E+01 +2.56239E+00 -1.06057E+01 -2.02407E+00 -7.35798E+00 -5.33996E+00
 -3.22837E+00 -6.92933E+00 +1.02711E+00 -6.61994E+00 +4.65294E+00 -4.54369E+00 +7.00975E+00 -1.11076E+00
 +7.67038E+00 +3.05810E+00 +6.48216E+00 +7.23010E+00 +3.58658E+00 +1.06742E+01 -6.05998E-01 +1.27729E+01
 -5.48180E+00 +1.31150E+01 -1.03187E+01 +1.15551E+01 -1.43962E+01 +8.23349E+00 -1.71024E+01 +3.55091E+00
 -1.80240E+01 -1.89352E+00 -1.70035E+01 -7.39361E+00 -1.41583E+01 -1.22411E+01 -9.85812E+00 -1.58286E+01
 -4.66533E+00 -1.77349E+01 +7.50699E-01 -1.77812E+01 +5.71323E+00 -1.60488E+01 +9.63565E+00 -1.28597E+01
 +1.21025E+01 -8.72039E+00 +1.29227E+01 -4.24244E+00 +1.21476E+01 -4.88263E-02 +1.00528E+01 +3.31704E+00
 +7.08721E+00 +5.46732E+00 +3.79886E+00 +6.21962E+00 +7.48567E-01 +5.61440E+00 -1.57457E+00 +3.89838E+00
 -2.82362E+00 +1.47796E+00 -2.84006E+00 -1.14947E+00 -1.67001E+00 -3.47493E+00 +4.50872E-01 -5.05592E+00
 +3.14032E+00 -5.58138E+00 +5.93257E+00 -4.91443E+00 +8.35156E+00 -3.10747E+00 +9.98282E+00 -3.88551E-01
 +1.05335E+01 +2.87791E+00 +9.87186E+00 +6.24896E+00 +8.04209E+00 +9.27023E+00 +5.25201E+00 +1.15421E+01
 +1.83801E+00 +1.27752E+01 -1.78744E+00 +1.28274E+01 -5.19684E+00 +1.17179E+01 -8.00813E+00 +9.61792E+00
 -9.93567E+00 +6.81924E+00 -1.08249E+01 +3.68785E+00 -1.06666E+01 +6.08943E-01 -9.58941E+00 -2.06762E+00
 -7.83319E+00 -4.07386E+00 -5.70827E+00 -5.25580E+00 -3.54670E+00 -5.58740E+00 -1.65353E+00 -5.16534E+00
 -2.64752E-01 -4.18653E+00 +4.82113E-01 -2.91248E+00 +5.61589E-01 -1.62654E+00 +5.67463E-02 -5.90468E-01
 -8.59800E-01 -6.67031E-03 -1.95681E+00 +8.90017E-03 -2.98215E+00 -5.60170E-01 -3.70164E+00 -1.63272E+00
 -3.93336E+00 -3.04595E+00 -3.57290E+00 -4.58233E+00 -2.60637E+00 -6.00310E+00 -1.11009E+00 -7.08338E+00
 +7.62402E-01 -7.64388E+00 +2.80366E+00 -7.57502E+00 +4.78211E+00 -6.85046E+00 +6.47408E+00 -5.52875E+00
 +7.69355E+00 -3.74334E+00 +8.31570E+00 -1.68288E+00 +8.29141E+00 +4.35177E-01 +7.65112E+00 +2.39381E+00
 +6.49798E+00 +4.00454E+00 +4.99156E+00 +5.13075E+00 +3.32479E+00 +5.70316E+00 +1.69724E+00 +5.72596E+00
 +2.88453E-01 +5.27285E+00 -7.65076E-01 +4.47394E+00 -1.38644E+00 +3.49557E+00 -1.56627E+00 +2.51575E+00
 -1.36134E+00 +1.69873E+00 -8.84024E-01 +1.17203E+00 -2.84313E-01 +1.00903E+00 +2.73135E-01 +1.21939E+00
 +6.33802E-01 +1.74846E+00 +6.76550E-01 +2.48591E+00 +3.32082E-01 +3.28217E+00 -4.05898E-01 +3.97068E+00
 -1.47848E+00 +4.39271E+00 -2.76864E+00 +4.42139E+00 -4.11692E+00 +3.98163E+00 -5.34335E+00 +3.06301E+00
 -6.27303E+00 +1.72359E+00 -6.76147E+00 +8.40828E-02 -6.71626E+00 -1.68712E+00 -6.11192E+00 -3.39616E+00
 -4.99548E+00 -4.85015E+00 -3.48189E+00 -5.88407E+00 -1.73963E+00 -6.38446E+00 +3.17381E-02 -6.30618E+00
 +1.62890E+00 -5.67980E+00 +2.87330E+00 -4.60823E+00 +3.63657E+00 -3.25283E+00 +3.85917E+00 -1.81083E+00
 +3.55931E+00 -4.87028E-01 +2.83057E+00 +5.35981E-01 +1.82841E+00 +1.12488E+00 +7.47241E-01 +1.21578E+00
 -2.08739E-01 +8.24299E-01 -8.56623E-01 +4.39223E-02 -1.06324E+00 -9.67469E-01 -7.66590E-01 -2.01108E+00
 +1.31542E-02 -2.87735E+00 +1.17491E+00 -3.37842E+00 +2.55033E+00 -3.37790E+00 +3.92806E+00 -2.81351E+00
 +5.08504E+00 -1.70895E+00 +5.82035E+00 -1.72876E-01 +5.98643E+00 +1.61496E+00 +5.51296E+00 +3.42871E+00
 +4.41956E+00 +5.02883E+00 +2.81524E+00 +6.19731E+00 +8.84459E-01 +6.77022E+00 -1.13837E+00 +6.66285E+00
 -3.00212E+00 +5.88330E+00 -4.47520E+00 +4.53261E+00 -5.37922E+00 +2.79099E+00 -5.61516E+00 +8.92274E-01
 -5.17793E+00 -9.09746E-01 -4.15711E+00 -2.37810E+00 -2.72379E+00 -3.32703E+00 -1.10521E+00 -3.64889E+00
 +4.48825E-01 -3.32942E+00 +1.70276E+00 -2.44923E+00 +2.47001E+00 -1.17120E+00 +2.64017E+00 +2.84287E-01
 +2.19489E+00 +1.67244E+00 +1.20991E+00 +2.76069E+00 -1.56726E-01 +3.36320E+00 -1.68870E+00 +3.36825E+00
 -3.14378E+00 +2.75448E+00 -4.28985E+00 +1.59359E+00 -4.93901E+00 +3.94426E-02 -4.97493E+00 -1.69495E+00
 -4.36947E+00 -3.36868E+00 -3.18617E+00 -4.74805E+00 -1.57047E+00 -5.64003E+00 +2.71786E-01 -5.91947E+00
 +2.10420E+00 -5.54605E+00 +3.69347E+00 -4.56881E+00 +4.84193E+00 -3.11788E+00 +5.41439E+00 -1.38487E+00
 +5.35545E+00 +4.04873E-01 +4.69523E+00 +2.02410E+00 +3.54297E+00 +3.27482E+00 +2.06982E+00 +4.01445E+00
 +4.83657E-01 +4.17346E+00 -1.00035E+00 +3.76240E+00 -2.18904E+00 +2.86762E+00 -2.93651E+00 +1.63690E+00
 -3.16191E+00 +2.57238E-01 -2.85777E+00 -1.07164E+00 -2.08810E+00 -2.16445E+00 -9.77110E-01 -2.87434E+00
 +3.09587E-01 -3.11076E+00 +1.58830E+00 -2.84910E+00 +2.68189E+00 -2.13135E+00 +3.44234E+00 -1.05811E+00
 +3.76862E+00 +2.26489E-01 +3.61772E+00 +1.55463E+00 +3.00798E+00 +2.75668E+00 +2.01463E+00 +3.68224E+00
 +7.58746E-01 +4.21793E+00 -6.08935E-01 +4.29991E+00 -1.92689E+00 +3.91999E+00 -3.04222E+00 +3.12506E+00
 -3.82833E+00 +2.01011E+00 -4.19898E+00 +7.06181E-01 -4.11738E+00 -6.35516E-01 -3.59958E+00 -1.86115E+00
 -2.71194E+00 -2.83184E+00 -1.56319E+00 -3.43926E+00 -2.91888E-01 -3.61778E+00 +9.49268E-01 -3.35201E+00
 +2.01081E+00 -2.67876E+00 +2.76367E+00 -1.68340E+00 +3.11445E+00 -4.90740E-01 +3.01704E+00 +7.48755E-01
 +2.47921E+00 +1.87608E+00 +1.56333E+00 +2.74242E+00 +3.80587E-01 +3.22746E+00 -9.20789E-01 +3.25514E+00
 -2.17238E+00 +2.80483E+00 -3.20582E+00 +1.91628E+00 -3.87411E+00 +6.87235E-01 -4.07137E+00 -7.36342E-01
 -3.74855E+00 -2.17691E+00 -2.92243E+00 -3.44697E+00 -1.67665E+00 -4.37328E+00 -1.53772E-01 -4.82054E+00
 +1.46103E+00 -4.71122E+00 +2.96291E+00 -4.03873E+00 +4.15430E+00 -2.87153E+00 +4.87223E+00 -1.34700E+00
 +5.01216E+00 +3.44476E-01 +4.54496E+00 +1.98372E+00 +3.52386E+00 +3.35221E+00 +2.08016E+00 +4.26273E+00
 +4.07521E-01 +4.58700E+00 -1.26333E+00 +4.27594E+00 -2.69632E+00 +3.36941E+00 -3.68380E+00 +1.99345E+00
 -4.07747E+00 +3.44745E-01 -3.81172E+00 -1.33564E+00 -2.91579E+00 -2.79612E+00 -1.51223E+00 -3.81107E+00
 +1.98313E-01 -4.21473E+00 +1.96447E+00 -3.92729E+00 +3.51975E+00 -2.96902E+00 +4.62155E+00 -1.45996E+00
 +5.08752E+00 +3.95221E-01 +4.82408E+00 +2.33540E+00 +3.84225E+00 +4.08023E+00 +2.25835E+00 +5.37115E+00
 +2.78957E-01 +6.00993E+00 -1.82790E+00 +5.88907E+00 -3.77123E+00 +5.00911E+00 -5.27966E+00 +3.48014E+00
 -6.14164E+00 +1.50691E+00 -6.23731E+00 -6.40414E-01 -5.55690E+00 -2.66562E+00 -4.20283E+00 -4.29009E+00
 -2.37498E+00 -5.29414E+00 -3.41202E-01 -5.54980E+00 +1.60253E+00 -5.03993E+00 +3.17642E+00 -3.86064E+00
 +4.15870E+00 -2.20665E+00 +4.41891E+00 -3.41708E-01 +3.93715E+00 +1.44151E+00 +2.80673E+00 +2.86583E+00
 +1.21939E+00 +3.71161E+00 -5.64247E-01 +3.84991E+00 -2.25478E+00 +3.26170E+00 -3.57831E+00 +2.04032E+00
 -4.31815E+00 +3.76654E-01 -4.34762E+00 -1.47042E+00 -3.64892E+00 -3.21379E+00 -2.31522E+00 -4.58195E+00
 -5.35840E-01 -5.36010E+00 +1.43308E+00 -5.42223E+00 +3.30781E+00 -4.74938E+00 +4.81998E+00 -3.43144E+00
 +5.75673E+00 -1.65235E+00 +5.99176E+00 +3.38746E-01 +5.50289E+00 +2.26581E+00 +4.37338E+00 +3.86763E+00
 +2.77738E+00 +4.93654E+00 +9.51765E-01 +5.34818E+00 -8.40879E-01 +5.07803E+00 -2.35234E+00 +4.20233E+00
 -3.38569E+00 +2.88365E+00 -3.82342E+00 +1.34375E+00 -3.64272E+00 -1.71954E-01 -2.91584E+00 -1.43250E+00
 -1.79589E+00 -2.25619E+00 -4.90660E-01 -2.53685E+00 +7.71149E-01 -2.25768E+00 +1.77595E+00 -1.49096E+00
 +2.35784E+00 -3.84096E-01 +2.42280E+00 +8.65531E-01 +1.96114E+00 +2.04256E+00 +1.04658E+00 +2.94745E+00
 -1.77446E-01 +3.42674E+00 -1.52176E+00 +3.39535E+00 -2.78155E+00 +2.84760E+00 -3.76792E+00 +1.85582E+00
 -4.33588E+00 +5.57144E-01 -4.40469E+00 -8.69078E-01 -3.96775E+00 -2.22937E+00 -3.09095E+00 -3.34529E+00
 -1.90015E+00 -4.07911E+00 -5.60270E-01 -4.35232E+00 +7.50587E-01 -4.15451E+00 +1.86772E+00 -3.54162E+00
 +2.66317E+00 -2.62440E+00 +3.06245E+00 -1.54935E+00 +3.05241E+00 -4.75306E-01 +2.67960E+00 +4.50580E-01
 +2.03989E+00 +1.11377E+00 +1.26130E+00 +1.44730E+00 +4.83071E-01 +1.43878E+00 -1.65726E-01 +1.12903E+00
 -5.84871E-01 +6.02749E-01 -7.16326E-01 -2.65663E-02 -5.50607E-01 -6.35222E-01 -1.25674E-01 -1.10828E+00
 +4.81019E-01 -1.35621E+00 +1.16576E+00 -1.32689E+00 +1.81482E+00 -1.01163E+00 +2.32130E+00 -4.44646E-01
 +2.59999E+00 +3.03445E-01 +2.59854E+00 +1.13685E+00 +2.30340E+00 +1.94865E+00 +1.74035E+00 +2.63567E+00
 +9.69588E-01 +3.11193E+00 +7.67349E-02 +3.31928E+00 -8.39084E-01 +3.23378E+00 -1.67819E+00 +2.86741E+00
 -2.35274E+00 +2.26530E+00 -2.79700E+00 +1.49886E+00 -2.97453E+00 +6.56200E-01 -2.88143E+00 -1.69148E-01
 -2.54566E+00 -8.89598E-01 -2.02261E+00 -1.43381E+00 -1.38763E+00 -1.75474E+00 -7.26381E-01 -1.83467E+00
 -1.24164E-01 -1.68669E+00 +3.44543E-01 -1.35259E+00 +6.25289E-01 -8.97308E-01 +6.90482E-01 -4.00648E-01
 +5.43071E-01 +5.29703E-02 +2.16532E-01 +3.85529E-01 -2.28954E-01 +5.35966E-01 -7.13885E-01 +4.68965E-01
 -1.14966E+00 +1.80787E-01 -1.45052E+00 -2.98772E-01 -1.54578E+00 -9.08821E-01 -1.39078E+00 -1.56421E+00
 -9.74893E-01 -2.16615E+00 -3.25352E-01 -2.61553E+00 +4.94035E-01 -2.82710E+00 +1.38949E+00 -2.74279E+00
 +2.24865E+00 -2.34201E+00 +2.95551E+00 -1.64728E+00 +3.40691E+00 -7.23920E-01 +3.52830E+00 +3.26516E-01
 +3.28638E+00 +1.37867E+00 +2.69645E+00 +2.30012E+00 +1.82290E+00 +2.97029E+00 +7.72506E-01 +3.29868E+00
 -3.19203E-01 +3.23978E+00 -1.30664E+00 +2.80189E+00 -2.05543E+00 +2.04827E+00 -2.46314E+00 +1.08994E+00
 -2.47605E+00 +7.07557E-02 -2.09930E+00 -8.53432E-01 -1.39827E+00 -1.53837E+00 -4.90593E-01 -1.87434E+00
 +4.70403E-01 -1.80472E+00 +1.31870E+00 -1.33690E+00 +1.90158E+00 -5.43555E-01 +2.10468E+00 +4.46510E-01
 +1.87190E+00 +1.46686E+00 +1.21691E+00 +2.33879E+00 +2.23776E-01 +2.89973E+00 -9.63602E-01 +3.03027E+00
 -2.16225E+00 +2.67526E+00 -3.17797E+00 +1.85550E+00 -3.83617E+00 +6.67545E-01 -4.01067E+00 -7.28633E-01
 -3.64587E+00 -2.13276E+00 -2.76834E+00 -3.33469E+00 -1.48554E+00 -4.14747E+00 +2.84499E-02 -4.43787E+00
