 Created: 19-Jan-2021
 $NMID
 ID='D:\BASISSIMULATI'
 FMTDAT='(8E13.5)'
 VOLUME=   1.00000E+00
 TRAMP=   1.00000E+00
 $END
 +5.00689E+01 +4.14909E-01 +4.21788E+01 +2.53151E+01 +2.18545E+01 +4.09996E+01 -2.92127E+00 +4.21317E+01
 -2.27250E+01 +2.93176E+01 -3.06327E+01 +8.64109E+00 -2.49678E+01 -1.11249E+01 -9.68709E+00 -2.23462E+01
 +7.68845E+00 -2.16811E+01 +1.95915E+01 -1.11869E+01 +2.17472E+01 +3.03298E+00 +1.48307E+01 +1.39315E+01
 +3.75168E+00 +1.68816E+01 -5.01502E+00 +1.17314E+01 -6.73853E+00 +2.62712E+00 -7.91289E-01 -4.25769E+00
 +9.05858E+00 -3.96354E+00 +1.65513E+01 +4.61562E+00 +1.61207E+01 +1.79786E+01 +5.83193E+00 +2.95393E+01
 -1.13533E+01 +3.27384E+01 -2.86367E+01 +2.42928E+01 -3.83376E+01 +6.04428E+00 -3.54137E+01 -1.55085E+01
 -1.99325E+01 -3.18512E+01 +2.67085E+00 -3.61202E+01 +2.37225E+01 -2.61598E+01 +3.49189E+01 -5.58715E+00
 +3.18332E+01 +1.76352E+01 +1.57756E+01 +3.45064E+01 -6.80777E+00 +3.87266E+01 -2.71154E+01 +2.92340E+01
 -3.77075E+01 +1.04527E+01 -3.55213E+01 -9.80603E+00 -2.28858E+01 -2.38074E+01 -6.15905E+00 -2.71561E+01
 +7.32144E+00 -2.04235E+01 +1.25462E+01 -8.47901E+00 +8.89643E+00 +2.07676E+00 +6.98552E-02 +6.12855E+00
 -8.01378E+00 +2.39858E+00 -1.02804E+01 -6.13905E+00 -5.06143E+00 -1.39280E+01 +5.07158E+00 -1.57468E+01
 +1.45857E+01 -9.45645E+00 +1.77635E+01 +2.75348E+00 +1.16486E+01 +1.52379E+01 -2.25706E+00 +2.15077E+01
 -1.83897E+01 +1.73706E+01 -2.94833E+01 +3.12380E+00 -2.98446E+01 -1.62583E+01 -1.80485E+01 -3.30887E+01
 +2.19636E+00 -4.02409E+01 +2.34467E+01 -3.42790E+01 +3.76029E+01 -1.70361E+01 +3.93179E+01 +5.07566E+00
 +2.82359E+01 +2.37344E+01 +9.08293E+00 +3.21813E+01 -1.04127E+01 +2.79758E+01 -2.28281E+01 +1.38428E+01
 -2.41137E+01 -3.71309E+00 -1.50863E+01 -1.73591E+01 -7.44776E-01 -2.21006E+01 +1.22057E+01 -1.72560E+01
 +1.84464E+01 -6.40520E+00 +1.63317E+01 +4.57916E+00 +8.36199E+00 +1.04428E+01 -3.08923E-01 +9.02181E+00
 -4.56608E+00 +2.13427E+00 -1.92155E+00 -5.48669E+00 +6.23594E+00 -8.67309E+00 +1.53166E+01 -4.50865E+00
 +1.98034E+01 +6.07393E+00 +1.60385E+01 +1.85640E+01 +4.19248E+00 +2.69105E+01 -1.15442E+01 +2.63891E+01
 -2.46798E+01 +1.59619E+01 -2.92957E+01 -9.90239E-01 -2.27738E+01 -1.79437E+01 -7.12352E+00 -2.79799E+01
 +1.17199E+01 -2.67887E+01 +2.63429E+01 -1.45844E+01 +3.09741E+01 +3.92720E+00 +2.39046E+01 +2.15217E+01
 +8.14748E+00 +3.14971E+01 -9.93181E+00 +3.04419E+01 -2.33828E+01 +1.95270E+01 -2.75933E+01 +3.79425E+00
 -2.20858E+01 -1.01912E+01 -1.04351E+01 -1.72337E+01 +1.58326E+00 -1.56458E+01 +8.71673E+00 -7.70898E+00
 +8.56637E+00 +1.68205E+00 +2.47784E+00 +7.49796E+00 -5.36262E+00 +6.98985E+00 -1.01446E+01 +9.15634E-01
 -8.87996E+00 -6.96802E+00 -1.91029E+00 -1.18714E+01 +7.23600E+00 -1.04362E+01 +1.35633E+01 -2.51323E+00
 +1.30869E+01 +8.60550E+00 +4.89111E+00 +1.76301E+01 -8.21946E+00 +1.97338E+01 -2.08141E+01 +1.28915E+01
 -2.72032E+01 -1.00091E+00 -2.40126E+01 -1.67716E+01 -1.17913E+01 -2.81228E+01 +5.09009E+00 -3.03389E+01
 +2.02268E+01 -2.23457E+01 +2.78696E+01 -7.20257E+00 +2.53316E+01 +9.18956E+00 +1.40588E+01 +2.05877E+01
 -1.08534E+00 +2.30050E+01 -1.39742E+01 +1.62743E+01 -1.98350E+01 +3.92123E+00 -1.71683E+01 -8.54440E+00
 -8.15321E+00 -1.61093E+01 +2.57960E+00 -1.63824E+01 +1.01904E+01 -1.04321E+01 +1.18323E+01 -2.01405E+00
 +7.81128E+00 +4.38704E+00 +1.21190E+00 +5.75277E+00 -3.78102E+00 +1.92876E+00 -4.03461E+00 -4.40983E+00
 +9.40982E-01 -9.17681E+00 +8.71696E+00 -8.97958E+00 +1.51121E+01 -2.89508E+00 +1.62454E+01 +6.93747E+00
 +1.05022E+01 +1.62037E+01 -5.23825E-01 +2.03834E+01 -1.25773E+01 +1.68941E+01 -2.05530E+01 +6.41264E+00
 -2.07641E+01 -7.25334E+00 -1.26388E+01 -1.87118E+01 +9.26251E-01 -2.32748E+01 +1.47294E+01 -1.89754E+01
 +2.34345E+01 -7.41801E+00 +2.37939E+01 +6.90659E+00 +1.59533E+01 +1.85290E+01 +3.28614E+00 +2.32827E+01
 -9.13551E+00 +1.99605E+01 -1.67295E+01 +1.06458E+01 -1.72751E+01 -3.76879E-01 -1.16622E+01 -8.59688E+00
 -3.24039E+00 -1.12268E+01 +3.87396E+00 -8.26205E+00 +6.72017E+00 -2.21845E+00 +4.75854E+00 +3.26630E+00
 -7.37300E-02 +5.26970E+00 -4.49137E+00 +2.98312E+00 -5.59911E+00 -1.97394E+00 -2.39263E+00 -6.44559E+00
 +3.69620E+00 -7.38805E+00 +9.46705E+00 -3.47359E+00 +1.15130E+01 +4.12506E+00 +7.93553E+00 +1.21566E+01
 -6.04505E-01 +1.67392E+01 -1.10100E+01 +1.51723E+01 -1.90159E+01 +7.27462E+00 -2.10431E+01 -4.37935E+00
 -1.58068E+01 -1.54541E+01 -4.95342E+00 -2.16510E+01 +7.56602E+00 -2.05205E+01 +1.71150E+01 -1.24926E+01
 +2.02736E+01 -6.81885E-01 +1.61998E+01 +1.04342E+01 +6.87437E+00 +1.68715E+01 -3.84163E+00 +1.67188E+01
 -1.18897E+01 +1.07733E+01 -1.46802E+01 +2.00166E+00 -1.20236E+01 -5.88229E+00 -5.96067E+00 -1.00515E+01
 +3.65001E-01 -9.68029E+00 +4.23014E+00 -6.07421E+00 +4.53552E+00 -1.81779E+00 +2.15479E+00 +6.08381E-01
 -6.88727E-01 +6.47902E-02 -1.67626E+00 -2.73771E+00 +3.48124E-01 -5.67705E+00 +4.72843E+00 -6.37258E+00
 +9.26941E+00 -3.48030E+00 +1.13010E+01 +2.50324E+00 +9.02715E+00 +9.32706E+00 +2.51531E+00 +1.39407E+01
 -6.15522E+00 +1.38874E+01 -1.36794E+01 +8.49503E+00 -1.69118E+01 -6.88041E-01 -1.42385E+01 -1.04299E+01
 -6.32471E+00 -1.71024E+01 +4.09839E+00 -1.81635E+01 +1.33156E+01 -1.31935E+01 +1.81121E+01 -4.04437E+00
 +1.70224E+01 +5.94549E+00 +1.08254E+01 +1.33162E+01 +2.10433E+00 +1.58356E+01 -5.89777E+00 +1.32686E+01
 -1.06076E+01 +7.27504E+00 -1.10600E+01 +5.37901E-01 -8.07512E+00 -4.44956E+00 -3.65732E+00 -6.38613E+00
 +5.30669E-02 -5.53125E+00 +1.76732E+00 -3.32894E+00 +1.52702E+00 -1.52178E+00 +4.88241E-01 -1.21055E+00
 +1.61003E-01 -2.31557E+00 +1.50553E+00 -3.68382E+00 +4.34099E+00 -3.76706E+00 +7.36015E+00 -1.52233E+00
 +8.74611E+00 +2.91747E+00 +7.09609E+00 +8.14252E+00 +2.20799E+00 +1.20035E+01 -4.65501E+00 +1.25532E+01
 -1.11680E+01 +8.96629E+00 -1.48568E+01 +2.01247E+00 -1.41258E+01 -6.14341E+00 -8.95421E+00 -1.27431E+01
 -9.55771E-01 -1.55027E+01 +7.22409E+00 -1.34969E+01 +1.29171E+01 -7.49362E+00 +1.44234E+01 +3.85108E-01
 +1.15835E+01 +7.51336E+00 +5.72081E+00 +1.17540E+01 -9.81157E-01 +1.21847E+01 -6.37274E+00 +9.28645E+00
 -9.11588E+00 +4.56544E+00 -9.04014E+00 -1.76162E-01 -6.97742E+00 -3.57941E+00 -4.21023E+00 -5.16204E+00
 -1.82428E+00 -5.29770E+00 -2.69651E-01 -4.81013E+00 +6.90567E-01 -4.42152E+00 +1.66355E+00 -4.34091E+00
 +3.13671E+00 -4.18861E+00 +5.08202E+00 -3.27576E+00 +6.86382E+00 -1.08036E+00 +7.50247E+00 +2.33316E+00
 +6.16864E+00 +6.17457E+00 +2.66808E+00 +9.15644E+00 -2.32325E+00 +1.00026E+01 -7.40224E+00 +8.01392E+00
 -1.09172E+01 +3.43678E+00 -1.15888E+01 -2.53585E+00 -9.01562E+00 -8.14471E+00 -3.85541E+00 -1.16764E+01
 +2.39033E+00 -1.20640E+01 +7.89785E+00 -9.24344E+00 +1.11396E+01 -4.13852E+00 +1.13638E+01 +1.69933E+00
 +8.76838E+00 +6.63874E+00 +4.33580E+00 +9.48741E+00 -5.74260E-01 +9.79886E+00 -4.69576E+00 +7.88600E+00
 -7.21255E+00 +4.58261E+00 -7.89332E+00 +8.83645E-01 -7.00172E+00 -2.38046E+00 -5.06730E+00 -4.72321E+00
 -2.64088E+00 -6.00482E+00 -1.37535E-01 -6.30848E+00 +2.19197E+00 -5.78416E+00 +4.18955E+00 -4.54751E+00
 +5.69042E+00 -2.67540E+00 +6.47049E+00 -2.80039E-01 +6.27995E+00 +2.39842E+00 +4.95071E+00 +4.94902E+00
 +2.52383E+00 +6.83800E+00 -6.70454E-01 +7.54322E+00 -4.02912E+00 +6.72789E+00 -6.79818E+00 +4.38669E+00
 -8.26700E+00 +9.04702E-01 -7.97389E+00 -2.99902E+00 -5.85757E+00 -6.43282E+00 -2.30639E+00 -8.55457E+00
 +1.91217E+00 -8.79351E+00 +5.82566E+00 -7.01163E+00 +8.49219E+00 -3.56062E+00 +9.23939E+00 +7.83760E-01
 +7.84628E+00 +4.99936E+00 +4.61797E+00 +8.06820E+00 +3.26241E-01 +9.23950E+00 -3.97852E+00 +8.23488E+00
 -7.24123E+00 +5.33331E+00 -8.68861E+00 +1.30208E+00 -8.04260E+00 -2.81597E+00 -5.58978E+00 -6.00064E+00
 -2.07877E+00 -7.54536E+00 +1.52477E+00 -7.24422E+00 +4.34229E+00 -5.41085E+00 +5.83787E+00 -2.72462E+00
 +5.93355E+00 +3.37020E-02 +4.94822E+00 +2.25092E+00 +3.39672E+00 +3.64801E+00 +1.74485E+00 +4.28310E+00
 +2.33822E-01 +4.40390E+00 -1.14698E+00 +4.23322E+00 -2.53325E+00 +3.80362E+00 -3.97858E+00 +2.93403E+00
 -5.28709E+00 +1.36987E+00 -5.99392E+00 -9.79974E-01 -5.53269E+00 -3.83670E+00 -3.53154E+00 -6.50492E+00
 -1.01236E-01 -8.04916E+00 +4.04048E+00 -7.65086E+00 +7.70649E+00 -5.00393E+00 +9.62481E+00 -5.65048E-01
 +8.93435E+00 +4.48309E+00 +5.58537E+00 +8.58278E+00 +4.56440E-01 +1.03536E+01 -4.89338E+00 +9.13024E+00
 -8.76511E+00 +5.25723E+00 -9.94715E+00 -1.07802E-03 -8.17276E+00 -4.91753E+00 -4.21140E+00 -7.95029E+00
 +4.52123E-01 -8.31641E+00 +4.21967E+00 -6.25054E+00 +6.00770E+00 -2.84064E+00 +5.63228E+00 +4.82680E-01
 +3.78888E+00 +2.57348E+00 +1.64726E+00 +3.03268E+00 +2.56220E-01 +2.29962E+00 +4.12328E-02 +1.33958E+00
 +6.33853E-01 +1.08429E+00 +1.11523E+00 +1.90156E+00 +5.56043E-01 +3.36087E+00 -1.41348E+00 +4.42339E+00
 -4.29500E+00 +3.97993E+00 -6.85115E+00 +1.48386E+00 -7.64210E+00 -2.63596E+00 -5.73680E+00 -7.00993E+00
 -1.26423E+00 -9.83554E+00 +4.47772E+00 -9.65765E+00 +9.44798E+00 -6.07573E+00 +1.16702E+01 -4.26350E-02
 +1.00827E+01 +6.41332E+00 +5.05083E+00 +1.09568E+01 -1.70583E+00 +1.18908E+01 -7.76678E+00 +8.87116E+00
 -1.09791E+01 +3.06880E+00 -1.03285E+01 -3.30367E+00 -6.33172E+00 -7.90677E+00 -7.77710E-01 -9.23428E+00
 +4.07044E+00 -7.19906E+00 +6.45565E+00 -3.08940E+00 +5.85165E+00 +1.07670E+00 +3.10997E+00 +3.49917E+00
 -2.83687E-02 +3.40797E+00 -1.82079E+00 +1.36530E+00 -1.38856E+00 -1.07875E+00 +8.53416E-01 -2.21037E+00
 +3.41256E+00 -1.05941E+00 +4.48458E+00 +2.05169E+00 +2.90745E+00 +5.59689E+00 -1.15952E+00 +7.55295E+00
 -6.17798E+00 +6.40455E+00 -9.85518E+00 +1.97308E+00 -1.01884E+01 -4.34218E+00 -6.45432E+00 -1.00613E+01
 +3.27457E-01 -1.26685E+01 +7.70338E+00 -1.07483E+01 +1.27663E+01 -4.69419E+00 +1.33924E+01 +3.35361E+00
 +9.18723E+00 +1.03455E+01 +1.70766E+00 +1.35868E+01 -6.15964E+00 +1.18783E+01 -1.14036E+01 +6.02532E+00
 -1.21533E+01 -1.51730E+00 -8.44318E+00 -7.71351E+00 -2.13947E+00 -1.02535E+01 +3.93497E+00 -8.51765E+00
 +7.27821E+00 -3.76913E+00 +6.80803E+00 +1.50418E+00 +3.28342E+00 +4.78621E+00 -1.13687E+00 +4.71125E+00
 -3.98502E+00 +1.67562E+00 -3.70703E+00 -2.40174E+00 -4.37185E-01 -5.05618E+00 +4.04982E+00 -4.52873E+00
