 Created: 19-Jan-2021
 $NMID
 ID='D:\BASISSIMULATI'
 FMTDAT='(8E13.5)'
 VOLUME=   1.00000E+00
 TRAMP=   1.00000E+00
 $END
 +1.12013E+02 +5.17154E-01 +1.07596E+02 +2.97096E+01 +9.53822E+01 +5.64965E+01 +7.63745E+01 +7.87978E+01
 +5.21222E+01 +9.49070E+01 +2.45906E+01 +1.03630E+02 -4.00316E+00 +1.04382E+02 -3.13748E+01 +9.72340E+01
 -5.53629E+01 +8.28994E+01 -7.41069E+01 +6.26741E+01 -8.61998E+01 +3.83226E+01 -9.08018E+01 +1.19281E+01
 -8.77055E+01 -1.42847E+01 -7.73475E+01 -3.81362E+01 -6.07664E+01 -5.76747E+01 -3.95094E+01 -7.13380E+01
 -1.54978E+01 -7.80815E+01 +9.13946E+00 -7.74612E+01 +3.22473E+01 -6.96661E+01 +5.18278E+01 -5.54959E+01
 +6.62087E+01 -3.62874E+01 +7.41826E+01 -1.37963E+01 +7.51060E+01 +9.95700E+00 +6.89495E+01 +3.28614E+01
 +5.62954E+01 +5.28971E+01 +3.82827E+01 +6.83073E+01 +1.65055E+01 +7.77472E+01 -7.12725E+00 +8.03960E+01
 -3.05577E+01 +7.60239E+01 -5.17570E+01 +6.50075E+01 -6.88992E+01 +4.82933E+01 -8.05169E+01 +2.73130E+01
 -8.56250E+01 +3.85656E+00 -8.38022E+01 -2.00832E+01 -7.52236E+01 -4.24840E+01 -6.06416E+01 -6.14675E+01
 -4.13175E+01 -7.54608E+01 -1.89097E+01 -8.33293E+01 +4.67227E+00 -8.44715E+01 +2.74338E+01 -7.88678E+01
 +4.74682E+01 -6.70776E+01 +6.31205E+01 -5.01873E+01 +7.31294E+01 -2.97130E+01 +7.67337E+01 -7.46553E+00
 +7.37351E+01 +1.46082E+01 +6.45119E+01 +3.45955E+01 +4.99820E+01 +5.07844E+01 +3.15203E+01 +6.18115E+01
 +1.08356E+01 +6.67797E+01 -1.01808E+01 +6.53341E+01 -2.96217E+01 +5.76904E+01 -4.57314E+01 +4.46141E+01
 -5.70600E+01 +2.73512E+01 -6.25895E+01 +7.51715E+00 -6.18236E+01 -1.30463E+01 -5.48299E+01 -3.24335E+01
 -4.22342E+01 -4.88431E+01 -2.51653E+01 -6.07368E+01 -5.15629E+00 -6.69751E+01 +1.59902E+01 -6.69188E+01
 +3.63598E+01 -6.04857E+01 +5.40939E+01 -4.81602E+01 +6.75535E+01 -3.09524E+01 +7.54636E+01 -1.03117E+01
 +7.70257E+01 +1.19978E+01 +7.19903E+01 +3.40500E+01 +6.06813E+01 +5.39233E+01 +4.39703E+01 +6.98681E+01
 +2.32043E+01 +8.04592E+01 +9.12809E-02 +8.47205E+01 -2.34453E+01 +8.22118E+01 -4.54311E+01 +7.30691E+01
 -6.40106E+01 +5.79959E+01 -7.76070E+01 +3.82049E+01 -8.50581E+01 +1.53165E+01 -8.57177E+01 -8.77847E+00
 -7.95127E+01 -3.20796E+01 -6.69505E+01 -5.26469E+01 -4.90782E+01 -6.87672E+01 -2.73939E+01 -7.90998E+01
 -3.72045E+00 -8.27925E+01 +1.99494E+01 -7.95543E+01 +4.16223E+01 -6.96812E+01 +5.94742E+01 -5.40319E+01
 +7.20057E+01 -3.39553E+01 +7.81697E+01 -1.11758E+01 +7.74612E+01 +1.23531E+01 +6.99604E+01 +3.46149E+01
 +5.63260E+01 +5.37020E+01 +3.77395E+01 +6.79781E+01 +1.58045E+01 +7.62172E+01 -7.58960E+00 +7.77087E+01
 -3.04287E+01 +7.23175E+01 -5.07451E+01 +6.04958E+01 -6.67854E+01 +4.32445E+01 -7.71595E+01 +2.20282E+01
 -8.09587E+01 -1.34990E+00 -7.78333E+01 -2.49007E+01 -6.80221E+01 -4.66187E+01 -5.23316E+01 -6.46526E+01
 -3.20680E+01 -7.74621E+01 -8.92532E+00 -8.39487E+01 +1.51582E+01 -8.35488E+01 +3.81647E+01 -7.62805E+01
 +5.81681E+01 -6.27420E+01 +7.34971E+01 -4.40599E+01 +8.28763E+01 -2.17929E+01 +8.55336E+01 +2.20087E+00
 +8.12646E+01 +2.59220E+01 +7.04486E+01 +4.73994E+01 +5.40147E+01 +6.48572E+01 +3.33619E+01 +7.68643E+01
 +1.02388E+01 +8.24553E+01 -1.34056E+01 +8.12101E+01 -3.55885E+01 +7.32877E+01 -5.44607E+01 +5.94107E+01
 -6.84641E+01 +4.08014E+01 -7.64624E+01 +1.90759E+01 -7.78359E+01 -3.89479E+00 -7.25322E+01 -2.61458E+01
 -6.10680E+01 -4.57856E+01 -4.44823E+01 -6.11576E+01 -2.42456E+01 -7.09799E+01 -2.13199E+00 -7.44537E+01
 +1.99338E+01 -7.13293E+01 +4.00418E+01 -6.19249E+01 +5.64608E+01 -4.70971E+01 +6.77854E+01 -2.81651E+01
 +7.30561E+01 -6.79578E+00 +7.18395E+01 +1.51410E+01 +6.42637E+01 +3.57335E+01 +5.10055E+01 +5.31931E+01
 +3.32304E+01 +6.60071E+01 +1.24907E+01 +7.30687E+01 -9.40912E+00 +7.37705E+01 -3.05684E+01 +6.80559E+01
 -4.91540E+01 +5.64222E+01 -6.35583E+01 +3.98770E+01 -7.25366E+01 +1.98497E+01 -7.53140E+01 -1.93177E+00
 -7.16508E+01 -2.35904E+01 -6.18624E+01 -4.32620E+01 -4.67909E+01 -5.92555E+01 -2.77324E+01 -7.01977E+01
 -6.32430E+00 -7.51515E+01 +1.55955E+01 -7.36952E+01 +3.61470E+01 -6.59582E+01 +5.35699E+01 -5.26092E+01
 +6.63740E+01 -3.47981E+01 +7.34674E+01 -1.40560E+01 +7.42490E+01 +7.83595E+00 +6.86602E+01 +2.90002E+01
 +5.71883E+01 +4.76240E+01 +4.08247E+01 +6.21147E+01 +2.09784E+01 +7.12359E+01 -6.44842E-01 +7.42132E+01
 -2.21895E+01 +7.07998E+01 -4.18094E+01 +6.12966E+01 -5.78263E+01 +4.65259E+01 -6.88728E+01 +2.77598E+01
 -7.40098E+01 +6.61045E+00 -7.28055E+01 -1.51085E+01 -6.53719E+01 -3.55377E+01 -5.23542E+01 -5.29316E+01
 -3.48743E+01 -6.58079E+01 -1.44342E+01 -7.30737E+01 +7.21402E+00 -7.41185E+01 +2.82182E+01 -6.88659E+01
 +4.67853E+01 -5.77785E+01 +6.13351E+01 -4.18176E+01 +7.06349E+01 -2.23596E+01 +7.39045E+01 -1.07717E+00
 +7.08821E+01 +2.02048E+01 +6.18457E+01 +3.96659E+01 +4.75881E+01 +5.56464E+01 +2.93475E+01 +6.67891E+01
 +8.70067E+00 +7.21551E+01 -1.25732E+01 +7.13034E+01 -3.26457E+01 +6.43277E+01 -4.97960E+01 +5.18471E+01
 -6.25586E+01 +3.49519E+01 -6.98481E+01 +1.51089E+01 -7.10521E+01 -5.96543E+00 -6.60822E+01 -2.64526E+01
 -5.53812E+01 -4.45886E+01 -3.98830E+01 -5.88154E+01 -2.09324E+01 -6.79142E+01 -1.67936E-01 -7.11094E+01
 +2.06192E+01 -6.81345E+01 +3.96391E+01 -5.92537E+01 +5.52575E+01 -4.52384E+01 +6.61351E+01 -2.72995E+01
 +7.13430E+01 -6.98315E+00 +7.04408E+01 +1.39636E+01 +6.35141E+01 +3.37427E+01 +5.11659E+01 +5.06601E+01
 +3.44635E+01 +6.32713E+01 +1.48463E+01 +7.05045E+01 -5.99924E+00 +7.17528E+01 -2.62849E+01 +6.69248E+01
 -4.42747E+01 +5.64520E+01 -5.84346E+01 +4.12501E+01 -6.75638E+01 +2.26399E+01 -7.08978E+01 +2.23206E+00
 -6.81732E+01 -1.82116E+01 -5.96500E+01 -3.69307E+01 -4.60878E+01 -5.23177E+01 -2.86802E+01 -6.30566E+01
 -8.95035E+00 -6.82360E+01 +1.13802E+01 -6.74275E+01 +3.05408E+01 -6.07218E+01 +4.68645E+01 -4.87209E+01
 +5.89321E+01 -3.24852E+01 +6.56948E+01 -1.34424E+01 +6.65644E+01 +6.73665E+00 +6.14647E+01 +2.62821E+01
 +5.08376E+01 +4.34777E+01 +3.56058E+01 +5.68097E+01 +1.70930E+01 +6.50971E+01 -3.08982E+00 +6.75945E+01
 -2.31829E+01 +6.40566E+01 -4.14294E+01 +5.47601E+01 -5.62270E+01 +4.04807E+01 -6.62658E+01 +2.24272E+01
 -7.06415E+01 +2.13813E+00 -6.89343E+01 -1.86496E+01 -6.12455E+01 -3.81498E+01 -4.81900E+01 -5.46796E+01
 -3.08447E+01 -6.68045E+01 -1.06568E+01 -7.34609E+01 +1.06787E+01 -7.40484E+01 +3.13637E+01 -6.84815E+01
 +4.96503E+01 -5.71976E+01 +6.39896E+01 -4.11208E+01 +7.31643E+01 -2.15834E+01 +7.63923E+01 -2.13280E-01
 +7.33936E+01 +2.12047E+01 +6.44145E+01 +4.08801E+01 +5.02068E+01 +5.71691E+01 +3.19639E+01 +6.87141E+01
 +1.12195E+01 +7.45589E+01 -1.02829E+01 +7.42298E+01 -3.07380E+01 +6.77752E+01 -4.84317E+01 +5.57615E+01
 -6.18870E+01 +3.92240E+01 -6.99887E+01 +1.95789E+01 -7.20775E+01 -1.49791E+00 -6.80055E+01 -2.22131E+01
 -5.81476E+01 -4.08085E+01 -4.33691E+01 -5.57106E+01 -2.49510E+01 -6.56633E+01 -4.48044E+00 -6.98344E+01
 +1.62848E+01 -6.78854E+01 +3.55659E+01 -5.99991E+01 +5.17142E+01 -4.68628E+01 +6.33511E+01 -2.96092E+01
 +6.94842E+01 -9.71882E+00 +6.95914E+01 +1.11066E+01 +6.36634E+01 +3.10890E+01 +5.22034E+01 +4.85252E+01
 +3.61833E+01 +6.19315E+01 +1.69595E+01 +7.01688E+01 -3.84286E+00 +7.25386E+01 -2.44693E+01 +6.88405E+01
 -4.31845E+01 +5.93877E+01 -5.84202E+01 +4.49789E+01 -6.89069E+01 +2.68285E+01 -7.37808E+01 +6.46197E+00
 -7.26552E+01 -1.44149E+01 -6.56512E+01 -3.40613E+01 -5.33849E+01 -5.08495E+01 -3.69129E+01 -6.34026E+01
 -1.76396E+01 -7.07097E+01 +2.80348E+00 -7.22103E+01 +2.26981E+01 -6.78390E+01 +4.03862E+01 -5.80281E+01
 +5.44109E+01 -4.36681E+01 +6.36391E+01 -2.60278E+01 +6.73569E+01 -6.64445E+00 +6.53272E+01 +1.28103E+01
 +5.78074E+01 +3.06744E+01 +4.55236E+01 +4.54376E+01 +2.96052E+01 +5.58709E+01 +1.14852E+01 +6.11301E+01
 -7.22547E+00 +6.08263E+01 -2.48783E+01 +5.50565E+01 -3.99296E+01 +4.43926E+01 -5.10741E+01 +2.98293E+01
 -5.73565E+01 +1.26951E+01 -5.82528E+01 -5.46422E+00 -5.37141E+01 -2.30210E+01 -4.41685E+01 -3.84078E+01
 -3.04825E+01 -5.02534E+01 -1.38840E+01 -5.75016E+01 +4.14596E+00 -5.95025E+01 +2.20024E+01 -5.60681E+01
 +3.80969E+01 -4.74877E+01 +5.09958E+01 -3.45019E+01 +5.95449E+01 -1.82379E+01 +6.29697E+01 -1.10307E-01
 +6.09428E+01 +1.83015E+01 +5.36120E+01 +3.53914E+01 +4.15873E+01 +4.96656E+01 +2.58885E+01 +5.98732E+01
 +7.85584E+00 +6.51142E+01 -1.09654E+01 +6.49182E+01 -2.89593E+01 +5.92853E+01 -4.45793E+01 +4.86863E+01
 -5.64822E+01 +3.40222E+01 -6.36447E+01 +1.65466E+01 -6.54522E+01 -2.24263E+00 -6.17525E+01 -2.07330E+01
 -5.28692E+01 -3.73364E+01 -3.95741E+01 -5.06272E+01 -2.30211E+01 -5.94649E+01 -4.64674E+00 -6.30937E+01
 +1.39537E+01 -6.12082E+01 +3.11639E+01 -5.39800E+01 +4.54862E+01 -4.20442E+01 +5.56712E+01 -2.64447E+01
 +6.08262E+01 -8.54509E+00 +6.04930E+01 +1.00888E+01 +5.46883E+01 +2.78235E+01 +4.39033E+01 +4.30987E+01
 +2.90629E+01 +5.45621E+01 +1.14466E+01 +6.11866E+01 -7.42040E+00 +6.23593E+01 -2.58976E+01 +5.79362E+01
 -4.23703E+01 +4.82552E+01 -5.53878E+01 +3.41093E+01 -6.37888E+01 +1.66797E+01 -6.68016E+01 -2.56399E+00
 -6.41116E+01 -2.19885E+01 -5.58895E+01 -3.99358E+01 -4.27782E+01 -5.48649E+01 -2.58397E+01 -6.54830E+01
 -6.46576E+00 -7.08562E+01 +1.37393E+01 -7.04903E+01 +3.30944E+01 -6.43731E+01 +4.99841E+01 -5.29770E+01
 +6.29950E+01 -3.72193E+01 +7.10358E+01 -1.83859E+01 +7.34302E+01 +1.97756E+00 +6.99734E+01 +2.21956E+01
 +6.09500E+01 +4.06045E+01 +4.71101E+01 +5.56922E+01 +2.96052E+01 +6.62260E+01 +9.89106E+00 +7.13561E+01
 -1.03954E+01 +7.06861E+01 -2.95743E+01 +6.43065E+01 -4.60647E+01 +5.27851E+01 -5.85175E+01 +3.71183E+01
 -6.59284E+01 +1.86457E+01 -6.77219E+01 -1.06374E+00 -6.37981E+01 -2.03456E+01 -5.45395E+01 -3.75804E+01
 -4.07765E+01 -5.13308E+01 -2.37159E+01 -6.04621E+01 -4.83638E+00 -6.42376E+01 +1.42375E+01 -6.23787E+01
 +3.18739E+01 -5.50870E+01 +4.65726E+01 -4.30247E+01 +5.70912E+01 -2.72564E+01 +6.25502E+01 -9.15675E+00
 +6.25057E+01 +9.70781E+00 +5.69855E+01 +2.77134E+01 +4.64843E+01 +4.33173E+01 +3.19196E+01 +5.51887E+01
 +1.45517E+01 +6.23214E+01 -4.12575E+00 +6.41183E+01 -2.25138E+01 +6.04399E+01 -3.90452E+01 +5.16146E+01
 -5.23183E+01 +3.84082E+01 -6.12156E+01 +2.19567E+01 -6.49979E+01 +3.66734E+00 -6.33656E+01 -1.49029E+01
