 Created: 19-Jan-2021
 $NMID
 ID='D:\BASISSIMULATI'
 FMTDAT='(8E13.5)'
 VOLUME=   1.00000E+00
 TRAMP=   1.00000E+00
 $END
 +1.87552E+01 +8.65374E-02 +1.85232E+01 +2.84664E+00 +1.78876E+01 +5.54033E+00 +1.68628E+01 +8.10896E+00
 +1.54719E+01 +1.04967E+01 +1.37457E+01 +1.26517E+01 +1.17225E+01 +1.45275E+01 +9.44673E+00 +1.60834E+01
 +6.96852E+00 +1.72862E+01 +4.34221E+00 +1.81100E+01 +1.62532E+00 +1.85375E+01 -1.12276E+00 +1.85601E+01
 -3.84203E+00 +1.81779E+01 -6.47325E+00 +1.73997E+01 -8.95915E+00 +1.62434E+01 -1.12457E+01 +1.47345E+01
 -1.32835E+01 +1.29067E+01 -1.50283E+01 +1.08002E+01 -1.64426E+01 +8.46153E+00 -1.74961E+01 +5.94195E+00
 -1.81664E+01 +3.29673E+00 -1.84393E+01 +5.83762E-01 -1.83097E+01 -2.13768E+00 -1.77810E+01 -4.80823E+00
 -1.68653E+01 -7.36972E+00 -1.55832E+01 -9.76645E+00 -1.39632E+01 -1.19464E+01 -1.20412E+01 -1.38624E+01
 -9.85964E+00 -1.54731E+01 -7.46646E+00 -1.67437E+01 -4.91419E+00 -1.76472E+01 -2.25874E+00 -1.81644E+01
 +4.41795E-01 -1.82845E+01 +3.12846E+00 -1.80058E+01 +5.74268E+00 -1.73347E+01 +8.22754E+00 -1.62866E+01
 +1.05291E+01 -1.48850E+01 +1.25973E+01 -1.31609E+01 +1.43876E+01 -1.11525E+01 +1.58613E+01 -8.90400E+00
 +1.69867E+01 -6.46484E+00 +1.77399E+01 -3.88850E+00 +1.81050E+01 -1.23140E+00 +1.80746E+01 +1.44839E+00
 +1.76501E+01 +4.09238E+00 +1.68413E+01 +6.64297E+00 +1.56664E+01 +9.04467E+00 +1.41518E+01 +1.12453E+01
 +1.23308E+01 +1.31973E+01 +1.02438E+01 +1.48583E+01 +7.93659E+00 +1.61927E+01 +5.45994E+00 +1.71719E+01
 +2.86809E+00 +1.77749E+01 +2.17762E-01 +1.79894E+01 -2.43316E+00 +1.78111E+01 -5.02685E+00 +1.72447E+01
 -7.50684E+00 +1.63031E+01 -9.81921E+00 +1.50074E+01 -1.19138E+01 +1.33864E+01 -1.37452E+01 +1.14759E+01
 -1.52740E+01 +9.31822E+00 -1.64673E+01 +6.96067E+00 -1.72996E+01 +4.45500E+00 -1.77532E+01 +1.85610E+00
 -1.78189E+01 -7.79201E-01 -1.74959E+01 -3.39337E+00 -1.67918E+01 -5.92943E+00 -1.57226E+01 -8.33219E+00
 -1.43121E+01 -1.05494E+01 -1.25917E+01 -1.25331E+01 -1.05994E+01 -1.42404E+01 -8.37908E+00 -1.56343E+01
 -5.97946E+00 -1.66851E+01 -3.45319E+00 -1.73704E+01 -8.55577E-01 -1.76757E+01 +1.75662E+00 -1.75950E+01
 +4.32641E+00 -1.71307E+01 +6.79780E+00 -1.62936E+01 +9.11706E+00 -1.51023E+01 +1.12338E+01 -1.35836E+01
 +1.31023E+01 -1.17710E+01 +1.46820E+01 -9.70446E+00 +1.59391E+01 -7.42954E+00 +1.68465E+01 -4.99616E+00
 +1.73851E+01 -2.45763E+00 +1.75437E+01 +1.30512E-01 +1.73194E+01 +2.71175E+00 +1.67177E+01 +5.22979E+00
 +1.57524E+01 +7.62982E+00 +1.44450E+01 +9.85967E+00 +1.28246E+01 +1.18710E+01 +1.09270E+01 +1.36202E+01
 +8.79413E+00 +1.50697E+01 +6.47279E+00 +1.61882E+01 +4.01392E+00 +1.69519E+01 +1.47136E+00 +1.73446E+01
 -1.09930E+00 +1.73585E+01 -3.64194E+00 +1.69937E+01 -6.10117E+00 +1.62589E+01 -8.42346E+00 +1.51706E+01
 -1.05584E+01 +1.37532E+01 -1.24597E+01 +1.20380E+01 -1.40863E+01 +1.00630E+01 -1.54031E+01 +7.87161E+00
 -1.63819E+01 +5.51197E+00 -1.70018E+01 +3.03581E+00 -1.72500E+01 +4.97332E-01 -1.71216E+01 -2.04801E+00
 -1.66199E+01 -4.54469E+00 -1.57566E+01 -6.93833E+00 -1.45509E+01 -9.17689E+00 -1.30298E+01 -1.12118E+01
 -1.12269E+01 -1.29990E+01 -9.18199E+00 -1.44998E+01 -6.94001E+00 -1.56821E+01 -4.55018E+00 -1.65205E+01
 -2.06487E+00 -1.69972E+01 +4.61582E-01 -1.71025E+01 +2.97400E+00 -1.68346E+01 +5.41761E+00 -1.62000E+01
 +7.73922E+00 -1.52131E+01 +9.88840E+00 -1.38959E+01 +1.18185E+01 -1.22777E+01 +1.34879E+01 -1.03942E+01
 +1.48604E+01 -8.28704E+00 +1.59067E+01 -6.00243E+00 +1.66045E+01 -3.59049E+00 +1.69389E+01 -1.10403E+00
 +1.69035E+01 +1.40261E+00 +1.64994E+01 +3.87473E+00 +1.57361E+01 +6.25845E+00 +1.46308E+01 +8.50194E+00
 +1.32081E+01 +1.05565E+01 +1.14996E+01 +1.23776E+01 +9.54293E+00 +1.39258E+01 +7.38123E+00 +1.51679E+01
 +5.06194E+00 +1.60773E+01 +2.63589E+00 +1.66345E+01 +1.56158E-01 +1.68281E+01 -2.32309E+00 +1.66544E+01
 -4.74778E+00 +1.61177E+01 -7.06511E+00 +1.52303E+01 -9.22471E+00 +1.40122E+01 -1.11797E+01 +1.24903E+01
 -1.28879E+01 +1.06985E+01 -1.43122E+01 +8.67606E+00 -1.54222E+01 +6.46761E+00 -1.61941E+01 +4.12157E+00
 -1.66115E+01 +1.68931E+00 -1.66660E+01 -7.75967E-01 -1.63570E+01 -3.22045E+00 -1.56917E+01 -5.59086E+00
 -1.46852E+01 -7.83562E+00 -1.33599E+01 -9.90595E+00 -1.17454E+01 -1.17570E+01 -9.87726E+00 -1.33487E+01
 -7.79662E+00 -1.46468E+01 -5.54920E+00 -1.56234E+01 -3.18427E+00 -1.62577E+01 -7.53611E-01 -1.65364E+01
 +1.68967E+00 -1.64541E+01 +4.09227E+00 -1.60130E+01 +6.40184E+00 -1.52233E+01 +8.56816E+00 -1.41029E+01
 +1.05442E+01 -1.26766E+01 +1.22872E+01 -1.09761E+01 +1.37594E+01 -9.03891E+00 +1.49293E+01 -6.90760E+00
 +1.57717E+01 -4.62898E+00 +1.62688E+01 -2.25297E+00 +1.64103E+01 +1.68444E-01 +1.61937E+01 +2.58238E+00
 +1.56242E+01 +4.93621E+00 +1.47149E+01 +7.17869E+00 +1.34860E+01 +9.26108E+00 +1.19650E+01 +1.11382E+01
 +1.01853E+01 +1.27695E+01 +8.18636E+00 +1.41197E+01 +6.01198E+00 +1.51598E+01 +3.70989E+00 +1.58677E+01
 +1.33050E+00 +1.62283E+01 -1.07417E+00 +1.62345E+01 -3.45164E+00 +1.58866E+01 -5.75010E+00 +1.51927E+01
 -7.91954E+00 +1.41686E+01 -9.91285E+00 +1.28371E+01 -1.16868E+01 +1.12277E+01 -1.32031E+01 +9.37589E+00
 -1.44291E+01 +7.32253E+00 -1.53384E+01 +5.11270E+00 -1.59118E+01 +2.79482E+00 -1.61373E+01 +4.19628E-01
 -1.60104E+01 -1.96099E+00 -1.55346E+01 -4.29510E+00 -1.47206E+01 -6.53187E+00 -1.35869E+01 -8.62267E+00
 -1.21587E+01 -1.05221E+01 -1.04675E+01 -1.21891E+01 -8.55067E+00 -1.35876E+01 -6.45036E+00 -1.46876E+01
 -4.21266E+00 -1.54655E+01 -1.88659E+00 -1.59049E+01 +4.76968E-01 -1.59968E+01 +2.82642E+00 -1.57395E+01
 +5.11053E+00 -1.51394E+01 +7.27960E+00 -1.42101E+01 +9.28650E+00 -1.29723E+01 +1.10877E+01 -1.14535E+01
 +1.26443E+01 -9.68729E+00 +1.39226E+01 -7.71257E+00 +1.48953E+01 -5.57274E+00 +1.55416E+01 -3.31473E+00
 +1.58479E+01 -9.87963E-01 +1.58081E+01 +1.35670E+00 +1.54236E+01 +3.66809E+00 +1.47032E+01 +5.89585E+00
 +1.36634E+01 +7.99152E+00 +1.23272E+01 +9.90961E+00 +1.07242E+01 +1.16086E+01 +8.88982E+00 +1.30517E+01
 +6.86445E+00 +1.42078E+01 +4.69254E+00 +1.50523E+01 +2.42170E+00 +1.55672E+01 +1.01603E-01 +1.57417E+01
 -2.21707E+00 +1.55727E+01 -4.48374E+00 +1.50642E+01 -6.64907E+00 +1.42281E+01 -8.66598E+00 +1.30829E+01
 -1.04907E+01 +1.16541E+01 -1.20838E+01 +9.97346E+00 -1.34108E+01 +8.07791E+00 -1.44433E+01 +6.00916E+00
 -1.51591E+01 +3.81259E+00 -1.55432E+01 +1.53631E+00 -1.55877E+01 -7.69895E-01 -1.52921E+01 -3.05569E+00
 -1.46635E+01 -5.27126E+00 -1.37160E+01 -7.36838E+00 -1.24709E+01 -9.30150E+00 -1.09558E+01 -1.10287E+01
 -9.20408E+00 -1.25127E+01 -7.25438E+00 -1.37214E+01 -5.14953E+00 -1.46290E+01 -2.93566E+00 -1.52161E+01
 -6.61241E-01 -1.54704E+01 +1.62403E+00 -1.53869E+01 +3.87029E+00 -1.49680E+01 +6.02862E+00 -1.42232E+01
 +8.05207E+00 -1.31694E+01 +9.89674E+00 -1.18301E+01 +1.15227E+01 -1.02348E+01 +1.28947E+01 -8.41879E+00
 +1.39834E+01 -6.42203E+00 +1.47654E+01 -4.28834E+00 +1.52241E+01 -2.06447E+00 +1.53500E+01 +2.00932E-01
 +1.51410E+01 +2.45840E+00 +1.46021E+01 +4.65871E+00 +1.37456E+01 +6.75395E+00 +1.25906E+01 +8.69861E+00
 +1.11628E+01 +1.04505E+01 +9.49379E+00 +1.19717E+01 +7.62035E+00 +1.32294E+01 +5.58364E+00 +1.41966E+01
 +3.42836E+00 +1.48527E+01 +1.20169E+00 +1.51838E+01 -1.04770E+00 +1.51832E+01 -3.27071E+00 +1.48515E+01
 -5.41889E+00 +1.41963E+01 -7.44552E+00 +1.32326E+01 -9.30657E+00 +1.19818E+01 -1.09617E+01 +1.04717E+01
 -1.23752E+01 +8.73547E+00 -1.35166E+01 +6.81149E+00 -1.43614E+01 +4.74197E+00 -1.48916E+01 +2.57227E+00
 -1.50962E+01 +3.49882E-01 -1.49712E+01 -1.87665E+00 -1.45199E+01 -4.05876E+00 -1.37527E+01 -6.14892E+00
 -1.26867E+01 -8.10170E+00 -1.13456E+01 -9.87471E+00 -9.75927E+00 -1.14296E+01 -7.96254E+00 -1.27327E+01
 -5.99496E+00 -1.37561E+01 -3.89972E+00 -1.44779E+01 -1.72272E+00 -1.48827E+01 +4.88437E-01 -1.49624E+01
 +2.68547E+00 -1.47156E+01 +4.82049E+00 -1.41482E+01 +6.84702E+00 -1.32731E+01 +8.72103E+00 -1.21100E+01
 +1.04019E+01 -1.06845E+01 +1.18533E+01 -9.02824E+00 +1.30438E+01 -7.17768E+00 +1.39480E+01 -5.17347E+00
 +1.45466E+01 -3.05958E+00 +1.48270E+01 -8.82277E-01 +1.47836E+01 +1.31085E+00 +1.44178E+01 +3.47195E+00
 +1.37381E+01 +5.55393E+00 +1.27599E+01 +7.51151E+00 +1.15049E+01 +9.30220E+00 +1.00009E+01 +1.08872E+01
 +8.28120E+00 +1.22322E+01 +6.38357E+00 +1.33084E+01 +4.34970E+00 +1.40926E+01 +2.22416E+00 +1.45682E+01
 +5.34412E-02 +1.47254E+01 -2.11504E+00 +1.45611E+01 -4.23398E+00 +1.40795E+01 -6.25725E+00 +1.32916E+01
 -8.14088E+00 +1.22150E+01 -9.84400E+00 +1.08738E+01 -1.13297E+01 +9.29742E+00 -1.25661E+01 +7.52078E+00
 -1.35264E+01 +5.58290E+00 -1.41902E+01 +3.52630E+00 -1.45434E+01 +1.39602E+00 -1.45789E+01 -7.61365E-01
 -1.42964E+01 -2.89876E+00 -1.37025E+01 -4.96957E+00 -1.28107E+01 -6.92875E+00 -1.16409E+01 -8.73374E+00
 -1.02191E+01 -1.03454E+01 -8.57659E+00 -1.17289E+01 -6.74961E+00 -1.28544E+01 -4.77829E+00 -1.36978E+01
 -2.70585E+00 -1.42412E+01 -5.77653E-01 -1.44731E+01 +1.55981E+00 -1.43889E+01 +3.65989E+00 -1.39911E+01
 +5.67686E+00 -1.32887E+01 +7.56685E+00 -1.22976E+01 +9.28884E+00 -1.10399E+01 +1.08055E+01 -9.54334E+00
 +1.20842E+01 -7.84101E+00 +1.30973E+01 -5.97033E+00 +1.38231E+01 -3.97237E+00 +1.42463E+01 -1.89091E+00
 +1.43582E+01 +2.28520E-01 +1.41567E+01 +2.33964E+00 +1.36467E+01 +4.39642E+00 +1.28400E+01 +6.35409E+00
 +1.17544E+01 +8.17010E+00 +1.04142E+01 +9.80507E+00 +8.84901E+00 +1.12236E+01 +7.09324E+00 +1.23952E+01
 +5.18552E+00 +1.32945E+01 +3.16770E+00 +1.39025E+01 +1.08395E+00 +1.42063E+01 -1.02016E+00 +1.41999E+01
 -3.09872E+00 +1.38837E+01 -5.10644E+00 +1.32652E+01 -6.99963E+00 +1.23584E+01 -8.73719E+00 +1.11834E+01
 -1.02815E+01 +9.76640E+00 -1.15991E+01 +8.13861E+00 -1.26616E+01 +6.33586E+00 -1.34464E+01 +4.39777E+00
 -1.39366E+01 +2.36680E+00 -1.41222E+01 +2.87392E-01 -1.39994E+01 -1.79502E+00 -1.35715E+01 -3.83501E+00
 -1.28482E+01 -5.78815E+00 -1.18459E+01 -7.61199E+00 -1.05868E+01 -9.26695E+00 -9.09878E+00 -1.07172E+01
 -7.41464E+00 -1.19314E+01 -5.57144E+00 -1.28835E+01 -3.60961E+00 -1.35531E+01 -1.57213E+00 -1.39261E+01
 +4.96433E-01 -1.39948E+01 +2.55092E+00 -1.37581E+01 +4.54656E+00 -1.32217E+01 +6.43989E+00 -1.23978E+01
