 Created: 19-Jan-2021
 $NMID
 ID='D:\BASISSIMULATI'
 FMTDAT='(8E13.5)'
 VOLUME=   1.00000E+00
 TRAMP=   1.00000E+00
 $END
 +4.93696E+01 +7.53545E-01 +4.60863E+01 +1.56137E+01 +3.79756E+01 +2.81103E+01 +2.64006E+01 +3.66746E+01
 +1.31927E+01 +4.04520E+01 +3.01364E-01 +3.94082E+01 -1.05575E+01 +3.42744E+01 -1.81829E+01 +2.63493E+01
 -2.20471E+01 +1.72100E+01 -2.23099E+01 +8.39804E+00 -1.96973E+01 +1.14566E+00 -1.52838E+01 -3.80275E+00
 -1.02347E+01 -6.24854E+00 -5.56765E+00 -6.47685E+00 -1.98287E+00 -5.10372E+00 +2.08672E-01 -2.87840E+00
 +1.05730E+00 -4.92425E-01 +8.67533E-01 +1.56031E+00 +5.02408E-02 +3.04594E+00 -1.02222E+00 +3.97102E+00
 -2.11950E+00 +4.49823E+00 -3.19214E+00 +4.82975E+00 -4.34229E+00 +5.09633E+00 -5.74194E+00 +5.28517E+00
 -7.52775E+00 +5.22637E+00 -9.70703E+00 +4.63977E+00 -1.21040E+01 +3.22666E+00 -1.43639E+01 +7.78479E-01
 -1.60148E+01 -2.72989E+00 -1.65722E+01 -7.08993E+00 -1.56577E+01 -1.18681E+01 -1.31014E+01 -1.64734E+01
 -9.00024E+00 -2.02678E+01 -3.71728E+00 -2.26933E+01 +2.17958E+00 -2.33842E+01 +8.02370E+00 -2.22380E+01
 +1.31757E+01 -1.94282E+01 +1.71389E+01 -1.53586E+01 +1.96387E+01 -1.05704E+01 +2.06472E+01 -5.62748E+00
 +2.03535E+01 -1.00748E+00 +1.90874E+01 +2.97590E+00 +1.72211E+01 +6.20237E+00 +1.50739E+01 +8.72317E+00
 +1.28447E+01 +1.06977E+01 +1.05878E+01 +1.23087E+01 +8.23576E+00 +1.36807E+01 +5.66045E+00 +1.48251E+01
 +2.75264E+00 +1.56260E+01 -5.03029E-01 +1.58714E+01 -3.98003E+00 +1.53205E+01 -7.40367E+00 +1.37875E+01
 -1.03900E+01 +1.12213E+01 -1.25218E+01 +7.75573E+00 -1.34432E+01 +3.71789E+00 -1.29502E+01 -4.11285E-01
 -1.10545E+01 -4.07683E+00 -8.00391E+00 -6.75254E+00 -4.25404E+00 -8.04433E+00 -3.95096E-01 -7.77109E+00
 +2.94983E+00 -6.00555E+00 +5.23450E+00 -3.06654E+00 +6.08447E+00 +5.35194E-01 +5.35889E+00 +4.18542E+00
 +3.16837E+00 +7.27066E+00 -1.52117E-01 +9.27727E+00 -4.10683E+00 +9.86726E+00 -8.12470E+00 +8.91893E+00
 -1.16489E+01 +6.52864E+00 -1.42138E+01 +2.97816E+00 -1.54987E+01 -1.32171E+00 -1.53515E+01 -5.89770E+00
 -1.37861E+01 -1.02778E+01 -1.09585E+01 -1.40424E+01 -7.13117E+00 -1.68582E+01 -2.63548E+00 -1.84949E+01
 +2.16243E+00 -1.88290E+01 +6.88912E+00 -1.78398E+01 +1.11854E+01 -1.56029E+01 +1.47251E+01 -1.22832E+01
 +1.72338E+01 -8.12789E+00 +1.85096E+01 -3.45514E+00 +1.84454E+01 +1.36293E+00 +1.70476E+01 +5.92753E+00
 +1.44472E+01 +9.84981E+00 +1.08970E+01 +1.27939E+01 +6.75150E+00 +1.45195E+01 +2.42955E+00 +1.49170E+01
 -1.63659E+00 +1.40251E+01 -5.05725E+00 +1.20286E+01 -7.53686E+00 +9.23181E+00 -8.91119E+00 +6.01417E+00
 -9.16300E+00 +2.77379E+00 -8.41336E+00 -1.29171E-01 -6.89103E+00 -2.41922E+00 -4.88692E+00 -3.93388E+00
 -2.70371E+00 -4.62962E+00 -6.11051E-01 -4.56650E+00 +1.18501E+00 -3.87741E+00 +2.55418E+00 -2.73101E+00
 +3.43594E+00 -1.29770E+00 +3.82071E+00 +2.73220E-01 +3.72616E+00 +1.86166E+00 +3.17723E+00 +3.37062E+00
 +2.19668E+00 +4.71117E+00 +8.08895E-01 +5.78622E+00 -9.44657E-01 +6.48129E+00 -2.98453E+00 +6.66807E+00
 -5.17524E+00 +6.22275E+00 -7.31853E+00 +5.05602E+00 -9.16394E+00 +3.14741E+00 -1.04380E+01 +5.74273E-01
 -1.08882E+01 -2.47431E+00 -1.03331E+01 -5.70547E+00 -8.70756E+00 -8.75419E+00 -6.09161E+00 -1.12349E+01
 -2.71425E+00 -1.28037E+01 +1.07048E+00 -1.32190E+01 +4.83284E+00 -1.23879E+01 +8.13315E+00 -1.03873E+01
 +1.05914E+01 -7.45528E+00 +1.19472E+01 -3.95381E+00 +1.20975E+01 -3.09519E-01 +1.11065E+01 +3.05504E+00
 +9.18484E+00 +5.78618E+00 +6.64562E+00 +7.64756E+00 +3.84537E+00 +8.54393E+00 +1.12432E+00 +8.51749E+00
 -1.24294E+00 +7.72039E+00 -3.07740E+00 +6.37154E+00 -4.30260E+00 +4.70892E+00 -4.93060E+00 +2.94817E+00
 -5.03372E+00 +1.25574E+00 -4.71130E+00 -2.59905E-01 -4.06102E+00 -1.54027E+00 -3.16177E+00 -2.55787E+00
 -2.07100E+00 -3.29438E+00 -8.34981E-01 -3.72405E+00 +4.93590E-01 -3.80831E+00 +1.83841E+00 -3.50352E+00
 +3.09011E+00 -2.77936E+00 +4.10976E+00 -1.64209E+00 +4.74634E+00 -1.54413E-01 +4.86504E+00 +1.55516E+00
 +4.37967E+00 +3.29864E+00 +3.28054E+00 +4.85127E+00 +1.64978E+00 +5.98700E+00 -3.41198E-01 +6.51940E+00
 -2.45333E+00 +6.33880E+00 -4.41703E+00 +5.43673E+00 -5.97743E+00 +3.91162E+00 -6.93800E+00 +1.95368E+00
 -7.19333E+00 -1.87981E-01 -6.74383E+00 -2.24908E+00 -5.68968E+00 -3.99532E+00 -4.20596E+00 -5.25912E+00
 -2.50509E+00 -5.96074E+00 -7.95601E-01 -6.10990E+00 +7.53515E-01 -5.78918E+00 +2.03518E+00 -5.12445E+00
 +3.00947E+00 -4.25041E+00 +3.69213E+00 -3.28022E+00 +4.13109E+00 -2.28635E+00 +4.37836E+00 -1.29677E+00
 +4.46568E+00 -3.06040E-01 +4.39076E+00 +7.02799E-01 +4.11809E+00 +1.73284E+00 +3.59384E+00 +2.75232E+00
 +2.77075E+00 +3.68488E+00 +1.63582E+00 +4.41484E+00 +2.32740E-01 +4.80715E+00 -1.32794E+00 +4.73801E+00
 -2.87505E+00 +4.12861E+00 -4.19958E+00 +2.97381E+00 -5.08997E+00 +1.35806E+00 -5.37278E+00 -5.46356E-01
 -4.94994E+00 -2.49969E+00 -3.82428E+00 -4.23048E+00 -2.10747E+00 -5.48011E+00 -7.95124E-03 -6.04727E+00
 +2.19907E+00 -5.82382E+00 +4.21419E+00 -4.81490E+00 +5.76079E+00 -3.13954E+00 +6.62785E+00 -1.01219E+00
 +6.70104E+00 +1.29131E+00 +5.97701E+00 +3.47640E+00 +4.55945E+00 +5.27352E+00 +2.63869E+00 +6.47517E+00
 +4.59640E-01 +6.96094E+00 -1.71572E+00 +6.70727E+00 -3.64457E+00 +5.78226E+00 -5.13275E+00 +4.32792E+00
 -6.05390E+00 +2.53443E+00 -6.35686E+00 +6.11450E-01 -6.06225E+00 -1.23887E+00 -5.25063E+00 -2.84363E+00
 -4.04556E+00 -4.07378E+00 -2.59481E+00 -4.85118E+00 -1.05253E+00 -5.14903E+00 +4.36068E-01 -4.98718E+00
 +1.74637E+00 -4.42414E+00 +2.78243E+00 -3.54720E+00 +3.48168E+00 -2.46179E+00 +3.81659E+00 -1.28089E+00
 +3.79356E+00 -1.14869E-01 +3.44941E+00 +9.37729E-01 +2.84541E+00 +1.79781E+00 +2.05949E+00 +2.41120E+00
 +1.17723E+00 +2.75135E+00 +2.82669E-01 +2.81873E+00 -5.49842E-01 +2.63732E+00 -1.26159E+00 +2.24842E+00
 -1.81239E+00 +1.70332E+00 -2.18032E+00 +1.05592E+00 -2.35860E+00 +3.57074E-01 -2.35100E+00 -3.48722E-01
 -2.16706E+00 -1.02359E+00 -1.81876E+00 -1.63421E+00 -1.31960E+00 -2.14857E+00 -6.86454E-01 -2.53304E+00
 +5.64874E-02 -2.75149E+00 +8.73084E-01 -2.76739E+00 +1.71170E+00 -2.54919E+00 +2.50460E+00 -2.07810E+00
 +3.17145E+00 -1.35661E+00 +3.62731E+00 -4.15696E-01 +3.79410E+00 +6.81692E-01 +3.61387E+00 +1.84224E+00
 +3.06140E+00 +2.94974E+00 +2.15331E+00 +3.87781E+00 +9.51903E-01 +4.50622E+00 -4.37857E-01 +4.73823E+00
 -1.87813E+00 +4.51624E+00 -3.21368E+00 +3.83295E+00 -4.29096E+00 +2.73612E+00 -4.97814E+00 +1.32592E+00
 -5.18307E+00 -2.54958E-01 -4.86683E+00 -1.83731E+00 -4.05074E+00 -3.24542E+00 -2.81597E+00 -4.31857E+00
 -1.29552E+00 -4.93131E+00 +3.40420E-01 -5.01000E+00 +1.90433E+00 -4.54345E+00 +3.21400E+00 -3.58617E+00
 +4.11542E+00 -2.25359E+00 +4.50316E+00 -7.09269E-01 +4.33532E+00 +8.54627E-01 +3.64094E+00 +2.24160E+00
 +2.51819E+00 +3.27692E+00 +1.12286E+00 +3.83199E+00 -3.51781E-01 +3.84346E+00 -1.70168E+00 +3.32370E+00
 -2.74140E+00 +2.36051E+00 -3.33192E+00 +1.10533E+00 -3.40229E+00 -2.48904E-01 -2.96109E+00 -1.49719E+00
 -2.09547E+00 -2.45459E+00 -9.57224E-01 -2.98588E+00 +2.62191E-01 -3.02730E+00 +1.36356E+00 -2.59662E+00
 +2.17346E+00 -1.78922E+00 +2.57341E+00 -7.60788E-01 +2.51938E+00 +3.00519E-01 +2.04809E+00 +1.20753E+00
 +1.26893E+00 +1.80699E+00 +3.43004E-01 +2.00612E+00 -5.46747E-01 +1.78786E+00 -1.22878E+00 +1.21247E+00
 -1.57349E+00 +4.05175E-01 -1.51564E+00 -4.67327E-01 -1.06498E+00 -1.22706E+00 -3.03577E-01 -1.71615E+00
 +6.29027E-01 -1.82396E+00 +1.55984E+00 -1.50550E+00 +2.31115E+00 -7.88739E-01 +2.72911E+00 +2.29797E-01
 +2.70795E+00 +1.39970E+00 +2.20651E+00 +2.53877E+00 +1.25541E+00 +3.45910E+00 -4.53762E-02 +3.99345E+00
 -1.53778E+00 +4.01886E+00 -3.02396E+00 +3.47522E+00 -4.28979E+00 +2.37682E+00 -5.13142E+00 +8.16059E-01
 -5.38255E+00 -1.04158E+00 -4.94000E+00 -2.97163E+00 -3.78477E+00 -4.71364E+00 -1.99527E+00 -6.00195E+00
 +2.50363E-01 -6.60209E+00 +2.68577E+00 -6.34882E+00 +4.98277E+00 -5.18040E+00 +6.79197E+00 -3.16301E+00
 +7.79360E+00 -4.98864E-01 +7.75197E+00 +2.48650E+00 +6.56457E+00 +5.37955E+00 +4.29593E+00 +7.73449E+00
 +1.18758E+00 +9.14232E+00 -2.36158E+00 +9.30294E+00 -5.84490E+00 +8.08689E+00 -8.72245E+00 +5.57407E+00
 -1.05092E+01 +2.05926E+00 -1.08617E+01 -1.98022E+00 -9.64730E+00 -5.95236E+00 -6.97993E+00 -9.24416E+00
 -3.21479E+00 -1.13254E+01 +1.10147E+00 -1.18437E+01 +5.31755E+00 -1.06917E+01 +8.78676E+00 -8.03300E+00
 +1.09790E+01 -4.27917E+00 +1.15738E+01 -2.14285E-02 +1.05173E+01 +4.07175E+00 +8.02902E+00 +7.37171E+00
 +4.56050E+00 +9.39905E+00 +7.09904E-01 +9.90436E+00 -2.88790E+00 +8.90493E+00 -5.67528E+00 +6.67083E+00
 -7.26727E+00 +3.66452E+00 -7.51026E+00 +4.47031E-01 -6.49417E+00 -2.42917E+00 -4.51778E+00 -4.51910E+00
 -2.01685E+00 -5.55654E+00 +5.27922E-01 -5.48533E+00 +2.68320E+00 -4.44742E+00 +4.13652E+00 -2.73370E+00
 +4.73768E+00 -7.11596E-01 +4.50294E+00 +1.25325E+00 +3.58533E+00 +2.86357E+00 +2.22221E+00 +3.93256E+00
 +6.74891E-01 +4.39575E+00 -8.24416E-01 +4.29460E+00 -2.10710E+00 +3.74097E+00 -3.07890E+00 +2.87497E+00
 -3.70906E+00 +1.82894E+00 -4.00596E+00 +7.06920E-01 -3.99038E+00 -4.17198E-01 -3.67722E+00 -1.48616E+00
 -3.07250E+00 -2.43889E+00 -2.18667E+00 -3.19406E+00 -1.05863E+00 -3.64730E+00 +2.19829E-01 -3.68700E+00
 +1.49112E+00 -3.22703E+00 +2.54008E+00 -2.24800E+00 +3.12721E+00 -8.33754E-01 +3.04305E+00 +8.11216E-01
 +2.17204E+00 +2.37445E+00 +5.48830E-01 +3.48243E+00 -1.61076E+00 +3.77625E+00 -3.91842E+00 +3.00160E+00
 -5.86718E+00 +1.09191E+00 -6.92503E+00 -1.77780E+00 -6.65169E+00 -5.18507E+00 -4.81359E+00 -8.51114E+00
 -1.46936E+00 -1.10451E+01 +2.99831E+00 -1.21242E+01 +7.91867E+00 -1.12816E+01 +1.24362E+01 -8.37030E+00
 +1.56658E+01 -3.63105E+00 +1.68696E+01 +2.31456E+00 +1.56203E+01 +8.55223E+00 +1.19125E+01 +1.40313E+01
 +6.19682E+00 +1.77610E+01 -6.78322E-01 +1.90074E+01 -7.60734E+00 +1.74496E+01 -1.34276E+01 +1.32613E+01
 -1.71386E+01 +7.09617E+00 -1.80965E+01 -2.20038E-02 -1.61427E+01 -6.88476E+00 -1.16392E+01 -1.23239E+01
 -5.40281E+00 -1.54304E+01 +1.44998E+00 -1.57225E+01 +7.71441E+00 -1.32297E+01 +1.23231E+01 -8.47630E+00
 +1.45394E+01 -2.36882E+00 +1.40800E+01 +3.98590E+00 +1.11453E+01 +9.49425E+00 +6.35396E+00 +1.32755E+01
