 Created: 19-Jan-2021
 $NMID
 ID='D:\BASISSIMULATI'
 FMTDAT='(8E13.5)'
 VOLUME=   1.00000E+00
 TRAMP=   1.00000E+00
 $END
 +2.72404E+01 +1.25709E-01 +2.62822E+01 +6.39981E+00 +2.38030E+01 +1.21840E+01 +2.00008E+01 +1.70988E+01
 +1.51681E+01 +2.08377E+01 +9.66747E+00 +2.31898E+01 +3.90021E+00 +2.40555E+01 -1.72690E+00 +2.34510E+01
 -6.83494E+00 +2.15039E+01 -1.11028E+01 +1.84390E+01 -1.42918E+01 +1.45562E+01 -1.62619E+01 +1.02027E+01
 -1.69798E+01 +5.74169E+00 -1.65167E+01 +1.52106E+00 -1.50377E+01 -2.15614E+00 -1.27823E+01 -5.05598E+00
 -1.00404E+01 -7.03099E+00 -7.12270E+00 -8.02929E+00 -4.33196E+00 -8.09467E+00 -1.93467E+00 -7.35793E+00
 -1.37535E-01 -6.02045E+00 +9.29893E-01 -4.33171E+00 +1.22488E+00 -2.56289E+00 +7.92674E-01 -9.79148E-01
 -2.40690E-01 +1.86920E-01 -1.68322E+00 +7.58116E-01 -3.29782E+00 +6.29746E-01 -4.82721E+00 -2.20512E-01
 -6.02044E+00 -1.73081E+00 -6.65862E+00 -3.76145E+00 -6.57733E+00 -6.10866E+00 -5.68382E+00 -8.52447E+00
 -3.96724E+00 -1.07408E+01 -1.50123E+00 -1.24953E+01 +1.56155E+00 -1.35572E+01 +5.00223E+00 -1.37496E+01
 +8.55473E+00 -1.29675E+01 +1.19293E+01 -1.11889E+01 +1.48381E+01 -8.47877E+00 +1.70211E+01 -4.98483E+00
 +1.82693E+01 -9.26154E-01 +1.84435E+01 +3.42464E+00 +1.74872E+01 +7.76397E+00 +1.54325E+01 +1.17826E+01
 +1.23973E+01 +1.51912E+01 +8.57661E+00 +1.77445E+01 +4.22612E+00 +1.92615E+01 -3.58628E-01 +1.96392E+01
 -4.86642E+00 +1.88614E+01 -8.99562E+00 +1.69979E+01 -1.24782E+01 +1.41987E+01 -1.51004E+01 +1.06793E+01
 -1.67188E+01 +6.70314E+00 -1.72699E+01 +2.55825E+00 -1.67725E+01 -1.46601E+00 -1.53239E+01 -5.10254E+00
 -1.30884E+01 -8.12726E+00 -1.02819E+01 -1.03756E+01 -7.15139E+00 -1.17534E+01 -3.95312E+00 -1.22416E+01
 -9.30751E-01 -1.18936E+01 +1.70478E+00 -1.08277E+01 +3.79162E+00 -9.21286E+00 +5.22838E+00 -7.25126E+00
 +5.97978E+00 -5.15870E+00 +6.07605E+00 -3.14415E+00 +5.60645E+00 -1.39109E+00 +4.70773E+00 -4.17479E-02
 +3.54857E+00 +8.14176E-01 +2.31168E+00 +1.14551E+00 +1.17530E+00 +9.79917E-01 +2.95585E-01 +3.98605E-01
 -2.08169E-01 -4.73829E-01 -2.64507E-01 -1.48343E+00 +1.44156E-01 -2.46338E+00 +9.80789E-01 -3.25129E+00
 +2.15826E+00 -3.70578E+00 +3.54862E+00 -3.72074E+00 +4.99607E+00 -3.23597E+00 +6.33260E+00 -2.24339E+00
 +7.39445E+00 -7.88136E-01 +8.03821E+00 +1.03528E+00 +8.15481E+00 +3.09146E+00 +7.68032E+00 +5.21638E+00
 +6.60254E+00 +7.23222E+00 +4.96278E+00 +8.96342E+00 +2.85292E+00 +1.02525E+01 +4.07826E-01 +1.09740E+01
 -2.20594E+00 +1.10462E+01 -4.80416E+00 +1.04377E+01 -7.20046E+00 +9.17094E+00 -9.22184E+00 +7.32002E+00
 -1.07229E+01 +5.00469E+00 -1.15976E+01 +2.38027E+00 -1.17874E+01 -3.75255E-01 -1.12856E+01 -3.07575E+00
 -1.01366E+01 -5.54195E+00 -8.43169E+00 -7.61551E+00 -6.30070E+00 -9.17103E+00 -3.90046E+00 -1.01250E+01
 -1.40174E+00 -1.04411E+01 +1.02469E+00 -1.01311E+01 +3.22154E+00 -9.25239E+00 +5.05683E+00 -7.90126E+00
 +6.43313E+00 -6.20341E+00 +7.29358E+00 -4.30248E+00 +7.62425E+00 -2.34756E+00 +7.45274E+00 -4.80830E-01
 +6.84346E+00 +1.17362E+00 +5.88988E+00 +2.51886E+00 +4.70490E+00 +3.49134E+00 +3.40991E+00 +4.06403E+00
 +2.12382E+00 +4.24604E+00 +9.52903E-01 +4.07930E+00 -1.76562E-02 +3.63236E+00 -7.29851E-01 +2.99234E+00
 -1.15615E+00 +2.25552E+00 -1.29982E+00 +1.51779E+00 -1.19245E+00 +8.65586E-01 -8.88982E-01 +3.68217E-01
 -4.60803E-01 +7.22424E-02 +1.22808E-02 -1.76657E-03 +4.50502E-01 +1.40168E-01 +7.82168E-01 +4.67371E-01
 +9.50573E-01 +9.28707E-01 +9.19184E-01 +1.45855E+00 +6.74699E-01 +1.98390E+00 +2.27791E-01 +2.43192E+00
 -3.88458E-01 +2.73725E+00 -1.12218E+00 +2.84830E+00 -1.90803E+00 +2.73217E+00 -2.67351E+00 +2.37759E+00
 -3.34596E+00 +1.79586E+00 -3.85919E+00 +1.01968E+00 -4.15949E+00 +1.00054E-01 -4.21037E+00 -8.98346E-01
 -3.99557E+00 -1.90291E+00 -3.52036E+00 -2.83936E+00 -2.81083E+00 -3.63805E+00 -1.91149E+00 -4.23962E+00
 -8.81395E-01 -4.59964E+00 +2.10882E-01 -4.69193E+00 +1.29280E+00 -4.51018E+00 +2.29360E+00 -4.06792E+00
 +3.14960E+00 -3.39695E+00 +3.80882E+00 -2.54431E+00 +4.23435E+00 -1.56822E+00 +4.40649E+00 -5.33391E-01
 +4.32335E+00 +4.94006E-01 +4.00016E+00 +1.45112E+00 +3.46727E+00 +2.28273E+00 +2.76713E+00 +2.94463E+00
 +1.95065E+00 +3.40606E+00 +1.07309E+00 +3.65094E+00 +1.90100E-01 +3.67788E+00 -6.46132E-01 +3.49928E+00
 -1.39000E+00 +3.13934E+00 -2.00497E+00 +2.63161E+00 -2.46512E+00 +2.01596E+00 -2.75590E+00 +1.33552E+00
 -2.87393E+00 +6.33649E-01 -2.82621E+00 -4.87350E-02 -2.62860E+00 -6.75393E-01 -2.30403E+00 -1.21644E+00
 -1.88046E+00 -1.64942E+00 -1.38871E+00 -1.95980E+00 -8.60524E-01 -2.14091E+00 -3.26749E-01 -2.19352E+00
 +1.84156E-01 -2.12499E+00 +6.47309E-01 -1.94823E+00 +1.04226E+00 -1.68056E+00 +1.35355E+00 -1.34250E+00
 +1.57098E+00 -9.56520E-01 +1.68969E+00 -5.45940E-01 +1.71000E+00 -1.33809E-01 +1.63713E+00 +2.58075E-01
 +1.48074E+00 +6.10079E-01 +1.25433E+00 +9.05563E-01 +9.74559E-01 +1.13159E+00 +6.60347E-01 +1.27952E+00
 +3.31910E-01 +1.34545E+00 +9.64759E-03 +1.33042E+00 -2.87035E-01 +1.24041E+00 -5.40933E-01 +1.08605E+00
 -7.38191E-01 +8.81998E-01 -8.69316E-01 +6.46001E-01 -9.29959E-01 +3.97714E-01 -9.21360E-01 +1.57245E-01
 -8.50400E-01 -5.64211E-02 -7.29189E-01 -2.27021E-01 -5.74188E-01 -3.42495E-01 -4.04888E-01 -3.96209E-01
 -2.42129E-01 -3.87778E-01 -1.06173E-01 -3.23372E-01 -1.46939E-02 -2.15434E-01 +1.91358E-02 -8.17853E-02
 -1.17340E-02 +5.58619E-02 -1.07082E-01 +1.73879E-01 -2.58889E-01 +2.49042E-01 -4.51542E-01 +2.60995E-01
 -6.62803E-01 +1.94639E-01 -8.65520E-01 +4.21894E-02 -1.02996E+00 -1.95308E-01 -1.12660E+00 -5.07203E-01
 -1.12916E+00 -8.73339E-01 -1.01753E+00 -1.26509E+00 -7.80392E-01 -1.64730E+00 -4.17241E-01 -1.98101E+00
 +6.05024E-02 -2.22679E+00 +6.29362E-01 -2.34836E+00 +1.25481E+00 -2.31625E+00 +1.89334E+00 -2.11110E+00
 +2.49558E+00 -1.72631E+00 +3.01004E+00 -1.16968E+00 +3.38750E+00 -4.63995E-01 +3.58532E+00 +3.53812E-01
 +3.57154E+00 +1.23469E+00 +3.32835E+00 +2.12072E+00 +2.85442E+00 +2.94935E+00 +2.16607E+00 +3.65821E+00
 +1.29692E+00 +4.19020E+00 +2.96102E-01 +4.49837E+00 -7.74976E-01 +4.55018E+00 -1.84697E+00 +4.33071E+00
 -2.84780E+00 +3.84452E+00 -3.70829E+00 +3.11599E+00 -4.36770E+00 +2.18794E+00 -4.77873E+00 +1.11874E+00
 -4.91156E+00 -2.19367E-02 -4.75650E+00 -1.15848E+00 -4.32497E+00 -2.21520E+00 -3.64884E+00 -3.12240E+00
 -2.77795E+00 -3.82189E+00 -1.77612E+00 -4.27172E+00 -7.15959E-01 -4.44949E+00 +3.27083E-01 -4.35405E+00
 +1.28096E+00 -4.00541E+00 +2.08296E+00 -3.44274E+00 +2.68484E+00 -2.72087E+00 +3.05663E+00 -1.90525E+00
 +3.18892E+00 -1.06613E+00 +3.09315E+00 -2.72296E-01 +2.80019E+00 +4.15063E-01 +2.35703E+00 +9.47694E-01
 +1.82210E+00 +1.29445E+00 +1.25954E+00 +1.44386E+00 +7.32892E-01 +1.40480E+00 +2.98984E-01 +1.20530E+00
 +2.35130E-03 +8.89519E-01 -1.29106E-01 +5.13130E-01 -8.69013E-02 +1.37634E-01 +1.17130E-01 -1.75961E-01
 +4.51897E-01 -3.73461E-01 +8.70005E-01 -4.13217E-01 +1.31235E+00 -2.70714E-01 +1.71395E+00 +5.84235E-02
 +2.01043E+00 +5.57337E-01 +2.14467E+00 +1.18887E+00 +2.07282E+00 +1.89850E+00 +1.76933E+00 +2.61898E+00
 +1.23024E+00 +3.27642E+00 +4.74635E-01 +3.79706E+00 -4.56049E-01 +4.11430E+00 -1.50087E+00 +4.17532E+00
 -2.58403E+00 +3.94653E+00 -3.62108E+00 +3.41752E+00 -4.52608E+00 +2.60301E+00 -5.21904E+00 +1.54253E+00
 -5.63310E+00 +2.98013E-01 -5.72072E+00 -1.05077E+00 -5.45828E+00 -2.41236E+00 -4.84871E+00 -3.69091E+00
 -3.92195E+00 -4.79403E+00 -2.73299E+00 -5.64049E+00 -1.35781E+00 -6.16693E+00 +1.12494E-01 -6.33334E+00
 +1.57896E+00 -6.12642E+00 +2.94272E+00 -5.56079E+00 +4.11289E+00 -4.67785E+00 +5.01391E+00 -3.54234E+00
 +5.59151E+00 -2.23698E+00 +5.81680E+00 -8.55552E-01 +5.68829E+00 +5.04793E-01 +5.23150E+00 +1.75156E+00
 +4.49621E+00 +2.80437E+00 +3.55185E+00 +3.60129E+00 +2.48104E+00 +4.10347E+00 +1.37230E+00 +4.29771E+00
 +3.12280E-01 +4.19671E+00 -6.21673E-01 +3.83707E+00 -1.36794E+00 +3.27520E+00 -1.88550E+00 +2.58151E+00
 -2.15688E+00 +1.83351E+00 -2.18884E+00 +1.10840E+00 -2.01080E+00 +4.75874E-01 -1.67129E+00 -8.30122E-03
 -1.23255E+00 -3.07188E-01 -7.64021E-01 -4.05771E-01 -3.35243E-01 -3.11895E-01 -8.78719E-03 -5.50001E-02
 +1.66006E-01 +3.17206E-01 +1.57990E-01 +7.43820E-01 -4.26290E-02 +1.15706E+00 -4.23201E-01 +1.48925E+00
 -9.49729E-01 +1.67980E+00 -1.57003E+00 +1.68147E+00 -2.21869E+00 +1.46551E+00 -2.82328E+00 +1.02490E+00
 -3.31138E+00 +3.75684E-01 -3.61765E+00 -4.43938E-01 -3.69027E+00 -1.37660E+00 -3.49634E+00 -2.35059E+00
 -3.02547E+00 -3.28606E+00 -2.29141E+00 -4.10211E+00 -1.33156E+00 -4.72397E+00 -2.04246E-01 -5.08985E+00
 +1.01583E+00 -5.15662E+00 +2.24367E+00 -4.90393E+00 +3.39102E+00 -4.33636E+00 +4.37374E+00 -3.48343E+00
 +5.11883E+00 -2.39744E+00 +5.57055E+00 -1.14933E+00 +5.69505E+00 +1.77039E-01 +5.48317E+00 +1.49169E+00
 +4.95102E+00 +2.70583E+00 +4.13857E+00 +3.73899E+00 +3.10612E+00 +4.52543E+00 +1.92915E+00 +5.01915E+00
 +6.91974E-01 +5.19722E+00 -5.19242E-01 +5.06108E+00 -1.62350E+00 +4.63579E+00 -2.55136E+00 +3.96725E+00
 -3.25021E+00 +3.11773E+00 -3.68792E+00 +2.16016E+00 -3.85469E+00 +1.17168E+00 -3.76285E+00 +2.26951E-01
 -3.44482E+00 -6.07976E-01 -2.94931E+00 -1.28092E+00 -2.33626E+00 -1.75737E+00 -1.67099E+00 -2.02257E+00
 -1.01808E+00 -2.08181E+00 -4.35501E-01 -1.95880E+00 +3.03395E-02 -1.69251E+00 +3.48368E-01 -1.33270E+00
 +5.05016E-01 -9.34588E-01 +5.04681E-01 -5.53203E-01 +3.68478E-01 -2.37995E-01 +1.31425E-01 -2.80974E-02
 -1.61601E-01 +5.12475E-02 -4.60757E-01 -9.16240E-03 -7.16482E-01 -2.01951E-01 -8.84592E-01 -5.04246E-01
 -9.30764E-01 -8.80238E-01 -8.33976E-01 -1.28496E+00 -5.88619E-01 -1.66888E+00 -2.05088E-01 -1.98292E+00
 +2.91159E-01 -2.18332E+00 +8.61987E-01 -2.23601E+00 +1.46014E+00 -2.12000E+00 +2.03363E+00 -1.82954E+00
 +2.53058E+00 -1.37482E+00 +2.90399E+00 -7.81257E-01 +3.11602E+00 -8.72809E-02 +3.14150E+00 +6.58927E-01
 +2.97016E+00 +1.40362E+00 +2.60760E+00 +2.09213E+00 +2.07484E+00 +2.67351E+00 +1.40645E+00 +3.10481E+00
 +6.47629E-01 +3.35464E+00 -1.49634E-01 +3.40559E+00 -9.30918E-01 +3.25549E+00 -1.64381E+00 +2.91729E+00
 -2.24209E+00 +2.41768E+00 -2.68925E+00 +1.79459E+00 -2.96108E+00 +1.09380E+00 -3.04720E+00 +3.65035E-01
