 Created: 19-Jan-2021
 $NMID
 ID='D:\BASISSIMULATI'
 FMTDAT='(8E13.5)'
 VOLUME=   1.00000E+00
 TRAMP=   1.00000E+00
 $END
 +3.94988E+01 +1.20215E+00 +3.50264E+01 +1.79300E+01 +2.36464E+01 +3.07978E+01 +7.97332E+00 +3.71187E+01
 -8.45789E+00 +3.57869E+01 -2.20780E+01 +2.75030E+01 -3.01535E+01 +1.45337E+01 -3.14130E+01 +8.33490E-02
 -2.62738E+01 -1.25472E+01 -1.66249E+01 -2.07823E+01 -5.24340E+00 -2.33594E+01 +4.98274E+00 -2.05383E+01
 +1.18067E+01 -1.38964E+01 +1.41496E+01 -5.78898E+00 +1.22729E+01 +1.35783E+00 +7.57120E+00 +5.71822E+00
 +2.06860E+00 +6.51866E+00 -2.22312E+00 +4.15930E+00 -3.89393E+00 -7.63923E-03 -2.50995E+00 -4.15748E+00
 +1.32059E+00 -6.57794E+00 +6.18957E+00 -6.18526E+00 +1.03515E+01 -2.82774E+00 +1.22610E+01 +2.69825E+00
 +1.10262E+01 +8.90783E+00 +6.65414E+00 +1.40730E+01 +2.95253E-02 +1.67163E+01 -7.35028E+00 +1.60107E+01
 -1.37950E+01 +1.19788E+01 -1.78678E+01 +5.45058E+00 -1.87328E+01 -2.19165E+00 -1.63169E+01 -9.39173E+00
 -1.12582E+01 -1.48077E+01 -4.67755E+00 -1.76016E+01 +2.14281E+00 -1.75631E+01 +8.07364E+00 -1.50546E+01
 +1.23586E+01 -1.08197E+01 +1.46923E+01 -5.73152E+00 +1.51593E+01 -5.66201E-01 +1.40799E+01 +4.13329E+00
 +1.18342E+01 +8.07735E+00 +8.73066E+00 +1.11519E+01 +4.96495E+00 +1.32947E+01 +6.69565E-01 +1.43888E+01
 -3.97783E+00 +1.42273E+01 -8.64649E+00 +1.25682E+01 -1.28039E+01 +9.26251E+00 -1.57637E+01 +4.40474E+00
 -1.68318E+01 -1.55950E+00 -1.55111E+01 -7.82388E+00 -1.17000E+01 -1.33353E+01 -5.81283E+00 -1.70148E+01
 +1.23222E+00 -1.80295E+01 +8.17173E+00 -1.60365E+01 +1.36722E+01 -1.13213E+01 +1.66516E+01 -4.77721E+00
 +1.65578E+01 +2.27827E+00 +1.35222E+01 +8.41199E+00 +8.33709E+00 +1.24255E+01 +2.25891E+00 +1.36519E+01
 -3.31518E+00 +1.21147E+01 -7.20778E+00 +8.50204E+00 -8.75926E+00 +3.96147E+00 -7.97943E+00 -2.27405E-01
 -5.51048E+00 -3.01012E+00 -2.41274E+00 -3.84276E+00 +1.63947E-01 -2.82466E+00 +1.32789E+00 -6.41514E-01
 +7.11159E-01 +1.66314E+00 -1.42358E+00 +3.02034E+00 -4.26573E+00 +2.67448E+00 -6.70449E+00 +4.29212E-01
 -7.66958E+00 -3.27182E+00 -6.46594E+00 -7.45359E+00 -3.00547E+00 -1.08777E+01 +2.13194E+00 -1.23939E+01
 +7.82685E+00 -1.12761E+01 +1.27035E+01 -7.44728E+00 +1.54902E+01 -1.53155E+00 +1.53579E+01 +5.28319E+00
 +1.21453E+01 +1.15330E+01 +6.41139E+00 +1.58387E+01 -6.96720E-01 +1.72441E+01 -7.72221E+00 +1.54421E+01
 -1.32475E+01 +1.08356E+01 -1.62218E+01 +4.42116E+00 -1.61856E+01 -2.46530E+00 -1.33396E+01 -8.47125E+00
 -8.45276E+00 -1.25322E+01 -2.64089E+00 -1.40841E+01 +2.91592E+00 -1.31379E+01 +7.24239E+00 -1.02097E+01
 +9.75710E+00 -6.13920E+00 +1.03429E+01 -1.85394E+00 +9.29491E+00 +1.85385E+00 +7.17605E+00 +4.48224E+00
 +4.63010E+00 +5.87567E+00 +2.20893E+00 +6.18194E+00 +2.58259E-01 +5.73764E+00 -1.11568E+00 +4.92575E+00
 -2.00270E+00 +4.05126E+00 -2.59481E+00 +3.26897E+00 -3.07948E+00 +2.57691E+00 -3.55692E+00 +1.86684E+00
 -4.00530E+00 +1.00621E+00 -4.29978E+00 -8.11194E-02 -4.27232E+00 -1.36390E+00 -3.78722E+00 -2.69805E+00
 -2.80397E+00 -3.86532E+00 -1.40590E+00 -4.64009E+00 +2.14006E-01 -4.85954E+00 +1.80336E+00 -4.47317E+00
 +3.11819E+00 -3.55587E+00 +3.98507E+00 -2.28220E+00 +4.33755E+00 -8.72625E-01 +4.21658E+00 +4.68558E-01
 +3.73795E+00 +1.60234E+00 +3.04047E+00 +2.47550E+00 +2.23502E+00 +3.10771E+00 +1.37321E+00 +3.55272E+00
 +4.46590E-01 +3.85016E+00 -5.84025E-01 +3.98787E+00 -1.74110E+00 +3.89070E+00 -2.98374E+00 +3.44209E+00
 -4.18155E+00 +2.53291E+00 -5.12238E+00 +1.12131E+00 -5.55601E+00 -7.17735E-01 -5.26367E+00 -2.77300E+00
 -4.13318E+00 -4.71888E+00 -2.21621E+00 -6.17746E+00 +2.52695E-01 -6.80659E+00 +2.88507E+00 -6.39077E+00
 +5.21213E+00 -4.90926E+00 +6.78615E+00 -2.56046E+00 +7.28429E+00 +2.66736E-01 +6.58764E+00 +3.06977E+00
 +4.81438E+00 +5.33958E+00 +2.29757E+00 +6.67151E+00 -4.87353E-01 +6.85251E+00 -3.02722E+00 +5.90317E+00
 -4.88201E+00 +4.06516E+00 -5.77470E+00 +1.73868E+00 -5.63951E+00 -6.12911E-01 -4.61896E+00 -2.56671E+00
 -3.01375E+00 -3.82668E+00 -1.20098E+00 -4.27337E+00 +4.56931E-01 -3.96805E+00 +1.68973E+00 -3.11441E+00
 +2.36564E+00 -1.99161E+00 +2.49852E+00 -8.78246E-01 +2.21874E+00 +1.27322E-02 +1.71959E+00 +5.73136E-01
 +1.19607E+00 +8.05969E-01 +7.93004E-01 +8.01909E-01 +5.74892E-01 +6.96080E-01 +5.22653E-01 +6.19394E-01
 +5.54469E-01 +6.58417E-01 +5.61818E-01 +8.33689E-01 +4.48746E-01 +1.10012E+00 +1.63038E-01 +1.36660E+00
 -2.88392E-01 +1.52708E+00 -8.42260E-01 +1.49317E+00 -1.39696E+00 +1.21936E+00 -1.83932E+00 +7.14899E-01
 -2.07206E+00 +4.10645E-02 -2.03510E+00 -7.03663E-01 -1.71636E+00 -1.40516E+00 -1.15146E+00 -1.95596E+00
 -4.14261E-01 -2.27321E+00 +3.97741E-01 -2.30970E+00 +1.17924E+00 -2.05738E+00 +1.83110E+00 -1.54507E+00
 +2.27109E+00 -8.32460E-01 +2.44150E+00 -2.50560E-03 +2.31429E+00 +8.46838E-01 +1.89476E+00 +1.61156E+00
 +1.22345E+00 +2.19180E+00 +3.75436E-01 +2.50361E+00 -5.44670E-01 +2.49169E+00 -1.41310E+00 +2.14122E+00
 -2.10300E+00 +1.48585E+00 -2.50453E+00 +6.08795E-01 -2.54560E+00 -3.65169E-01 -2.20866E+00 -1.28710E+00
 -1.53914E+00 -2.00860E+00 -6.42055E-01 -2.40933E+00 +3.33869E-01 -2.42169E+00 +1.22245E+00 -2.04649E+00
 +1.87173E+00 -1.35556E+00 +2.17432E+00 -4.79540E-01 +2.08962E+00 +4.17262E-01 +1.65245E+00 +1.16989E+00
 +9.65659E-01 +1.64658E+00 +1.77996E-01 +1.77570E+00 -5.48115E-01 +1.55978E+00 -1.07167E+00 +1.07307E+00
 -1.30312E+00 +4.43259E-01 -1.22248E+00 -1.78592E-01 -8.81333E-01 -6.52939E-01 -3.88410E-01 -8.83414E-01
 +1.17879E-01 -8.37909E-01 +5.03454E-01 -5.54209E-01 +6.71082E-01 -1.28944E-01 +5.83716E-01 +3.07513E-01
 +2.73098E-01 +6.24202E-01 -1.68487E-01 +7.22883E-01 -6.11435E-01 +5.63475E-01 -9.21591E-01 +1.75391E-01
 -9.94741E-01 -3.48206E-01 -7.84491E-01 -8.72162E-01 -3.16562E-01 -1.25218E+00 +3.14342E-01 -1.37103E+00
 +9.64854E-01 -1.16946E+00 +1.47605E+00 -6.63924E-01 +1.71171E+00 +5.33504E-02 +1.59265E+00 +8.32866E-01
 +1.11865E+00 +1.50091E+00 +3.72249E-01 +1.89975E+00 -4.97069E-01 +1.92552E+00 -1.30517E+00 +1.55466E+00
 -1.87477E+00 +8.52192E-01 -2.07657E+00 -4.06140E-02 -1.86013E+00 -9.36745E-01 -1.26697E+00 -1.64533E+00
 -4.22457E-01 -2.01515E+00 +4.91972E-01 -1.96954E+00 +1.27997E+00 -1.52419E+00 +1.77516E+00 -7.83593E-01
 +1.87915E+00 +8.33343E-02 +1.58358E+00 +8.82696E-01 +9.70987E-01 +1.44081E+00 +1.94161E-01 +1.64436E+00
 -5.60994E-01 +1.46591E+00 -1.12010E+00 +9.68738E-01 -1.36172E+00 +2.89809E-01 -1.24556E+00 -3.94752E-01
 -8.20639E-01 -9.13320E-01 -2.11689E-01 -1.14087E+00 +4.12927E-01 -1.02927E+00 +8.83751E-01 -6.18477E-01
 +1.07286E+00 -2.59595E-02 +9.26138E-01 +5.83060E-01 +4.77398E-01 +1.03717E+00 -1.59201E-01 +1.20211E+00
 -8.16572E-01 +1.01531E+00 -1.31546E+00 +5.03317E-01 -1.50878E+00 -2.22370E-01 -1.31903E+00 -9.90017E-01
 -7.59677E-01 -1.60743E+00 +6.45401E-02 -1.90749E+00 +9.78860E-01 -1.78886E+00 +1.77654E+00 -1.24241E+00
 +2.26523E+00 -3.57086E-01 +2.31123E+00 +6.96333E-01 +1.87168E+00 +1.70028E+00 +1.00740E+00 +2.43660E+00
 -1.26659E-01 +2.73396E+00 -1.31158E+00 +2.50613E+00 -2.30884E+00 +1.77291E+00 -2.90976E+00 +6.58963E-01
 -2.97956E+00 -6.29233E-01 -2.48686E+00 -1.84391E+00 -1.51244E+00 -2.74569E+00 -2.35074E-01 -3.15238E+00
 +1.10278E+00 -2.97698E+00 +2.24288E+00 -2.24692E+00 +2.96322E+00 -1.10044E+00 +3.12357E+00 +2.39777E-01
 +2.69533E+00 +1.51067E+00 +1.76898E+00 +2.46224E+00 +5.37088E-01 +2.90952E+00 -7.44605E-01 +2.77224E+00
 -1.81049E+00 +2.09343E+00 -2.44217E+00 +1.03209E+00 -2.51716E+00 -1.69639E-01 -2.03805E+00 -1.23894E+00
 -1.13470E+00 -1.93370E+00 -3.73715E-02 -2.09958E+00 +9.74784E-01 -1.70925E+00 +1.63952E+00 -8.73676E-01
 +1.77694E+00 +1.79385E-01 +1.33886E+00 +1.15665E+00 +4.28897E-01 +1.77035E+00 -7.14098E-01 +1.81309E+00
 -1.76815E+00 +1.21820E+00 -2.40588E+00 +8.92012E-02 -2.38052E+00 -1.31183E+00 -1.59909E+00 -2.61784E+00
 -1.62881E-01 -3.44270E+00 +1.63824E+00 -3.48033E+00 +3.38061E+00 -2.59321E+00 +4.60138E+00 -8.66387E-01
 +4.91253E+00 +1.38997E+00 +4.10700E+00 +3.69494E+00 +2.22923E+00 +5.49946E+00 -4.10800E-01 +6.31560E+00
 -3.28856E+00 +5.84186E+00 -5.77330E+00 +4.05296E+00 -7.27109E+00 +1.22863E+00 -7.36941E+00 -2.09001E+00
 -5.94741E+00 -5.21071E+00 -3.22244E+00 -7.44386E+00 +2.82512E-01 -8.26430E+00 +3.84653E+00 -7.44163E+00
 +6.71076E+00 -5.10557E+00 +8.25356E+00 -1.72738E+00 +8.13837E+00 +1.98112E+00 +6.39698E+00 +5.22890E+00
 +3.42592E+00 +7.32926E+00 -1.04929E-01 +7.86086E+00 -3.41079E+00 +6.76596E+00 -5.77875E+00 +4.36076E+00
 -6.73690E+00 +1.25427E+00 -6.16312E+00 -1.80431E+00 -4.30635E+00 -4.11160E+00 -1.71472E+00 -5.18231E+00
 +9.10594E-01 -4.86402E+00 +2.89818E+00 -3.36536E+00 +3.77834E+00 -1.19091E+00 +3.39993E+00 +9.99386E-01
 +1.96188E+00 +2.56930E+00 -4.78384E-02 +3.07641E+00 -1.98913E+00 +2.38873E+00 -3.24576E+00 +7.17564E-01
 -3.39367E+00 -1.44134E+00 -2.31729E+00 -3.44221E+00 -2.43611E-01 -4.66306E+00 +2.31431E+00 -4.67307E+00
 +4.68868E+00 -3.34978E+00 +6.22829E+00 -9.16123E-01 +6.46517E+00 +2.11099E+00 +5.23389E+00 +5.04607E+00
 +2.71461E+00 +7.20112E+00 -6.09172E-01 +8.04967E+00 -4.06466E+00 +7.34831E+00 -6.94494E+00 +5.18791E+00
 -8.66581E+00 +1.96538E+00 -8.88687E+00 -1.71221E+00 -7.57109E+00 -5.16418E+00 -4.97423E+00 -7.77825E+00
 -1.57351E+00 -9.12532E+00 +2.04142E+00 -9.02454E+00 +5.28633E+00 -7.55111E+00 +7.68227E+00 -4.99419E+00
 +8.91990E+00 -1.78291E+00 +8.88296E+00 +1.59752E+00 +7.63662E+00 +4.68086E+00 +5.39362E+00 +7.07489E+00
 +2.47199E+00 +8.49446E+00 -7.45866E-01 +8.77789E+00 -3.84957E+00 +7.89428E+00 -6.43562E+00 +5.94728E+00
 -8.14616E+00 +3.17504E+00 -8.71501E+00 -5.97597E-02 -8.01770E+00 -3.29861E+00 -6.11514E+00 -6.04161E+00
 -3.27480E+00 -7.82686E+00 +4.62088E-02 -8.32372E+00 +3.26511E+00 -7.41895E+00 +5.78054E+00 -5.26968E+00
 +7.10395E+00 -2.30044E+00 +6.98401E+00 +8.67042E-01 +5.48851E+00 +3.54443E+00 +3.01348E+00 +5.14142E+00
 +2.06501E-01 +5.32348E+00 -2.18631E+00 +4.11743E+00 -3.51567E+00 +1.92828E+00 -3.41629E+00 -5.47783E-01
 -1.93137E+00 -2.50118E+00 +4.68335E-01 -3.23582E+00 +2.98731E+00 -2.38490E+00 +4.71271E+00 -5.16276E-02
 +4.87677E+00 +3.17331E+00 +3.10364E+00 +6.33517E+00 -4.32354E-01 +8.35762E+00 -4.99151E+00 +8.34615E+00
