 Created: 19-Jan-2021
 $NMID
 ID='D:\BASISSIMULATI'
 FMTDAT='(8E13.5)'
 VOLUME=   1.00000E+00
 TRAMP=   1.00000E+00
 $END
 +5.78642E+01 +6.38258E-01 +5.65136E+01 +1.08724E+01 +5.28177E+01 +2.05394E+01 +4.69766E+01 +2.91345E+01
 +3.93037E+01 +3.62159E+01 +3.02076E+01 +4.14297E+01 +2.01671E+01 +4.45295E+01 +9.70242E+00 +4.53891E+01
 -6.54651E-01 +4.40079E+01 -1.03919E+01 +4.05084E+01 -1.90455E+01 +3.51265E+01 -2.62249E+01 +2.81951E+01
 -3.16336E+01 +2.01220E+01 -3.50826E+01 +1.13645E+01 -3.64976E+01 +2.40079E+00 -3.59191E+01 -6.29815E+00
 -3.34948E+01 -1.42958E+01 -2.94665E+01 -2.12139E+01 -2.41517E+01 -2.67523E+01 -1.79208E+01 -3.07027E+01
 -1.11725E+01 -3.29564E+01 -4.30872E+00 -3.35057E+01 +2.28977E+00 -3.24387E+01 +8.28516E+00 -2.99288E+01
 +1.34003E+01 -2.62189E+01 +1.74320E+01 -2.16030E+01 +2.02584E+01 -1.64046E+01 +2.18410E+01 -1.09548E+01
 +2.22217E+01 -5.57206E+00 +2.15135E+01 -5.42568E-01 +1.98890E+01 +3.89492E+00 +1.75638E+01 +7.56075E+00
 +1.47797E+01 +1.03413E+01 +1.17863E+01 +1.21909E+01 +8.82352E+00 +1.31295E+01 +6.10635E+00 +1.32360E+01
 +3.81159E+00 +1.26376E+01 +2.06854E+00 +1.14972E+01 +9.53436E-01 +9.99906E+00 +4.87854E-01 +8.33395E+00
 +6.41047E-01 +6.68470E+00 +1.33574E+00 +5.21351E+00 +2.45682E+00 +4.05148E+00 +3.86208E+00 +3.29093E+00
 +5.39428E+00 +2.98105E+00 +6.89348E+00 +3.12676E+00 +8.20889E+00 +3.69086E+00 +9.20947E+00 +4.59894E+00
 +9.79253E+00 +5.74672E+00 +9.88997E+00 +7.00904E+00 +9.47193E+00 +8.24987E+00 +8.54758E+00 +9.33265E+00
 +7.16335E+00 +1.01301E+01 +5.39878E+00 +1.05333E+01 +3.36035E+00 +1.04586E+01 +1.17394E+00 +9.85320E+00
 -1.02371E+00 +8.69862E+00 -3.09377E+00 +7.01124E+00 -4.90401E+00 +4.84138E+00 -6.33659E+00 +2.27003E+00
 -7.29491E+00 -5.95929E-01 -7.70884E+00 -3.62996E+00 -7.53839E+00 -6.69293E+00 -6.77556E+00 -9.64064E+00
 -5.44446E+00 -1.23315E+01 -3.59970E+00 -1.46335E+01 -1.32334E+00 -1.64314E+01 +1.27950E+00 -1.76317E+01
 +4.08599E+00 -1.81673E+01 +6.96173E+00 -1.80007E+01 +9.76719E+00 -1.71256E+01 +1.23644E+01 -1.55672E+01
 +1.46233E+01 -1.33810E+01 +1.64280E+01 -1.06504E+01 +1.76821E+01 -7.48338E+00 +1.83129E+01 -4.00733E+00
 +1.82754E+01 -3.64051E-01 +1.75544E+01 +3.29650E+00 +1.61657E+01 +6.82265E+00 +1.41557E+01 +1.00676E+01
 +1.15999E+01 +1.28960E+01 +8.60020E+00 +1.51899E+01 +5.28061E+00 +1.68543E+01 +1.78210E+00 +1.78217E+01
 -1.74348E+00 +1.80558E+01 -5.14023E+00 +1.75530E+01 -8.25535E+00 +1.63437E+01 -1.09465E+01 +1.44908E+01
 -1.30885E+01 +1.20878E+01 -1.45804E+01 +9.25404E+00 -1.53499E+01 +6.12959E+00 -1.53583E+01 +2.86858E+00
 -1.46027E+01 -3.68480E-01 -1.31166E+01 -3.42271E+00 -1.09693E+01 -6.14509E+00 -8.26217E+00 -8.40425E+00
 -5.12464E+00 -1.00936E+01 -1.70719E+00 -1.11371E+01 +1.82603E+00 -1.14935E+01 +5.30584E+00 -1.11590E+01
 +8.56700E+00 -1.01671E+01 +1.14571E+01 -8.58724E+00 +1.38446E+01 -6.52065E+00 +1.56266E+01 -4.09466E+00
 +1.67333E+01 -1.45534E+00 +1.71328E+01 +1.24096E+00 +1.68318E+01 +3.83684E+00 +1.58749E+01 +6.18302E+00
 +1.43416E+01 +8.14714E+00 +1.23411E+01 +9.62152E+00 +1.00054E+01 +1.05293E+01 +7.48086E+00 +1.08290E+01
 +4.91915E+00 +1.05162E+01 +2.46794E+00 +9.62355E+00 +2.61889E-01 +8.21836E+00 -1.58542E+00 +6.39757E+00
 -2.98808E+00 +4.28134E+00 -3.89254E+00 +2.00504E+00 -4.28020E+00 -2.89624E-01 -4.16760E+00 -2.46378E+00
 -3.60430E+00 -4.39024E+00 -2.66869E+00 -5.96148E+00 -1.46180E+00 -7.09616E+00 -9.98051E-02 -7.74390E+00
 +1.29438E+00 -7.88779E+00 +2.59988E+00 -7.54472E+00 +3.70631E+00 -6.76342E+00 +4.52132E+00 -5.62031E+00
 +4.97692E+00 -4.21365E+00 +5.03380E+00 -2.65619E+00 +4.68383E+00 -1.06709E+00 +3.95014E+00 +4.36573E-01
 +2.88516E+00 +1.74798E+00 +1.56657E+00 +2.77785E+00 +9.14825E-02 +3.46045E+00 -1.43056E+00 +3.75782E+00
 -2.88550E+00 +3.66203E+00 -4.16290E+00 +3.19533E+00 -5.16374E+00 +2.40811E+00 -5.80740E+00 +1.37499E+00
 -6.03734E+00 +1.89238E-01 -5.82504E+00 -1.04407E+00 -5.17205E+00 -2.21563E+00 -4.11001E+00 -3.21979E+00
 -2.69853E+00 -3.96202E+00 -1.02130E+00 -4.36568E+00 +8.19414E-01 -4.37747E+00 +2.70955E+00 -3.97129E+00
 +4.53067E+00 -3.15028E+00 +6.16770E+00 -1.94683E+00 +7.51640E+00 -4.20717E-01 +8.49004E+00 +1.34462E+00
 +9.02495E+00 +3.24728E+00 +9.08455E+00 +5.17338E+00 +8.66159E+00 +7.00417E+00 +7.77861E+00 +8.62350E+00
 +6.48639E+00 +9.92514E+00 +4.86079E+00 +1.08193E+01 +2.99799E+00 +1.12385E+01 +1.00856E+00 +1.11411E+01
 -9.89300E-01 +1.05148E+01 -2.87691E+00 +9.37663E+00 -4.54219E+00 +7.77246E+00 -5.88622E+00 +5.77421E+00
 -6.82904E+00 +3.47571E+00 -7.31416E+00 +9.87360E-01 -7.31163E+00 -1.57017E+00 -6.81958E+00 -4.07267E+00
 -5.86407E+00 -6.39929E+00 -4.49730E+00 -8.43908E+00 -2.79446E+00 -1.00969E+01 -8.49184E-01 -1.12985E+01
 +1.23184E+00 -1.19939E+01 +3.33497E+00 -1.21598E+01 +5.34599E+00 -1.18006E+01 +7.15637E+00 -1.09471E+01
 +8.66911E+00 -9.65486E+00 +9.80391E+00 -8.00019E+00 +1.05012E+01 -6.07601E+00 +1.07250E+01 -3.98634E+00
 +1.04647E+01 -1.84051E+00 +9.73486E+00 +2.52738E-01 +8.57419E+00 +2.19108E+00 +7.04303E+00 +3.88382E+00
 +5.21970E+00 +5.25645E+00 +3.19600E+00 +6.25416E+00 +1.07204E+00 +6.84417E+00 -1.04923E+00 +7.01688E+00
 -3.06755E+00 +6.78562E+00 -4.89059E+00 +6.18523E+00 -6.43868E+00 +5.26946E+00 -7.64875E+00 +4.10736E+00
 -8.47724E+00 +2.77897E+00 -8.90187E+00 +1.37040E+00 -8.92228E+00 -3.12203E-02 -8.55936E+00 -1.34280E+00
 -7.85339E+00 -2.48999E+00 -6.86125E+00 -3.41124E+00 -5.65263E+00 -4.06110E+00 -4.30565E+00 -4.41246E+00
 -2.90212E+00 -4.45771E+00 -1.52261E+00 -4.20866E+00 -2.41793E-01 -3.69538E+00 +8.75803E-01 -2.96388E+00
 +1.77936E+00 -2.07294E+00 +2.43439E+00 -1.09014E+00 +2.82435E+00 -8.74322E-02 +2.95105E+00 +8.63498E-01
 +2.83401E+00 +1.69582E+00 +2.50860E+00 +2.35178E+00 +2.02325E+00 +2.78632E+00 +1.43590E+00 +2.96982E+00
 +8.09805E-01 +2.88992E+00 +2.09100E-01 +2.55214E+00 -3.05704E-01 +1.97939E+00 -6.81905E-01 +1.21036E+00
 -8.78278E-01 +2.96863E-01 -8.67954E-01 -6.99644E-01 -6.40332E-01 -1.71216E+00 -2.01902E-01 -2.67259E+00
 +4.24088E-01 -3.51633E+00 +1.19909E+00 -4.18650E+00 +2.07175E+00 -4.63781E+00 +2.98129E+00 -4.83960E+00
 +3.86153E+00 -4.77790E+00 +4.64530E+00 -4.45648E+00 +5.26902E+00 -3.89668E+00 +5.67701E+00 -3.13610E+00
 +5.82539E+00 -2.22622E+00 +5.68519E+00 -1.22915E+00 +5.24460E+00 -2.13550E-01 +4.51005E+00 +7.49725E-01
 +3.50620E+00 +1.59229E+00 +2.27474E+00 +2.25268E+00 +8.72051E-01 +2.68037E+00 -6.34012E-01 +2.83917E+00
 -2.16811E+00 +2.70962E+00 -3.65191E+00 +2.29044E+00 -5.00876E+00 +1.59871E+00 -6.16832E+00 +6.69005E-01
 -7.07076E+00 -4.48683E-01 -7.67036E+00 -1.69191E+00 -7.93824E+00 -2.98956E+00 -7.86407E+00 -4.26619E+00
 -7.45661E+00 -5.44660E+00 -6.74318E+00 -6.46045E+00 -5.76790E+00 -7.24647E+00 -4.58909E+00 -7.75626E+00
 -3.27563E+00 -7.95715E+00 -1.90295E+00 -7.83423E+00 -5.48453E-01 -7.39121E+00 +7.12996E-01 -6.65022E+00
 +1.81344E+00 -5.65049E+00 +2.69572E+00 -4.44604E+00 +3.31674E+00 -3.10247E+00 +3.64978E+00 -1.69315E+00
 +3.68585E+00 -2.94904E-01 +3.43401E+00 +1.01639E+00 +2.92057E+00 +2.17019E+00 +2.18734E+00 +3.10529E+00
 +1.28889E+00 +3.77325E+00 +2.89200E-01 +4.14111E+00 -7.42274E-01 +4.19309E+00 -1.73483E+00 +3.93142E+00
 -2.62075E+00 +3.37601E+00 -3.33935E+00 +2.56319E+00 -3.84059E+00 +1.54349E+00 -4.08804E+00 +3.78614E-01
 -4.06105E+00 -8.62161E-01 -3.75599E+00 -2.10605E+00 -3.18651E+00 -3.28098E+00 -2.38280E+00 -4.31975E+00
 -1.38984E+00 -5.16387E+00 -2.64895E-01 -5.76699E+00 +9.25783E-01 -6.09753E+00 +2.11080E+00 -6.14048E+00
 +3.21771E+00 -5.89834E+00 +4.17730E+00 -5.39093E+00 +4.92762E+00 -4.65429E+00 +5.41769E+00 -3.73861E+00
 +5.61064E+00 -2.70534E+00 +5.48604E+00 -1.62359E+00 +5.04131E+00 -5.66091E-01 +4.29213E+00 +3.95088E-01
 +3.27185E+00 +1.19288E+00 +2.02977E+00 +1.76930E+00 +6.28626E-01 +2.07899E+00 -8.58919E-01 +2.09219E+00
 -2.35426E+00 +1.79670E+00 -3.77732E+00 +1.19893E+00 -5.05116E+00 +3.23802E-01 -6.10647E+00 -7.86404E-01
 -6.88569E+00 -2.07431E+00 -7.34647E+00 -3.47063E+00 -7.46433E+00 -4.89810E+00 -7.23423E+00 -6.27600E+00
 -6.67105E+00 -7.52495E+00 -5.80887E+00 -8.57170E+00 -4.69905E+00 -9.35364E+00 -3.40724E+00 -9.82271E+00
 -2.00954E+00 -9.94850E+00 -5.87876E-01 -9.72033E+00 +7.74929E-01 -9.14806E+00 +2.00027E+00 -8.26171E+00
 +3.01862E+00 -7.10982E+00 +3.77385E+00 -5.75656E+00 +4.22674E+00 -4.27793E+00 +4.35746E+00 -2.75705E+00
 +4.16678E+00 -1.27908E+00 +3.67596E+00 +7.41222E-02 +2.92535E+00 +1.22909E+00 +1.97165E+00 +2.12538E+00
 +8.84191E-01 +2.71936E+00 -2.59769E-01 +2.98688E+00 -1.38017E+00 +2.92474E+00 -2.39957E+00 +2.55067E+00
 -3.24834E+00 +1.90202E+00 -3.86939E+00 +1.03305E+00 -4.22201E+00 +1.11638E-02 -4.28462E+00 -1.08786E+00
 -4.05620E+00 -2.18509E+00 -3.55629E+00 -3.20391E+00 -2.82358E+00 -4.07538E+00 -1.91310E+00 -4.74292E+00
 -8.92372E-01 -5.16623E+00 +1.63450E-01 -5.32400E+00 +1.17688E+00 -5.21526E+00 +2.07365E+00 -4.85932E+00
 +2.78793E+00 -4.29418E+00 +3.26711E+00 -3.57372E+00 +3.47546E+00 -2.76362E+00 +3.39674E+00 -1.93653E+00
 +3.03531E+00 -1.16670E+00 +2.41581E+00 -5.24481E-01 +1.58140E+00 -7.11557E-02 +5.90642E-01 +1.45593E-01
 -4.86672E-01 +9.52248E-02 -1.57455E+00 -2.33370E-01 -2.59618E+00 -8.30987E-01 -3.47941E+00 -1.66871E+00
 -4.16183E+00 -2.69991E+00 -4.59514E+00 -3.86355E+00 -4.74844E+00 -5.08850E+00 -4.61030E+00 -6.29855E+00
 -4.18941E+00 -7.41777E+00 -3.51367E+00 -8.37578E+00 -2.62811E+00 -9.11266E+00 -1.59139E+00 -9.58293E+00
 -4.71529E-01 -9.75858E+00 +6.59017E-01 -9.63070E+00 +1.72855E+00 -9.20980E+00 +2.67109E+00 -8.52470E+00
 +3.43090E+00 -7.62013E+00 +3.96608E+00 -6.55324E+00 +4.25112E+00 -5.38933E+00 +4.27814E+00 -4.19709E+00
 +4.05686E+00 -3.04373E+00 +3.61321E+00 -1.99038E+00 +2.98682E+00 -1.08811E+00 +2.22754E+00 -3.74820E-01
 +1.39137E+00 +1.26751E-01 +5.36006E-01 +4.09821E-01 -2.83497E-01 +4.83081E-01 -1.01875E+00 +3.69063E-01
 -1.63134E+00 +1.01497E-01 -2.09517E+00 -2.78093E-01 -2.39783E+00 -7.24252E-01 -2.54067E+00 -1.19160E+00
 -2.53786E+00 -1.63863E+00 -2.41439E+00 -2.03106E+00 -2.20321E+00 -2.34433E+00 -1.94187E+00 -2.56527E+00
 -1.66891E+00 -2.69260E+00 -1.42020E+00 -2.73649E+00 -1.22579E+00 -2.71698E+00 -1.10721E+00 -2.66169E+00
