 Created: 19-Jan-2021
 $NMID
 ID='D:\BASISSIMULATI'
 FMTDAT='(8E13.5)'
 VOLUME=   1.00000E+00
 TRAMP=   1.00000E+00
 $END
 +5.31612E+01 +8.23201E-01 +4.72489E+01 +5.59190E+00 +3.17398E+01 +9.66722E+00 +1.03786E+01 +1.26120E+01
 -1.17554E+01 +1.40242E+01 -2.95430E+01 +1.36061E+01 -3.91006E+01 +1.12845E+01 -3.87035E+01 +7.33543E+00
 -2.91238E+01 +2.44674E+00 -1.33166E+01 -2.33868E+00 +4.43486E+00 -5.82105E+00 +1.96643E+01 -6.95153E+00
 +2.88421E+01 -5.16842E+00 +3.01765E+01 -6.51752E-01 +2.39113E+01 +5.60504E+00 +1.20794E+01 +1.19624E+01
 -2.17429E+00 +1.65247E+01 -1.54814E+01 +1.76615E+01 -2.50930E+01 +1.45133E+01 -2.94584E+01 +7.32453E+00
 -2.84159E+01 -2.51757E+00 -2.29990E+01 -1.27763E+01 -1.49652E+01 -2.09325E+01 -6.22501E+00 -2.48751E+01
 +1.65059E+00 -2.35193E+01 +7.71359E+00 -1.71622E+01 +1.16705E+01 -7.45903E+00 +1.37065E+01 +2.99538E+00
 +1.42090E+01 +1.13706E+01 +1.35176E+01 +1.53962E+01 +1.17971E+01 +1.40177E+01 +9.06890E+00 +7.71638E+00
 +5.36689E+00 -1.60859E+00 +9.29834E-01 -1.11704E+01 -3.67282E+00 -1.80884E+01 -7.56004E+00 -2.02166E+01
 -9.72390E+00 -1.67640E+01 -9.33274E+00 -8.52355E+00 -6.05233E+00 +2.35785E+00 -2.65823E-01 +1.30016E+01
 +6.90266E+00 +2.06276E+01 +1.37963E+01 +2.33461E+01 +1.86248E+01 +2.06805E+01 +1.99468E+01 +1.36680E+01
 +1.70922E+01 +4.51653E+00 +1.03939E+01 -4.07385E+00 +1.14814E+00 -9.71552E+00 -8.69372E+00 -1.10222E+01
 -1.70195E+01 -7.97814E+00 -2.20962E+01 -1.88576E+00 -2.30019E+01 +5.08193E+00 -1.98277E+01 +1.05763E+01
 -1.36003E+01 +1.27978E+01 -5.95745E+00 +1.10267E+01 +1.31838E+00 +5.80483E+00 +6.76475E+00 -1.27877E+00
 +9.56923E+00 -8.11892E+00 +9.68031E+00 -1.27673E+01 +7.68885E+00 -1.40332E+01 +4.54275E+00 -1.18261E+01
 +1.20540E+00 -7.13907E+00 -1.62307E+00 -1.68989E+00 -3.63553E+00 +2.65845E+00 -4.87276E+00 +4.50622E+00
 -5.54476E+00 +3.35988E+00 -5.80827E+00 -2.29044E-01 -5.60408E+00 -4.86747E+00 -4.63129E+00 -8.79480E+00
 -2.47911E+00 -1.04701E+01 +1.12964E+00 -9.08174E+00 +6.08101E+00 -4.81562E+00 +1.17128E+01 +1.20050E+00
 +1.68464E+01 +7.25640E+00 +2.00337E+01 +1.16036E+01 +1.99678E+01 +1.30092E+01 +1.59371E+01 +1.11425E+01
 +8.17223E+00 +6.67367E+00 -2.04707E+00 +1.05634E+00 -1.25962E+01 -3.93285E+00 -2.09938E+01 -6.75008E+00
 -2.50553E+01 -6.55889E+00 -2.35298E+01 -3.47662E+00 -1.65259E+01 +1.47997E+00 -5.58490E+00 +6.72611E+00
 +6.64645E+00 +1.06075E+01 +1.70723E+01 +1.19063E+01 +2.29615E+01 +1.01969E+01 +2.26941E+01 +5.94676E+00
 +1.62246E+01 +3.39200E-01 +5.12517E+00 -5.11391E+00 -7.81389E+00 -9.04066E+00 -1.93187E+01 -1.06078E+01
 -2.64992E+01 -9.72825E+00 -2.76075E+01 -7.02300E+00 -2.24759E+01 -3.56363E+00 -1.25188E+01 -4.92870E-01
 -3.06130E-01 +1.34582E+00 +1.11605E+01 +1.64781E+00 +1.92574E+01 +6.84695E-01 +2.24034E+01 -8.59969E-01
 +2.04009E+01 -2.18657E+00 +1.43733E+01 -2.69446E+00 +6.34234E+00 -2.20111E+00 -1.41053E+00 -9.88372E-01
 -6.99769E+00 +3.36502E-01 -9.40208E+00 +1.10945E+00 -8.64972E+00 +9.04307E-01 -5.65279E+00 -2.60410E-01
 -1.80118E+00 -1.88612E+00 +1.54620E+00 -3.15217E+00 +3.49783E+00 -3.21818E+00 +3.85649E+00 -1.56605E+00
 +3.07790E+00 +1.74355E+00 +1.99614E+00 +6.00185E+00 +1.42924E+00 +1.00114E+01 +1.81518E+00 +1.24376E+01
 +3.01308E+00 +1.22458E+01 +4.34232E+00 +9.08275E+00 +4.84623E+00 +3.46779E+00 +3.68584E+00 -3.28341E+00
 +5.20388E-01 -9.39672E+00 -4.26753E+00 -1.31477E+01 -9.59434E+00 -1.33884E+01 -1.39544E+01 -9.92779E+00
 -1.58759E+01 -3.63893E+00 -1.44107E+01 +3.75112E+00 -9.49592E+00 +1.01380E+01 -2.06109E+00 +1.36456E+01
 +6.16812E+00 +1.31807E+01 +1.31234E+01 +8.76763E+00 +1.69744E+01 +1.55816E+00 +1.66633E+01 -6.49076E+00
 +1.22290E+01 -1.31776E+01 +4.81973E+00 -1.66886E+01 -3.61415E+00 -1.61138E+01 -1.08597E+01 -1.16930E+01
 -1.50532E+01 -4.72149E+00 -1.51858E+01 +2.85057E+00 -1.13563E+01 +9.00032E+00 -4.70430E+00 +1.22165E+01
 +2.94844E+00 +1.19110E+01 +9.63167E+00 +8.53771E+00 +1.37729E+01 +3.39518E+00 +1.45954E+01 -1.81683E+00
 +1.22587E+01 -5.53840E+00 +7.71925E+00 -6.81663E+00 +2.37093E+00 -5.55576E+00 -2.40504E+00 -2.48063E+00
 -5.63592E+00 +1.16163E+00 -6.97845E+00 +4.05347E+00 -6.71094E+00 +5.25772E+00 -5.52083E+00 +4.51738E+00
 -4.17972E+00 +2.30894E+00 -3.23035E+00 -3.61992E-01 -2.79904E+00 -2.34694E+00 -2.59642E+00 -2.78624E+00
 -2.09815E+00 -1.43549E+00 -8.30241E-01 +1.22777E+00 +1.35556E+00 +4.15647E+00 +4.12890E+00 +6.09692E+00
 +6.71979E+00 +6.04039E+00 +8.14936E+00 +3.60945E+00 +7.58059E+00 -7.56322E-01 +4.66839E+00 -5.88640E+00
 -2.20164E-01 -1.02190E+01 -6.00791E+00 -1.22916E+01 -1.11536E+01 -1.12257E+01 -1.40820E+01 -7.04846E+00
 -1.36711E+01 -7.39406E-01 -9.64273E+00 +6.02144E+00 -2.72523E+00 +1.13342E+01 +5.47998E+00 +1.36447E+01
 +1.29026E+01 +1.22199E+01 +1.75697E+01 +7.38658E+00 +1.81691E+01 +4.54383E-01 +1.44415E+01 -6.65576E+00
 +7.27939E+00 -1.19669E+01 -1.50253E+00 -1.40182E+01 -9.66241E+00 -1.22809E+01 -1.51489E+01 -7.29602E+00
 -1.66613E+01 -4.95206E-01 -1.39895E+01 +6.23499E+00 -8.03814E+00 +1.11088E+01 -5.34699E-01 +1.29470E+01
 +6.48529E+00 +1.14829E+01 +1.12576E+01 +7.38364E+00 +1.27609E+01 +1.99351E+00 +1.09469E+01 -3.10956E+00
 +6.67205E+00 -6.59827E+00 +1.36953E+00 -7.76872E+00 -3.42429E+00 -6.69162E+00 -6.53367E+00 -4.10755E+00
 -7.45403E+00 -1.11598E+00 -6.42192E+00 +1.22743E+00 -4.23906E+00 +2.26580E+00 -1.92570E+00 +1.93073E+00
 -3.31700E-01 +7.09988E-01 +1.58474E-01 -5.85928E-01 -2.72436E-01 -1.16781E+00 -9.94267E-01 -5.95260E-01
 -1.22087E+00 +1.03219E+00 -3.62737E-01 +3.09150E+00 +1.69114E+00 +4.65739E+00 +4.47000E+00 +4.85292E+00
 +7.04200E+00 +3.20568E+00 +8.32522E+00 -1.19712E-01 +7.48642E+00 -4.30317E+00 +4.28918E+00 -8.08442E+00
 -7.35566E-01 -1.01515E+01 -6.36911E+00 -9.58001E+00 -1.10256E+01 -6.17833E+00 -1.32233E+01 -6.17637E-01
 -1.20614E+01 +5.70742E+00 -7.54890E+00 +1.10571E+01 -6.70949E-01 +1.38548E+01 +6.83986E+00 +1.31702E+01
 +1.29713E+01 +9.02604E+00 +1.60030E+01 +2.42785E+00 +1.50128E+01 -4.89997E+00 +1.01613E+01 -1.09975E+01
 +2.66827E+00 -1.42292E+01 -5.51951E+00 -1.37529E+01 -1.22703E+01 -9.75640E+00 -1.58618E+01 -3.39240E+00
 -1.54524E+01 +3.56705E+00 -1.12931E+01 +9.24957E+00 -4.62326E+00 +1.22169E+01 +2.71197E+00 +1.18549E+01
 +8.80129E+00 +8.50700E+00 +1.22006E+01 +3.31979E+00 +1.23026E+01 -2.14121E+00 +9.44239E+00 -6.37832E+00
 +4.72069E+00 -8.39731E+00 -3.83315E-01 -7.95965E+00 -4.47984E+00 -5.58265E+00 -6.66686E+00 -2.30170E+00
 -6.74010E+00 +7.15346E-01 -5.16247E+00 +2.56732E+00 -2.82117E+00 +2.89918E+00 -6.69037E-01 +1.97355E+00
 +6.20299E-01 +5.19069E-01 +8.64986E-01 -5.82920E-01 +3.87687E-01 -6.57822E-01 -1.66561E-01 +4.86781E-01
 -1.33412E-01 +2.46921E+00 +8.62995E-01 +4.46047E+00 +2.71477E+00 +5.48783E+00 +4.82453E+00 +4.81060E+00
 +6.29856E+00 +2.23496E+00 +6.27587E+00 -1.74763E+00 +4.27897E+00 -6.05711E+00 +4.58808E-01 -9.33660E+00
 -4.36244E+00 -1.03851E+01 -8.88176E+00 -8.57236E+00 -1.16912E+01 -4.09650E+00 -1.17259E+01 +2.00835E+00
 -8.64016E+00 +8.13009E+00 -2.98373E+00 +1.25327E+01 +3.89107E+00 +1.38713E+01 +1.01774E+01 +1.16108E+01
 +1.41210E+01 +6.21490E+00 +1.45369E+01 -9.57893E-01 +1.11774E+01 -8.02541E+00 +4.83541E+00 -1.31128E+01
 -2.85474E+00 -1.48850E+01 -9.86612E+00 -1.29223E+01 -1.43464E+01 -7.82733E+00 -1.51371E+01 -1.03514E+00
 -1.20922E+01 +5.61377E+00 -6.10273E+00 +1.04048E+01 +1.17523E+00 +1.22251E+01 +7.80460E+00 +1.08441E+01
 +1.21165E+01 +6.92240E+00 +1.31610E+01 +1.75886E+00 +1.09316E+01 -3.13560E+00 +6.30456E+00 -6.49737E+00
 +7.27513E-01 -7.65962E+00 -4.23899E+00 -6.68948E+00 -7.37890E+00 -4.28275E+00 -8.13880E+00 -1.46581E+00
 -6.71819E+00 +7.85306E-01 -3.91999E+00 +1.87622E+00 -8.26065E-01 +1.76555E+00 +1.58467E+00 +9.24436E-01
 +2.74574E+00 +1.06970E-01 +2.64163E+00 +1.98226E-02 +1.73947E+00 +1.01357E+00 +7.50323E-01 +2.91017E+00
 +3.14682E-01 +5.03327E+00 +7.30547E-01 +6.43647E+00 +1.82463E+00 +6.25428E+00 +3.01465E+00 +4.05431E+00
 +3.54110E+00 +6.38262E-02 +2.78479E+00 -4.81791E+00 +5.53149E-01 -9.24105E+00 -2.77420E+00 -1.18011E+01
 -6.30397E+00 -1.14893E+01 -8.88515E+00 -8.05193E+00 -9.48565E+00 -2.13824E+00 -7.56635E+00 +4.82353E+00
 -3.32325E+00 +1.09963E+01 +2.29433E+00 +1.46478E+01 +7.81146E+00 +1.46559E+01 +1.16431E+01 +1.08535E+01
 +1.25747E+01 +4.10560E+00 +1.01579E+01 -3.90980E+00 +4.89234E+00 -1.11552E+01 -1.87309E+00 -1.57912E+01
 -8.30093E+00 -1.66751E+01 -1.25860E+01 -1.36590E+01 -1.34825E+01 -7.60280E+00 -1.06782E+01 -1.08246E-01
 -4.89928E+00 +6.94264E+00 +2.28835E+00 +1.19033E+01 +8.92575E+00 +1.37827E+01 +1.32225E+01 +1.24544E+01
 +1.40666E+01 +8.60829E+00 +1.13304E+01 +3.47839E+00 +5.88506E+00 -1.55468E+00 -6.77462E-01 -5.35700E+00
 -6.52619E+00 -7.31237E+00 -1.01280E+01 -7.40079E+00 -1.06779E+01 -6.08251E+00 -8.29595E+00 -4.04895E+00
 -3.94074E+00 -1.94172E+00 +9.25264E-01 -1.42686E-01 +4.80555E+00 +1.29504E+00 +6.62515E+00 +2.56260E+00
 +6.03145E+00 +3.90374E+00 +3.45357E+00 +5.40332E+00 -8.75466E-02 +6.85046E+00 -3.34671E+00 +7.74282E+00
 -5.27398E+00 +7.44388E+00 -5.34839E+00 +5.44440E+00 -3.72033E+00 +1.63338E+00 -1.12316E+00 -3.52922E+00
 +1.40872E+00 -9.02037E+00 +2.91496E+00 -1.34671E+01 +2.84885E+00 -1.55189E+01 +1.26670E+00 -1.42733E+01
 -1.19497E+00 -9.61773E+00 -3.54489E+00 -2.36954E+00 -4.78740E+00 +5.85428E+00 -4.27807E+00 +1.30197E+01
 -1.96394E+00 +1.72155E+01 +1.57444E+00 +1.71977E+01 +5.29536E+00 +1.27775E+01 +8.02788E+00 +4.92928E+00
 +8.85519E+00 -4.42699E+00 +7.42320E+00 -1.29161E+01 +4.07212E+00 -1.83396E+01 -2.54170E-01 -1.92710E+01
 -4.29401E+00 -1.54437E+01 -6.85872E+00 -7.82115E+00 -7.20348E+00 +1.67131E+00 -5.26017E+00 +1.06751E+01
 -1.65796E+00 +1.70344E+01 +2.47403E+00 +1.93576E+01 +5.85844E+00 +1.73498E+01 +7.46314E+00 +1.18282E+01
 +6.81214E+00 +4.43180E+00 +4.11724E+00 -2.87893E+00 +1.92676E-01 -8.37583E+00 -3.81522E+00 -1.10080E+01
 -6.79272E+00 -1.06152E+01 -7.99894E+00 -7.86459E+00 -7.27385E+00 -3.95093E+00 -5.05158E+00 -1.72296E-01
 -2.18213E+00 +2.47674E+00 +3.72990E-01 +3.56682E+00 +1.86585E+00 +3.27803E+00 +1.99841E+00 +2.23057E+00
 +9.93461E-01 +1.17713E+00 -5.18773E-01 +6.75476E-01 -1.75376E+00 +8.61762E-01 -2.07359E+00 +1.40543E+00
