 Created: 19-Jan-2021
 $NMID
 ID='D:\BASISSIMULATI'
 FMTDAT='(8E13.5)'
 VOLUME=   1.00000E+00
 TRAMP=   1.00000E+00
 $END
 +3.75565E+01 +8.76832E-01 +3.34293E+01 +1.62738E+01 +2.29224E+01 +2.80788E+01 +8.45250E+00 +3.37785E+01
 -6.67926E+00 +3.22971E+01 -1.90745E+01 +2.42373E+01 -2.60420E+01 +1.17185E+01 -2.62245E+01 -2.14580E+00
 -1.99002E+01 -1.40029E+01 -8.88773E+00 -2.10620E+01 +3.91480E+00 -2.17493E+01 +1.52423E+01 -1.60611E+01
 +2.22501E+01 -5.53456E+00 +2.31852E+01 +7.14895E+00 +1.77847E+01 +1.88261E+01 +7.30842E+00 +2.66150E+01
 -5.79099E+00 +2.85937E+01 -1.84742E+01 +2.42345E+01 -2.78445E+01 +1.44960E+01 -3.18239E+01 +1.56016E+00
 -2.96143E+01 -1.17112E+01 -2.18434E+01 -2.24630E+01 -1.03691E+01 -2.85081E+01 +2.19748E+00 -2.88065E+01
 +1.31262E+01 -2.36563E+01 +2.02032E+01 -1.45634E+01 +2.22161E+01 -3.83273E+00 +1.91807E+01 +6.00642E+00
 +1.22690E+01 +1.27996E+01 +3.46860E+00 +1.52459E+01 -4.92917E+00 +1.31501E+01 -1.08838E+01 +7.40015E+00
 -1.30678E+01 -3.08202E-01 -1.11331E+01 -7.92002E+00 -5.73005E+00 -1.35255E+01 +1.70914E+00 -1.57973E+01
 +9.35546E+00 -1.42615E+01 +1.54342E+01 -9.34972E+00 +1.86299E+01 -2.23587E+00 +1.83539E+01 +5.48722E+00
 +1.48207E+01 +1.22027E+01 +8.93202E+00 +1.66366E+01 +2.01273E+00 +1.81119E+01 -4.52601E+00 +1.66416E+01
 -9.50916E+00 +1.28521E+01 -1.22310E+01 +7.77459E+00 -1.25533E+01 +2.56633E+00 -1.08602E+01 -1.76282E+00
 -7.89810E+00 -4.55413E+00 -4.55317E+00 -5.59388E+00 -1.62866E+00 -5.08908E+00 +3.23217E-01 -3.54779E+00
 +1.08189E+00 -1.60760E+00 +7.44985E-01 +1.36616E-01 -3.59982E-01 +1.26199E+00 -1.80263E+00 +1.57809E+00
 -3.17456E+00 +1.11563E+00 -4.17836E+00 +6.09517E-02 -4.66319E+00 -1.33347E+00 -4.60847E+00 -2.83015E+00
 -4.07340E+00 -4.25542E+00 -3.13832E+00 -5.50652E+00 -1.86312E+00 -6.52406E+00 -2.78132E-01 -7.24912E+00
 +1.59157E+00 -7.58868E+00 +3.68145E+00 -7.40884E+00 +5.84452E+00 -6.56391E+00 +7.83318E+00 -4.95430E+00
 +9.32130E+00 -2.59399E+00 +9.96828E+00 +3.38741E-01 +9.51120E+00 +3.49105E+00 +7.85908E+00 +6.37891E+00
 +5.15831E+00 +8.48114E+00 +1.80345E+00 +9.36396E+00 -1.61920E+00 +8.80401E+00 -4.44892E+00 +6.87356E+00
 -6.10387E+00 +3.95906E+00 -6.23238E+00 +6.99498E-01 -4.82095E+00 -2.14718E+00 -2.22592E+00 -3.88125E+00
 +8.86585E-01 -4.03903E+00 +3.68414E+00 -2.52493E+00 +5.36407E+00 +3.39805E-01 +5.35542E+00 +3.87000E+00
 +3.47553E+00 +7.16399E+00 -9.56695E-04 +9.31380E+00 -4.38271E+00 +9.62843E+00 -8.70741E+00 +7.81506E+00
 -1.19607E+01 +4.07115E+00 -1.33176E+01 -9.39149E-01 -1.23474E+01 -6.22264E+00 -9.13039E+00 -1.06791E+01
 -4.25654E+00 -1.33558E+01 +1.29883E+00 -1.36740E+01 +6.39315E+00 -1.15710E+01 +9.97875E+00 -7.52313E+00
 +1.13464E+01 -2.44099E+00 +1.02918E+01 +2.53904E+00 +7.16366E+00 +6.31813E+00 +2.78203E+00 +8.09088E+00
 -1.75513E+00 +7.53252E+00 -5.33104E+00 +4.87254E+00 -7.07302E+00 +8.37334E-01 -6.55698E+00 -3.52435E+00
 -3.90483E+00 -7.09135E+00 +2.47528E-01 -8.93555E+00 +4.90327E+00 -8.53991E+00 +8.94137E+00 -5.91788E+00
 +1.13803E+01 -1.60696E+00 +1.16060E+01 +3.46049E+00 +9.51106E+00 +8.17713E+00 +5.51384E+00 +1.15180E+01
 +4.54935E-01 +1.27746E+01 -4.60205E+00 +1.17107E+01 -8.61704E+00 +8.60623E+00 -1.08086E+01 +4.18055E+00
 -1.08232E+01 -5.83160E-01 -8.80061E+00 -4.66901E+00 -5.32474E+00 -7.25961E+00 -1.27293E+00 -7.91364E+00
 +2.39586E+00 -6.65036E+00 +4.86378E+00 -3.92488E+00 +5.63519E+00 -5.04005E-01 +4.63587E+00 +2.72458E+00
 +2.21070E+00 +4.96269E+00 -9.75302E-01 +5.68201E+00 -4.10526E+00 +4.73405E+00 -6.40600E+00 +2.36726E+00
 -7.32413E+00 -8.47980E-01 -6.64302E+00 -4.16482E+00 -4.51666E+00 -6.83845E+00 -1.41695E+00 -8.29492E+00
 +1.98870E+00 -8.25178E+00 +4.99713E+00 -6.76560E+00 +7.02799E+00 -4.19992E+00 +7.74453E+00 -1.12570E+00
 +7.11150E+00 +1.81842E+00 +5.38129E+00 +4.07143E+00 +3.01627E+00 +5.26725E+00 +5.69880E-01 +5.29930E+00
 -1.44322E+00 +4.32155E+00 -2.65759E+00 +2.69084E+00 -2.92418E+00 +8.68496E-01 -2.32277E+00 -6.92861E-01
 -1.12145E+00 -1.65010E+00 +3.02603E-01 -1.83603E+00 +1.55939E+00 -1.27950E+00 +2.33563E+00 -1.79122E-01
 +2.45776E+00 +1.15879E+00 +1.91669E+00 +2.40007E+00 +8.52893E-01 +3.26022E+00 -4.90550E-01 +3.56196E+00
 -1.83227E+00 +3.26226E+00 -2.91761E+00 +2.44602E+00 -3.56941E+00 +1.29251E+00 -3.71481E+00 +2.54072E-02
 -3.38539E+00 -1.13945E+00 -2.69464E+00 -2.03667E+00 -1.80139E+00 -2.57578E+00 -8.70032E-01 -2.74528E+00
 -3.72919E-02 -2.59875E+00 +6.08039E-01 -2.22998E+00 +1.03027E+00 -1.74501E+00 +1.23912E+00 -1.23873E+00
 +1.27412E+00 -7.80501E-01 +1.18735E+00 -4.10010E-01 +1.02943E+00 -1.41566E-01 +8.41818E-01 +2.73313E-02
 +6.55514E-01 +1.07351E-01 +4.93985E-01 +1.11915E-01 +3.77136E-01 +5.61831E-02 +3.23203E-01 -4.05416E-02
 +3.46926E-01 -1.51531E-01 +4.54300E-01 -2.41442E-01 +6.36035E-01 -2.69381E-01 +8.62832E-01 -1.96674E-01
 +1.08545E+00 +2.22514E-03 +1.24122E+00 +3.28872E-01 +1.26650E+00 +7.53812E-01 +1.11265E+00 +1.21659E+00
 +7.61250E-01 +1.63423E+00 +2.34208E-01 +1.91719E+00 -4.04977E-01 +1.98955E+00 -1.06014E+00 +1.80853E+00
 -1.62046E+00 +1.37813E+00 -1.98384E+00 +7.52909E-01 -2.08012E+00 +2.99950E-02 -1.88849E+00 -6.69367E-01
 -1.44443E+00 -1.22495E+00 -8.34000E-01 -1.54359E+00 -1.76433E-01 -1.57992E+00 +4.01326E-01 -1.34675E+00
 +7.92173E-01 -9.12453E-01 +9.32178E-01 -3.85718E-01 +8.14185E-01 +1.08832E-01 +4.88540E-01 +4.58529E-01
 +5.08096E-02 +5.87617E-01 -3.80552E-01 +4.73568E-01 -6.91364E-01 +1.51150E-01 -7.97438E-01 -2.96488E-01
 -6.63040E-01 -7.57405E-01 -3.08137E-01 -1.11646E+00 +1.96913E-01 -1.28103E+00 +7.47654E-01 -1.20107E+00
 +1.22882E+00 -8.79291E-01 +1.53928E+00 -3.69686E-01 +1.61308E+00 +2.35023E-01 +1.43236E+00 +8.23605E-01
 +1.02951E+00 +1.28965E+00 +4.79010E-01 +1.55289E+00 -1.19157E-01 +1.57413E+00 -6.60266E-01 +1.36113E+00
 -1.05549E+00 +9.64705E-01 -1.24815E+00 +4.66564E-01 -1.22268E+00 -3.81791E-02 -1.00502E+00 -4.59981E-01
 -6.54947E-01 -7.31512E-01 -2.52575E-01 -8.18953E-01 +1.18207E-01 -7.26209E-01 +3.85862E-01 -4.91764E-01
 +5.04035E-01 -1.79300E-01 +4.58983E-01 +1.35794E-01 +2.70600E-01 +3.81335E-01 -1.27289E-02 +5.01964E-01
 -3.24260E-01 +4.69163E-01 -5.92011E-01 +2.86086E-01 -7.52523E-01 -1.34348E-02 -7.62892E-01 -3.71409E-01
 -6.09038E-01 -7.16534E-01 -3.08776E-01 -9.77506E-01 +9.08598E-02 -1.09650E+00 +5.21713E-01 -1.04049E+00
 +9.06730E-01 -8.08232E-01 +1.17426E+00 -4.31682E-01 +1.27189E+00 +2.89250E-02 +1.17719E+00 +4.95526E-01
 +9.03179E-01 +8.86624E-01 +4.97021E-01 +1.13302E+00 +3.19542E-02 +1.19185E+00 -4.06453E-01 +1.05595E+00
 -7.37183E-01 +7.56415E-01 -9.00490E-01 +3.57318E-01 -8.70901E-01 -5.66896E-02 -6.63526E-01 -3.97702E-01
 -3.31913E-01 -5.93335E-01 +4.25333E-02 -6.02932E-01 +3.67721E-01 -4.27495E-01 +5.61141E-01 -1.10802E-01
 +5.68872E-01 +2.69002E-01 +3.78987E-01 +6.15939E-01 +2.60040E-02 +8.37511E-01 -4.15046E-01 +8.66179E-01
 -8.44108E-01 +6.76088E-01 -1.15803E+00 +2.90977E-01 -1.27420E+00 -2.18985E-01 -1.15044E+00 -7.51198E-01
 -7.96489E-01 -1.19271E+00 -2.73882E-01 -1.44556E+00 +3.16030E-01 -1.44973E+00 +8.53774E-01 -1.19805E+00
 +1.22835E+00 -7.39563E-01 +1.36275E+00 -1.69884E-01 +1.23239E+00 +3.89475E-01 +8.71845E-01 +8.18389E-01
 +3.68099E-01 +1.02581E+00 -1.58699E-01 +9.71396E-01 -5.82654E-01 +6.75759E-01 -8.01544E-01 +2.16698E-01
 -7.61344E-01 -2.88141E-01 -4.69924E-01 -7.08396E-01 +3.57799E-03 -9.31712E-01 +5.43905E-01 -8.90890E-01
 +1.01608E+00 -5.80922E-01 +1.29706E+00 -6.16617E-02 +1.30518E+00 +5.54808E-01 +1.02049E+00 +1.12941E+00
 +4.90814E-01 +1.52814E+00 -1.77917E-01 +1.65356E+00 -8.45245E-01 +1.46816E+00 -1.36812E+00 +1.00407E+00
 -1.63385E+00 +3.56617E-01 -1.58636E+00 -3.36912E-01 -1.23948E+00 -9.28409E-01 -6.74110E-01 -1.29281E+00
 -1.98686E-02 -1.35674E+00 +5.74556E-01 -1.11529E+00 +9.75442E-01 -6.33002E-01 +1.09456E+00 -2.88305E-02
 +9.09133E-01 +5.51272E-01 +4.66659E-01 +9.67848E-01 -1.26315E-01 +1.11968E+00 -7.28804E-01 +9.66541E-01
 -1.19751E+00 +5.37856E-01 -1.41905E+00 -7.44391E-02 -1.33505E+00 -7.36966E-01 -9.54487E-01 -1.30485E+00
 -3.50965E-01 -1.65361E+00 +3.54138E-01 -1.70594E+00 +1.01850E+00 -1.44756E+00 +1.50947E+00 -9.29085E-01
 +1.73174E+00 -2.54082E-01 +1.64627E+00 +4.43695E-01 +1.27691E+00 +1.02854E+00 +7.03797E-01 +1.39041E+00
 +4.57206E-02 +1.46634E+00 -5.64644E-01 +1.25153E+00 -1.00717E+00 +7.98684E-01 -1.19725E+00 +2.06169E-01
 -1.10116E+00 -4.01975E-01 -7.41316E-01 -9.00092E-01 -1.91168E-01 -1.18444E+00 +4.38947E-01 -1.19215E+00
 +1.02212E+00 -9.12549E-01 +1.43779E+00 -3.89309E-01 +1.59349E+00 +2.86670E-01 +1.44202E+00 +9.92465E-01
 +9.91384E-01 +1.59404E+00 +3.05686E-01 +1.96980E+00 -5.03480E-01 +2.03314E+00 -1.29445E+00 +1.75038E+00
 -1.91954E+00 +1.15062E+00 -2.25222E+00 +3.25091E-01 -2.21299E+00 -5.85134E-01 -1.78883E+00 -1.41219E+00
 -1.04181E+00 -1.99216E+00 -1.03513E-01 -2.19841E+00 +8.45262E-01 -1.97109E+00 +1.60749E+00 -1.33599E+00
 +2.01003E+00 -4.07369E-01 +1.94313E+00 +6.27923E-01 +1.39052E+00 +1.54406E+00 +4.42070E-01 +2.12210E+00
 -7.15854E-01 +2.19931E+00 -1.83279E+00 +1.71104E+00 -2.64450E+00 +7.14634E-01 -2.93153E+00 -6.12026E-01
 -2.57318E+00 -1.99981E+00 -1.58396E+00 -3.14141E+00 -1.22118E-01 -3.75809E+00 +1.53433E+00 -3.66584E+00
 +3.04136E+00 -2.82506E+00 +4.06249E+00 -1.36103E+00 +4.34638E+00 +4.52569E-01 +3.79052E+00 +2.24580E+00
 +2.47476E+00 +3.63089E+00 +6.54730E-01 +4.29022E+00 -1.28632E+00 +4.05388E+00 -2.91854E+00 +2.94753E+00
 -3.86246E+00 +1.19749E+00 -3.87976E+00 -8.10875E-01 -2.93619E+00 -2.61447E+00 -1.22007E+00 -3.77636E+00
 +8.90439E-01 -3.98907E+00 +2.90626E+00 -3.15282E+00 +4.33619E+00 -1.40884E+00 +4.80131E+00 +8.82065E-01
 +4.12846E+00 +3.21331E+00 +2.39969E+00 +5.04364E+00 -5.56831E-02 +5.92097E+00 -2.72684E+00 +5.59043E+00
 -5.03191E+00 +4.06076E+00 -6.44883E+00 +1.61197E+00 -6.63687E+00 -1.25948E+00 -5.52000E+00 -3.94720E+00
 -3.31185E+00 -5.86988E+00 -4.74573E-01 -6.60425E+00 +2.38043E+00 -5.98507E+00 +4.62841E+00 -4.14816E+00
 +5.77316E+00 -1.50538E+00 +5.56233E+00 +1.34427E+00 +4.04904E+00 +3.74800E+00 +1.58460E+00 +5.14731E+00
 -1.25699E+00 +5.20686E+00 -3.80663E+00 +3.89445E+00 -5.45126E+00 +1.49290E+00 -5.77423E+00 -1.45954E+00
