 Created: 19-Jan-2021
 $NMID
 ID='D:\BASISSIMULATI'
 FMTDAT='(8E13.5)'
 VOLUME=   1.00000E+00
 TRAMP=   1.00000E+00
 $END
 +1.87557E+01 +8.65599E-02 +1.82658E+01 +4.19448E+00 +1.68880E+01 +8.09188E+00 +1.46907E+01 +1.15895E+01
 +1.17821E+01 +1.45177E+01 +8.30484E+00 +1.67351E+01 +4.42901E+00 +1.81348E+01 +3.43787E-01 +1.86499E+01
 -3.75175E+00 +1.82570E+01 -7.65833E+00 +1.69764E+01 -1.11862E+01 +1.48718E+01 -1.41643E+01 +1.20471E+01
 -1.64486E+01 +8.64065E+00 -1.79290E+01 +4.81918E+00 -1.85349E+01 +7.69237E-01 -1.82380E+01 -3.31177E+00
 -1.70543E+01 -7.22525E+00 -1.50427E+01 -1.07811E+01 -1.23025E+01 -1.38068E+01 -8.96797E+00 -1.61560E+01
 -5.20238E+00 -1.77155E+01 -1.18960E+00 -1.84107E+01 +2.87475E+00 -1.82091E+01 +6.79287E+00 -1.71219E+01
 +1.03744E+01 -1.52034E+01 +1.34455E+01 -1.25482E+01 +1.58576E+01 -9.28670E+00 +1.74945E+01 -5.57850E+00
 +1.82777E+01 -1.60471E+00 +1.81704E+01 +2.44091E+00 +1.71792E+01 +6.36143E+00 +1.53538E+01 +9.96630E+00
 +1.27842E+01 +1.30806E+01 +9.59676E+00 +1.55537E+01 +5.94738E+00 +1.72661E+01 +2.01438E+00 +1.81359E+01
 -2.01045E+00 +1.81219E+01 -5.93115E+00 +1.72263E+01 -9.55714E+00 +1.54940E+01 -1.27125E+01 +1.30106E+01
 -1.52443E+01 +9.89807E+00 -1.70306E+01 +6.30892E+00 -1.79855E+01 +2.41845E+00 -1.80638E+01 -1.58357E+00
 -1.72632E+01 -5.50227E+00 -1.56239E+01 -9.14712E+00 -1.32271E+01 -1.23412E+01 -1.01906E+01 -1.49299E+01
 -6.66297E+00 -1.67881E+01 -2.81675E+00 -1.78267E+01 +1.16048E+00 -1.79963E+01 +5.07501E+00 -1.72901E+01
 +8.73648E+00 -1.57438E+01 +1.19672E+01 -1.34340E+01 +1.46105E+01 -1.04742E+01 +1.65389E+01 -7.00944E+00
 +1.76597E+01 -3.20912E+00 +1.79195E+01 +7.41367E-01 +1.73070E+01 +4.64958E+00 +1.58535E+01 +8.32545E+00
 +1.36310E+01 +1.15905E+01 +1.07488E+01 +1.42865E+01 +7.34820E+00 +1.62833E+01 +3.59540E+00 +1.74846E+01
 -3.26423E-01 +1.78335E+01 -4.22621E+00 +1.73141E+01 -7.91427E+00 +1.59532E+01 -1.12115E+01 +1.38183E+01
 -1.39581E+01 +1.10145E+01 -1.60213E+01 +7.67915E+00 -1.73018E+01 +3.97546E+00 -1.77385E+01 +8.41660E-02
 -1.73115E+01 -3.80512E+00 -1.60429E+01 -7.50317E+00 -1.39959E+01 -1.08304E+01 -1.12711E+01 -1.36254E+01
 -8.00220E+00 -1.57532E+01 -4.34914E+00 -1.71112E+01 -4.90218E-01 -1.76346E+01 +3.38650E+00 -1.72992E+01
 +7.09237E+00 -1.61227E+01 +1.04474E+01 -1.41636E+01 +1.32888E+01 -1.15186E+01 +1.54793E+01 -8.31725E+00
 +1.69132E+01 -4.71631E+00 +1.75220E+01 -8.91556E-01 +1.72774E+01 +2.97057E+00 +1.61926E+01 +6.68211E+00
 +1.43217E+01 +1.00627E+01 +1.17569E+01 +1.29485E+01 +8.62422E+00 +1.51997E+01 +5.07683E+00 +1.67079E+01
 +1.28801E+00 +1.74009E+01 -2.55753E+00 +1.72462E+01 -6.27260E+00 +1.62527E+01 -9.67667E+00 +1.44700E+01
 -1.26046E+01 +1.19861E+01 -1.49147E+01 +8.92301E+00 -1.64956E+01 +5.43057E+00 -1.72714E+01 +1.67941E+00
 -1.72057E+01 -2.14758E+00 -1.63030E+01 -5.86407E+00 -1.46086E+01 -9.28943E+00 -1.22061E+01 -1.22575E+01
 -9.21355E+00 -1.46245E+01 -5.77741E+00 -1.62763E+01 -2.06558E+00 -1.71336E+01 +1.74091E+00 -1.71560E+01
 +5.45673E+00 -1.63437E+01 +8.90124E+00 -1.47376E+01 +1.19073E+01 -1.24169E+01 +1.43293E+01 -9.49577E+00
 +1.60504E+01 -6.11723E+00 +1.69878E+01 -2.44639E+00 +1.70974E+01 +1.33772E+00 +1.63749E+01 +5.05080E+00
 +1.48569E+01 +8.51232E+00 +1.26184E+01 +1.15543E+01 +9.76960E+00 +1.40293E+01 +6.44993E+00 +1.58179E+01
 +2.82166E+00 +1.68341E+01 -9.38187E-01 +1.70298E+01 -4.64649E+00 +1.63965E+01 -8.12291E+00 +1.49666E+01
 -1.11987E+01 +1.28107E+01 -1.37248E+01 +1.00350E+01 -1.55792E+01 +6.77538E+00 -1.66727E+01 +3.19126E+00
 -1.69534E+01 -5.42502E-01 -1.64088E+01 -4.24401E+00 -1.50667E+01 -7.73322E+00 -1.29938E+01 -1.08407E+01
 -1.02919E+01 -1.34159E+01 -7.09349E+00 -1.53344E+01 -3.55503E+00 -1.65038E+01 +1.50842E-01 -1.68684E+01
 +3.84356E+00 -1.64118E+01 +7.34348E+00 -1.51574E+01 +1.04806E+01 -1.31675E+01 +1.31030E+01 -1.05402E+01
 +1.50837E+01 -7.40416E+00 +1.63275E+01 -3.91284E+00 +1.67749E+01 -2.36620E-01 +1.64055E+01 +3.44534E+00
 +1.52386E+01 +6.95389E+00 +1.33321E+01 +1.01186E+01 +1.07799E+01 +1.27861E+01 +7.70731E+00 +1.48273E+01
 +4.26455E+00 +1.61439E+01 +6.19713E-01 +1.66731E+01 -3.04955E+00 +1.63902E+01 -6.56469E+00 +1.53104E+01
 -9.75492E+00 +1.34873E+01 -1.24656E+01 +1.10110E+01 -1.45655E+01 +8.00283E+00 -1.59534E+01 +4.61003E+00
 -1.65631E+01 +9.98271E-01 -1.63659E+01 -2.65639E+00 -1.53728E+01 -6.17607E+00 -1.36334E+01 -9.38976E+00
 -1.12334E+01 -1.21416E+01 -8.29066E+00 -1.42983E+01 -4.94916E+00 -1.57561E+01 -1.37213E+00 -1.64450E+01
 +2.26604E+00 -1.63327E+01 +5.78826E+00 -1.54260E+01 +9.02334E+00 -1.37703E+01 +1.18143E+01 -1.14471E+01
 +1.40262E+01 -8.57071E+00 +1.55521E+01 -5.28183E+00 +1.63190E+01 -1.74114E+00 +1.62908E+01 +1.87870E+00
 +1.54700E+01 +5.40146E+00 +1.38979E+01 +8.65590E+00 +1.16521E+01 +1.14841E+01 +8.84291E+00 +1.37491E+01
 +5.60790E+00 +1.53417E+01 +2.10514E+00 +1.61854E+01 -1.49455E+00 +1.62403E+01 -5.01587E+00 +1.55049E+01
 -8.28764E+00 +1.40164E+01 -1.11511E+01 +1.18483E+01 -1.34675E+01 +9.10720E+00 -1.51250E+01 +5.92728E+00
 -1.60441E+01 +2.46398E+00 -1.61812E+01 -1.11376E+00 -1.55308E+01 -4.63170E+00 -1.41258E+01 -7.91877E+00
 -1.20358E+01 -1.08154E+01 -9.36351E+00 -1.31813E+01 -6.23986E+00 -1.49022E+01 -2.81752E+00 -1.58954E+01
 +7.36515E-01 -1.61137E+01 +4.24914E+00 -1.55477E+01 +7.54953E+00 -1.42261E+01 +1.04774E+01 -1.22145E+01
 +1.28910E+01 -9.61179E+00 +1.46736E+01 -6.54553E+00 +1.57395E+01 -3.16563E+00 +1.60380E+01 +3.62983E-01
 +1.55557E+01 +3.86840E+00 +1.43174E+01 +7.18010E+00 +1.23844E+01 +1.01373E+01 +9.85200E+00 +1.25966E+01
 +6.84421E+00 +1.44393E+01 +3.50816E+00 +1.55765E+01 +6.66635E-03 +1.59541E+01 -3.48965E+00 +1.55550E+01
 -6.81071E+00 +1.43997E+01 -9.79520E+00 +1.25456E+01 -1.22984E+01 +1.00841E+01 -1.41994E+01 +7.13580E+00
 -1.54066E+01 +3.84499E+00 -1.58623E+01 +3.72270E-01 -1.55456E+01 -3.11311E+00 -1.44730E+01 -6.44155E+00
 -1.26980E+01 -9.45138E+00 -1.03080E+01 -1.19967E+01 -7.42022E+00 -1.39543E+01 -4.17598E+00 -1.52299E+01
 -7.33668E-01 -1.57626E+01 +2.73894E+00 -1.55276E+01 +6.07284E+00 -1.45375E+01 +9.10605E+00 -1.28416E+01
 +1.16915E+01 -1.05237E+01 +1.37040E+01 -7.69738E+00 +1.50467E+01 -4.50103E+00 +1.56552E+01 -1.09070E+00
 +1.55011E+01 +2.36733E+00 +1.45931E+01 +5.70477E+00 +1.29765E+01 +8.75941E+00 +1.07312E+01 +1.13831E+01
 +7.96722E+00 +1.34489E+01 +4.82001E+00 +1.48571E+01 +1.44323E+00 +1.55402E+01 -1.99847E+00 +1.54663E+01
 -5.33753E+00 +1.46400E+01 -8.41167E+00 +1.31027E+01 -1.10717E+01 +1.09304E+01 -1.31890E+01 +8.22966E+00
 -1.46612E+01 +5.13281E+00 -1.54179E+01 +1.79109E+00 -1.54232E+01 -1.63252E+00 -1.46782E+01 -4.97133E+00
 -1.32202E+01 -8.06304E+00 -1.11213E+01 -1.07576E+01 -8.48464E+00 -1.29246E+01 -5.43932E+00 -1.44593E+01
 -2.13415E+00 -1.52882E+01 +1.26967E+00 -1.53720E+01 +4.60637E+00 -1.47078E+01 +7.71372E+00 -1.33290E+01
 +1.04409E+01 -1.13039E+01 +1.26558E+01 -8.73209E+00 +1.42516E+01 -5.73944E+00 +1.51514E+01 -2.47226E+00
 +1.53127E+01 +9.10070E-01 +1.47288E+01 +4.24282E+00 +1.34292E+01 +7.36391E+00 +1.14783E+01 +1.01218E+01
 +8.97196E+00 +1.23830E+01 +6.03308E+00 +1.40381E+01 +2.80530E+00 +1.50077E+01 -5.53898E-01 +1.52456E+01
 -3.88088E+00 +1.47414E+01 -7.01382E+00 +1.35208E+01 -9.80061E+00 +1.16443E+01 -1.21062E+01 +9.20419E+00
 -1.38192E+01 +6.32014E+00 -1.48572E+01 +3.13313E+00 -1.51707E+01 -2.01311E-01 -1.47456E+01 -3.52073E+00
 -1.36038E+01 -6.66364E+00 -1.18020E+01 -9.47742E+00 -9.42875E+00 -1.18257E+01 -6.60053E+00 -1.35949E+01
 -3.45563E+00 -1.47000E+01 -1.47532E-01 -1.50881E+01 +3.16255E+00 -1.47416E+01 +6.31357E+00 -1.36784E+01
 +9.15248E+00 -1.19514E+01 +1.15416E+01 -9.64559E+00 +1.33655E+01 -6.87417E+00 +1.45363E+01 -3.77267E+00
 +1.49980E+01 -4.92478E-01 +1.47293E+01 +2.80652E+00 +1.37445E+01 +5.96380E+00 +1.20924E+01 +8.82597E+00
 +9.85468E+00 +1.12543E+01 +7.14099E+00 +1.31312E+01 +4.08413E+00 +1.43663E+01 +8.33377E-01 +1.49005E+01
 -2.45282E+00 +1.47090E+01 -5.61453E+00 +1.38021E+01 -8.49811E+00 +1.22252E+01 -1.09637E+01 +1.00560E+01
 -1.28921E+01 +7.40089E+00 -1.41901E+01 +4.38991E+00 -1.47958E+01 +1.17008E+00 -1.46807E+01 -2.10162E+00
 -1.38515E+01 -5.26594E+00 -1.23497E+01 -8.16910E+00 -1.02495E+01 -1.06703E+01 -7.65383E+00 -1.26484E+01
 -4.68990E+00 -1.40080E+01 -1.50245E+00 -1.46840E+01 +1.75309E+00 -1.46445E+01 +4.91822E+00 -1.38926E+01
 +7.83911E+00 -1.24660E+01 +1.03740E+01 -1.04351E+01 +1.24003E+01 -7.89972E+00 +1.38200E+01 -4.98399E+00
 +1.45652E+01 -1.83035E+00 +1.46005E+01 +1.40738E+00 +1.39255E+01 +4.57157E+00 +1.25740E+01 +7.50837E+00
 +1.06129E+01 +1.00753E+01 +8.13851E+00 +1.21479E+01 +5.27208E+00 +1.36264E+01 +2.15364E+00 +1.44395E+01
 -1.06468E+00 +1.45489E+01 -4.22615E+00 +1.39502E+01 -7.17704E+00 +1.26738E+01 -9.77413E+00 +1.07828E+01
 -1.18916E+01 +8.37015E+00 -1.34272E+01 +5.55407E+00 -1.43072E+01 +2.47219E+00 -1.44896E+01 -7.25123E-01
 -1.39669E+01 -3.88214E+00 -1.27655E+01 -6.84534E+00 -1.09448E+01 -9.47084E+00 -8.59459E+00 -1.16314E+01
 -5.82988E+00 -1.32228E+01 -2.78588E+00 -1.41683E+01 +3.88878E-01 -1.44230E+01 +3.53974E+00 -1.39756E+01
 +6.51343E+00 -1.28490E+01 +9.16557E+00 -1.10990E+01 +1.13676E+01 -8.81177E+00 +1.30132E+01 -6.09942E+00
 +1.40230E+01 -3.09459E+00 +1.43490E+01 +5.60921E-02 +1.39764E+01 +3.19910E+00 +1.29244E+01 +6.18153E+00
 +1.12453E+01 +8.85853E+00 +9.02166E+00 +1.11003E+01 +6.36261E+00 +1.27986E+01 +3.39819E+00 +1.38715E+01
 +2.73086E-01 +1.42678E+01 -2.86040E+00 +1.39694E+01 -5.84980E+00 +1.29918E+01 -8.54990E+00 +1.13837E+01
 -1.08298E+01 +9.22421E+00 -1.25792E+01 +6.61937E+00 -1.37139E+01 +3.69657E+00 -1.41796E+01 +5.98511E-01
 -1.39547E+01 -2.52380E+00 -1.30512E+01 -5.51843E+00 -1.15142E+01 -8.23987E+00 -9.41940E+00 -1.05562E+01
 -6.86962E+00 -1.23552E+01 -3.98962E+00 -1.35504E+01 -9.20044E-01 -1.40844E+01 +2.18948E+00 -1.39323E+01
 +5.18760E+00 -1.31027E+01 +7.92863E+00 -1.16369E+01 +1.02796E+01 -9.60720E+00 +1.21268E+01 -7.11331E+00
 +1.33811E+01 -4.27725E+00 +1.39824E+01 -1.23755E+00 +1.39025E+01 +1.85759E+00 +1.31463E+01 +4.85750E+00
 +1.17517E+01 +7.61637E+00 +9.78758E+00 +1.00004E+01 +7.35035E+00 +1.18941E+01 +4.55934E+00 +1.32061E+01
