 Created: 19-Jan-2021
 $NMID
 ID='D:\BASISSIMULATI'
 FMTDAT='(8E13.5)'
 VOLUME=   1.00000E+00
 TRAMP=   1.00000E+00
 $END
 +1.59874E+02 +7.04709E-01 +1.55038E+02 +3.63655E+01 +1.41567E+02 +6.95734E+01 +1.20436E+02 +9.81741E+01
 +9.31579E+01 +1.20362E+02 +6.16665E+01 +1.34814E+02 +2.81687E+01 +1.40784E+02 -5.02806E+00 +1.38154E+02
 -3.56909E+01 +1.27432E+02 -6.18311E+01 +1.09704E+02 -8.18509E+01 +8.65414E+01 -9.46593E+01 +5.98673E+01
 -9.97446E+01 +3.18032E+01 -9.72011E+01 +4.49751E+00 -8.77065E+01 -2.00433E+01 -7.24534E+01 -4.01099E+01
 -5.30403E+01 -5.44184E+01 -3.13319E+01 -6.22019E+01 -9.30042E+00 -6.32589E+01 +1.11392E+01 -5.79538E+01
 +2.82860E+01 -4.71715E+01 +4.07897E+01 -3.22294E+01 +4.77551E+01 -1.47552E+01 +4.88072E+01 +3.45951E+00
 +4.41110E+01 +2.06163E+01 +3.43461E+01 +3.50662E+01 +2.06366E+01 +4.54499E+01 +4.44571E+00 +5.08121E+01
 -1.25591E+01 +5.06797E+01 -2.86558E+01 +4.50974E+01 -4.22218E+01 +3.46188E+01 -5.18773E+01 +2.02532E+01
 -5.66076E+01 +3.37330E+00 -5.58524E+01 -1.44081E+01 -4.95560E+01 -3.13818E+01 -3.81732E+01 -4.58942E+01
 -2.26317E+01 -5.64940E+01 -4.25195E+00 -6.20626E+01 +1.53651E+01 -6.19147E+01 +3.44767E+01 -5.58625E+01
 +5.13487E+01 -4.42377E+01 +6.44063E+01 -2.78683E+01 +7.23724E+01 -8.01274E+00 +7.43808E+01 +1.37423E+01
 +7.00557E+01 +3.56139E+01 +5.95503E+01 +5.57716E+01 +4.35400E+01 +7.24922E+01 +2.31728E+01 +8.43058E+01
 -2.14446E-02 +9.01222E+01 -2.42540E+01 +8.93266E+01 -4.76232E+01 +8.18359E+01 -6.82702E+01 +6.81116E+01
 -8.45333E+01 +4.91268E+01 -9.50864E+01 +2.62914E+01 -9.90508E+01 +1.34002E+00 -9.60708E+01 -2.38075E+01
 -8.63464E+01 -4.72016E+01 -7.06210E+01 -6.70220E+01 -5.01241E+01 -8.17266E+01 -2.64735E+01 -9.01790E+01
 -1.54592E+00 -9.17431E+01 +2.26749E+01 -8.63363E+01 +4.42587E+01 -7.44393E+01 +6.14863E+01 -5.70587E+01
 +7.29896E+01 -3.56467E+01 +7.78641E+01 -1.19850E+01 +7.57439E+01 +1.19598E+01 +6.68325E+01 +3.41947E+01
 +5.18879E+01 +5.28627E+01 +3.21624E+01 +6.63938E+01 +9.30233E+00 +7.36326E+01 -1.47849E+01 +7.39337E+01
 -3.80845E+01 +6.72141E+01 -5.86371E+01 +5.39619E+01 -7.46969E+01 +3.51974E+01 -8.48736E+01 +1.23916E+01
 -8.82438E+01 -1.26514E+01 -8.44266E+01 -3.79391E+01 -7.36138E+01 -6.14509E+01 -5.65549E+01 -8.12994E+01
 -3.44967E+01 -9.58817E+01 -9.08309E+00 -1.04007E+02 +1.77767E+01 -1.04989E+02 +4.40609E+01 -9.87034E+01
 +6.77965E+01 -8.55900E+01 +8.72152E+01 -6.66192E+01 +1.00894E+02 -4.32104E+01 +1.07862E+02 -1.71161E+01
 +1.07681E+02 +9.71959E+00 +1.00468E+02 +3.53172E+01 +8.68837E+01 +5.78199E+01 +6.80735E+01 +7.56398E+01
 +4.55701E+01 +8.75818E+01 +2.11649E+01 +9.29337E+01 -3.23949E+00 +9.15165E+01 -2.57840E+01 +8.36910E+01
 -4.48034E+01 +7.03195E+01 -5.89583E+01 +5.26877E+01 -6.73397E+01 +3.23922E+01 -6.95354E+01 +1.12035E+01
 -6.56562E+01 -9.08296E+00 -5.63172E+01 -2.67971E+01 -4.25780E+01 -4.05316E+01 -2.58457E+01 -4.92564E+01
 -7.75044E+00 -5.23998E+01 +9.99716E+00 -4.98904E+01 +2.57535E+01 -4.21566E+01 +3.80831E+01 -3.00832E+01
 +4.58804E+01 -1.49301E+01 +4.84634E+01 +1.78101E+00 +4.56294E+01 +1.84010E+01 +3.76709E+01 +3.32986E+01
 +2.53479E+01 +4.50032E+01 +9.82048E+00 +5.23340E+01 -7.45243E+00 +5.45037E+01 -2.48407E+01 +5.11887E+01
 -4.06848E+01 +4.25597E+01 -5.34411E+01 +2.92699E+01 -6.18172E+01 +1.24015E+01 -6.48867E+01 -6.62387E+00
 -6.21733E+01 -2.61648E+01 -5.36971E+01 -4.44991E+01 -3.99789E+01 -5.99703E+01 -2.20028E+01 -7.11296E+01
 -1.13878E+00 -7.68621E+01 +2.09676E+01 -7.64848E+01 +4.25292E+01 -6.98103E+01 +6.17642E+01 -5.71692E+01
 +7.70443E+01 -3.93893E+01 +8.70307E+01 -1.77342E+01 +9.07875E+01 +6.19534E+00 +8.78628E+01 +3.05879E+01
 +7.83308E+01 +5.35667E+01 +6.27907E+01 +7.33404E+01 +4.23227E+01 +8.83487E+01 +1.84057E+01 +9.73891E+01
 -7.19962E+00 +9.97154E+01 -3.25891E+01 +9.51003E+01 -5.58668E+01 +8.38547E+01 -7.52958E+01 +6.68052E+01
 -8.94364E+01 +4.52289E+01 -9.72606E+01 +2.07521E+01 -9.82334E+01 -4.77938E+00 -9.23544E+01 -2.94467E+01
 -8.01557E+01 -5.14112E+01 -6.26579E+01 -6.90600E+01 -4.12858E+01 -8.11338E+01 -1.77525E+01 -8.68243E+01
 +6.07984E+00 -8.58369E+01 +2.83501E+01 -7.84092E+01 +4.73481E+01 -6.52883E+01 +6.16510E+01 -4.76657E+01
 +7.02356E+01 -2.70770E+01 +7.25576E+01 -5.27398E+00 +6.85913E+01 +1.59200E+01 +5.88264E+01 +3.47598E+01
 +4.42231E+01 +4.97202E+01 +2.61286E+01 +5.96198E+01 +6.16230E+00 +6.37145E+01 -1.39205E+01 +6.17557E+01
 -3.23751E+01 +5.40061E+01 -4.76127E+01 +4.12141E+01 -5.83312E+01 +2.45479E+01 -6.36221E+01 +5.49452E+00
 -6.30440E+01 -1.42659E+01 -5.66568E+01 -3.30022E+01 -4.50142E+01 -4.90774E+01 -2.91153E+01 -6.10854E+01
 -1.03191E+01 -6.79686E+01 +9.77065E+00 -6.91047E+01 +2.94407E+01 -6.43590E+01 +4.70118E+01 -5.40934E+01
 +6.09797E+01 -3.91366E+01 +7.01408E+01 -2.07133E+01 +7.36926E+01 -3.41919E-01 +7.13007E+01 +2.02926E+01
 +6.31263E+01 +3.94793E+01 +4.98132E+01 +5.56243E+01 +3.24339E+01 +6.73829E+01 +1.24004E+01 +7.37722E+01
 -8.65284E+00 +7.42524E+01 -2.90050E+01 +6.87717E+01 -4.69911E+01 +5.77708E+01 -6.11407E+01 +4.21462E+01
 -7.02989E+01 +2.31761E+01 -7.37223E+01 +2.41406E+00 -7.11403E+01 -1.84391E+01 -6.27772E+01 -3.76764E+01
 -4.93332E+01 -5.37256E+01 -3.19263E+01 -6.52793E+01 -1.19994E+01 -7.14023E+01 +8.79914E+00 -7.16092E+01
 +2.87521E+01 -6.59031E+01 +4.62154E+01 -5.47757E+01 +5.97537E+01 -3.91652E+01 +6.82590E+01 -2.03788E+01
 +7.10418E+01 +1.63308E-02 +6.78875E+01 +2.03226E+01 +5.90736E+01 +3.88531E+01 +4.53460E+01 +5.40707E+01
 +2.78569E+01 +6.47152E+01 +8.06872E+00 +6.99076E+01 -1.23673E+01 +6.92219E+01 -3.17479E+01 +6.27203E+01
 -4.84586E+01 +5.09473E+01 -6.11079E+01 +3.48843E+01 -6.86415E+01 +1.58680E+01 -7.04300E+01 -4.52056E+00
 -6.63199E+01 -2.45871E+01 -5.66468E+01 -4.26640E+01 -4.22066E+01 -5.72488E+01 -2.41900E+01 -6.71276E+01
 -4.08330E+00 -7.14758E+01 +1.64542E+01 -6.99258E+01 +3.57274E+01 -6.25970E+01 +5.21455E+01 -5.00860E+01
 +6.43535E+01 -3.34165E+01 +7.13432E+01 -1.39549E+01 +7.25366E+01 +6.70248E+00 +6.78333E+01 +2.68618E+01
 +5.76179E+01 +4.48711E+01 +4.27282E+01 +5.92561E+01 +2.43856E+01 +6.88424E+01 +4.09377E+00 +7.28509E+01
 -1.64852E+01 +7.09621E+01 -3.56682E+01 +6.33416E+01 -5.18898E+01 +5.06259E+01 -6.38310E+01 +3.38689E+01
 -7.05275E+01 +1.44547E+01 -7.14483E+01 -6.01737E+00 -6.65394E+01 -2.58646E+01 -5.62264E+01 -4.34601E+01
 -4.13792E+01 -5.73666E+01 -2.32390E+01 -6.64550E+01 -3.31533E+00 -6.99965E+01 +1.67392E+01 -6.77223E+01
 +3.52657E+01 -5.98447E+01 +5.07358E+01 -4.70386E+01 +6.18781E+01 -3.03852E+01 +6.77823E+01 -1.12813E+01
 +6.79742E+01 +8.67628E+00 +6.24542E+01 +2.78233E+01 +5.16961E+01 +4.45657E+01 +3.66076E+01 +5.75118E+01
 +1.84546E+01 +6.55866E+01 -1.24442E+00 +6.81207E+01 -2.08437E+01 +6.49054E+01 -3.87071E+01 +5.62088E+01
 -5.33430E+01 +4.27540E+01 -6.35277E+01 +2.56584E+01 -6.84065E+01 +6.34144E+00 -6.75640E+01 -1.35934E+01
 -6.10581E+01 -3.24907E+01 -4.94155E+01 -4.87800E+01 -3.35870E+01 -6.11055E+01 -1.48700E+01 -6.84376E+01
 +5.19942E+00 -7.01577E+01 +2.49726E+01 -6.61089E+01 +4.28246E+01 -5.66089E+01 +5.72875E+01 -4.24231E+01
 +6.71711E+01 -2.47018E+01 +7.16606E+01 -4.88506E+00 +7.03830E+01 +1.54157E+01 +6.34372E+01 +3.45505E+01
 +5.13854E+01 +5.09658E+01 +3.52058E+01 +6.33322E+01 +1.62122E+01 +7.06527E+01 -4.05479E+00 +7.23438E+01
 -2.39545E+01 +6.82827E+01 -4.18809E+01 +5.88154E+01 -5.63939E+01 +4.47281E+01 -6.63373E+01 +2.71802E+01
 -7.09322E+01 +7.60897E+00 -6.98399E+01 -1.23899E+01 -6.31881E+01 -3.11936E+01 -5.15578E+01 -4.72858E+01
 -3.59347E+01 -5.93806E+01 -1.76254E+01 -6.65273E+01 +1.85079E+00 -6.81873E+01 +2.08888E+01 -6.42763E+01
 +3.79299E+01 -5.51692E+01 +5.15906E+01 -4.16672E+01 +6.07761E+01 -2.49291E+01 +6.47694E+01 -6.37382E+00
 +6.32890E+01 +1.24381E+01 +5.65102E+01 +2.99351E+01 +4.50485E+01 +4.46649E+01 +2.99067E+01 +5.54146E+01
 +1.23895E+01 +6.13114E+01 -6.00630E+00 +6.18931E+01 -2.37174E+01 +5.71458E+01 -3.92446E+01 +4.75034E+01
 -5.12781E+01 +3.38100E+01 -5.88067E+01 +1.72483E+01 -6.12015E+01 -7.60160E-01 -5.82679E+01 -1.86746E+01
 -5.02616E+01 -3.49642E+01 -3.78663E+01 -4.82362E+01 -2.21364E+01 -5.73527E+01 -4.40861E+00 -6.15259E+01
 +1.38102E+01 -6.03842E+01 +3.09687E+01 -5.40035E+01 +4.56015E+01 -4.29012E+01 +5.64512E+01 -2.79938E+01
 +6.25740E+01 -1.05205E+01 +6.34194E+01 +8.05908E+00 +5.88765E+01 +2.61868E+01 +4.92847E+01 +4.23352E+01
 +3.54062E+01 +5.51347E+01 +1.83641E+01 +6.34880E+01 -4.49820E-01 +6.66615E+01 -1.94899E+01 +6.43479E+01
 -3.71839E+01 +5.66920E+01 -5.20628E+01 +4.42805E+01 -6.28824E+01 +2.80948E+01 -6.87265E+01 +9.43079E+00
 -6.90827E+01 -1.02063E+01 -6.38860E+01 -2.92258E+01 -5.35247E+01 -4.60815E+01 -3.88095E+01 -5.93983E+01
 -2.09079E+01 -6.80858E+01 -1.24896E+00 -7.14267E+01 +1.85928E+01 -6.91366E+01 +3.70261E+01 -6.13873E+01
 +5.25725E+01 -4.87925E+01 +6.39868E+01 -3.23580E+01 +7.03587E+01 -1.33999E+01 +7.11858E+01 +6.56361E+00
 +6.64147E+01 +2.59352E+01 +5.64443E+01 +4.31692E+01 +4.20920E+01 +5.68967E+01 +2.45267E+01 +6.60367E+01
 +5.17253E+00 +6.98835E+01 -1.44083E+01 +6.81623E+01 -3.26428E+01 +6.10505E+01 -4.80756E+01 +4.91615E+01
 -5.94871E+01 +3.34924E+01 -6.59920E+01 +1.53411E+01 -6.71098E+01 -3.80093E+00 -6.28023E+01 -2.23720E+01
 -5.34743E+01 -3.88680E+01 -3.99378E+01 -5.19656E+01 -2.33436E+01 -6.06297E+01 -5.08464E+00 -6.41968E+01
 +1.33202E+01 -6.24274E+01 +3.03513E+01 -5.55237E+01 +4.46143E+01 -4.41096E+01 +5.49538E+01 -2.91776E+01
 +6.05481E+01 -1.20042E+01 +6.09748E+01 +5.95717E+00 +5.62444E+01 +2.31974E+01 +4.67965E+01 +3.82774E+01
 +3.34615E+01 +4.99471E+01 +1.73893E+01 +5.72489E+01 -4.71900E-02 +5.95953E+01 -1.73681E+01 +5.68168E+01
 -3.31100E+01 +4.91743E+01 -4.59480E+01 +3.73354E+01 -5.48060E+01 +2.23175E+01 -5.89457E+01 +5.40183E+00
 -5.80274E+01 -1.19748E+01 -5.21373E+01 -2.83403E+01 -4.17795E+01 -4.23103E+01 -2.78328E+01 -5.27041E+01
 -1.14767E+01 -5.86431E+01 +5.90745E+00 -5.96238E+01 +2.28528E+01 -5.55595E+01 +3.79292E+01 -4.67873E+01
 +4.98632E+01 -3.40399E+01 +5.76442E+01 -1.83840E+01 +6.06091E+01 -1.13130E+00 +5.84980E+01 +1.62711E+01
 +5.14756E+01 +3.23614E+01 +4.01185E+01 +4.57852E+01 +2.53669E+01 +5.54085E+01 +8.44681E+00 +6.04126E+01
