 Created: 19-Jan-2021
 $NMID
 ID='D:\BASISSIMULATI'
 FMTDAT='(8E13.5)'
 VOLUME=   1.00000E+00
 TRAMP=   1.00000E+00
 $END
 +9.29298E+01 +9.53559E-01 +8.46957E+01 +1.17145E+01 +6.35019E+01 +2.33069E+01 +3.52594E+01 +3.57387E+01
 +7.38990E+00 +4.72996E+01 -1.36591E+01 +5.49840E+01 -2.43693E+01 +5.57596E+01 -2.48788E+01 +4.80972E+01
 -1.83198E+01 +3.30229E+01 -9.17631E+00 +1.41458E+01 -1.42719E+00 -3.43055E+00 +2.75463E+00 -1.48968E+01
 +3.30343E+00 -1.74850E+01 +1.60960E+00 -1.14416E+01 -6.19494E-01 +1.70410E-01 -2.36167E+00 +1.27319E+01
 -3.67028E+00 +2.18321E+01 -5.34347E+00 +2.47946E+01 -8.14929E+00 +2.13703E+01 -1.20987E+01 +1.34009E+01
 -1.62024E+01 +3.72147E+00 -1.88626E+01 -5.12900E+00 -1.86918E+01 -1.17952E+01 -1.53060E+01 -1.62584E+01
 -9.63905E+00 -1.93108E+01 -3.56953E+00 -2.17379E+01 +9.87636E-01 -2.37012E+01 +3.07477E+00 -2.46578E+01
 +3.24944E+00 -2.38266E+01 +3.38214E+00 -2.08891E+01 +5.74295E+00 -1.64725E+01 +1.17941E+01 -1.20699E+01
 +2.12806E+01 -9.36632E+00 +3.20970E+01 -9.28229E+00 +4.10529E+01 -1.12493E+01 +4.52229E+01 -1.31643E+01
 +4.32677E+01 -1.21627E+01 +3.60965E+01 -5.93267E+00 +2.65270E+01 +6.01234E+00 +1.80637E+01 +2.17352E+01
 +1.33353E+01 +3.73171E+01 +1.29078E+01 +4.82451E+01 +1.50386E+01 +5.12011E+01 +1.65053E+01 +4.54817E+01
 +1.41515E+01 +3.34006E+01 +6.44517E+00 +1.94476E+01 -5.67044E+00 +8.52074E+00 -1.90400E+01 +3.96631E+00
 -2.95754E+01 +6.26223E+00 -3.39854E+01 +1.29096E+01 -3.11841E+01 +1.95765E+01 -2.27478E+01 +2.19956E+01
 -1.22220E+01 +1.77943E+01 -3.59944E+00 +7.47972E+00 +3.44807E-01 -5.81914E+00 -8.78162E-01 -1.77029E+01
 -5.45034E+00 -2.43322E+01 -1.02416E+01 -2.39432E+01 -1.23294E+01 -1.74281E+01 -1.03325E+01 -7.79849E+00
 -4.95906E+00 +1.15647E+00 +1.44818E+00 +6.38436E+00 +6.11360E+00 +6.60080E+00 +7.18957E+00 +2.46062E+00
 +4.63533E+00 -4.08567E+00 +2.24134E-01 -1.08394E+01 -3.29058E+00 -1.62574E+01 -3.42985E+00 -1.98032E+01
 +9.30191E-01 -2.16670E+01 +9.13334E+00 -2.21192E+01 +1.91202E+01 -2.09429E+01 +2.83675E+01 -1.73232E+01
 +3.49007E+01 -1.02942E+01 +3.78982E+01 +4.87601E-01 +3.76460E+01 +1.40909E+01 +3.49577E+01 +2.82009E+01
 +3.04476E+01 +3.97207E+01 +2.41071E+01 +4.58829E+01 +1.54464E+01 +4.53848E+01 +4.13359E+00 +3.90014E+01
 -9.24482E+00 +2.93401E+01 -2.27850E+01 +1.97975E+01 -3.35650E+01 +1.31574E+01 -3.86287E+01 +1.04626E+01
 -3.62677E+01 +1.06859E+01 -2.70013E+01 +1.13632E+01 -1.37301E+01 +9.90416E+00 -8.77323E-01 +4.96483E+00
 +7.20719E+00 -2.77427E+00 +7.93880E+00 -1.08161E+01 +1.55657E+00 -1.59718E+01 -8.94143E+00 -1.58951E+01
 -1.90002E+01 -1.03103E+01 -2.43622E+01 -1.33956E+00 -2.27928E+01 +7.26164E+00 -1.49426E+01 +1.16503E+01
 -3.98223E+00 +9.54775E+00 +5.81751E+00 +1.25959E+00 +1.09327E+01 -1.03982E+01 +1.00553E+01 -2.12429E+01
 +4.56136E+00 -2.74394E+01 -2.19214E+00 -2.70341E+01 -6.39489E+00 -2.06532E+01 -5.44057E+00 -1.10862E+01
 +1.00933E+00 -1.98058E+00 +1.09845E+01 +3.74603E+00 +2.11450E+01 +5.06892E+00 +2.82292E+01 +3.10792E+00
 +3.03425E+01 +4.14792E-01 +2.75405E+01 -3.21736E-01 +2.15149E+01 +2.47002E+00 +1.46195E+01 +8.59661E+00
 +8.75072E+00 +1.63068E+01 +4.62298E+00 +2.31907E+01 +1.73818E+00 +2.72945E+01 -1.01892E+00 +2.79078E+01
 -4.53540E+00 +2.56791E+01 -8.85332E+00 +2.20673E+01 -1.31098E+01 +1.84685E+01 -1.60478E+01 +1.54980E+01
 -1.67969E+01 +1.28013E+01 -1.54737E+01 +9.46724E+00 -1.32412E+01 +4.78842E+00 -1.17569E+01 -1.07734E+00
 -1.22721E+01 -6.94240E+00 -1.48532E+01 -1.10567E+01 -1.81662E+01 -1.19972E+01 -1.99982E+01 -9.52208E+00
 -1.83170E+01 -4.91430E+00 -1.23771E+01 -5.70572E-01 -3.31265E+00 +1.03423E+00 +6.12698E+00 -1.45476E+00
 +1.26491E+01 -7.49537E+00 +1.38510E+01 -1.47139E+01 +9.36629E+00 -1.98538E+01 +1.17179E+00 -2.02233E+01
 -7.13330E+00 -1.49958E+01 -1.17995E+01 -5.74388E+00 -1.05180E+01 +4.08675E+00 -3.42551E+00 +1.05811E+01
 +6.93560E+00 +1.10461E+01 +1.66966E+01 +5.24413E+00 +2.23112E+01 -4.39464E+00 +2.20468E+01 -1.37014E+01
 +1.66605E+01 -1.84591E+01 +8.97296E+00 -1.61344E+01 +2.54501E+00 -6.91141E+00 +6.46384E-02 +6.40447E+00
 +2.16775E+00 +1.95509E+01 +7.20995E+00 +2.85198E+01 +1.20669E+01 +3.10759E+01 +1.35779E+01 +2.74561E+01
 +9.97043E+00 +2.00069E+01 +1.63228E+00 +1.19919E+01 -9.08461E+00 +6.14844E+00 -1.88999E+01 +3.64054E+00
 -2.49803E+01 +3.83166E+00 -2.60308E+01 +4.89337E+00 -2.26417E+01 +4.88445E+00 -1.68017E+01 +2.74613E+00
 -1.08724E+01 -1.25403E+00 -6.54505E+00 -5.79276E+00 -4.26617E+00 -9.27637E+00 -3.34947E+00 -1.06979E+01
 -2.63881E+00 -1.01162E+01 -1.31910E+00 -8.52641E+00 +5.75621E-01 -7.22395E+00 +2.22153E+00 -7.02713E+00
 +2.57835E+00 -7.79726E+00 +1.13892E+00 -8.52819E+00 -1.58440E+00 -7.96884E+00 -4.14278E+00 -5.44610E+00
 -4.80686E+00 -1.42914E+00 -2.48326E+00 +2.50957E+00 +2.58587E+00 +4.37807E+00 +8.73975E+00 +2.79229E+00
 +1.35406E+01 -2.16194E+00 +1.48821E+01 -8.70060E+00 +1.20490E+01 -1.39338E+01 +6.19543E+00 -1.50711E+01
 -3.96686E-02 -1.07152E+01 -3.66344E+00 -1.63632E+00 -2.71756E+00 +9.37344E+00 +2.71525E+00 +1.85582E+01
 +1.03834E+01 +2.27396E+01 +1.67283E+01 +2.06686E+01 +1.83944E+01 +1.35795E+01 +1.37319E+01 +4.67718E+00
 +3.61750E+00 -2.23209E+00 -8.79377E+00 -4.37443E+00 -1.93054E+01 -1.18644E+00 -2.43812E+01 +5.47982E+00
 -2.25798E+01 +1.22097E+01 -1.51051E+01 +1.55500E+01 -5.24600E+00 +1.35246E+01 +3.03545E+00 +6.47422E+00
 +6.74009E+00 -3.13202E+00 +4.98827E+00 -1.18019E+01 -7.76071E-01 -1.65281E+01 -7.57080E+00 -1.60229E+01
 -1.22532E+01 -1.11511E+01 -1.28544E+01 -4.41422E+00 -9.29405E+00 +1.23309E+00 -3.21009E+00 +3.66797E+00
 +2.94175E+00 +2.40939E+00 +7.04917E+00 -1.37091E+00 +8.21117E+00 -5.57285E+00 +6.94204E+00 -8.22958E+00
 +4.68581E+00 -8.38091E+00 +2.94906E+00 -6.36426E+00 +2.52212E+00 -3.44054E+00 +3.17825E+00 -1.00598E+00
 +3.96807E+00 +1.69643E-01 +3.90776E+00 +2.79880E-01 +2.65670E+00 +2.39332E-01 +7.95423E-01 +1.02407E+00
 -4.63086E-01 +2.98057E+00 +1.63630E-02 +5.50548E+00 +2.54433E+00 +7.29950E+00 +6.24820E+00 +7.08538E+00
 +9.34133E+00 +4.41639E+00 +9.93734E+00 +1.25057E-01 +7.03010E+00 -3.87794E+00 +1.14270E+00 -5.42289E+00
 -5.72140E+00 -3.15868E+00 -1.08667E+01 +2.63620E+00 -1.21091E+01 +9.94597E+00 -8.84236E+00 +1.57373E+01
 -2.44413E+00 +1.72360E+01 +4.21741E+00 +1.32037E+01 +8.00053E+00 +4.61866E+00 +6.90555E+00 -5.58994E+00
 +1.04552E+00 -1.36858E+01 -7.29306E+00 -1.66742E+01 -1.45639E+01 -1.35815E+01 -1.74706E+01 -5.89163E+00
 -1.44149E+01 +3.06781E+00 -6.23725E+00 +9.53255E+00 +4.08655E+00 +1.08912E+01 +1.26714E+01 +6.76380E+00
 +1.63386E+01 -8.95020E-01 +1.39199E+01 -8.69731E+00 +6.69123E+00 -1.33137E+01 -2.23150E+00 -1.28902E+01
 -9.24531E+00 -7.77400E+00 -1.17541E+01 -2.58713E-01 -9.15729E+00 +6.49945E+00 -2.93677E+00 +9.87874E+00
 +4.13871E+00 +8.87269E+00 +9.28443E+00 +4.39690E+00 +1.08543E+01 -1.26418E+00 +8.88131E+00 -5.56483E+00
 +4.82062E+00 -6.82293E+00 +6.91431E-01 -4.85435E+00 -1.92387E+00 -8.71398E-01 -2.53602E+00 +3.23925E+00
 -1.77991E+00 +5.86085E+00 -8.69124E-01 +6.34079E+00 -8.08001E-01 +5.12261E+00 -1.79805E+00 +3.30788E+00
 -3.15020E+00 +1.93088E+00 -3.73338E+00 +1.36083E+00 -2.69902E+00 +1.15760E+00 -7.19136E-02 +4.47992E-01
 +3.13472E+00 -1.40133E+00 +5.37104E+00 -4.21000E+00 +5.35482E+00 -6.86403E+00 +2.81227E+00 -7.77022E+00
 -1.25171E+00 -5.69303E+00 -4.93741E+00 -5.54161E-01 -6.34204E+00 +6.24627E+00 -4.53991E+00 +1.22207E+01
 -1.56350E-01 +1.47879E+01 +4.78836E+00 +1.24463E+01 +7.74662E+00 +5.57833E+00 +6.85076E+00 -3.52903E+00
 +1.89722E+00 -1.15192E+01 -5.38342E+00 -1.53315E+01 -1.19495E+01 -1.35089E+01 -1.47312E+01 -6.85902E+00
 -1.20182E+01 +1.84890E+00 -4.32301E+00 +9.04144E+00 +5.69649E+00 +1.18579E+01 +1.42587E+01 +9.36160E+00
 +1.80031E+01 +2.91072E+00 +1.53943E+01 -4.47308E+00 +7.37477E+00 -9.45408E+00 -3.02007E+00 -9.84726E+00
 -1.19149E+01 -5.55061E+00 -1.61700E+01 +1.45661E+00 -1.46034E+01 +8.02835E+00 -8.35119E+00 +1.12522E+01
 -2.50857E-01 +9.70407E+00 +6.44294E+00 +4.00948E+00 +9.42120E+00 -3.50732E+00 +8.17274E+00 -9.89107E+00
 +3.99501E+00 -1.28329E+01 -7.72658E-01 -1.15827E+01 -3.88740E+00 -7.11736E+00 -4.17033E+00 -1.54490E+00
 -1.88219E+00 +2.92641E+00 +1.60511E+00 +4.94983E+00 +4.61336E+00 +4.49765E+00 +6.00323E+00 +2.65055E+00
 +5.64089E+00 +8.86778E-01 +4.28869E+00 +2.69468E-01 +3.02955E+00 +9.50881E-01 +2.57079E+00 +2.22298E+00
 +2.81969E+00 +3.04680E+00 +2.96355E+00 +2.74251E+00 +2.00632E+00 +1.44504E+00 -5.40413E-01 +6.27407E-02
 -4.20839E+00 -2.49736E-01 -7.64561E+00 +1.17688E+00 -9.21921E+00 +3.99866E+00 -7.86798E+00 +6.85524E+00
 -3.76746E+00 +7.94913E+00 +1.56612E+00 +5.95715E+00 +5.84643E+00 +8.26240E-01 +7.03965E+00 -5.97297E+00
 +4.37105E+00 -1.19224E+01 -1.18087E+00 -1.45002E+01 -7.18463E+00 -1.23372E+01 -1.07679E+01 -5.94481E+00
 -9.91371E+00 +2.35960E+00 -4.45429E+00 +9.34644E+00 +3.71551E+00 +1.22224E+01 +1.13434E+01 +9.84244E+00
 +1.51679E+01 +3.23490E+00 +1.33324E+01 -4.81670E+00 +6.24018E+00 -1.09682E+01 -3.53712E+00 -1.27664E+01
 -1.22728E+01 -9.71280E+00 -1.65892E+01 -3.46522E+00 -1.48074E+01 +2.91773E+00 -7.57038E+00 +6.35226E+00
 +2.50505E+00 +5.11460E+00 +1.19657E+01 -3.77349E-01 +1.79290E+01 -7.72574E+00 +1.91450E+01 -1.35766E+01
 +1.62818E+01 -1.50472E+01 +1.13684E+01 -1.09331E+01 +6.71276E+00 -2.18601E+00 +3.82566E+00 +8.50948E+00
 +2.84613E+00 +1.78359E+01 +2.69577E+00 +2.31163E+01 +1.83203E+00 +2.32183E+01 -8.09793E-01 +1.87515E+01
 -5.16631E+00 +1.15583E+01 -1.00038E+01 +3.81408E+00 -1.34899E+01 -2.81388E+00 -1.40809E+01 -7.58064E+00
 -1.12813E+01 -1.05406E+01 -5.90312E+00 -1.20596E+01 +2.89449E-01 -1.23083E+01 +5.36327E+00 -1.10574E+01
 +8.03460E+00 -7.89825E+00 +8.12783E+00 -2.74860E+00 +6.47196E+00 +3.68319E+00 +4.32275E+00 +9.80626E+00
 +2.63707E+00 +1.35767E+01 +1.59355E+00 +1.33152E+01 +6.14678E-01 +8.54582E+00 -1.12697E+00 +4.25632E-01
 -4.00423E+00 -8.50667E+00 -7.44073E+00 -1.52300E+01 -9.94407E+00 -1.74361E+01 -9.71916E+00 -1.45010E+01
 -5.60246E+00 -7.78174E+00 +2.14090E+00 -7.26553E-02 +1.15952E+01 +5.56703E+00 +1.97408E+01 +7.11130E+00
 +2.36033E+01 +4.41699E+00 +2.15309E+01 -7.56200E-01 +1.40255E+01 -5.56682E+00 +3.71245E+00 -7.38517E+00
