 Created: 19-Jan-2021
 $NMID
 ID='D:\BASISSIMULATI'
 FMTDAT='(8E13.5)'
 VOLUME=   1.00000E+00
 TRAMP=   1.00000E+00
 $END
 +7.75115E+01 +1.11210E+00 +6.98942E+01 +1.08639E+01 +4.99533E+01 +2.04919E+01 +2.30726E+01 +2.95495E+01
 -3.87968E+00 +3.67322E+01 -2.47342E+01 +4.01794E+01 -3.58071E+01 +3.82538E+01 -3.66820E+01 +3.04332E+01
 -2.97989E+01 +1.78578E+01 -1.91285E+01 +3.21216E+00 -8.53875E+00 -1.00845E+01 -5.14205E-01 -1.90733E+01
 +4.33037E+00 -2.23305E+01 +6.88153E+00 -2.04437E+01 +8.61329E+00 -1.56559E+01 +1.06330E+01 -1.08158E+01
 +1.31421E+01 -8.08451E+00 +1.55129E+01 -7.97363E+00 +1.68532E+01 -9.15344E+00 +1.66944E+01 -9.13175E+00
 +1.53929E+01 -5.51297E+00 +1.40050E+01 +2.72401E+00 +1.36868E+01 +1.45144E+01 +1.49336E+01 +2.69105E+01
 +1.70805E+01 +3.61476E+01 +1.83801E+01 +3.91383E+01 +1.66950E+01 +3.47591E+01 +1.05335E+01 +2.43721E+01
 -4.17615E-02 +1.13441E+01 -1.30841E+01 -2.46649E-01 -2.52311E+01 -7.17693E+00 -3.28386E+01 -8.26671E+00
 -3.33407E+01 -4.70110E+00 -2.62724E+01 +6.26875E-01 -1.35138E+01 +4.44920E+00 +1.36335E+00 +4.54858E+00
 +1.43876E+01 +6.71300E-01 +2.25874E+01 -5.44012E+00 +2.49274E+01 -1.08727E+01 +2.24200E+01 -1.28383E+01
 +1.74091E+01 -9.86395E+00 +1.23856E+01 -2.37512E+00 +8.88184E+00 +7.54379E+00 +6.93437E+00 +1.70578E+01
 +5.33068E+00 +2.37225E+01 +2.48138E+00 +2.63484E+01 -2.52885E+00 +2.52380E+01 -9.24011E+00 +2.17528E+01
 -1.58270E+01 +1.74836E+01 -1.98421E+01 +1.34595E+01 -1.93631E+01 +9.78768E+00 -1.40090E+01 +5.87730E+00
 -5.32955E+00 +1.09365E+00 +3.65408E+00 -4.53355E+00 +9.60154E+00 -9.96135E+00 +1.02199E+01 -1.33815E+01
 +5.25421E+00 -1.30005E+01 -3.34045E+00 -8.00237E+00 -1.21409E+01 +7.81870E-01 -1.76140E+01 +1.08750E+01
 -1.75253E+01 +1.89134E+01 -1.18124E+01 +2.19042E+01 -2.56544E+00 +1.84678E+01 +6.85939E+00 +9.52229E+00
 +1.32000E+01 -1.92153E+00 +1.45436E+01 -1.18179E+01 +1.09612E+01 -1.65931E+01 +4.29100E+00 -1.44974E+01
 -2.78222E+00 -6.25220E+00 -7.91138E+00 +5.26771E+00 -1.00043E+01 +1.61751E+01 -9.49337E+00 +2.30538E+01
 -7.89002E+00 +2.41746E+01 -6.88788E+00 +1.99642E+01 -7.46903E+00 +1.25834E+01 -9.44482E+00 +4.85090E+00
 -1.16334E+01 -9.79333E-01 -1.25598E+01 -4.04898E+00 -1.13082E+01 -4.99822E+00 -8.08545E+00 -5.35381E+00
 -4.19608E+00 -6.54256E+00 -1.42328E+00 -9.03089E+00 -1.10681E+00 -1.20141E+01 -3.37396E+00 -1.38046E+01
 -6.92495E+00 -1.27258E+01 -9.52355E+00 -8.07273E+00 -9.00941E+00 -6.56254E-01 -4.38686E+00 +7.35846E+00
 +3.51961E+00 +1.32829E+01 +1.21824E+01 +1.50483E+01 +1.82653E+01 +1.21452E+01 +1.89507E+01 +5.91948E+00
 +1.31442E+01 -9.35662E-01 +2.03510E+00 -5.49231E+00 -1.12483E+01 -5.83217E+00 -2.27664E+01 -1.88061E+00
 -2.92245E+01 +4.53688E+00 -2.91598E+01 +1.04465E+01 -2.33816E+01 +1.29647E+01 -1.45037E+01 +1.04932E+01
 -5.79532E+00 +3.36412E+00 +1.42408E-01 -6.32450E+00 +2.31555E+00 -1.55876E+01 +1.51804E+00 -2.17462E+01
 -2.72137E-01 -2.34128E+01 -9.64077E-01 -2.08629E+01 +6.16457E-01 -1.56750E+01 +4.20442E+00 -9.85713E+00
 +8.29377E+00 -4.89851E+00 +1.09298E+01 -1.19759E+00 +1.06964E+01 +1.88160E+00 +7.42052E+00 +5.38619E+00
 +2.25822E+00 +9.92529E+00 -2.86896E+00 +1.50485E+01 -6.21046E+00 +1.91981E+01 -7.03778E+00 +2.03040E+01
 -5.99125E+00 +1.67694E+01 -4.74214E+00 +8.38918E+00 -5.11654E+00 -3.25623E+00 -8.09124E+00 -1.51698E+01
 -1.31469E+01 -2.39668E+01 -1.83129E+01 -2.71545E+01 -2.09255E+01 -2.41221E+01 -1.87918E+01 -1.64041E+01
 -1.12495E+01 -7.08331E+00 +3.57674E-01 +4.29812E-01 +1.30268E+01 +3.73720E+00 +2.31486E+01 +2.35347E+00
 +2.78379E+01 -2.20355E+00 +2.59939E+01 -7.15359E+00 +1.86510E+01 -9.69295E+00 +8.49215E+00 -8.19335E+00
 -1.25276E+00 -2.85350E+00 -8.04150E+00 +4.45289E+00 -1.08698E+01 +1.10329E+01 -1.04061E+01 +1.45328E+01
 -8.40797E+00 +1.38830E+01 -6.73231E+00 +9.62905E+00 -6.41941E+00 +3.54257E+00 -7.26958E+00 -2.26867E+00
 -8.08425E+00 -6.31296E+00 -7.42147E+00 -8.28337E+00 -4.47250E+00 -8.99572E+00 +3.86671E-01 -9.75819E+00
 +5.65480E+00 -1.15085E+01 +9.36386E+00 -1.41652E+01 +1.00300E+01 -1.65330E+01 +7.43834E+00 -1.68348E+01
 +2.86569E+00 -1.36295E+01 -1.39979E+00 -6.67929E+00 -3.05677E+00 +2.67041E+00 -8.68762E-01 +1.18236E+01
 +4.67229E+00 +1.78787E+01 +1.14223E+01 +1.87987E+01 +1.64045E+01 +1.42953E+01 +1.70427E+01 +6.02525E+00
 +1.22851E+01 -3.01250E+00 +3.13125E+00 -9.64391E+00 -7.67718E+00 -1.17647E+01 -1.66820E+01 -9.13972E+00
 -2.10263E+01 -3.42296E+00 -1.95172E+01 +2.59971E+00 -1.30021E+01 +6.20968E+00 -3.92701E+00 +5.87794E+00
 +4.70615E+00 +1.83702E+00 +1.05181E+01 -4.11988E+00 +1.25670E+01 -9.49259E+00 +1.14819E+01 -1.21795E+01
 +8.91468E+00 -1.13394E+01 +6.61220E+00 -7.64166E+00 +5.56441E+00 -2.82763E+00 +5.62340E+00 +1.17892E+00
 +5.74627E+00 +3.17774E+00 +4.70872E+00 +3.18668E+00 +1.90985E+00 +2.30516E+00 -2.15231E+00 +2.03241E+00
 -5.99230E+00 +3.38820E+00 -7.80493E+00 +6.27874E+00 -6.37967E+00 +9.43409E+00 -1.81711E+00 +1.09699E+01
 +4.32302E+00 +9.32365E+00 +9.55906E+00 +4.12369E+00 +1.15082E+01 -3.43507E+00 +8.95280E+00 -1.09233E+01
 +2.47118E+00 -1.56083E+01 -5.67345E+00 -1.55964E+01 -1.23726E+01 -1.06843E+01 -1.49062E+01 -2.53368E+00
 -1.20547E+01 +5.93380E+00 -4.61748E+00 +1.16790E+01 +4.88610E+00 +1.27500E+01 +1.32064E+01 +9.03996E+00
 +1.76280E+01 +2.28251E+00 +1.69796E+01 -4.70407E+00 +1.19823E+01 -9.19019E+00 +4.81983E+00 -9.62125E+00
 -1.84903E+00 -6.16293E+00 -5.98593E+00 -4.98948E-01 -6.90274E+00 +4.99351E+00 -5.33714E+00 +8.29973E+00
 -2.89202E+00 +8.57912E+00 -1.14313E+00 +6.38844E+00 -8.55550E-01 +3.25365E+00 -1.67783E+00 +8.28589E-01
 -2.44022E+00 +6.03123E-02 -1.88733E+00 +7.62749E-01 +5.35577E-01 +1.79412E+00 +4.24951E+00 +1.73787E+00
 +7.69924E+00 -2.58511E-01 +9.05144E+00 -3.91201E+00 +7.11511E+00 -7.80153E+00 +2.04274E+00 -9.96494E+00
 -4.54590E+00 -8.83534E+00 -1.01200E+01 -4.08078E+00 -1.22636E+01 +3.06303E+00 -9.73418E+00 +1.01591E+01
 -3.08229E+00 +1.45114E+01 +5.46219E+00 +1.42910E+01 +1.28162E+01 +9.35632E+00 +1.62504E+01 +1.39427E+00
 +1.44727E+01 -6.69882E+00 +8.13429E+00 -1.19516E+01 -4.52812E-01 -1.24939E+01 -8.25858E+00 -8.28170E+00
 -1.27331E+01 -1.07109E+00 -1.27551E+01 +6.33620E+00 -8.94695E+00 +1.12427E+01 -3.25784E+00 +1.21079E+01
 +1.96504E+00 +9.06737E+00 +4.98472E+00 +3.72740E+00 +5.31726E+00 -1.63632E+00 +3.75037E+00 -5.09212E+00
 +1.77547E+00 -5.82169E+00 +7.39019E-01 -4.32080E+00 +1.13740E+00 -1.98128E+00 +2.39603E+00 -2.90798E-01
 +3.23078E+00 -5.49921E-02 +2.40347E+00 -1.02022E+00 -5.12198E-01 -2.07136E+00 -4.74881E+00 -1.89490E+00
 -8.56391E+00 +2.31393E-01 -9.98891E+00 +3.92728E+00 -7.77711E+00 +7.75285E+00 -2.10806E+00 +9.81626E+00
 +5.30310E+00 +8.68053E+00 +1.17834E+01 +4.14491E+00 +1.47500E+01 -2.48539E+00 +1.27887E+01 -8.80705E+00
 +6.29672E+00 -1.22630E+01 -2.60294E+00 -1.12300E+01 -1.08547E+01 -5.77233E+00 -1.56484E+01 +2.28304E+00
 -1.54932E+01 +1.00103E+01 -1.07438E+01 +1.45248E+01 -3.37528E+00 +1.41270E+01 +3.87617E+00 +8.97317E+00
 +8.62332E+00 +9.91625E-01 +9.71381E+00 -6.90949E+00 +7.53333E+00 -1.20032E+01 +3.63818E+00 -1.27819E+01
 -7.22825E-02 -9.44949E+00 -2.24022E+00 -3.68980E+00 -2.58467E+00 +2.14770E+00 -1.86383E+00 +6.06214E+00
 -1.32022E+00 +7.16470E+00 -1.90942E+00 +5.87783E+00 -3.70996E+00 +3.52728E+00 -5.81713E+00 +1.56308E+00
 -6.78313E+00 +8.05575E-01 -5.39457E+00 +1.08204E+00 -1.40448E+00 +1.41770E+00 +4.15641E+00 +6.69291E-01
 +9.27624E+00 -1.73003E+00 +1.17694E+01 -5.30376E+00 +1.02497E+01 -8.60286E+00 +4.82835E+00 -9.81505E+00
 -2.79954E+00 -7.64770E+00 -9.95296E+00 -2.07097E+00 -1.40167E+01 +5.44907E+00 -1.35061E+01 +1.23801E+01
 -8.68763E+00 +1.60708E+01 -1.48115E+00 +1.48302E+01 +5.32166E+00 +8.67420E+00 +9.19365E+00 -5.90031E-01
 +8.88209E+00 -1.00006E+01 +4.86796E+00 -1.65437E+01 -9.07842E-01 -1.82720E+01 -5.91622E+00 -1.49825E+01
 -8.12003E+00 -8.19089E+00 -6.79391E+00 -4.37964E-01 -2.74232E+00 +5.75219E+00 +2.15150E+00 +8.81319E+00
 +5.81717E+00 +8.59193E+00 +6.91433E+00 +6.16720E+00 +5.36542E+00 +3.16857E+00 +2.28244E+00 +9.47256E-01
 -6.50594E-01 -4.57937E-03 -2.03015E+00 -1.30414E-01 -1.41232E+00 -3.81414E-01 +4.98897E-01 -1.53206E+00
 +2.23466E+00 -3.61098E+00 +2.32572E+00 -5.75936E+00 +7.87172E-02 -6.61485E+00 -4.00984E+00 -5.05178E+00
 -8.40613E+00 -9.15176E-01 -1.11964E+01 +4.63704E+00 -1.09493E+01 +9.40637E+00 -7.38577E+00 +1.09837E+01
 -1.54139E+00 +7.81002E+00 +4.65696E+00 +7.53095E-03 +9.21329E+00 -1.04134E+01 +1.09087E+01 -2.01152E+01
 +9.78519E+00 -2.55849E+01 +7.04772E+00 -2.44390E+01 +4.43148E+00 -1.63647E+01 +3.33274E+00 -3.31591E+00
 +4.11142E+00 +1.11199E+01 +5.89904E+00 +2.29378E+01 +7.01288E+00 +2.90434E+01 +5.79520E+00 +2.81910E+01
 +1.49308E+00 +2.12104E+01 -5.23525E+00 +1.04964E+01 -1.24416E+01 -9.71000E-01 -1.76105E+01 -1.06474E+01
 -1.86829E+01 -1.70911E+01 -1.49389E+01 -2.00742E+01 -7.34596E+00 -2.02043E+01 +1.78630E+00 -1.83254E+01
 +9.70755E+00 -1.50358E+01 +1.42988E+01 -1.05506E+01 +1.48582E+01 -4.93010E+00 +1.22702E+01 +1.51221E+00
 +8.49898E+00 +7.91083E+00 +5.64387E+00 +1.28927E+01 +4.98350E+00 +1.50137E+01 +6.43098E+00 +1.34156E+01
 +8.63455E+00 +8.38308E+00 +9.66535E+00 +1.48739E+00 +7.97230E+00 -4.83124E+00 +3.16810E+00 -8.13540E+00
 -3.70936E+00 -6.98134E+00 -1.05774E+01 -1.60446E+00 -1.51603E+01 +6.02768E+00 -1.59330E+01 +1.28692E+01
 -1.27419E+01 +1.59310E+01 -6.83649E+00 +1.34551E+01 -3.09913E-01 +5.64976E+00 +4.79163E+00 -5.32132E+00
 +7.29250E+00 -1.61046E+01 +7.28713E+00 -2.33726E+01 +5.95866E+00 -2.50052E+01 +4.92433E+00 -2.07728E+01
 +5.42406E+00 -1.22726E+01 +7.72724E+00 -2.18405E+00 +1.10200E+01 +6.81306E+00 +1.38052E+01 +1.29911E+01
 +1.46114E+01 +1.60159E+01 +1.26693E+01 +1.67365E+01 +8.24362E+00 +1.64817E+01 +2.48030E+00 +1.62293E+01
 -3.13739E+00 +1.60570E+01 -7.44387E+00 +1.51305E+01 -1.00330E+01 +1.22251E+01 -1.12741E+01 +6.51564E+00
 -1.19093E+01 -1.75636E+00 -1.24528E+01 -1.10814E+01 -1.27250E+01 -1.90751E+01 -1.17977E+01 -2.33239E+01
 -8.42750E+00 -2.23281E+01 -1.80658E+00 -1.61373E+01 +7.72525E+00 -6.40005E+00 +1.83859E+01 +4.20120E+00
 +2.72947E+01 +1.28959E+01 +3.13978E+01 +1.77634E+01 +2.86463E+01 +1.82916E+01 +1.89459E+01 +1.53592E+01
