 Created: 19-Jan-2021
 $NMID
 ID='D:\BASISSIMULATI'
 FMTDAT='(8E13.5)'
 VOLUME=   1.00000E+00
 TRAMP=   1.00000E+00
 $END
 +3.13285E+01 +1.95547E-01 +2.56399E+01 +1.62289E+01 +1.16204E+01 +2.54326E+01 -4.71443E+00 +2.41769E+01
 -1.64179E+01 +1.33414E+01 -1.86047E+01 -2.09156E+00 -1.05395E+01 -1.52072E+01 +4.07260E+00 -2.01471E+01
 +1.87079E+01 -1.46268E+01 +2.68505E+01 -8.99843E-01 +2.47984E+01 +1.52360E+01 +1.32429E+01 +2.69528E+01
 -3.05175E+00 +2.93345E+01 -1.73190E+01 +2.14797E+01 -2.37096E+01 +6.86410E+00 -1.97986E+01 -8.18141E+00
 -7.60326E+00 -1.72117E+01 +7.31633E+00 -1.64395E+01 +1.82744E+01 -6.34588E+00 +2.03457E+01 +8.55572E+00
 +1.24748E+01 +2.16891E+01 -2.09322E+00 +2.72591E+01 -1.72343E+01 +2.27411E+01 -2.65968E+01 +9.94740E+00
 -2.63326E+01 -5.77937E+00 -1.67334E+01 -1.78846E+01 -2.07481E+00 -2.14258E+01 +1.12502E+01 -1.51830E+01
 +1.74958E+01 -2.15343E+00 +1.40286E+01 +1.17705E+01 +2.43657E+00 +2.03590E+01 -1.21854E+01 +1.97282E+01
 -2.34531E+01 +9.99536E+00 -2.64486E+01 -4.79885E+00 -1.98245E+01 -1.84547E+01 -6.35803E+00 -2.52926E+01
 +8.27232E+00 -2.25881E+01 +1.79481E+01 -1.17184E+01 +1.87412E+01 +2.46382E+00 +1.05820E+01 +1.37445E+01
 -2.74495E+00 +1.72304E+01 -1.52610E+01 +1.14420E+01 -2.13839E+01 -1.07951E+00 -1.83255E+01 -1.48970E+01
 -7.26924E+00 -2.40389E+01 +7.16943E+00 -2.45702E+01 +1.89528E+01 -1.62667E+01 +2.32251E+01 -2.68063E+00
 +1.83860E+01 +1.04165E+01 +6.74736E+00 +1.75313E+01 -6.49584E+00 +1.58038E+01 -1.55248E+01 +6.20997E+00
 -1.64029E+01 -6.89446E+00 -8.74998E+00 -1.76782E+01 +4.12666E+00 -2.13548E+01 +1.66866E+01 -1.62312E+01
 +2.35569E+01 -4.40784E+00 +2.18378E+01 +9.15668E+00 +1.23252E+01 +1.88003E+01 -8.66439E-01 +2.05931E+01
 -1.21022E+01 +1.40060E+01 -1.66597E+01 +2.10233E+00 -1.27460E+01 -9.81530E+00 -2.23644E+00 -1.65051E+01
 +1.01698E+01 -1.50374E+01 +1.89976E+01 -6.02935E+00 +2.03560E+01 +6.65562E+00 +1.35940E+01 +1.75994E+01
 +1.54761E+00 +2.21708E+01 -1.07120E+01 +1.85044E+01 -1.80770E+01 +8.27183E+00 -1.75935E+01 -4.07372E+00
 -9.70310E+00 -1.32386E+01 +1.98550E+00 -1.53684E+01 +1.22823E+01 -9.68505E+00 +1.66621E+01 +1.21550E+00
 +1.31996E+01 +1.25165E+01 +3.36671E+00 +1.92736E+01 -8.63692E+00 +1.85392E+01 -1.77166E+01 +1.06045E+01
 -2.00776E+01 -1.16105E+00 -1.48371E+01 -1.17907E+01 -4.36736E+00 -1.68676E+01 +6.76133E+00 -1.44105E+01
 +1.37671E+01 -5.69210E+00 +1.37092E+01 +5.34890E+00 +6.72567E+00 +1.38315E+01 -4.06584E+00 +1.60383E+01
 -1.39432E+01 +1.09960E+01 -1.86258E+01 +8.58414E-01 -1.61051E+01 -1.00560E+01 -7.47672E+00 -1.71430E+01
 +3.56844E+00 -1.74885E+01 +1.23597E+01 -1.10949E+01 +1.52601E+01 -8.39866E-01 +1.12090E+01 +8.79621E+00
 +2.14030E+00 +1.36721E+01 -7.88984E+00 +1.17553E+01 -1.44715E+01 +3.96335E+00 -1.47366E+01 -6.27190E+00
 -8.56697E+00 -1.45104E+01 +1.39371E+00 -1.72212E+01 +1.09114E+01 -1.32822E+01 +1.59974E+01 -4.42651E+00
 +1.46122E+01 +5.54170E+00 +7.50889E+00 +1.24059E+01 -2.13244E+00 +1.33480E+01 -1.01036E+01 +8.13219E+00
 -1.29864E+01 -8.34979E-01 -9.60330E+00 -9.57758E+00 -1.48634E+00 -1.42779E+01 +7.82193E+00 -1.29091E+01
 +1.43172E+01 -6.07487E+00 +1.52550E+01 +3.29049E+00 +1.03047E+01 +1.12152E+01 +1.65151E+00 +1.44055E+01
 -6.97984E+00 +1.16430E+01 -1.19440E+01 +4.26945E+00 -1.12320E+01 -4.43122E+00 -5.30131E+00 -1.06718E+01
 +3.16391E+00 -1.17907E+01 +1.04409E+01 -7.37023E+00 +1.33796E+01 +6.24708E-01 +1.07400E+01 +8.72953E+00
 +3.68803E+00 +1.34886E+01 -4.74591E+00 +1.29325E+01 -1.09965E+01 +7.39181E+00 -1.24962E+01 -6.86545E-01
 -8.75279E+00 -7.82539E+00 -1.51896E+00 -1.10221E+01 +6.00106E+00 -9.02165E+00 +1.05493E+01 -2.81730E+00
 +1.02068E+01 +4.81895E+00 +5.18683E+00 +1.05569E+01 -2.29991E+00 +1.19421E+01 -9.02998E+00 +8.42670E+00
 -1.21645E+01 +1.56402E+00 -1.04528E+01 -5.69819E+00 -4.73216E+00 -1.03049E+01 +2.47422E+00 -1.03991E+01
 +8.07088E+00 -6.08740E+00 +9.72280E+00 +6.49904E-01 +6.83395E+00 +6.84600E+00 +7.61468E-01 +9.83576E+00
 -5.80853E+00 +8.38566E+00 -1.00376E+01 +3.18661E+00 -1.01492E+01 -3.48572E+00 -6.16082E+00 -8.77851E+00
 +1.66131E-01 -1.04914E+01 +6.11926E+00 -7.99784E+00 +9.21371E+00 -2.47294E+00 +8.24424E+00 +3.65253E+00
 +3.76520E+00 +7.75923E+00 -2.19160E+00 +8.15908E+00 -7.02103E+00 +4.78918E+00 -8.66908E+00 -8.05025E-01
 -6.49226E+00 -6.17111E+00 -1.49309E+00 -9.01813E+00 +4.15179E+00 -8.18695E+00 +8.05005E+00 -4.11164E+00
 +8.61683E+00 +1.41027E+00 +5.72473E+00 +6.02100E+00 +7.14898E-01 +7.82054E+00 -4.21677E+00 +6.15968E+00
 -6.97824E+00 +1.87727E+00 -6.46629E+00 -3.10236E+00 -3.00372E+00 -6.62071E+00 +1.84339E+00 -7.20894E+00
 +5.97050E+00 -4.68899E+00 +7.64526E+00 -2.06821E-01 +6.22979E+00 +4.29756E+00 +2.41400E+00 +6.93933E+00
 -2.12252E+00 +6.68537E+00 -5.45665E+00 +3.76168E+00 -6.24448E+00 -4.87761E-01 -4.26857E+00 -4.21087E+00
 -4.87666E-01 -5.85008E+00 +3.41389E+00 -4.78989E+00 +5.76662E+00 -1.58051E+00 +5.62111E+00 +2.34076E+00
 +3.12032E+00 +5.29252E+00 -6.05481E-01 +6.06937E+00 -3.95690E+00 +4.43076E+00 -5.55999E+00 +1.16126E+00
 -4.83543E+00 -2.30492E+00 -2.20685E+00 -4.51712E+00 +1.12359E+00 -4.61964E+00 +3.71775E+00 -2.68371E+00
 +4.51763E+00 +3.67119E-01 +3.27149E+00 +3.18727E+00 +5.98917E-01 +4.59571E+00 -2.31411E+00 +4.06333E+00
 -4.24265E+00 +1.90056E+00 -4.43825E+00 -9.18156E-01 -2.91577E+00 -3.19925E+00 -4.03414E-01 -4.04165E+00
 +2.00362E+00 -3.19587E+00 +3.32247E+00 -1.12836E+00 +3.08522E+00 +1.21806E+00 +1.50029E+00 +2.84769E+00
 -6.79614E-01 +3.12971E+00 -2.50785E+00 +2.03505E+00 -3.25049E+00 +1.05427E-01 -2.67459E+00 -1.81317E+00
 -1.10616E+00 -2.94358E+00 +7.48848E-01 -2.89260E+00 +2.12661E+00 -1.78105E+00 +2.52408E+00 -1.49591E-01
 +1.88144E+00 +1.30069E+00 +5.64438E-01 +2.00991E+00 -8.26930E-01 +1.77338E+00 -1.72651E+00 +7.87581E-01
 -1.82734E+00 -4.73433E-01 -1.17527E+00 -1.48126E+00 -1.07246E-01 -1.87165E+00 +9.20977E-01 -1.56832E+00
 +1.53179E+00 -7.72930E-01 +1.56227E+00 +1.55591E-01 +1.09282E+00 +8.66046E-01 +3.73544E-01 +1.14852E+00
 -3.03087E-01 +9.86763E-01 -7.20004E-01 +5.23175E-01 -7.96640E-01 -3.02987E-02 -5.81082E-01 -4.85192E-01
 -1.95020E-01 -7.32700E-01 +2.30015E-01 -7.49736E-01 +5.92859E-01 -5.69958E-01 +8.29265E-01 -2.49042E-01
 +8.98041E-01 +1.52111E-01 +7.70731E-01 +5.62174E-01 +4.41402E-01 +8.88061E-01 -4.66551E-02 +1.02054E+00
 -5.79280E-01 +8.69190E-01 -9.81597E-01 +4.16864E-01 -1.07238E+00 -2.36699E-01 -7.48147E-01 -8.76506E-01
 -5.80602E-02 -1.23637E+00 +7.75904E-01 -1.11005E+00 +1.42004E+00 -4.63000E-01 +1.55990E+00 +5.13396E-01
 +1.05019E+00 +1.44555E+00 +1.27190E-02 +1.91723E+00 -1.17514E+00 +1.65412E+00 -2.01419E+00 +6.71336E-01
 -2.09403E+00 -6.92096E-01 -1.29177E+00 -1.88461E+00 +1.36449E-01 -2.36608E+00 +1.62727E+00 -1.85369E+00
 +2.53078E+00 -4.78012E-01 +2.39463E+00 +1.23292E+00 +1.18704E+00 +2.55210E+00 -6.49437E-01 +2.86158E+00
 -2.35403E+00 +1.93951E+00 -3.16139E+00 +9.34230E-02 -2.64363E+00 -1.93393E+00 -9.27987E-01 -3.26221E+00
 +1.31799E+00 -3.25584E+00 +3.14471E+00 -1.82498E+00 +3.72351E+00 +4.96489E-01 +2.72312E+00 +2.74638E+00
 +4.89019E-01 +3.93392E+00 -2.06764E+00 +3.47765E+00 -3.83993E+00 +1.48804E+00 -4.00432E+00 -1.24095E+00
 -2.40150E+00 -3.54470E+00 +3.56403E-01 -4.38300E+00 +3.11524E+00 -3.30673E+00 +4.66063E+00 -6.87246E-01
 +4.25125E+00 +2.40610E+00 +1.96922E+00 +4.64351E+00 -1.27668E+00 +5.00872E+00 -4.11321E+00 +3.26156E+00
 -5.28665E+00 +7.88013E-02 -4.22022E+00 -3.20347E+00 -1.29711E+00 -5.14979E+00 +2.26785E+00 -4.85291E+00
 +4.92849E+00 -2.35466E+00 +5.47398E+00 +1.33422E+00 +3.57426E+00 +4.64020E+00 -4.09398E-02 +6.09662E+00
 -3.86263E+00 +4.99171E+00 -6.23618E+00 +1.70882E+00 -6.08200E+00 -2.40249E+00 -3.38917E+00 -5.58445E+00
 +7.43137E-01 -6.42782E+00 +4.55032E+00 -4.50143E+00 +6.35396E+00 -5.73348E-01 +5.30020E+00 +3.68691E+00
 +1.76019E+00 +6.41124E+00 -2.79411E+00 +6.34499E+00 -6.40052E+00 +3.41535E+00 -7.45063E+00 -1.20113E+00
 -5.40395E+00 -5.55615E+00 -1.05527E+00 -7.75944E+00 +3.77502E+00 -6.80678E+00 +7.00825E+00 -3.04359E+00
 +7.20906E+00 +1.94936E+00 +4.23002E+00 +6.01392E+00 -6.90047E-01 +7.34262E+00 -5.43131E+00 +5.27778E+00
 -7.89663E+00 +6.28503E-01 -6.92819E+00 -4.64546E+00 -2.83669E+00 -8.26072E+00 +2.69819E+00 -8.59896E+00
 +7.32773E+00 -5.42909E+00 +9.04294E+00 -4.07688E-02 +7.05864E+00 +5.28309E+00 +2.18354E+00 +8.23956E+00
 -3.49710E+00 +7.50969E+00 -7.50305E+00 +3.35545E+00 -8.03239E+00 -2.46019E+00 -4.76217E+00 -7.40981E+00
 +9.79167E-01 -9.28734E+00 +6.75589E+00 -7.17659E+00 +1.00634E+01 -1.87738E+00 +9.41761E+00 +4.40783E+00
 +5.02193E+00 +9.00499E+00 -1.28872E+00 +9.92353E+00 -6.81551E+00 +6.73606E+00 -9.15466E+00 +7.93749E-01
 -7.24975E+00 -5.32912E+00 -1.87662E+00 -8.93388E+00 +4.66098E+00 -8.37060E+00 +9.50670E+00 -3.77578E+00
 +1.04852E+01 +2.95469E+00 +7.06101E+00 +8.95908E+00 +6.00374E-01 +1.16378E+01 -6.19031E+00 +9.78822E+00
 -1.04187E+01 +4.15126E+00 -1.02609E+01 -2.87940E+00 -5.77182E+00 -8.27148E+00 +1.10939E+00 -9.66278E+00
 +7.37297E+00 -6.39931E+00 +1.02313E+01 +1.53467E-01 +8.33495E+00 +7.17284E+00 +2.38227E+00 +1.15837E+01
 -5.15251E+00 +1.13915E+01 -1.10673E+01 +6.56577E+00 -1.28121E+01 -9.17736E-01 -9.60632E+00 -7.90559E+00
 -2.80204E+00 -1.14196E+01 +4.67339E+00 -9.95275E+00 +9.56788E+00 -4.14346E+00 +9.71329E+00 +3.47268E+00
 +4.98233E+00 +9.53946E+00 -2.62836E+00 +1.13276E+01 -9.83699E+00 +7.92921E+00 -1.34848E+01 +6.77222E-01
 -1.19091E+01 -7.40368E+00 -5.68492E+00 -1.28875E+01 +2.59669E+00 -1.34284E+01 +9.42763E+00 -8.79133E+00
 +1.18939E+01 -9.79321E-01 +8.94715E+00 +6.60987E+00 +1.88110E+00 +1.06426E+01 -6.20286E+00 +9.29755E+00
 -1.17214E+01 +3.07463E+00 -1.21599E+01 -5.39475E+00 -7.17625E+00 -1.24646E+01 +1.22444E+00 -1.50444E+01
 +9.53286E+00 -1.19461E+01 +1.42400E+01 -4.42002E+00 +1.33579E+01 +4.36070E+00 +7.29735E+00 +1.06559E+01
 -1.28661E+00 +1.17742E+01 -8.62381E+00 +7.25076E+00 -1.14537E+01 -9.29121E-01 -8.44548E+00 -9.16652E+00
 -7.95721E-01 -1.37944E+01 +8.26468E+00 -1.26677E+01 +1.48504E+01 -6.11001E+00 +1.60994E+01 +3.20231E+00
 +1.14225E+01 +1.13760E+01 +2.78035E+00 +1.49758E+01 -6.14338E+00 +1.25165E+01 -1.15226E+01 +5.12306E+00
