 Created: 19-Jan-2021
 $NMID
 ID='D:\BASISSIMULATI'
 FMTDAT='(8E13.5)'
 VOLUME=   1.00000E+00
 TRAMP=   1.00000E+00
 $END
 +4.77851E+01 +5.89402E-01 +4.65167E+01 +1.04136E+01 +4.31546E+01 +1.96986E+01 +3.78814E+01 +2.79897E+01
 +3.09787E+01 +3.48886E+01 +2.28112E+01 +4.00752E+01 +1.38045E+01 +4.33239E+01 +4.42158E+00 +4.45153E+01
 -4.86426E+00 +4.36404E+01 -1.35953E+01 +4.07992E+01 -2.13547E+01 +3.61929E+01 -2.77881E+01 +3.01100E+01
 -3.26216E+01 +2.29079E+01 -3.56749E+01 +1.49920E+01 -3.68676E+01 +6.79084E+00 -3.62208E+01 -1.26746E+00
 -3.38519E+01 -8.77904E+00 -2.99651E+01 -1.53855E+01 -2.48360E+01 -2.07917E+01 -1.87942E+01 -2.47794E+01
 -1.22026E+01 -2.72154E+01 -5.43598E+00 -2.80557E+01 +1.13951E+00 -2.73429E+01 +7.18623E+00 -2.52000E+01
 +1.24116E+01 -2.18200E+01 +1.65818E+01 -1.74511E+01 +1.95306E+01 -1.23811E+01 +2.11652E+01 -6.91945E+00
 +2.14664E+01 -1.37997E+00 +2.04857E+01 +3.93625E+00 +1.83384E+01 +8.75560E+00 +1.51936E+01 +1.28445E+01
 +1.12622E+01 +1.60190E+01 +6.78413E+00 +1.81506E+01 +2.01387E+00 +1.91697E+01 -2.79255E+00 +1.90648E+01
 -7.39015E+00 +1.78793E+01 -1.15559E+01 +1.57063E+01 -1.50977E+01 +1.26802E+01 -1.78608E+01 +8.96878E+00
 -1.97327E+01 +4.76277E+00 -2.06447E+01 +2.66625E-01 -2.05723E+01 -4.31112E+00 -1.95334E+01 -8.76657E+00
 -1.75847E+01 -1.29082E+01 -1.48179E+01 -1.65635E+01 -1.13538E+01 -1.95841E+01 -7.33674E+00 -2.18500E+01
 -2.92880E+00 -2.32725E+01 +1.69672E+00 -2.37957E+01 +6.36104E+00 -2.33971E+01 +1.08859E+01 -2.20880E+01
 +1.50990E+01 -1.99119E+01 +1.88395E+01 -1.69432E+01 +2.19629E+01 -1.32846E+01 +2.43458E+01 -9.06397E+00
 +2.58899E+01 -4.43084E+00 +2.65260E+01 +4.48486E-01 +2.62168E+01 +5.39591E+00 +2.49595E+01 +1.02274E+01
 +2.27867E+01 +1.47596E+01 +1.97667E+01 +1.88162E+01 +1.60022E+01 +2.22354E+01 +1.16277E+01 +2.48767E+01
 +6.80546E+00 +2.66275E+01 +1.71968E+00 +2.74088E+01 -3.43038E+00 +2.71801E+01 -8.43850E+00 +2.59426E+01
 -1.31004E+01 +2.37407E+01 -1.72233E+01 +2.06614E+01 -2.06350E+01 +1.68322E+01 -2.31926E+01 +1.24156E+01
 -2.47906E+01 +7.60288E+00 -2.53665E+01 +2.60550E+00 -2.49053E+01 -2.35505E+00 -2.34408E+01 -7.05796E+00
 -2.10554E+01 -1.12943E+01 -1.78762E+01 -1.48777E+01 -1.40692E+01 -1.76548E+01 -9.83089E+00 -1.95131E+01
 -5.37837E+00 -2.03873E+01 -9.37801E-01 -2.02636E+01 +3.26779E+00 -1.91800E+01 +7.03056E+00 -1.72247E+01
 +1.01693E+01 -1.45313E+01 +1.25394E+01 -1.12712E+01 +1.40409E+01 -7.64409E+00 +1.46236E+01 -3.86629E+00
 +1.42899E+01 -1.58749E-01 +1.30942E+01 +3.26574E+00 +1.11394E+01 +6.21469E+00 +8.57024E+00 +8.52678E+00
 +5.56494E+00 +1.00809E+01 +2.32404E+00 +1.08030E+01 -9.41390E-01 +1.06693E+01 -4.02228E+00 +9.70779E+00
 -6.72385E+00 +7.99546E+00 -8.87691E+00 +5.65332E+00 -1.03475E+01 +2.83862E+00 -1.10442E+01 -2.64901E-01
 -1.09231E+01 -3.45820E+00 -9.98969E+00 -6.53889E+00 -8.29755E+00 -9.31315E+00 -5.94476E+00 -1.16070E+01
 -3.06732E+00 -1.32759E+01 +1.69323E-01 -1.42130E+01 +3.58036E+00 -1.43545E+01 +6.97257E+00 -1.36822E+01
 +1.01555E+01 -1.22243E+01 +1.29523E+01 -1.00523E+01 +1.52091E+01 -7.27630E+00 +1.68033E+01 -4.03780E+00
 +1.76498E+01 -5.01326E-01 +1.77039E+01 +3.15542E+00 +1.69637E+01 +6.75148E+00 +1.54678E+01 +1.01126E+01
 +1.32929E+01 +1.30802E+01 +1.05477E+01 +1.55195E+01 +7.36675E+00 +1.73253E+01 +3.90168E+00 +1.84269E+01
 +3.13283E-01 +1.87898E+01 -3.23735E+00 +1.84163E+01 -6.59693E+00 +1.73435E+01 -9.62734E+00 +1.56398E+01
 -1.22117E+01 +1.34001E+01 -1.42589E+01 +1.07395E+01 -1.57069E+01 +7.78684E+00 -1.65238E+01 +4.67736E+00
 -1.67077E+01 +1.54617E+00 -1.62849E+01 -1.47828E+00 -1.53068E+01 -4.27980E+00 -1.38462E+01 -6.75903E+00
 -1.19921E+01 -8.83685E+00 -9.84465E+00 -1.04566E+01 -7.51019E+00 -1.15852E+01 -5.09566E+00 -1.22126E+01
 -2.70410E+00 -1.23510E+01 -4.30372E-01 -1.20324E+01 +1.64232E+00 -1.13060E+01 +3.44515E+00 -1.02349E+01
 +4.92554E+00 -8.89220E+00 +6.04829E+00 -7.35777E+00 +6.79586E+00 -5.71406E+00 +7.16798E+00 -4.04279E+00
 +7.18066E+00 -2.42166E+00 +6.86461E+00 -9.21363E-01 +6.26329E+00 +3.96835E-01 +5.43053E+00 +1.48316E+00
 +4.42798E+00 +2.30088E+00 +3.32230E+00 +2.82731E+00 +2.18233E+00 +3.05434E+00 +1.07616E+00 +2.98848E+00
 +6.83062E-02 +2.65028E+00 -7.83008E-01 +2.07334E+00 -1.42832E+00 +1.30280E+00 -1.82915E+00 +3.93365E-01
 -1.95976E+00 -5.93093E-01 -1.80853E+00 -1.59027E+00 -1.37872E+00 -2.53045E+00 -6.88624E-01 -3.34766E+00
 +2.28912E-01 -3.98092E+00 +1.32767E+00 -4.37733E+00 +2.54994E+00 -4.49498E+00 +3.82898E+00 -4.30540E+00
 +5.09207E+00 -3.79551E+00 +6.26397E+00 -2.96885E+00 +7.27068E+00 -1.84608E+00 +8.04330E+00 -4.64597E-01
 +8.52176E+00 +1.12273E+00 +8.65831E+00 +2.84965E+00 +8.42045E+00 +4.63940E+00 +7.79322E+00 +6.40830E+00
 +6.78062E+00 +8.06977E+00 +5.40613E+00 +9.53871E+00 +3.71214E+00 +1.07359E+01 +1.75843E+00 +1.15922E+01
 -3.80326E-01 +1.20525E+01 -2.61797E+00 +1.20788E+01 -4.86087E+00 +1.16527E+01 -7.01250E+00 +1.07767E+01
 -8.97822E+00 +9.47452E+00 -1.06700E+01 +7.79045E+00 -1.20110E+01 +5.78726E+00 -1.29395E+01 +3.54345E+00
 -1.34120E+01 +1.14951E+00 -1.34058E+01 -1.29646E+00 -1.29198E+01 -3.69356E+00 -1.19749E+01 -5.94304E+00
 -1.06131E+01 -7.95312E+00 -8.89487E+00 -9.64345E+00 -6.89654E+00 -1.09490E+01 -4.70627E+00 -1.18232E+01
 -2.41967E+00 -1.22397E+01 -1.34970E-01 -1.21938E+01 +2.05173E+00 -1.17021E+01 +4.05116E+00 -1.08013E+01
 +5.78511E+00 -9.54641E+00 +7.19003E+00 -8.00707E+00 +8.21981E+00 -6.26430E+00 +8.84765E+00 -4.40605E+00
 +9.06691E+00 -2.52274E+00 +8.89093E+00 -7.02710E-01 +8.35184E+00 +9.72097E-01 +7.49845E+00 +2.43005E+00
 +6.39342E+00 +3.61315E+00 +5.10967E+00 +4.47956E+00 +3.72650E+00 +5.00532E+00 +2.32539E+00 +5.18511E+00
 +9.85756E-01 +5.03206E+00 -2.19010E-01 +4.57665E+00 -1.22523E+00 +3.86480E+00 -1.98203E+00 +2.95516E+00
 -2.45376E+00 +1.91587E+00 -2.62164E+00 +8.20857E-01 -2.48453E+00 -2.54135E-01 -2.05880E+00 -1.23552E+00
 -1.37740E+00 -2.05576E+00 -4.87982E-01 -2.65689E+00 +5.49573E-01 -2.99364E+00 +1.66636E+00 -3.03581E+00
 +2.78803E+00 -2.77002E+00 +3.83876E+00 -2.20051E+00 +4.74522E+00 -1.34914E+00 +5.44057E+00 -2.54457E-01
 +5.86809E+00 +1.03009E+00 +5.98439E+00 +2.43872E+00 +5.76199E+00 +3.89657E+00 +5.19115E+00 +5.32345E+00
 +4.28073E+00 +6.63800E+00 +3.05827E+00 +7.76191E+00 +1.56892E+00 +8.62417E+00 -1.26427E-01 +9.16497E+00
 -1.95395E+00 +9.33911E+00 -3.83042E+00 +9.11877E+00 -5.66732E+00 +8.49538E+00 -7.37530E+00 +7.48055E+00
 -8.86883E+00 +6.10596E+00 -1.00707E+01 +4.42213E+00 -1.09164E+01 +2.49624E+00 -1.13571E+01 +4.08953E-01
 -1.13634E+01 -1.74949E+00 -1.09263E+01 -3.88378E+00 -1.00584E+01 -5.89842E+00 -8.79346E+00 -7.70262E+00
 -7.18482E+00 -9.21505E+00 -5.30273E+00 -1.03681E+01 -3.23091E+00 -1.11115E+01 -1.06216E+00 -1.14150E+01
 +1.10638E+00 -1.12695E+01 +3.17833E+00 -1.06884E+01 +5.06306E+00 -9.70568E+00 +6.68039E+00 -8.37484E+00
 +7.96464E+00 -6.76541E+00 +8.86788E+00 -4.95930E+00 +9.36218E+00 -3.04622E+00 +9.44071E+00 -1.11888E+00
 +9.11761E+00 +7.32044E-01 +8.42681E+00 +2.42256E+00 +7.41967E+00 +3.87972E+00 +6.16175E+00 +5.04510E+00
 +4.72892E+00 +5.87754E+00 +3.20292E+00 +6.35468E+00 +1.66685E+00 +6.47353E+00 +2.00649E-01 +6.24988E+00
 -1.12302E+00 +5.71671E+00 -2.24232E+00 +4.92173E+00 -3.10909E+00 +3.92420E+00 -3.69072E+00 +2.79125E+00
 -3.97114E+00 +1.59402E+00 -3.95089E+00 +4.03747E-01 -3.64621E+00 -7.11941E-01 -3.08745E+00 -1.69227E+00
 -2.31675E+00 -2.48604E+00 -1.38539E+00 -3.05362E+00 -3.50754E-01 -3.36826E+00 +7.26707E-01 -3.41665E+00
 +1.78641E+00 -3.19880E+00 +2.77036E+00 -2.72729E+00 +3.62551E+00 -2.02610E+00 +4.30567E+00 -1.12896E+00
 +4.77300E+00 -7.75736E-02 +4.99902E+00 +1.08031E+00 +4.96524E+00 +2.29284E+00 +4.66340E+00 +3.50598E+00
 +4.09548E+00 +4.66522E+00 +3.27343E+00 +5.71725E+00 +2.21876E+00 +6.61145E+00 +9.62050E-01 +7.30131E+00
 -4.57720E-01 +7.74580E+00 -1.99392E+00 +7.91066E+00 -3.59315E+00 +7.76972E+00 -5.19640E+00 +7.30620E+00
 -6.74035E+00 +6.51397E+00 -8.15910E+00 +5.39869E+00 -9.38613E+00 +3.97884E+00 -1.03567E+01 +2.28635E+00
 -1.10108E+01 +3.66927E-01 -1.12955E+01 -1.72026E+00 -1.11687E+01 -3.90352E+00 -1.06022E+01 -6.10038E+00
 -9.58401E+00 -8.22007E+00 -8.12150E+00 -1.01669E+01 -6.24273E+00 -1.18444E+01 -3.99749E+00 -1.31597E+01
 -1.45703E+00 -1.40291E+01 +1.28733E+00 -1.43829E+01 +4.12707E+00 -1.41705E+01 +6.94046E+00 -1.33646E+01
 +9.59786E+00 -1.19654E+01 +1.19680E+01 -1.00024E+01 +1.39247E+01 -7.53510E+00 +1.53546E+01 -4.65287E+00
 +1.61640E+01 -1.47160E+00 +1.62851E+01 +1.87044E+00 +1.56824E+01 +5.21885E+00 +1.43559E+01 +8.41058E+00
 +1.23436E+01 +1.12826E+01 +9.72170E+00 +1.36808E+01 +6.60228E+00 +1.54697E+01 +3.12873E+00 +1.65403E+01
 -5.30770E-01 +1.68183E+01 -4.19169E+00 +1.62697E+01 -7.66302E+00 +1.49040E+01 -1.07580E+01 +1.27762E+01
 -1.33048E+01 +9.98498E+00 -1.51574E+01 +6.66845E+00 -1.62045E+01 +2.99773E+00 -1.63772E+01 -8.32063E-01
 -1.56544E+01 -4.61244E+00 -1.40649E+01 -8.13334E+00 -1.16876E+01 -1.11954E+01 -8.64720E+00 -1.36216E+01
 -5.10871E+00 -1.52686E+01 -1.26799E+00 -1.60353E+01 +2.65900E+00 -1.58697E+01 +6.44859E+00 -1.47729E+01
 +9.88245E+00 -1.27993E+01 +1.27605E+01 -1.00548E+01 +1.49128E+01 -6.69028E+00 +1.62098E+01 -2.89375E+00
 +1.65705E+01 +1.12066E+00 +1.59669E+01 +5.12508E+00 +1.44265E+01 +8.89119E+00 +1.20303E+01 +1.22035E+01
 +8.90830E+00 +1.48722E+01 +5.23201E+00 +1.67436E+01 +1.20406E+00 +1.77096E+01 -2.95353E+00 +1.77133E+01
 -7.01233E+00 +1.67521E+01 -1.07507E+01 +1.48773E+01 -1.39664E+01 +1.21905E+01 -1.64881E+01 +8.83722E+00
 -1.81841E+01 +4.99794E+00 -1.89698E+01 +8.77217E-01 -1.88111E+01 -3.30833E+00 -1.77251E+01 -7.34243E+00
 -1.57781E+01 -1.10212E+01 -1.30804E+01 -1.41643E+01 -9.77896E+00 -1.66237E+01 -6.04805E+00 -1.82914E+01
 -2.07870E+00 -1.91032E+01 +1.93224E+00 -1.90409E+01 +5.79299E+00 -1.81310E+01 +9.32679E+00 -1.64415E+01
 +1.23806E+01 -1.40759E+01 +1.48316E+01 -1.11661E+01 +1.65924E+01 -7.86367E+00 +1.76126E+01 -4.33121E+00
 +1.78796E+01 -7.32981E-01 +1.74160E+01 +2.77333E+00 +1.62766E+01 +6.04392E+00 +1.45421E+01 +8.95484E+00
 +1.23141E+01 +1.14062E+01 +9.70772E+00 +1.33248E+01 +6.84536E+00 +1.46649E+01 +3.85035E+00 +1.54075E+01
