 Created: 19-Jan-2021
 $NMID
 ID='D:\BASISSIMULATI'
 FMTDAT='(8E13.5)'
 VOLUME=   1.00000E+00
 TRAMP=   1.00000E+00
 $END
 +5.78124E+01 +8.34853E-01 +5.06570E+01 +1.55005E+01 +3.19287E+01 +2.72548E+01 +6.94508E+00 +3.38218E+01
 -1.73059E+01 +3.37765E+01 -3.42567E+01 +2.68926E+01 -3.96687E+01 +1.43525E+01 -3.27703E+01 -1.30031E+00
 -1.63030E+01 -1.65550E+01 +4.48853E+00 -2.76707E+01 +2.35545E+01 -3.16233E+01 +3.58579E+01 -2.70128E+01
 +3.87453E+01 -1.46308E+01 +3.24834E+01 +2.55325E+00 +1.98697E+01 +2.00707E+01 +5.12825E+00 +3.31621E+01
 -7.49452E+00 +3.81823E+01 -1.49643E+01 +3.37598E+01 -1.61646E+01 +2.13122E+01 -1.19267E+01 +4.70006E+00
 -4.47345E+00 -1.09180E+01 +3.45842E+00 -2.06926E+01 +9.49130E+00 -2.16408E+01 +1.22069E+01 -1.36324E+01
 +1.13452E+01 +5.41993E-01 +7.63149E+00 +1.60682E+01 +2.37661E+00 +2.76918E+01 -2.96676E+00 +3.14662E+01
 -7.14964E+00 +2.60812E+01 -9.31587E+00 +1.33161E+01 -9.06048E+00 -2.53956E+00 -6.42586E+00 -1.61123E+01
 -1.89277E+00 -2.27377E+01 +3.62711E+00 -2.00202E+01 +8.84520E+00 -8.63777E+00 +1.22659E+01 +7.87324E+00
 +1.25088E+01 +2.42721E+01 +8.74439E+00 +3.53134E+01 +1.11365E+00 +3.74260E+01 -9.04509E+00 +2.98233E+01
 -1.93214E+01 +1.47019E+01 -2.67671E+01 -3.50671E+00 -2.87440E+01 -1.95545E+01 -2.38452E+01 -2.89869E+01
 -1.25686E+01 -2.94295E+01 +2.54273E+00 -2.11712E+01 +1.74278E+01 -6.91462E+00 +2.76164E+01 +9.16532E+00
 +2.96102E+01 +2.27066E+01 +2.20955E+01 +3.03729E+01 +6.55847E+00 +3.06446E+01 -1.29580E+01 +2.40124E+01
 -3.09450E+01 +1.26048E+01 -4.20636E+01 -5.57315E-01 -4.28175E+01 -1.24070E+01 -3.27179E+01 -2.05342E+01
 -1.45342E+01 -2.35983E+01 +6.48108E+00 -2.14273E+01 +2.41717E+01 -1.48719E+01 +3.33674E+01 -5.52537E+00
 +3.14790E+01 +4.59990E+00 +1.92844E+01 +1.33949E+01 +6.54406E-01 +1.89737E+01 -1.86864E+01 +1.99995E+01
 -3.29572E+01 +1.59937E+01 -3.80923E+01 +7.55996E+00 -3.29263E+01 -3.58105E+00 -1.94348E+01 -1.48391E+01
 -1.99162E+00 -2.33039E+01 +1.40814E+01 -2.65078E+01 +2.41801E+01 -2.32031E+01 +2.57644E+01 -1.38944E+01
 +1.89855E+01 -9.02134E-01 +6.44749E+00 +1.21455E+01 -7.75658E+00 +2.13056E+01 -1.93760E+01 +2.35281E+01
 -2.52592E+01 +1.76977E+01 -2.41604E+01 +5.14073E+00 -1.69010E+01 -1.06218E+01 -5.91350E+00 -2.48572E+01
 +5.61587E+00 -3.30658E+01 +1.46990E+01 -3.24361E+01 +1.93030E+01 -2.28272E+01 +1.87337E+01 -6.92599E+00
 +1.36105E+01 +1.05092E+01 +5.52726E+00 +2.41044E+01 -3.44144E+00 +2.95686E+01 -1.12318E+01 +2.50829E+01
 -1.61762E+01 +1.19184E+01 -1.72500E+01 -5.93012E+00 -1.41962E+01 -2.29874E+01 -7.55520E+00 -3.40167E+01
 +1.38944E+00 -3.56598E+01 +1.07735E+01 -2.74684E+01 +1.84503E+01 -1.20043E+01 +2.24268E+01 +6.00812E+00
 +2.13781E+01 +2.11873E+01 +1.51110E+01 +2.91598E+01 +4.81182E+00 +2.78560E+01 -7.06665E+00 +1.80426E+01
 -1.73284E+01 +2.96264E+00 -2.28825E+01 -1.27602E+01 -2.16932E+01 -2.45690E+01 -1.35305E+01 -2.93055E+01
 -2.40243E-01 -2.60288E+01 +1.46197E+01 -1.61149E+01 +2.67324E+01 -2.67300E+00 +3.23083E+01 +1.04810E+01
 +2.93110E+01 +1.99434E+01 +1.82117E+01 +2.35975E+01 +1.98945E+00 +2.10285E+01 -1.46730E+01 +1.34266E+01
 -2.67797E+01 +3.08779E+00 -3.05731E+01 -7.28505E+00 -2.47473E+01 -1.52621E+01 -1.09187E+01 -1.91857E+01
 +6.82167E+00 -1.84157E+01 +2.31471E+01 -1.33338E+01 +3.31397E+01 -5.17037E+00 +3.38156E+01 +4.27488E+00
 +2.50409E+01 +1.29666E+01 +9.54810E+00 +1.89929E+01 -7.94552E+00 +2.09291E+01 -2.22251E+01 +1.81657E+01
 -2.91874E+01 +1.11322E+01 -2.70606E+01 +1.32888E+00 -1.68624E+01 -8.90395E+00 -1.98002E+00 -1.68882E+01
 +1.29606E+01 -2.02986E+01 +2.35495E+01 -1.78684E+01 +2.69034E+01 -9.88506E+00 +2.24350E+01 +1.71936E+00
 +1.18805E+01 +1.37800E+01 -1.37148E+00 +2.27479E+01 -1.33905E+01 +2.57524E+01 -2.08838E+01 +2.15520E+01
 -2.20851E+01 +1.10475E+01 -1.71202E+01 -2.85203E+00 -7.79770E+00 -1.60204E+01 +3.04637E+00 -2.43510E+01
 +1.24105E+01 -2.50614E+01 +1.79284E+01 -1.76424E+01 +1.84028E+01 -4.11969E+00 +1.39754E+01 +1.14887E+01
 +5.95330E+00 +2.43749E+01 -3.60491E+00 +3.04366E+01 -1.24066E+01 +2.75882E+01 -1.84223E+01 +1.64600E+01
 -2.02789E+01 +2.49426E-01 -1.75086E+01 -1.62402E+01 -1.06365E+01 -2.80720E+01 -1.10417E+00 -3.16941E+01
 +8.97464E+00 -2.60229E+01 +1.72134E+01 -1.27555E+01 +2.14668E+01 +4.17597E+00 +2.03706E+01 +1.98214E+01
 +1.37784E+01 +2.97086E+01 +2.95248E+00 +3.11478E+01 -9.59984E+00 +2.39565E+01 -2.06656E+01 +1.04090E+01
 -2.71458E+01 -5.53421E+00 -2.69485E+01 -1.94447E+01 -1.96896E+01 -2.77029E+01 -6.95734E+00 -2.84537E+01
 +7.99471E+00 -2.19898E+01 +2.10869E+01 -1.05008E+01 +2.85712E+01 +2.67741E+00 +2.81674E+01 +1.40518E+01
 +1.98160E+01 +2.08993E+01 +5.78806E+00 +2.18866E+01 -9.92002E+00 +1.72599E+01 -2.27461E+01 +8.61335E+00
 -2.89324E+01 -1.64096E+00 -2.66790E+01 -1.09275E+01 -1.67108E+01 -1.71142E+01 -2.06842E+00 -1.89454E+01
 +1.28224E+01 -1.62424E+01 +2.35124E+01 -9.86525E+00 +2.68952E+01 -1.47699E+00 +2.21459E+01 +6.83630E+00
 +1.09403E+01 +1.30209E+01 -3.10557E+00 +1.55141E+01 -1.55888E+01 +1.36233E+01 -2.26922E+01 +7.74167E+00
 -2.23420E+01 -6.73006E-01 -1.47970E+01 -9.38969E+00 -2.50347E+00 -1.59349E+01 +1.07132E+01 -1.82557E+01
 +2.08470E+01 -1.53461E+01 +2.49174E+01 -7.64273E+00 +2.18183E+01 +2.96089E+00 +1.25725E+01 +1.35394E+01
 -4.97075E-02 +2.09213E+01 -1.23991E+01 +2.26301E+01 -2.10181E+01 +1.77017E+01 -2.35948E+01 +7.10476E+00
 -1.95384E+01 -6.40379E+00 -1.00493E+01 -1.89902E+01 +2.29244E+00 -2.68410E+01 +1.42690E+01 -2.73245E+01
 +2.28714E+01 -1.98563E+01 +2.60307E+01 -6.17993E+00 +2.30664E+01 +1.00537E+01 +1.47766E+01 +2.43052E+01
 +3.18571E+00 +3.24692E+01 -8.96315E+00 +3.21022E+01 -1.88445E+01 +2.31737E+01 -2.41786E+01 +8.10627E+00
 -2.37290E+01 -8.91607E+00 -1.75785E+01 -2.31623E+01 -7.12601E+00 -3.07244E+01 +5.20032E+00 -2.96297E+01
 +1.64722E+01 -2.03687E+01 +2.39333E+01 -5.69302E+00 +2.56727E+01 +1.02348E+01 +2.11380E+01 +2.30675E+01
 +1.13417E+01 +2.95025E+01 -1.32228E+00 +2.81545E+01 -1.36415E+01 +1.98389E+01 -2.24065E+01 +7.21771E+00
 -2.52836E+01 -6.05071E+00 -2.14922E+01 -1.63831E+01 -1.20773E+01 -2.12446E+01 +3.30004E-01 -1.97606E+01
 +1.22231E+01 -1.28256E+01 +2.02138E+01 -2.72472E+00 +2.20242E+01 +7.58703E+00 +1.71747E+01 +1.53222E+01
 +7.14915E+00 +1.85820E+01 -5.02965E+00 +1.67854E+01 -1.56985E+01 +1.07235E+01 -2.16595E+01 +2.26195E+00
 -2.11544E+01 -6.20383E+00 -1.44052E+01 -1.23877E+01 -3.54836E+00 -1.46878E+01 +8.02102E+00 -1.25672E+01
 +1.66927E+01 -6.66357E+00 +1.97512E+01 +1.38698E+00 +1.62078E+01 +9.36771E+00 +7.10003E+00 +1.50430E+01
 -4.83077E+00 +1.67369E+01 -1.59775E+01 +1.37899E+01 -2.29607E+01 +6.77703E+00 -2.36418E+01 -2.58346E+00
 -1.77514E+01 -1.18304E+01 -6.95435E+00 -1.83872E+01 +5.65765E+00 -2.02660E+01 +1.64791E+01 -1.66614E+01
 +2.24340E+01 -8.25676E+00 +2.18423E+01 +2.86854E+00 +1.48693E+01 +1.37369E+01 +3.44407E+00 +2.12640E+01
 -9.30706E+00 +2.31341E+01 -1.99387E+01 +1.85087E+01 -2.56214E+01 +8.34842E+00 -2.48802E+01 -4.77177E+00
 -1.79511E+01 -1.73263E+01 -6.67691E+00 -2.58114E+01 +6.00672E+00 -2.77507E+01 +1.68483E+01 -2.24400E+01
 +2.31133E+01 -1.11998E+01 +2.32651E+01 +2.95284E+00 +1.73299E+01 +1.61303E+01 +6.86995E+00 +2.46676E+01
 -5.42327E+00 +2.61660E+01 -1.64078E+01 +2.01810E+01 -2.32777E+01 +8.35533E+00 -2.42663E+01 -6.04572E+00
 -1.90951E+01 -1.90577E+01 -9.05523E+00 -2.71324E+01 +3.30428E+00 -2.81232E+01 +1.48137E+01 -2.18618E+01
 +2.24919E+01 -1.01712E+01 +2.43249E+01 +3.67681E+00 +1.98117E+01 +1.58930E+01 +1.01239E+01 +2.32201E+01
 -2.17623E+00 +2.38066E+01 -1.37980E+01 +1.76692E+01 -2.15986E+01 +6.63379E+00 -2.34397E+01 -6.21109E+00
 -1.87857E+01 -1.73810E+01 -8.87177E+00 -2.39374E+01 +3.61734E+00 -2.42517E+01 +1.52780E+01 -1.83952E+01
 +2.29282E+01 -8.06813E+00 +2.44951E+01 +3.89680E+00 +1.95962E+01 +1.43107E+01 +9.64603E+00 +2.04751E+01
 -2.54569E+00 +2.08770E+01 -1.35696E+01 +1.55577E+01 -2.03791E+01 +6.06967E+00 -2.11436E+01 -4.96114E+00
 -1.57493E+01 -1.45451E+01 -5.80790E+00 -2.01255E+01 +5.82354E+00 -2.02525E+01 +1.58669E+01 -1.49603E+01
 +2.15527E+01 -5.74672E+00 +2.13879E+01 +4.83881E+00 +1.55496E+01 +1.38909E+01 +5.80037E+00 +1.89426E+01
 -5.03913E+00 +1.86436E+01 -1.39022E+01 +1.31352E+01 -1.83386E+01 +4.01420E+00 -1.71868E+01 -6.10848E+00
 -1.08733E+01 -1.43379E+01 -1.26644E+00 -1.83120E+01 +8.86660E+00 -1.68751E+01 +1.66411E+01 -1.04152E+01
 +1.98572E+01 -7.63388E-01 +1.76040E+01 +9.31995E+00 +1.05044E+01 +1.69302E+01 +5.37983E-01 +1.98514E+01
 -9.50692E+00 +1.71973E+01 -1.68020E+01 +9.67589E+00 -1.92606E+01 -6.02743E-01 -1.61213E+01 -1.07198E+01
 -8.17384E+00 -1.77750E+01 +2.43745E+00 -1.97109E+01 +1.27847E+01 -1.58998E+01 +1.99527E+01 -7.32652E+00
 +2.18463E+01 +3.68106E+00 +1.77888E+01 +1.40972E+01 +8.74094E+00 +2.10357E+01 -2.92897E+00 +2.25457E+01
 -1.40702E+01 +1.81469E+01 -2.16073E+01 +8.96159E+00 -2.33957E+01 -2.58959E+00 -1.88365E+01 -1.34391E+01
 -9.07200E+00 -2.06938E+01 +3.30205E+00 -2.24047E+01 +1.49353E+01 -1.80837E+01 +2.26430E+01 -8.83206E+00
 +2.42918E+01 +2.94704E+00 +1.93982E+01 +1.41771E+01 +9.27076E+00 +2.19114E+01 -3.34922E+00 +2.41046E+01
 -1.50473E+01 +2.01516E+01 -2.26808E+01 +1.10547E+01 -2.42427E+01 -8.27401E-01 -1.94011E+01 -1.23881E+01
 -9.56675E+00 -2.05857E+01 +2.52262E+00 -2.32495E+01 +1.35768E+01 -1.96675E+01 +2.06623E+01 -1.07942E+01
 +2.19906E+01 +9.86416E-01 +1.73716E+01 +1.24882E+01 +8.21739E+00 +2.05816E+01 -2.88747E+00 +2.30525E+01
 -1.29181E+01 +1.92246E+01 -1.92325E+01 +1.01642E+01 -2.02622E+01 -1.59866E+00 -1.58918E+01 -1.27672E+01
 -7.44111E+00 -2.02029E+01 +2.72873E+00 -2.18189E+01 +1.18664E+01 -1.71826E+01 +1.75604E+01 -7.64902E+00
 +1.83594E+01 +4.02142E+00 +1.41289E+01 +1.44565E+01 +6.06299E+00 +2.06476E+01 -3.64238E+00 +2.08233E+01
 -1.23676E+01 +1.49623E+01 -1.77518E+01 +4.79446E+00 -1.83101E+01 -6.71042E+00 -1.38300E+01 -1.62140E+01
 -5.44632E+00 -2.09819E+01 +4.63247E+00 -1.96696E+01 +1.36861E+01 -1.26944E+01 +1.91972E+01 -2.09025E+00
 +1.95387E+01 +9.10192E+00 +1.44492E+01 +1.77203E+01 +5.15764E+00 +2.13816E+01 -5.89493E+00 +1.91340E+01
 -1.56836E+01 +1.16868E+01 -2.14213E+01 +1.16611E+00 -2.13534E+01 -9.51313E+00 -1.52975E+01 -1.74677E+01
