 Created: 19-Jan-2021
 $NMID
 ID='D:\BASISSIMULATI'
 FMTDAT='(8E13.5)'
 VOLUME=   1.00000E+00
 TRAMP=   1.00000E+00
 $END
 +9.11689E+01 +1.27891E+00 +8.15300E+01 +3.73466E+01 +5.61525E+01 +6.44201E+01 +2.13775E+01 +7.60856E+01
 -1.41678E+01 +6.98436E+01 -4.17839E+01 +4.77084E+01 -5.49119E+01 +1.56400E+01 -5.07681E+01 -1.80328E+01
 -3.09838E+01 -4.47746E+01 -1.09753E+00 -5.80241E+01 +3.09502E+01 -5.48222E+01 +5.69094E+01 -3.64763E+01
 +7.03437E+01 -8.10655E+00 +6.82294E+01 +2.27842E+01 +5.16257E+01 +4.83185E+01 +2.52638E+01 +6.22918E+01
 -3.80911E+00 +6.17223E+01 -2.81477E+01 +4.75077E+01 -4.18687E+01 +2.40446E+01 -4.21343E+01 -2.06134E+00
 -2.97808E+01 -2.38232E+01 -8.95251E+00 -3.57405E+01 +1.41315E+01 -3.52060E+01 +3.29225E+01 -2.30947E+01
 +4.23169E+01 -3.39896E+00 +3.99863E+01 +1.79604E+01 +2.69170E+01 +3.48061E+01 +7.03938E+00 +4.23944E+01
 -1.39291E+01 +3.86705E+01 -3.00941E+01 +2.47598E+01 -3.70012E+01 +4.58548E+00 -3.28241E+01 -1.62646E+01
 -1.88143E+01 -3.20969E+01 +1.09382E+00 -3.86689E+01 +2.13956E+01 -3.43225E+01 +3.65340E+01 -2.03998E+01
 +4.24065E+01 -8.42909E-01 +3.74583E+01 +1.88995E+01 +2.30762E+01 +3.33538E+01 +3.19109E+00 +3.84896E+01
 -1.67923E+01 +3.27842E+01 -3.14424E+01 +1.76080E+01 -3.67369E+01 -3.15963E+00 -3.11096E+01 -2.41698E+01
 -1.58392E+01 -4.00157E+01 +5.30989E+00 -4.66394E+01 +2.70880E+01 -4.23682E+01 +4.41304E+01 -2.83167E+01
 +5.23358E+01 -8.06344E+00 +4.98946E+01 +1.33021E+01 +3.77116E+01 +3.05023E+01 +1.91250E+01 +3.94164E+01
 -9.90514E-01 +3.81029E+01 -1.74924E+01 +2.72437E+01 -2.62778E+01 +9.91038E+00 -2.52961E+01 -9.27134E+00
 -1.50136E+01 -2.53305E+01 +1.77150E+00 -3.42161E+01 +2.07015E+01 -3.37940E+01 +3.70047E+01 -2.43301E+01
 +4.67134E+01 -8.35032E+00 +4.76403E+01 +1.00690E+01 +3.98739E+01 +2.63821E+01 +2.56790E+01 +3.67407E+01
 +8.84650E+00 +3.89455E+01 -6.32470E+00 +3.29468E+01 -1.61420E+01 +2.07790E+01 -1.84413E+01 +5.96360E+00
 -1.30864E+01 -7.44903E+00 -1.92936E+00 -1.59427E+01 +1.17400E+01 -1.74251E+01 +2.40987E+01 -1.17199E+01
 +3.18048E+01 -5.46199E-01 +3.28527E+01 +1.29946E+01 +2.70549E+01 +2.52760E+01 +1.60321E+01 +3.31150E+01
 +2.73051E+00 +3.45949E+01 -9.39504E+00 +2.95316E+01 -1.73091E+01 +1.94701E+01 -1.91868E+01 +7.22437E+00
 -1.48627E+01 -3.90639E+00 -5.82867E+00 -1.10292E+01 +5.21029E+00 -1.24186E+01 +1.50919E+01 -7.94766E+00
 +2.10573E+01 +9.18018E-01 +2.14839E+01 +1.15530E+01 +1.62982E+01 +2.09066E+01 +6.96206E+00 +2.63363E+01
 -3.95255E+00 +2.63153E+01 -1.34820E+01 +2.08257E+01 -1.90814E+01 +1.13359E+01 -1.93087E+01 +3.77966E-01
 -1.41979E+01 -9.15858E+00 -5.22662E+00 -1.48174E+01 +5.10821E+00 -1.52377E+01 +1.39867E+01 -1.05084E+01
 +1.90406E+01 -2.12353E+00 +1.89953E+01 +7.44599E+00 +1.40057E+01 +1.54421E+01 +5.59719E+00 +1.95807E+01
 -3.76765E+00 +1.86749E+01 -1.13753E+01 +1.29530E+01 -1.50110E+01 +3.98463E+00 -1.35656E+01 -5.75907E+00
 -7.33555E+00 -1.35908E+01 +2.06451E+00 -1.73470E+01 +1.21505E+01 -1.59800E+01 +2.02531E+01 -9.84149E+00
 +2.42504E+01 -5.81340E-01 +2.31458E+01 +9.30922E+00 +1.73368E+01 +1.71822E+01 +8.50013E+00 +2.09575E+01
 -8.72528E-01 +1.96890E+01 -8.15897E+00 +1.38176E+01 -1.13239E+01 +5.04473E+00 -9.47221E+00 -4.13952E+00
 -3.08768E+00 -1.11399E+01 +6.10627E+00 -1.39658E+01 +1.56241E+01 -1.17704E+01 +2.29009E+01 -5.07558E+00
 +2.59927E+01 +4.38084E+00 +2.41018E+01 +1.41282E+01 +1.77847E+01 +2.16441E+01 +8.78653E+00 +2.50443E+01
 -4.49093E-01 +2.35924E+01 -7.45933E+00 +1.78892E+01 -1.04412E+01 +9.69239E+00 -8.74326E+00 +1.41683E+00
 -3.03504E+00 -4.54330E+00 +4.89231E+00 -6.48316E+00 +1.26369E+01 -3.86026E+00 +1.78661E+01 +2.55907E+00
 +1.89761E+01 +1.09206E+01 +1.55463E+01 +1.88087E+01 +8.46177E+00 +2.39324E+01 -3.32733E-01 +2.47791E+01
 -8.37932E+00 +2.10521E+01 -1.34038E+01 +1.37691E+01 -1.39685E+01 +4.98894E+00 -9.89700E+00 -2.75957E+00
 -2.34927E+00 -7.19063E+00 +6.47898E+00 -6.91929E+00 +1.39555E+01 -1.87858E+00 +1.77464E+01 +6.62458E+00
 +1.64859E+01 +1.62374E+01 +1.01917E+01 +2.41900E+01 +3.07670E-01 +2.80567E+01 -1.06487E+01 +2.64441E+01
 -1.97441E+01 +1.94130E+01 -2.44209E+01 +8.51362E+00 -2.32085E+01 -3.58512E+00 -1.61592E+01 -1.37808E+01
 -4.88417E+00 -1.93592E+01 +7.82855E+00 -1.87330E+01 +1.87221E+01 -1.18982E+01 +2.49207E+01 -4.79039E-01
 +2.46976E+01 +1.26591E+01 +1.79560E+01 +2.41325E+01 +6.28915E+00 +3.09136E+01 -7.40253E+00 +3.11271E+01
 -1.96429E+01 +2.45573E+01 -2.72725E+01 +1.27283E+01 -2.82694E+01 -1.46751E+00 -2.22821E+01 -1.45022E+01
 -1.07334E+01 -2.31152E+01 +3.53558E+00 -2.51530E+01 +1.69916E+01 -2.01258E+01 +2.63154E+01 -9.33425E+00
 +2.92544E+01 +4.46820E+00 +2.51965E+01 +1.77885E+01 +1.53180E+01 +2.72978E+01 +2.26560E+00 +3.06879E+01
 -1.05421E+01 +2.72580E+01 -1.98090E+01 +1.80780E+01 -2.32164E+01 +5.68815E+00 -2.00146E+01 -6.58276E+00
 -1.11967E+01 -1.54996E+01 +7.87615E-01 -1.87689E+01 +1.26994E+01 -1.56290E+01 +2.13787E+01 -7.02807E+00
 +2.45817E+01 +4.65269E+00 +2.15648E+01 +1.62547E+01 +1.32617E+01 +2.46972E+01 +2.00995E+00 +2.78021E+01
 -9.09688E+00 +2.48686E+01 -1.70532E+01 +1.68442E+01 -1.97547E+01 +6.04994E+00 -1.65609E+01 -4.46363E+00
 -8.45772E+00 -1.17529E+01 +2.22291E+00 -1.37841E+01 +1.24472E+01 -9.98430E+00 +1.93123E+01 -1.39317E+00
 +2.08411E+01 +9.62508E+00 +1.65229E+01 +2.00300E+01 +7.45414E+00 +2.69372E+01 -3.95903E+00 +2.84075E+01
 -1.46554E+01 +2.39797E+01 -2.17530E+01 +1.48006E+01 -2.33359E+01 +3.31810E+00 -1.89800E+01 -7.38169E+00
 -9.87486E+00 -1.44122E+01 +1.49417E+00 -1.58730E+01 +1.20162E+01 -1.13709E+01 +1.87981E+01 -2.13313E+00
 +1.99524E+01 +9.31875E+00 +1.51146E+01 +1.98489E+01 +5.54970E+00 +2.65563E+01 -6.18369E+00 +2.75651E+01
 -1.69221E+01 +2.25395E+01 -2.37545E+01 +1.27842E+01 -2.48154E+01 +8.98774E-01 -1.97996E+01 -9.92167E+00
 -1.00558E+01 -1.67523E+01 +1.76857E+00 -1.77375E+01 +1.24384E+01 -1.26059E+01 +1.90081E+01 -2.75831E+00
 +1.96288E+01 +9.09742E+00 +1.40649E+01 +1.96713E+01 +3.77922E+00 +2.59822E+01 -8.44350E+00 +2.61763E+01
 -1.92361E+01 +2.00496E+01 -2.55575E+01 +9.13133E+00 -2.55259E+01 -3.70185E+00 -1.89524E+01 -1.49815E+01
 -7.42604E+00 -2.15759E+01 +6.07888E+00 -2.15432E+01 +1.79742E+01 -1.46804E+01 +2.50082E+01 -2.61585E+00
 +2.51428E+01 +1.15863E+01 +1.81235E+01 +2.42108E+01 +5.58563E+00 +3.18641E+01 -9.33815E+00 +3.23779E+01
 -2.28120E+01 +2.54057E+01 -3.12895E+01 +1.25490E+01 -3.24452E+01 -3.02467E+00 -2.58008E+01 -1.73794E+01
 -1.28787E+01 -2.68188E+01 +3.16367E+00 -2.88440E+01 +1.83254E+01 -2.28115E+01 +2.87799E+01 -1.01175E+01
 +3.18544E+01 +6.14246E+00 +2.67182E+01 +2.19519E+01 +1.46010E+01 +3.33920E+01 -1.51711E+00 +3.76353E+01
 -1.76628E+01 +3.36612E+01 -2.98782E+01 +2.25063E+01 -3.52218E+01 +6.98910E+00 -3.25015E+01 -9.01876E+00
 -2.25556E+01 -2.15835E+01 -8.01091E+00 -2.77047E+01 +7.41274E+00 -2.60593E+01 +1.98676E+01 -1.73040E+01
 +2.63589E+01 -3.86507E+00 +2.54877E+01 +1.07237E+01 +1.77667E+01 +2.27539E+01 +5.43406E+00 +2.93005E+01
 -8.17592E+00 +2.89526E+01 -1.95329E+01 +2.21320E+01 -2.58378E+01 +1.09225E+01 -2.57337E+01 -1.53358E+00
 -1.96144E+01 -1.19024E+01 -9.46033E+00 -1.75537E+01 +1.74803E+00 -1.72434E+01 +1.08695E+01 -1.14044E+01
 +1.54650E+01 -1.97626E+00 +1.44485E+01 +8.17297E+00 +8.35300E+00 +1.60669E+01 -8.55756E-01 +1.94559E+01
 -1.03598E+01 +1.74362E+01 -1.72996E+01 +1.06872E+01 -1.95881E+01 +1.26215E+00 -1.65037E+01 -8.00471E+00
 -8.89710E+00 -1.43092E+01 +1.04427E+00 -1.56807E+01 +1.04088E+01 -1.15549E+01 +1.63823E+01 -2.95516E+00
 +1.70515E+01 +7.76991E+00 +1.19657E+01 +1.75837E+01 +2.29972E+00 +2.36014E+01 -9.43187E+00 +2.39027E+01
 -2.00376E+01 +1.80940E+01 -2.65120E+01 +7.46223E+00 -2.68664E+01 -5.32863E+00 -2.07018E+01 -1.69224E+01
 -9.36371E+00 -2.41590E+01 +4.36901E+00 -2.49290E+01 +1.69865E+01 -1.87665E+01 +2.51592E+01 -7.01514E+00
 +2.66199E+01 +7.48067E+00 +2.07818E+01 +2.10870E+01 +8.92685E+00 +3.03110E+01 -6.09188E+00 +3.27087E+01
 -2.05604E+01 +2.75341E+01 -3.08466E+01 +1.59551E+01 -3.43321E+01 +7.77440E-01 -3.00910E+01 -1.42559E+01
 -1.91393E+01 -2.54115E+01 -4.18710E+00 -2.99151E+01 +1.10440E+01 -2.66594E+01 +2.27632E+01 -1.64874E+01
 +2.80714E+01 -1.97774E+00 +2.56938E+01 +1.32131E+01 +1.62956E+01 +2.52813E+01 +2.30228E+00 +3.12408E+01
 -1.27286E+01 +2.96743E+01 -2.50207E+01 +2.10785E+01 -3.15406E+01 +7.71880E+00 -3.07616E+01 -6.96862E+00
 -2.30336E+01 -1.92676E+01 -1.04677E+01 -2.61358E+01 +3.63009E+00 -2.59740E+01 +1.56265E+01 -1.90152E+01
 +2.25025E+01 -7.23501E+00 +2.26228E+01 +6.18682E+00 +1.61377E+01 +1.77105E+01 +4.91421E+00 +2.43629E+01
 -7.97921E+00 +2.45038E+01 -1.90950E+01 +1.82343E+01 -2.55183E+01 +7.34255E+00 -2.56267E+01 -5.19249E+00
 -1.95006E+01 -1.60060E+01 -8.87852E+00 -2.22444E+01 +3.32652E+00 -2.23181E+01 +1.38179E+01 -1.63097E+01
 +1.98008E+01 -5.93351E+00 +1.97265E+01 +5.93971E+00 +1.36971E+01 +1.60648E+01 +3.42531E+00 +2.16988E+01
 -8.23857E+00 +2.13369E+01 -1.80830E+01 +1.51130E+01 -2.34059E+01 +4.75577E+00 -2.27451E+01 -6.88497E+00
 -1.62726E+01 -1.66135E+01 -5.74530E+00 -2.17563E+01 +5.97182E+00 -2.08879E+01 +1.56838E+01 -1.42190E+01
 +2.07332E+01 -3.54170E+00 +1.97233E+01 +8.25425E+00 +1.29013E+01 +1.79636E+01 +2.09592E+00 +2.29351E+01
 -9.77316E+00 +2.17939E+01 -1.94837E+01 +1.48192E+01 -2.43840E+01 +3.87571E+00 -2.31147E+01 -8.08512E+00
 -1.59827E+01 -1.78203E+01 -4.88630E+00 -2.26724E+01 +7.19149E+00 -2.12920E+01 +1.69851E+01 -1.40087E+01
 +2.18277E+01 -2.74974E+00 +2.03743E+01 +9.47359E+00 +1.29702E+01 +1.93739E+01 +1.56426E+00 +2.42732E+01
 -1.08101E+01 +2.28262E+01 -2.08485E+01 +1.53865E+01 -2.58630E+01 +3.91598E+00 -2.45058E+01 -8.53933E+00
 -1.71331E+01 -1.86655E+01 -5.71071E+00 -2.37696E+01 +6.71275E+00 -2.25020E+01 +1.68232E+01 -1.52172E+01
 +2.19292E+01 -3.87763E+00 +2.06816E+01 +8.47506E+00 +1.34313E+01 +1.85362E+01 +2.13074E+00 +2.36234E+01
 -1.01944E+01 +2.23912E+01 -2.02585E+01 +1.51861E+01 -2.53962E+01 +3.94509E+00 -2.42711E+01 -8.33063E+00
 -1.72255E+01 -1.83844E+01 -6.17757E+00 -2.35768E+01 +5.90268E+00 -2.25870E+01 +1.57960E+01 -1.57565E+01
 +2.08977E+01 -4.98479E+00 +1.99103E+01 +6.79258E+00 +1.31802E+01 +1.63989E+01 +2.59149E+00 +2.12703E+01
