 Created: 19-Jan-2021
 $NMID
 ID='D:\BASISSIMULATI'
 FMTDAT='(8E13.5)'
 VOLUME=   1.00000E+00
 TRAMP=   1.00000E+00
 $END
 +6.66706E+01 +5.14663E-01 +5.93158E+01 -1.83546E+01 +3.92761E+01 -3.07359E+01 +1.19595E+01 -3.20405E+01
 -1.53484E+01 -2.10591E+01 -3.55552E+01 -3.65412E-01 -4.37608E+01 +2.43981E+01 -3.86068E+01 +4.61483E+01
 -2.25916E+01 +5.84270E+01 -1.26582E+00 +5.73027E+01 +1.84481E+01 +4.25512E+01 +3.03175E+01 +1.77693E+01
 +3.06363E+01 -1.06142E+01 +1.93027E+01 -3.51462E+01 -1.76224E-01 -4.94519E+01 -2.17479E+01 -5.00276E+01
 -3.86303E+01 -3.72039E+01 -4.53449E+01 -1.50090E+01 -3.93683E+01 +1.00250E+01 -2.19184E+01 +3.07613E+01
 +2.35793E+00 +4.15074E+01 +2.67042E+01 +3.96223E+01 +4.41967E+01 +2.62181E+01 +4.97455E+01 +5.76275E+00
 +4.15715E+01 -1.52927E+01 +2.17314E+01 -3.04509E+01 -4.45972E+00 -3.51006E+01 -2.99391E+01 -2.78765E+01
 -4.79010E+01 -1.10537E+01 -5.37147E+01 +1.01361E+01 -4.62044E+01 +2.90597E+01 -2.79258E+01 +3.96518E+01
 -4.37061E+00 +3.82188E+01 +1.76638E+01 +2.45506E+01 +3.20563E+01 +2.01676E+00 +3.51202E+01 -2.33811E+01
 +2.66276E+01 -4.47211E+01 +9.81141E+00 -5.61400E+01 -9.64618E+00 -5.45050E+01 -2.53329E+01 -4.02964E+01
 -3.20250E+01 -1.74497E+01 -2.72419E+01 +7.78914E+00 -1.19844E+01 +2.86589E+01 +9.55483E+00 +3.98057E+01
 +3.12181E+01 +3.87771E+01 +4.66842E+01 +2.66614E+01 +5.13157E+01 +7.69745E+00 +4.35150E+01 -1.20195E+01
 +2.51955E+01 -2.63508E+01 +1.23624E+00 -3.09128E+01 -2.19168E+01 -2.43385E+01 -3.80924E+01 -8.64131E+00
 -4.31447E+01 +1.14157E+01 -3.61071E+01 +2.97506E+01 -1.94230E+01 +4.07683E+01 +1.80402E+00 +4.10111E+01
 +2.13140E+01 +3.01731E+01 +3.35053E+01 +1.11882E+01 +3.50324E+01 -1.06275E+01 +2.57283E+01 -2.91219E+01
 +8.59309E+00 -3.90886E+01 -1.11357E+01 -3.77636E+01 -2.75487E+01 -2.56072E+01 -3.58043E+01 -6.14966E+00
 -3.35335E+01 +1.50450E+01 -2.15066E+01 +3.19908E+01 -3.37558E+00 +3.99938E+01 +1.54223E+01 +3.69749E+01
 +2.92706E+01 +2.40229E+01 +3.40184E+01 +5.02825E+00 +2.81833E+01 -1.44832E+01 +1.33692E+01 -2.89707E+01
 -6.21590E+00 -3.44773E+01 -2.49918E+01 -2.97446E+01 -3.76243E+01 -1.65291E+01 -4.05565E+01 +9.61530E-01
 -3.30114E+01 +1.73360E+01 -1.71827E+01 +2.76123E+01 +2.43133E+00 +2.86704E+01 +2.03481E+01 +2.01442E+01
 +3.16847E+01 +4.50097E+00 +3.35460E+01 -1.37040E+01 +2.58173E+01 -2.91712E+01 +1.11435E+01 -3.74022E+01
 -5.88813E+00 -3.59950E+01 -2.01130E+01 -2.53193E+01 -2.72984E+01 -8.38168E+00 -2.53586E+01 +1.00675E+01
 -1.49277E+01 +2.49187E+01 +8.64901E-01 +3.21725E+01 +1.73406E+01 +3.00673E+01 +2.96533E+01 +1.95466E+01
 +3.42010E+01 +3.93866E+00 +2.96569E+01 -1.20445E+01 +1.73282E+01 -2.36910E+01 +7.46669E-01 -2.76487E+01
 -1.53774E+01 -2.28699E+01 -2.65278E+01 -1.08728E+01 -2.96791E+01 +4.74301E+00 -2.41441E+01 +1.93752E+01
 -1.17342E+01 +2.87704E+01 +3.80251E+00 +3.02529E+01 +1.78929E+01 +2.34766E+01 +2.64686E+01 +1.04914E+01
 +2.71284E+01 -4.88585E+00 +1.97993E+01 -1.82014E+01 +6.71459E+00 -2.56612E+01 -8.27342E+00 -2.52177E+01
 -2.08358E+01 -1.71342E+01 -2.74266E+01 -3.87375E+00 -2.62938E+01 +1.06447E+01 -1.79532E+01 +2.21984E+01
 -4.99871E+00 +2.74805E+01 +8.68644E+00 +2.50359E+01 +1.90772E+01 +1.56466E+01 +2.31764E+01 +2.06627E+00
 +1.98675E+01 -1.18082E+01 +1.02088E+01 -2.20794E+01 -2.90595E+00 -2.59700E+01 -1.56115E+01 -2.25989E+01
 -2.42023E+01 -1.31952E+01 -2.61990E+01 -6.98529E-01 -2.10432E+01 +1.11280E+01 -1.02278E+01 +1.88052E+01
 +3.16590E+00 +2.01425E+01 +1.53798E+01 +1.48512E+01 +2.30678E+01 +4.59483E+00 +2.42455E+01 -7.52668E+00
 +1.88295E+01 -1.79007E+01 +8.61835E+00 -2.34584E+01 -3.26767E+00 -2.25571E+01 -1.33166E+01 -1.54356E+01
 -1.86480E+01 -4.11881E+00 -1.78320E+01 +8.19102E+00 -1.12723E+01 +1.80525E+01 -1.04971E+00 +2.27753E+01
 +9.71743E+00 +2.11771E+01 +1.78015E+01 +1.38927E+01 +2.08086E+01 +3.15491E+00 +1.78626E+01 -7.87911E+00
 +9.83744E+00 -1.60533E+01 -9.22920E-01 -1.91180E+01 -1.13050E+01 -1.63553E+01 -1.83384E+01 -8.74806E+00
 -2.00517E+01 +1.34491E+00 -1.60262E+01 +1.09044E+01 -7.49245E+00 +1.71422E+01 +3.04961E+00 +1.83065E+01
 +1.25697E+01 +1.41702E+01 +1.83847E+01 +6.06572E+00 +1.89195E+01 -3.53318E+00 +1.41346E+01 -1.17544E+01
 +5.50335E+00 -1.61731E+01 -4.44486E+00 -1.55127E+01 -1.28759E+01 -1.00006E+01 -1.74725E+01 -1.28198E+00
 -1.70884E+01 +8.07622E+00 -1.20493E+01 +1.53408E+01 -4.02060E+00 +1.84037E+01 +4.51035E+00 +1.63799E+01
 +1.09794E+01 +9.84375E+00 +1.34977E+01 +6.40207E-01 +1.13921E+01 -8.66491E+00 +5.38053E+00 -1.55318E+01
 -2.66140E+00 -1.81705E+01 -1.02680E+01 -1.60341E+01 -1.51140E+01 -9.94364E+00 -1.56931E+01 -1.81521E+00
 -1.17488E+01 +5.92141E+00 -4.33613E+00 +1.10400E+01 +4.49772E+00 +1.21591E+01 +1.23141E+01 +9.12340E+00
 +1.69879E+01 +3.01964E+00 +1.73098E+01 -4.17065E+00 +1.33150E+01 -1.01729E+01 +6.24758E+00 -1.30960E+01
 -1.82238E+00 -1.19857E+01 -8.61075E+00 -7.09461E+00 -1.22799E+01 +2.04362E-01 -1.19556E+01 +7.83008E+00
 -7.95259E+00 +1.36065E+01 -1.65148E+00 +1.58951E+01 +4.93295E+00 +1.40628E+01 +9.75803E+00 +8.65243E+00
 +1.13555E+01 +1.21008E+00 +9.25397E+00 -6.17340E+00 +4.10104E+00 -1.14707E+01 -2.54415E+00 -1.32965E+01
 -8.68325E+00 -1.12901E+01 -1.24727E+01 -6.19335E+00 -1.27647E+01 +3.90372E-01 -9.43770E+00 +6.48265E+00
 -3.42350E+00 +1.03143E+01 +3.57285E+00 +1.08364E+01 +9.57430E+00 +8.01026E+00 +1.29051E+01 +2.79603E+00
 +1.26690E+01 -3.15122E+00 +8.99404E+00 -7.98428E+00 +2.97819E+00 -1.02149E+01 -3.64503E+00 -9.15098E+00
 -9.01803E+00 -5.09394E+00 -1.16967E+01 +7.58762E-01 -1.10569E+01 +6.67271E+00 -7.45459E+00 +1.08893E+01
 -2.09663E+00 +1.21402E+01 +3.33417E+00 +1.00132E+01 +7.18616E+00 +5.06519E+00 +8.32745E+00 -1.34744E+00
 +6.47291E+00 -7.46827E+00 +2.25624E+00 -1.16499E+01 -2.97045E+00 -1.28235E+01 -7.54694E+00 -1.07934E+01
 -1.00019E+01 -6.27276E+00 -9.48980E+00 -6.55825E-01 -6.03959E+00 +4.40361E+00 -5.45457E-01 +7.48064E+00
 +5.49605E+00 +7.79075E+00 +1.04223E+01 +5.40521E+00 +1.28854E+01 +1.21040E+00 +1.22364E+01 -3.37311E+00
 +8.70339E+00 -6.82537E+00 +3.31310E+00 -7.98579E+00 -2.41695E+00 -6.40008E+00 -6.92283E+00 -2.45435E+00
 -9.04394E+00 +2.74086E+00 -8.34693E+00 +7.68037E+00 -5.23135E+00 +1.09089E+01 -7.89903E-01 +1.14489E+01
 +3.53189E+00 +9.08687E+00 +6.37326E+00 +4.43466E+00 +6.86300E+00 -1.24928E+00 +4.87244E+00 -6.42474E+00
 +1.04408E+00 -9.71254E+00 -3.40995E+00 -1.02855E+01 -7.07754E+00 -8.09472E+00 -8.77329E+00 -3.86756E+00
 -7.89578E+00 +1.11881E+00 -4.61014E+00 +5.41888E+00 +1.96678E-01 +7.84170E+00 +5.17352E+00 +7.79080E+00
 +8.89854E+00 +5.42315E+00 +1.02927E+01 +1.58313E+00 +8.93175E+00 -2.46544E+00 +5.16732E+00 -5.42737E+00
 +2.20190E-02 -6.36787E+00 -5.10763E+00 -4.99197E+00 -8.85287E+00 -1.72991E+00 -1.02611E+01 +2.39513E+00
 -9.05796E+00 +6.07622E+00 -5.70979E+00 +8.11596E+00 -1.26979E+00 +7.78709E+00 +2.94257E+00 +5.05404E+00
 +5.73319E+00 +5.90612E-01 +6.38009E+00 -4.41077E+00 +4.83413E+00 -8.58150E+00 +1.71667E+00 -1.07703E+01
 -1.88201E+00 -1.03727E+01 -4.74155E+00 -7.50133E+00 -5.88528E+00 -2.94865E+00 -4.87773E+00 +2.04518E+00
 -1.95786E+00 +6.14968E+00 +2.03043E+00 +8.32202E+00 +5.88907E+00 +8.09550E+00 +8.42291E+00 +5.69641E+00
 +8.79712E+00 +1.95783E+00 +6.78970E+00 -1.94089E+00 +2.86477E+00 -4.82997E+00 -1.95436E+00 -5.89450E+00
 -6.37489E+00 -4.90753E+00 -9.20203E+00 -2.28408E+00 -9.67744E+00 +1.05765E+00 -7.69062E+00 +3.98424E+00
 -3.80346E+00 +5.49709E+00 +9.17371E-01 +5.03981E+00 +5.20943E+00 +2.67165E+00 +7.97387E+00 -9.44063E-01
 +8.58045E+00 -4.73258E+00 +7.03098E+00 -7.52424E+00 +3.93619E+00 -8.40128E+00 +3.16272E-01 -6.97289E+00
 -2.71332E+00 -3.49798E+00 -4.27648E+00 +1.18018E+00 -3.99255E+00 +5.86792E+00 -2.07932E+00 +9.35564E+00
 +7.25394E-01 +1.07556E+01 +3.39835E+00 +9.74582E+00 +4.95006E+00 +6.65117E+00 +4.73289E+00 +2.34008E+00
 +2.64622E+00 -2.03052E+00 -8.22189E-01 -5.34640E+00 -4.73082E+00 -6.84661E+00 -7.95538E+00 -6.32407E+00
 -9.51643E+00 -4.16061E+00 -8.86786E+00 -1.18949E+00 -6.06194E+00 +1.57044E+00 -1.74331E+00 +3.22834E+00
 +3.02612E+00 +3.28921E+00 +7.06018E+00 +1.79707E+00 +9.37455E+00 -6.87214E-01 +9.45272E+00 -3.26510E+00
 +7.37641E+00 -4.98172E+00 +3.78569E+00 -5.12479E+00 -3.16829E-01 -3.45184E+00 -3.85841E+00 -2.78140E-01
 -5.99910E+00 +3.60083E+00 -6.35757E+00 +7.13004E+00 -5.09631E+00 +9.29431E+00 -2.84493E+00 +9.40952E+00
 -4.87803E-01 +7.32125E+00 +1.11814E+00 +3.45396E+00 +1.41044E+00 -1.30263E+00 +2.93569E-01 -5.83666E+00
 -1.83346E+00 -9.11599E+00 -4.20129E+00 -1.04626E+01 -5.90804E+00 -9.72213E+00 -6.19933E+00 -7.28297E+00
 -4.70717E+00 -3.94251E+00 -1.57667E+00 -6.63220E-01 +2.55700E+00 +1.70858E+00 +6.73511E+00 +2.67904E+00
 +9.93725E+00 +2.23070E+00 +1.13631E+01 +8.00725E-01 +1.06534E+01 -8.76270E-01 +7.98701E+00 -2.01117E+00
 +4.02828E+00 -2.01496E+00 -2.58972E-01 -6.88574E-01 -3.87623E+00 +1.70830E+00 -6.05748E+00 +4.52909E+00
 -6.46322E+00 +6.93100E+00 -5.24852E+00 +8.12741E+00 -2.98920E+00 +7.62738E+00 -4.91771E-01 +5.39163E+00
 +1.45454E+00 +1.85920E+00 +2.30979E+00 -2.16302E+00 +1.93202E+00 -5.71612E+00 +6.01307E-01 -7.94817E+00
 -1.08503E+00 -8.34269E+00 -2.41177E+00 -6.85214E+00 -2.77844E+00 -3.90024E+00 -1.89503E+00 -2.54902E-01
 +1.17651E-01 +3.18973E+00 +2.75256E+00 +5.65825E+00 +5.25819E+00 +6.69605E+00 +6.85568E+00 +6.27254E+00
 +6.96724E+00 +4.75914E+00 +5.38935E+00 +2.79301E+00 +2.36039E+00 +1.06968E+00 -1.49627E+00 +1.27749E-01
 -5.33705E+00 +1.89254E-01 -8.32294E+00 +1.10163E+00 -9.84025E+00 +2.39610E+00 -9.65511E+00 +3.44273E+00
 -7.95987E+00 +3.65429E+00 -5.30095E+00 +2.67705E+00 -2.41194E+00 +5.11639E-01 -2.18725E-03 -2.47177E+00
 +1.43755E+00 -5.62831E+00 +1.75738E+00 -8.21517E+00 +1.16581E+00 -9.59859E+00 +1.41191E-01 -9.43114E+00
 -7.33163E-01 -7.74856E+00 -9.59292E-01 -4.95918E+00 -2.82843E-01 -1.73038E+00 +1.22715E+00 +1.19433E+00
 +3.19928E+00 +3.19439E+00 +5.07369E+00 +3.93105E+00 +6.27356E+00 +3.42237E+00 +6.38258E+00 +2.01554E+00
 +5.27540E+00 +2.68133E-01 +3.16297E+00 -1.22465E+00 +5.39826E-01 -2.00497E+00 -1.95066E+00 -1.87878E+00
 -3.69350E+00 -9.58345E-01 -4.27028E+00 +3.88526E-01 -3.57039E+00 +1.66480E+00 -1.81452E+00 +2.40615E+00
