 Created: 19-Jan-2021
 $NMID
 ID='D:\BASISSIMULATI'
 FMTDAT='(8E13.5)'
 VOLUME=   1.00000E+00
 TRAMP=   1.00000E+00
 $END
 +1.11687E+02 +5.15641E-01 +1.07536E+02 +2.82932E+01 +9.60765E+01 +5.38470E+01 +7.82249E+01 +7.52458E+01
 +5.54000E+01 +9.08956E+01 +2.94074E+01 +9.96672E+01 +2.29182E+00 +1.00985E+02 -2.38291E+01 +9.48715E+01
 -4.69362E+01 +8.19414E+01 -6.52718E+01 +6.33489E+01 -7.74802E+01 +4.06904E+01 -8.27154E+01 +1.58717E+01
 -8.07053E+01 -9.04924E+00 -7.17702E+01 -3.20317E+01 -5.67908E+01 -5.12181E+01 -3.71323E+01 -6.50850E+01
 -1.45276E+01 -7.25652E+01 +9.06850E+00 -7.31310E+01 +3.16417E+01 -6.68335E+01 +5.12857E+01 -5.42931E+01
 +6.63587E+01 -3.66432E+01 +7.56174E+01 -1.54316E+01 +7.83170E+01 +7.51095E+00 +7.42691E+01 +3.02263E+01
 +6.38528E+01 +5.07928E+01 +4.79788E+01 +6.74856E+01 +2.80094E+01 +7.89194E+01 +5.64063E+00 +8.41626E+01
 -1.72421E+01 +8.28118E+01 -3.87236E+01 +7.50226E+01 -5.70207E+01 +6.14932E+01 -7.06313E+01 +4.34017E+01
 -7.84599E+01 +2.23050E+01 -7.99080E+01 +4.79775E-03 -7.49224E+01 -2.16058E+01 -6.39976E+01 -4.07030E+01
 -4.81315E+01 -5.56862E+01 -2.87398E+01 -6.53136E+01 -7.53424E+00 -6.88062E+01 +1.36231E+01 -6.59135E+01
 +3.28784E+01 -5.69334E+01 +4.85436E+01 -4.26869E+01 +5.92395E+01 -2.44479E+01 +6.40138E+01 -3.83524E+00
 +6.24215E+01 +1.73247E+01 +5.45642E+01 +3.71525E+01 +4.10822E+01 +5.38753E+01 +2.31016E+01 +6.59770E+01
 +2.14090E+00 +7.23277E+01 -2.00166E+01 +7.22805E+01 -4.14716E+01 +6.57276E+01 -6.03688E+01 +5.31124E+01
 -7.50527E+01 +3.53937E+01 -8.42078E+01 +1.39686E+01 -8.69698E+01 -9.44304E+00 -8.30005E+01 -3.29405E+01
 -7.25181E+01 -5.45996E+01 -5.62817E+01 -7.26331E+01 -3.55307E+01 -8.55392E+01 -1.18844E+01 -9.22271E+01
 +1.27910E+01 -9.21093E+01 +3.65348E+01 -8.51513E+01 +5.74535E+01 -7.18767E+01 +7.38768E+01 -5.33252E+01
 +8.44952E+01 -3.09688E+01 +8.84681E+01 -6.59176E+00 +8.54937E+01 +1.78555E+01 +7.58341E+01 +4.04159E+01
 +6.02944E+01 +5.92858E+01 +4.01565E+01 +7.29628E+01 +1.70745E+01 +8.03687E+01 -7.06101E+00 +8.09373E+01
 -3.02781E+01 +7.46604E+01 -5.06847E+01 +6.20874E+01 -6.66232E+01 +4.42797E+01 -7.68062E+01 +2.27224E+01
 -8.04203E+01 -7.97990E-01 -7.71921E+01 -2.43407E+01 -6.74089E+01 -4.59703E+01 -5.18930E+01 -6.39153E+01
 -3.19331E+01 -7.67131E+01 -9.17630E+00 -8.33285E+01 +1.45082E+01 -8.32373E+01 +3.71836E+01 -7.64676E+01
 +5.70051E+01 -6.35947E+01 +7.23712E+01 -4.56915E+01 +8.20543E+01 -2.42385E+01 +8.53005E+01 -9.99064E-01
 +8.18891E+01 +2.21267E+01 +7.21482E+01 +4.32596E+01 +5.69254E+01 +6.06966E+01 +3.75141E+01 +7.30507E+01
 +1.55453E+01 +7.93637E+01 -7.15029E+00 +7.91841E+01 -2.86945E+01 +7.26013E+01 -4.73180E+01 +6.02357E+01
 -6.15073E+01 +4.31844E+01 -7.01287E+01 +2.29273E+01 -7.25217E+01 +1.20234E+00 -6.85510E+01 -2.01412E+01
 -5.86165E+01 -3.92972E+01 -4.36164E+01 -5.46538E+01 -2.48712E+01 -6.49273E+01 -4.01070E+00 -6.92685E+01
 +1.71633E+01 -6.73325E+01 +3.68286E+01 -5.93058E+01 +5.32956E+01 -4.58894E+01 +6.51488E+01 -2.82386E+01
 +7.13650E+01 -7.86517E+00 +7.13985E+01 +1.34902E+01 +6.52263E+01 +3.40045E+01 +5.33493E+01 +5.19252E+01
 +3.67500E+01 +6.57176E+01 +1.68098E+01 +7.41931E+01 -4.80722E+00 +7.66087E+01 -2.62933E+01 +7.27295E+01
 -4.58485E+01 +6.28481E+01 -6.18313E+01 +4.77602E+01 -7.28961E+01 +2.86984E+01 -7.81051E+01 +7.22934E+00
 -7.70073E+01 -1.48770E+01 -6.96758E+01 -3.57948E+01 -5.67026E+01 -5.37942E+01 -3.91487E+01 -6.73859E+01
 -1.84566E+01 -7.54445E+01 +3.66983E+00 -7.73029E+01 +2.54068E+01 -7.28071E+01 +4.49622E+01 -6.23295E+01
 +6.07242E+01 -4.67378E+01 +7.13949E+01 -2.73228E+01 +7.60983E+01 -5.69150E+00 +7.44521E+01 +1.63665E+01
 +6.65997E+01 +3.70273E+01 +5.31980E+01 +5.45840E+01 +3.53619E+01 +6.75879E+01 +1.45725E+01 +7.49684E+01
 -7.44670E+00 +7.61212E+01 -2.88724E+01 +7.09581E+01 -4.79329E+01 +5.99133E+01 -6.30545E+01 +4.39074E+01
 -7.29917E+01 +2.42697E+01 -7.69302E+01 +2.62825E+00 -7.45532E+01 -1.92260E+01 -6.60670E+01 -3.94875E+01
 -5.21833E+01 -5.64859E+01 -3.40591E+01 -6.88242E+01 -1.32001E+01 -7.54938E+01 +8.66470E+00 -7.59578E+01
 +2.97270E+01 -7.01944E+01 +4.82491E+01 -5.86974E+01 +6.27077E+01 -4.24350E+01 +7.19203E+01 -2.27675E+01
 +7.51422E+01 -1.33475E+00 +7.21279E+01 +2.00816E+01 +6.31498E+01 +3.97055E+01 +4.89752E+01 +5.59147E+01
 +3.08010E+01 +6.73744E+01 +1.01539E+01 +7.31483E+01 -1.12377E+01 +7.27754E+01 -3.15872E+01 +6.63075E+01
 -4.91992E+01 +5.43037E+01 -6.26096E+01 +3.77835E+01 -7.07078E+01 +1.81406E+01 -7.28279E+01 -2.97318E+00
 -6.88041E+01 -2.37859E+01 -5.89834E+01 -4.25532E+01 -4.41963E+01 -5.77037E+01 -2.56869E+01 -6.79692E+01
 -5.00927E+00 -7.24901E+01 +1.61026E+01 -7.08869E+01 +3.58787E+01 -6.32908E+01 +5.26610E+01 -5.03330E+01
 +6.50404E+01 -3.30915E+01 +7.19744E+01 -1.30015E+01 +7.28735E+01 +8.26414E+00 +6.76496E+01 +2.89340E+01
 +5.67235E+01 +4.72851E+01 +4.09896E+01 +6.17860E+01 +2.17416E+01 +7.12234E+01 +5.65097E-01 +7.48030E+01
 -2.07939E+01 +7.22149E+01 -4.05738E+01 +6.36590E+01 -5.71426E+01 +4.98279E+01 -6.91336E+01 +3.18498E+01
 -7.55575E+01 +1.11944E+01 -7.58840E+01 -1.04487E+01 -7.00851E+01 -3.13100E+01 -5.86363E+01 -4.96859E+01
 -4.24773E+01 -6.40795E+01 -2.29330E+01 -7.33237E+01 -1.60385E+00 -7.66767E+01 +1.97671E+01 -7.38826E+01
 +3.94379E+01 -6.51908E+01 +5.58119E+01 -5.13347E+01 +6.75686E+01 -3.34696E+01 +7.37721E+01 -1.30760E+01
 +7.39472E+01 +8.16339E+00 +6.81169E+01 +2.85035E+01 +5.67987E+01 +4.62813E+01 +4.09605E+01 +6.00526E+01
 +2.19383E+01 +6.87112E+01 +1.32453E+00 +7.15788E+01 -1.91648E+01 +6.84597E+01 -3.78331E+01 +5.96546E+01
 -5.31435E+01 +4.59344E+01 -6.38460E+01 +2.84735E+01 -6.90800E+01 +8.75118E+00 -6.84440E+01 -1.15729E+01
 -6.20278E+01 -3.07977E+01 -5.04023E+01 -4.73220E+01 -3.45704E+01 -5.97781E+01 -1.58815E+01 -6.71447E+01
 +4.08205E+00 -6.88306E+01 +2.36386E+01 -6.47231E+01 +4.11475E+01 -5.51950E+01 +5.51468E+01 -4.10725E+01
 +6.44745E+01 -2.35641E+01 +6.83653E+01 -4.15835E+00 +6.65139E+01 +1.55014E+01 +5.90987E+01 +3.37556E+01
 +4.67666E+01 +4.90677E+01 +3.05772E+01 +6.01527E+01 +1.19132E+01 +6.60848E+01 -7.63620E+00 +6.63749E+01
 -2.64091E+01 +6.10104E+01 -4.28106E+01 +5.04570E+01 -5.54470E+01 +3.56181E+01 -6.32426E+01 +1.77596E+01
 -6.55304E+01 -1.59688E+00 -6.21082E+01 -2.08015E+01 -5.32557E+01 -3.82151E+01 -3.97119E+01 -5.23464E+01
 -2.26133E+01 -6.19775E+01 -3.39926E+00 -6.62665E+01 +1.63080E+01 -6.48186E+01 +3.48390E+01 -5.77202E+01
 +5.06162E+01 -4.55324E+01 +6.22866E+01 -2.92455E+01 +6.88347E+01 -1.01971E+01 +6.96681E+01 +1.00380E+01
 +6.46681E+01 +2.97788E+01 +5.42010E+01 +4.73774E+01 +3.90882E+01 +6.13558E+01 +2.05401E+01 +7.05292E+01
 +5.64396E-02 +7.41044E+01 -2.06970E+01 +7.17467E+01 -4.00256E+01 +6.36085E+01 -5.63455E+01 +5.03175E+01
 -6.83144E+01 +3.29260E+01 -7.49425E+01 +1.28251E+01 -7.56739E+01 -8.36955E+00 -7.04329E+01 -2.89499E+01
 -5.96305E+01 -4.72556E+01 -4.41309E+01 -6.18101E+01 -2.51806E+01 -7.14418E+01 -4.30596E+00 -7.53791E+01
 +1.68113E+01 -7.33141E+01 +3.64725E+01 -6.54264E+01 +5.31001E+01 -5.23681E+01 +6.53672E+01 -3.52092E+01
 +7.23048E+01 -1.53495E+01 +7.33801E+01 +5.59716E+00 +6.85386E+01 +2.59351E+01 +5.82071E+01 +4.40259E+01
 +4.32566E+01 +5.84223E+01 +2.49291E+01 +6.79857E+01 +4.73427E+00 +7.19778E+01 -1.56754E+01 +7.01195E+01
 -3.46414E+01 +6.26109E+01 -5.06347E+01 +5.01126E+01 -6.23813E+01 +3.36883E+01 -6.89649E+01 +1.47155E+01
 -6.99005E+01 -5.23047E+00 -6.51714E+01 -2.45074E+01 -5.52278E+01 -4.15423E+01 -4.09459E+01 -5.49609E+01
 -2.35532E+01 -6.37000E+01 -4.52351E+00 -6.70938E+01 +1.45465E+01 -6.49264E+01 +3.20712E+01 -5.74466E+01
 +4.66082E+01 -4.53440E+01 +5.69777E+01 -2.96888E+01 +6.23591E+01 -1.18395E+01 +6.23581E+01 +6.67236E+00
 +5.70366E+01 +2.42717E+01 +4.69053E+01 +3.94726E+01 +3.28781E+01 +5.10029E+01 +1.61931E+01 +5.79101E+01
 -1.69325E+00 +5.96401E+01 -1.92302E+01 +5.60828E+01 -3.49041E+01 +4.75793E+01 -4.73663E+01 +3.48918E+01
 -5.55473E+01 +1.91378E+01 -5.87462E+01 +1.69468E+00 -5.66902E+01 -1.59177E+01 -4.95567E+01 -3.21658E+01
 -3.79584E+01 -4.56329E+01 -2.28912E+01 -5.51387E+01 -5.64993E+00 -5.98403E+01 +1.22811E+01 -5.93035E+01
 +2.93534E+01 -5.35404E+01 +4.40855E+01 -4.30095E+01 +5.51883E+01 -2.85778E+01 +6.16745E+01 -1.14487E+01
 +6.29429E+01 +6.93778E+00 +5.88308E+01 +2.50264E+01 +4.96292E+01 +4.12764E+01 +3.60600E+01 +5.42913E+01
 +1.92178E+01 +6.29365E+01 +4.80035E-01 +6.64356E+01 -1.86074E+01 +6.44367E+01 -3.64577E+01 +5.70440E+01
 -5.15753E+01 +4.48112E+01 -6.26805E+01 +2.86973E+01 -6.88168E+01 +9.98946E+00 -6.94309E+01 -9.80279E+00
 -6.44208E+01 -2.90708E+01 -5.41454E+01 -4.62395E+01 -3.93970E+01 -5.98968E+01 -2.13375E+01 -6.89104E+01
 -1.40412E+00 -7.25217E+01 +1.88077E+01 -7.04089E+01 +3.76743E+01 -6.27140E+01 +5.36767E+01 -5.00323E+01
 +6.55248E+01 -3.33644E+01 +7.22626E+01 -1.40350E+01 +7.33463E+01 +6.41507E+00 +6.86886E+01 +2.63544E+01
 +5.86656E+01 +4.41936E+01 +4.40857E+01 +5.85147E+01 +2.61229E+01 +6.81860E+01 +6.22097E+00 +7.24538E+01
 -1.40248E+01 +7.10022E+01 -3.29978E+01 +6.39781E+01 -4.91916E+01 +5.19769E+01 -6.13320E+01 +3.59927E+01
 -6.84797E+01 +1.73352E+01 -7.01052E+01 -2.47812E+00 -6.61297E+01 -2.18470E+01 -5.69287E+01 -3.92197E+01
 -4.32988E+01 -5.32189E+01 -2.63897E+01 -6.27535E+01 -7.60737E+00 -6.71061E+01 +1.15027E+01 -6.59886E+01
 +2.93837E+01 -5.95630E+01 +4.45955E+01 -4.84248E+01 +5.59323E+01 -3.35498E+01 +6.25207E+01 -1.62111E+01
 +6.38884E+01 +2.12866E+00 +6.00010E+01 +1.99404E+01 +5.12602E+01 +3.57557E+01 +3.84679E+01 +4.82887E+01
 +2.27553E+01 +5.65418E+01 +5.48614E+00 +5.98867E+01 -1.18593E+01 +5.81138E+01 -2.78092E+01 +5.14475E+01
 -4.10238E+01 +4.05235E+01 -5.04076E+01 +2.63326E+01 -5.51999E+01 +1.01354E+01 -5.50373E+01 -6.64634E+00
 -4.99824E+01 -2.25507E+01 -4.05162E+01 -3.61996E+01 -2.74961E+01 -4.64155E+01 -1.20810E+01 -5.23208E+01
 +4.36728E+00 -5.34113E+01 +2.04011E+01 -4.95986E+01 +3.46098E+01 -4.12168E+01 +4.57400E+01 -2.89936E+01
 +5.28022E+01 -1.39884E+01 +5.51549E+01 +2.49776E+00 +5.25599E+01 +1.90327E+01 +4.52030E+01 +3.41747E+01
 +3.36789E+01 +4.65947E+01 +1.89421E+01 +5.51897E+01 +2.22715E+00 +5.91766E+01 -1.50551E+01 +5.81599E+01
