 Created: 19-Jan-2021
 $NMID
 ID='D:\BASISSIMULATI'
 FMTDAT='(8E13.5)'
 VOLUME=   1.00000E+00
 TRAMP=   1.00000E+00
 $END
 +2.88076E+01 +1.32853E-01 +2.79620E+01 +6.13526E+00 +2.57402E+01 +1.17233E+01 +2.23048E+01 +1.65640E+01
 +1.79000E+01 +2.03825E+01 +1.28320E+01 +2.29820E+01 +7.44516E+00 +2.42570E+01 +2.09475E+00 +2.41994E+01
 -2.88040E+00 +2.28971E+01 -7.18344E+00 +2.05245E+01 -1.05813E+01 +1.73263E+01 -1.29208E+01 +1.35967E+01
 -1.41385E+01 +9.65453E+00 -1.42624E+01 +5.81661E+00 -1.34070E+01 +2.37262E+00 -1.17607E+01 -4.37836E-01
 -9.56785E+00 -2.44336E+00 -7.10631E+00 -3.55296E+00 -4.66300E+00 -3.76128E+00 -2.50885E+00 -3.14659E+00
 -8.75678E-01 -1.86183E+00 +6.31970E-02 -1.19522E-01 +2.07178E-01 +1.82819E+00 -4.63799E-01 +3.71250E+00
 -1.88837E+00 +5.27203E+00 -3.92978E+00 +6.27614E+00 -6.38827E+00 +6.54529E+00 -9.01876E+00 +5.96701E+00
 -1.15522E+01 +4.50606E+00 -1.37189E+01 +2.20805E+00 -1.52719E+01 -8.03775E-01 -1.60084E+01 -4.33825E+00
 -1.57871E+01 -8.15164E+00 -1.45413E+01 -1.19673E+01 -1.22848E+01 -1.54981E+01 -9.11184E+00 -1.84698E+01
 -5.19063E+00 -2.06430E+01 -7.50268E-01 -2.18326E+01 +3.93663E+00 -2.19226E+01 +8.57503E+00 -2.08758E+01
 +1.28702E+01 -1.87363E+01 +1.65500E+01 -1.56265E+01 +1.93862E+01 -1.17372E+01 +2.12104E+01 -7.31293E+00
 +2.19271E+01 -2.63302E+00 +2.15194E+01 +2.01009E+00 +2.00493E+01 +6.33283E+00 +1.76512E+01 +1.00817E+01
 +1.45207E+01 +1.30519E+01 +1.08978E+01 +1.51011E+01 +7.04768E+00 +1.61593E+01 +3.23957E+00 +1.62312E+01
 -2.73999E-01 +1.53940E+01 -3.27635E+00 +1.37889E+01 -5.60238E+00 +1.16075E+01 -7.14972E+00 +9.07462E+00
 -7.88464E+00 +6.42959E+00 -7.84217E+00 +3.90572E+00 -7.12066E+00 +1.71159E+00 -5.87123E+00 +1.45484E-02
 -4.28323E+00 -1.07191E+00 -2.56682E+00 -1.49602E+00 -9.34236E-01 -1.27026E+00 +4.18672E-01 -4.68499E-01
 +1.32915E+00 +7.82016E-01 +1.68116E+00 +2.31295E+00 +1.41476E+00 +3.93045E+00 +5.30659E-01 +5.43259E+00
 -9.10448E-01 +6.62726E+00 -2.79361E+00 +7.34897E+00 -4.95983E+00 +7.47323E+00 -7.21986E+00 +6.92730E+00
 -9.37044E+00 +5.69659E+00 -1.12115E+01 +3.82606E+00 -1.25632E+01 +1.41673E+00 -1.32805E+01 -1.38243E+00
 -1.32660E+01 -4.38649E+00 -1.24773E+01 -7.38940E+00 -1.09314E+01 -1.01804E+01 -8.70266E+00 -1.25609E+01
 -5.91775E+00 -1.43598E+01 -2.74528E+00 -1.54469E+01 +6.17165E-01 -1.57429E+01 +3.95833E+00 -1.52250E+01
 +7.06947E+00 -1.39280E+01 +9.76006E+00 -1.19413E+01 +1.18719E+01 -9.40131E+00 +1.32903E+01 -6.48013E+00
 +1.39519E+01 -3.37225E+00 +1.38483E+01 -2.79348E-01 +1.30249E+01 +2.60506E+00 +1.15763E+01 +5.10985E+00
 +9.63750E+00 +7.09855E+00 +7.37206E+00 +8.47846E+00 +4.95892E+00 +9.20614E+00 +2.57790E+00 +9.28889E+00
 +3.95745E-01 +8.78212E+00 -1.44634E+00 +7.78302E+00 -2.84277E+00 +6.42116E+00 -3.73043E+00 +4.84672E+00
 -4.09198E+00 +3.21752E+00 -3.95524E+00 +1.68583E+00 -3.38905E+00 +3.86072E-01 -2.49581E+00 -5.75644E-01
 -1.40159E+00 -1.12930E+00 -2.44555E-01 -1.24555E+00 +8.37213E-01 -9.36827E-01 +1.71759E+00 -2.54940E-01
 +2.29294E+00 +7.14550E-01 +2.49043E+00 +1.86057E+00 +2.27370E+00 +3.05672E+00 +1.64522E+00 +4.17246E+00
 +6.45491E-01 +5.08440E+00 -6.50979E-01 +5.68679E+00 -2.14240E+00 +5.90023E+00 -3.70851E+00 +5.67817E+00
 -5.22082E+00 +5.01048E+00 -6.55323E+00 +3.92403E+00 -7.59238E+00 +2.48024E+00 -8.24667E+00 +7.69894E-01
 -8.45349E+00 -1.09437E+00 -8.18387E+00 -2.98712E+00 -7.44446E+00 -4.78007E+00 -6.27665E+00 -6.35205E+00
 -4.75292E+00 -7.59820E+00 -2.97086E+00 -8.43773E+00 -1.04542E+00 -8.81957E+00 +9.00080E-01 -8.72567E+00
 +2.74331E+00 -8.17154E+00 +4.37199E+00 -7.20436E+00 +5.69186E+00 -5.89856E+00 +6.63314E+00 -4.34953E+00
 +7.15482E+00 -2.66597E+00 +7.24666E+00 -9.61335E-01 +6.92876E+00 +6.54594E-01 +6.24884E+00 +2.08370E+00
 +5.27756E+00 +3.24624E+00 +4.10220E+00 +4.08592E+00 +2.81939E+00 +4.57296E+00 +1.52745E+00 +4.70499E+00
 +3.18902E-01 +4.50585E+00 -7.26224E-01 +4.02237E+00 -1.54579E+00 +3.31957E+00 -2.09934E+00 +2.47468E+00
 -2.36999E+00 +1.57049E+00 -2.36446E+00 +6.88633E-01 -2.11117E+00 -9.68062E-02 -1.65684E+00 -7.24658E-01
 -1.06175E+00 -1.15083E+00 -3.94184E-01 -1.35092E+00 +2.75439E-01 -1.32108E+00 +8.80368E-01 -1.07735E+00
 +1.36271E+00 -6.53286E-01 +1.67770E+00 -9.64965E-02 +1.79670E+00 +5.35900E-01 +1.70879E+00 +1.18228E+00
 +1.42095E+00 +1.78163E+00 +9.56747E-01 +2.27846E+00 +3.53832E-01 +2.62694E+00 -3.39523E-01 +2.79419E+00
 -1.06859E+00 +2.76238E+00 -1.77663E+00 +2.52961E+00 -2.40931E+00 +2.10950E+00 -2.91874E+00 +1.52966E+00
 -3.26681E+00 +8.29161E-01 -3.42772E+00 +5.52839E-02 -3.38937E+00 -7.40208E-01 -3.15387E+00 -1.50492E+00
 -2.73681E+00 -2.18957E+00 -2.16570E+00 -2.75129E+00 -1.47770E+00 -3.15638E+00 -7.16674E-01 -3.38220E+00
 +6.99894E-02 -3.41828E+00 +8.34636E-01 -3.26652E+00 +1.53247E+00 -2.94055E+00 +2.12428E+00 -2.46435E+00
 +2.57874E+00 -1.87028E+00 +2.87392E+00 -1.19668E+00 +2.99830E+00 -4.85237E-01 +2.95095E+00 +2.21683E-01
 +2.74107E+00 +8.83644E-01 +2.38703E+00 +1.46443E+00 +1.91483E+00 +1.93396E+00 +1.35628E+00 +2.26976E+00
 +7.46864E-01 +2.45793E+00 +1.23662E-01 +2.49349E+00 -4.76864E-01 +2.38036E+00 -1.02083E+00 +2.13076E+00
 -1.47873E+00 +1.76422E+00 -1.82684E+00 +1.30629E+00 -2.04843E+00 +7.86918E-01 -2.13436E+00 +2.38771E-01
 -2.08352E+00 -3.04661E-01 -1.90265E+00 -8.10876E-01 -1.60590E+00 -1.25013E+00 -1.21394E+00 -1.59703E+00
 -7.52817E-01 -1.83196E+00 -2.52438E-01 -1.94211E+00 +2.55094E-01 -1.92227E+00 +7.37330E-01 -1.77517E+00
 +1.16337E+00 -1.51139E+00 +1.50572E+00 -1.14886E+00 +1.74204E+00 -7.11881E-01 +1.85662E+00 -2.29784E-01
 +1.84150E+00 +2.64811E-01 +1.69724E+00 +7.37992E-01 +1.43309E+00 +1.15672E+00 +1.06662E+00 +1.49105E+00
 +6.22904E-01 +1.71623E+00 +1.32964E-01 +1.81458E+00 -3.68091E-01 +1.77698E+00 -8.43406E-01 +1.60382E+00
 -1.25693E+00 +1.30533E+00 -1.57602E+00 +9.01264E-01 -1.77399E+00 +4.19835E-01 -1.83230E+00 -1.04010E-01
 -1.74225E+00 -6.30882E-01 -1.50609E+00 -1.11971E+00 -1.13732E+00 -1.53076E+00 -6.60135E-01 -1.82870E+00
 -1.08088E-01 -1.98549E+00 +4.78087E-01 -1.98285E+00 +1.05328E+00 -1.81411E+00 +1.57130E+00 -1.48523E+00
 +1.98838E+00 -1.01492E+00 +2.26671E+00 -4.33738E-01 +2.37765E+00 +2.17736E-01 +2.30434E+00 +8.91655E-01
 +2.04353E+00 +1.53630E+00 +1.60646E+00 +2.09996E+00 +1.01856E+00 +2.53498E+00 +3.18068E-01 +2.80164E+00
 -4.46409E-01 +2.87160E+00 -1.21931E+00 +2.73059E+00 -1.94216E+00 +2.38007E+00 -2.55806E+00 +1.83772E+00
 -3.01616E+00 +1.13668E+00 -3.27587E+00 +3.23534E-01 -3.31042E+00 -5.44854E-01 -3.10940E+00 -1.40544E+00
 -2.68011E+00 -2.19369E+00 -2.04762E+00 -2.84861E+00 -1.25330E+00 -3.31760E+00 -3.52127E-01 -3.56081E+00
 +5.91258E-01 -3.55463E+00 +1.50732E+00 -3.29403E+00 +2.32695E+00 -2.79337E+00 +2.98688E+00 -2.08583E+00
 +3.43484E+00 -1.22126E+00 +3.63384E+00 -2.62604E-01 +3.56550E+00 +7.18693E-01 +3.23185E+00 +1.64818E+00
 +2.65559E+00 +2.45420E+00 +1.87872E+00 +3.07360E+00 +9.59578E-01 +3.45693E+00 -3.15454E-02 +3.57258E+00
 -1.01774E+00 +3.40960E+00 -1.92152E+00 +2.97895E+00 -2.67102E+00 +2.31295E+00 -3.20580E+00 +1.46303E+00
 -3.48192E+00 +4.95886E-01 -3.47567E+00 -5.11652E-01 -3.18579E+00 -1.47869E+00 -2.63392E+00 -2.32673E+00
 -1.86308E+00 -2.98607E+00 -9.34568E-01 -3.40160E+00 +7.68523E-02 -3.53744E+00 +1.08883E+00 -3.38015E+00
 +2.01804E+00 -2.94012E+00 +2.78702E+00 -2.25106E+00 +3.33056E+00 -1.36750E+00 +3.60120E+00 -3.60679E-01
 +3.57343E+00 +6.87155E-01 +3.24603E+00 +1.68930E+00 +2.64253E+00 +2.56167E+00 +1.80965E+00 +3.22981E+00
 +8.13739E-01 +3.63509E+00 -2.64387E-01 +3.73981E+00 -1.33588E+00 +3.53061E+00 -2.31109E+00 +3.01990E+00
 -3.10688E+00 +2.24529E+00 -3.65364E+00 +1.26680E+00 -3.90119E+00 +1.62310E-01 -3.82316E+00 -9.78580E-01
 -3.41959E+00 -2.06173E+00 -2.71731E+00 -2.99609E+00 -1.76811E+00 -3.70126E+00 -6.44953E-01 -4.11415E+00
 +5.63714E-01 -4.19447E+00 +1.76092E+00 -3.92829E+00 +2.84893E+00 -3.32959E+00 +3.73720E+00 -2.43955E+00
 +4.34979E+00 -1.32351E+00 +4.63172E+00 -6.60851E-02 +4.55367E+00 +1.23545E+00 +4.11469E+00 +2.47887E+00
 +3.34258E+00 +3.56514E+00 +2.29198E+00 +4.40643E+00 +1.04025E+00 +4.93327E+00 -3.18474E-01 +5.10031E+00
 -1.68074E+00 +4.89014E+00 -2.94193E+00 +4.31494E+00 -4.00466E+00 +3.41565E+00 -4.78660E+00 +2.25893E+00
 -5.22712E+00 +9.31927E-01 -5.29226E+00 -4.64599E-01 -4.97751E+00 -1.82430E+00 -4.30829E+00 -3.04376E+00
 -3.33791E+00 -4.03075E+00 -2.14334E+00 -4.71174E+00 -8.19021E-01 -5.03774E+00 +5.30766E-01 -4.98828E+00
 +1.80036E+00 -4.57309E+00 +2.89129E+00 -3.83117E+00 +3.72028E+00 -2.82767E+00 +4.22599E+00 -1.64846E+00
 +4.37408E+00 -3.93109E-01 +4.15988E+00 +8.33377E-01 +3.60883E+00 +1.92918E+00 +2.77426E+00 +2.80409E+00
 +1.73299E+00 +3.38701E+00 +5.78938E-01 +3.63183E+00 -5.84744E-01 +3.52129E+00 -1.65423E+00 +3.06849E+00
 -2.53373E+00 +2.31584E+00 -3.14354E+00 +1.33158E+00 -3.42678E+00 +2.04181E-01 -3.35431E+00 -9.64957E-01
 -2.92727E+00 -2.06996E+00 -2.17726E+00 -3.00927E+00 -1.16389E+00 -3.69422E+00 +2.99190E-02 -4.05648E+00
 +1.30467E+00 -4.05395E+00 +2.55235E+00 -3.67449E+00 +3.66526E+00 -2.93722E+00 +4.54490E+00 -1.89126E+00
 +5.11013E+00 -6.11986E-01 +5.30395E+00 +8.04854E-01 +5.09833E+00 +2.25072E+00 +4.49679E+00 +3.61297E+00
 +3.53434E+00 +4.78387E+00 +2.27488E+00 +5.66929E+00 +8.06317E-01 +6.19629E+00 -7.66347E-01 +6.31907E+00
 -2.32926E+00 +6.02269E+00 -3.76872E+00 +5.32434E+00 -4.98018E+00 +4.27200E+00 -5.87644E+00 +2.94069E+00
 -6.39455E+00 +1.42646E+00 -6.50068E+00 -1.61215E-01 -6.19261E+00 -1.70813E+00 -5.49975E+00 -3.10441E+00
 -4.48059E+00 -4.25316E+00 -3.21776E+00 -5.07803E+00 -1.81123E+00 -5.52904E+00 -3.70195E-01 -5.58637E+00
 +9.95861E-01 -5.26146E+00 +2.18593E+00 -4.59582E+00 +3.11558E+00 -3.65717E+00 +3.72355E+00 -2.53363E+00
 +3.97650E+00 -1.32622E+00 +3.87136E+00 -1.40378E-01 +3.43518E+00 +9.22854E-01 +2.72251E+00 +1.77515E+00
 +1.81056E+00 +2.34818E+00 +7.92410E-01 +2.59914E+00 -2.30952E-01 +2.51411E+00 -1.15925E+00 +2.10908E+00
 -1.90146E+00 +1.42840E+00 -2.38349E+00 +5.40851E-01 -2.55450E+00 -4.66200E-01 -2.39119E+00 -1.49430E+00
 -1.89985E+00 -2.44224E+00 -1.11589E+00 -3.21467E+00 -1.01007E-01 -3.73017E+00 +1.06190E+00 -3.92817E+00
