 Created: 19-Jan-2021
 $NMID
 ID='D:\BASISSIMULATI'
 FMTDAT='(8E13.5)'
 VOLUME=   1.00000E+00
 TRAMP=   1.00000E+00
 $END
 +3.61898E+01 +1.67068E-01 +3.49048E+01 +9.61553E+00 +3.11845E+01 +1.83977E+01 +2.52906E+01 +2.58948E+01
 +1.76396E+01 +3.15798E+01 +8.77219E+00 +3.50550E+01 -6.85230E-01 +3.60802E+01 -1.00659E+01 +3.45900E+01
 -1.87105E+01 +3.06978E+01 -2.60143E+01 +2.46869E+01 -3.14708E+01 +1.69899E+01 -3.47066E+01 +8.15679E+00
 -3.55084E+01 -1.18510E+00 -3.38366E+01 -1.03764E+01 -2.98274E+01 -1.87732E+01 -2.37815E+01 -2.57928E+01
 -1.61414E+01 -3.09553E+01 -7.45843E+00 -3.39167E+01 +1.64777E+00 -3.44922E+01 +1.05341E+01 -3.26682E+01
 +1.85804E+01 -2.86008E+01 +2.52334E+01 -2.26034E+01 +3.00455E+01 -1.51218E+01 +3.27055E+01 -6.70078E+00
 +3.30589E+01 +2.05590E+00 +3.11168E+01 +1.05299E+01 +2.70523E+01 +1.81326E+01 +2.11863E+01 +2.43465E+01
 +1.39611E+01 +2.87615E+01 +5.90776E+00 +3.11018E+01 -2.39426E+00 +3.12438E+01 -1.03590E+01 +2.92216E+01
 -1.74363E+01 +2.52220E+01 -2.31502E+01 +1.95677E+01 -2.71316E+01 +1.26914E+01 -2.91424E+01 +5.10275E+00
 -2.90895E+01 -2.65023E+00 -2.70282E+01 -1.00210E+01 -2.31545E+01 -1.65038E+01 -1.77880E+01 -2.16689E+01
 -1.13453E+01 -2.51911E+01 -4.30791E+00 -2.68708E+01 +2.81418E+00 -2.66448E+01 +9.51992E+00 -2.45866E+01
 +1.53529E+01 -2.08977E+01 +1.99330E+01 -1.58890E+01 +2.29810E+01 -9.95517E+00 +2.43360E+01 -3.54355E+00
 +2.39628E+01 +2.87973E+00 +2.19504E+01 +8.86406E+00 +1.85014E+01 +1.40063E+01 +1.39130E+01 +1.79782E+01
 +8.55240E+00 +2.05475E+01 +2.82761E+00 +2.15912E+01 -2.84392E+00 +2.11001E+01 -8.06586E+00 +1.91753E+01
 -1.24909E+01 +1.60161E+01 -1.58443E+01 +1.19014E+01 -1.79403E+01 +7.16646E+00 -1.86924E+01 +2.17520E+00
 -1.81149E+01 -2.70720E+00 -1.63172E+01 -7.14137E+00 -1.34915E+01 -1.08375E+01 -9.89423E+00 -1.35741E+01
 -5.82425E+00 -1.52113E+01 -1.59831E+00 -1.56969E+01 +2.47335E+00 -1.50655E+01 +6.10986E+00 -1.34314E+01
 +9.07910E+00 -1.09756E+01 +1.12124E+01 -7.92853E+00 +1.24136E+01 -4.54953E+00 +1.26619E+01 -1.10565E+00
 +1.20091E+01 +2.14926E+00 +1.05707E+01 +4.99316E+00 +8.51336E+00 +7.25090E+00 +6.03806E+00 +8.80470E+00
 +3.36248E+00 +9.59950E+00 +7.02529E-01 +9.64292E+00 -1.74464E+00 +9.00022E+00 -3.81505E+00 +7.78486E+00
 -5.38873E+00 +6.14577E+00 -6.39615E+00 +4.25246E+00 -6.82008E+00 +2.27939E+00 -6.69288E+00 +3.90980E-01
 -6.08981E+00 -1.27156E+00 -5.11899E+00 -2.60053E+00 -3.90922E+00 -3.52836E+00 -2.59681E+00 -4.03037E+00
 -1.31251E+00 -4.12337E+00 -1.69874E-01 -3.86064E+00 +7.44067E-01 -3.32390E+00 +1.37508E+00 -2.61302E+00
 +1.70451E+00 -1.83474E+00 +1.74844E+00 -1.09127E+00 +1.55354E+00 -4.69999E-01 +1.19008E+00 -3.52066E-02
 +7.42819E-01 +1.77566E-01 +3.00910E-01 +1.63961E-01 -5.24008E-02 -5.00410E-02 -2.49103E-01 -4.12083E-01
 -2.43965E-01 -8.50069E-01 -1.95625E-02 -1.28076E+00 +4.11672E-01 -1.61947E+00 +1.00854E+00 -1.78986E+00
 +1.70521E+00 -1.73296E+00 +2.41793E+00 -1.41434E+00 +3.05375E+00 -8.28980E-01 +3.52033E+00 -3.09171E-03
 +3.73591E+00 +1.00712E+00 +3.63859E+00 +2.11978E+00 +3.19382E+00 +3.23439E+00 +2.39949E+00 +4.24089E+00
 +1.28811E+00 +5.03004E+00 -7.43050E-02 +5.50406E+00 -1.59254E+00 +5.58667E+00 -3.14935E+00 +5.23146E+00
 -4.61500E+00 +4.42790E+00 -5.85828E+00 +3.20432E+00 -6.75810E+00 +1.62749E+00 -7.21466E+00 -2.01155E-01
 -7.15923E+00 -2.15255E+00 -6.56148E+00 -4.07965E+00 -5.43397E+00 -5.82902E+00 -3.83299E+00 -7.25337E+00
 -1.85586E+00 -8.22400E+00 +3.65333E-01 -8.64215E+00 +2.67312E+00 -8.44826E+00 +4.89632E+00 -7.62822E+00
 +6.86330E+00 -6.21619E+00 +8.41557E+00 -4.29356E+00 +9.42074E+00 -1.98407E+00 +9.78376E+00 +5.54569E-01
 +9.45540E+00 +3.14200E+00 +8.43740E+00 +5.58856E+00 +6.78367E+00 +7.70973E+00 +4.59743E+00 +9.34043E+00
 +2.02450E+00 +1.03481E+01 -7.56921E-01 +1.06436E+01 -3.54909E+00 +1.01887E+01 -6.14936E+00 +9.00035E+00
 -8.36532E+00 +7.14983E+00 -1.00295E+01 +4.75875E+00 -1.10123E+01 +1.99054E+00 -1.12321E+01 -9.61214E-01
 -1.06622E+01 -3.88675E+00 -9.33326E+00 -6.57556E+00 -7.33168E+00 -8.83202E+00 -4.79376E+00 -1.04900E+01
 -1.89604E+00 -1.14254E+01 +1.15742E+00 -1.15655E+01 +4.14990E+00 -1.08948E+01 +6.86783E+00 -9.45644E+00
 +9.11650E+00 -7.34908E+00 +1.07343E+01 -4.72010E+00 +1.16047E+01 -1.75481E+00 +1.16648E+01 +1.33697E+00
 +1.09098E+01 +4.33618E+00 +9.39340E+00 +7.03048E+00 +7.22391E+00 +9.22966E+00 +4.55615E+00 +1.07794E+01
 +1.58009E+00 +1.15722E+01 -1.49298E+00 +1.15552E+01 -4.44585E+00 +1.07336E+01 -7.07114E+00 +9.16995E+00
 -9.18614E+00 +6.97927E+00 -1.06458E+01 +4.32041E+00 -1.13529E+01 +1.38423E+00 -1.12646E+01 -1.62038E+00
 -1.03949E+01 -4.48170E+00 -8.81325E+00 -7.00039E+00 -6.63868E+00 -9.00366E+00 -4.03090E+00 -1.03573E+01
 -1.17829E+00 -1.09749E+01 +1.71602E+00 -1.08231E+01 +4.44880E+00 -9.92373E+00 +6.83125E+00 -8.35093E+00
 +8.70227E+00 -6.22535E+00 +9.93950E+00 -3.70467E+00 +1.04674E+01 -9.71806E-01 +1.02616E+01 +1.77859E+00
 +9.35019E+00 +4.35418E+00 +7.81020E+00 +6.57858E+00 +5.76149E+00 +8.30359E+00 +3.35730E+00 +9.41914E+00
 +7.72639E-01 +9.86030E+00 -1.80851E+00 +9.61094E+00 -4.20648E+00 +8.70380E+00 -6.25855E+00 +7.21706E+00
 -7.83004E+00 +5.26777E+00 -8.82319E+00 +3.00262E+00 -9.18318E+00 +5.86869E-01 -8.90092E+00 -1.80779E+00
 -8.01254E+00 -4.01553E+00 -6.59565E+00 -5.88794E+00 -4.76276E+00 -7.30402E+00 -2.65245E+00 -8.17794E+00
 -4.18810E-01 -8.46419E+00 +1.77976E+00 -8.15955E+00 +3.79188E+00 -7.30218E+00 +5.48358E+00 -5.96767E+00
 +6.74722E+00 -4.26267E+00 +7.50826E+00 -2.31644E+00 +7.72944E+00 -2.71087E-01 +7.41225E+00 +1.72880E+00
 +6.59563E+00 +3.54634E+00 +5.35197E+00 +5.06171E+00 +3.78104E+00 +6.17996E+00 +2.00207E+00 +6.83686E+00
 +1.44779E-01 +7.00231E+00 -1.66001E+00 +6.68135E+00 -3.28957E+00 +5.91256E+00 -4.63750E+00 +4.76424E+00
 -5.62059E+00 +3.32863E+00 -6.18376E+00 +1.71462E+00 -6.30295E+00 +3.96184E-02 -5.98561E+00 -1.57893E+00
 -5.26907E+00 -3.03165E+00 -4.21689E+00 -4.22457E+00 -2.91345E+00 -5.08501E+00 -1.45738E+00 -5.56588E+00
 +4.57769E-02 -5.64793E+00 +1.49115E+00 -5.34004E+00 +2.78168E+00 -4.67758E+00 +3.83457E+00 -3.71898E+00
 +4.58638E+00 -2.54079E+00 +4.99669E+00 -1.23178E+00 +5.04997E+00 +1.13637E-01 +4.75571E+00 +1.40208E+00
 +4.14678E+00 +2.54753E+00 +3.27636E+00 +3.47697E+00 +2.21345E+00 +4.13483E+00 +1.03764E+00 +4.48610E+00
 -1.66770E-01 +4.51798E+00 -1.31662E+00 +4.23984E+00 -2.33554E+00 +3.68179E+00 -3.15881E+00 +2.89183E+00
 -3.73734E+00 +1.93196E+00 -4.04041E+00 +8.73458E-01 -4.05702E+00 -2.08289E-01 -3.79592E+00 -1.23898E+00
 -3.28434E+00 -2.15036E+00 -2.56544E+00 -2.88461E+00 -1.69490E+00 -3.39781E+00 -7.36706E-01 -3.66243E+00
 +2.41360E-01 -3.66857E+00 +1.17241E+00 -3.42402E+00 +1.99488E+00 -2.95318E+00 +2.65642E+00 -2.29485E+00
 +3.11711E+00 -1.49921E+00 +3.35169E+00 -6.24120E-01 +3.35080E+00 +2.68967E-01 +3.12111E+00 +1.11916E+00
 +2.68440E+00 +1.87018E+00 +2.07571E+00 +2.47389E+00 +1.34063E+00 +2.89333E+00 +5.32005E-01 +3.10477E+00
 -2.93720E-01 +3.09901E+00 -1.08034E+00 +2.88156E+00 -1.77558E+00 +2.47196E+00 -2.33445E+00 +1.90212E+00
 -2.72206E+00 +1.21398E+00 -2.91570E+00 +4.56506E-01 -2.90606E+00 -3.17698E-01 -2.69765E+00 -1.05591E+00
 -2.30814E+00 -1.70880E+00 -1.76708E+00 -2.23359E+00 -1.11362E+00 -2.59683E+00 -3.93864E-01 -2.77643E+00
 +3.42346E-01 -2.76295E+00 +1.04477E+00 -2.56006E+00 +1.66614E+00 -2.18412E+00 +2.16522E+00 -1.66292E+00
 +2.50954E+00 -1.03371E+00 +2.67743E+00 -3.40618E-01 +2.65938E+00 +3.68411E-01 +2.45855E+00 +1.04483E+00
 +2.09044E+00 +1.64275E+00 +1.58178E+00 +2.12204E+00 +9.68608E-01 +2.45094E+00 +2.93784E-01 +2.60818E+00
 -3.95948E-01 +2.58436E+00 -1.05316E+00 +2.38245E+00 -1.63294E+00 +2.01761E+00 -2.09599E+00 +1.51602E+00
 -2.41122E+00 +9.13086E-01 -2.55785E+00 +2.50965E-01 -2.52681E+00 -4.24360E-01 -2.32130E+00 -1.06623E+00
 -1.95651E+00 -1.63055E+00 -1.45855E+00 -2.07876E+00 -8.62597E-01 -2.38054E+00 -2.10425E-01 -2.51582E+00
 +4.52496E-01 -2.47618E+00 +1.08017E+00 -2.26535E+00 +1.62929E+00 -1.89892E+00 +2.06222E+00 -1.40322E+00
 +2.34958E+00 -8.13431E-01 +2.47232E+00 -1.71102E-01 +2.42295E+00 +4.78792E-01 +2.20604E+00 +1.09101E+00
 +1.83782E+00 +1.62322E+00 +1.34500E+00 +2.03894E+00 +7.62832E-01 +2.31009E+00 +1.32578E-01 +2.41892E+00
 -5.01443E-01 +2.35916E+00 -1.09499E+00 +2.13643E+00 -1.60704E+00 +1.76775E+00 -2.00263E+00 +1.28022E+00
 -2.25531E+00 +7.09050E-01 -2.34895E+00 +9.49922E-02 -2.27876E+00 -5.18602E-01 -2.05152E+00 -1.08888E+00
 -1.68503E+00 -1.57653E+00 -1.20665E+00 -1.94853E+00 -6.51322E-01 -2.18042E+00 -5.89218E-02 -2.25795E+00
 +5.28594E-01 -2.17796E+00 +1.07023E+00 -1.94844E+00 +1.52884E+00 -1.58784E+00 +1.87374E+00 -1.12353E+00
 +2.08280E+00 -5.89806E-01 +2.14385E+00 -2.52319E-02 +2.05541E+00 +5.30127E-01 +1.82660E+00 +1.03761E+00
 +1.47628E+00 +1.46272E+00 +1.03150E+00 +1.77746E+00 +5.25454E-01 +1.96225E+00 -5.09994E-03 +2.00712E+00
 -5.22490E-01 +1.91224E+00 -9.90872E-01 +1.68764E+00 -1.37875E+00 +1.35228E+00 -1.66110E+00 +9.32482E-01
 -1.82105E+00 +4.59842E-01 -1.85080E+00 -3.11649E-02 -1.75200E+00 -5.05726E-01 -1.53531E+00 -9.31194E-01
 -1.21943E+00 -1.27936E+00 -8.29462E-01 -1.52833E+00 -3.94971E-01 -1.66390E+00 +5.23008E-02 -1.68034E+00
 +4.80760E-01 -1.58048E+00 +8.61213E-01 -1.37528E+00 +1.16887E+00 -1.08271E+00 +1.38494E+00 -7.26262E-01
 +1.49776E+00 -3.33046E-01 +1.50335E+00 +6.82539E-02 +1.40541E+00 +4.49483E-01 +1.21474E+00 +7.84991E-01
 +9.48191E-01 +1.05334E+00 +6.27237E-01 +1.23866E+00 +2.76253E-01 +1.33151E+00 -7.93134E-02 +1.32927E+00
 -4.14781E-01 +1.23604E+00 -7.07920E-01 +1.06205E+00 -9.40393E-01 +8.22629E-01 -1.09884E+00 +5.36963E-01
 -1.17559E+00 +2.26543E-01 -1.16887E+00 -8.64084E-02 -1.08268E+00 -3.80493E-01 -9.26246E-01 -6.36558E-01
 -7.13086E-01 -8.38879E-01 -4.59933E-01 -9.76044E-01 -1.85437E-01 -1.04150E+00 +9.11617E-02 -1.03375E+00
 +3.51326E-01 -9.56173E-01 +5.78392E-01 -8.16589E-01 +7.58545E-01 -6.26515E-01 +8.81561E-01 -4.00256E-01
 +9.41277E-01 -1.53875E-01 +9.35779E-01 +9.58949E-02 +8.67327E-01 +3.32699E-01 +7.42038E-01 +5.41537E-01
 +5.69361E-01 +7.09596E-01 +3.61394E-01 +8.26923E-01 +1.32093E-01 +8.86896E-01 -1.03585E-01 +8.86499E-01
