 Created: 19-Jan-2021
 $NMID
 ID='D:\BASISSIMULATI'
 FMTDAT='(8E13.5)'
 VOLUME=   1.00000E+00
 TRAMP=   1.00000E+00
 $END
 +4.04655E+01 +2.01824E-01 +3.46456E+01 +1.84742E+01 +1.97215E+01 +2.97610E+01 +1.86810E+00 +3.00987E+01
 -1.16551E+01 +2.01771E+01 -1.56117E+01 +4.99486E+00 -9.00816E+00 -8.33087E+00 +4.52443E+00 -1.36512E+01
 +1.83416E+01 -8.43689E+00 +2.56871E+01 +5.14535E+00 +2.26292E+01 +2.11862E+01 +9.76971E+00 +3.25991E+01
 -8.00816E+00 +3.41857E+01 -2.36335E+01 +2.48813E+01 -3.08780E+01 +8.21729E+00 -2.70146E+01 -9.19108E+00
 -1.39658E+01 -2.04730E+01 +2.54695E+00 -2.14261E+01 +1.54750E+01 -1.22799E+01 +1.94670E+01 +2.45205E+00
 +1.31432E+01 +1.59576E+01 -3.53176E-01 +2.20845E+01 -1.47549E+01 +1.79954E+01 -2.34074E+01 +5.37836E+00
 -2.21588E+01 -1.02996E+01 -1.11584E+01 -2.21655E+01 +5.20348E+00 -2.49110E+01 +2.01816E+01 -1.70798E+01
 +2.75670E+01 -1.69280E+00 +2.43368E+01 +1.50509E+01 +1.19268E+01 +2.64284E+01 -4.41414E+00 +2.80563E+01
 -1.78966E+01 +1.97333E+01 -2.31077E+01 +5.47597E+00 -1.83129E+01 -8.25427E+00 -6.16089E+00 -1.53612E+01
 +7.50388E+00 -1.27454E+01 +1.61965E+01 -1.62751E+00 +1.56085E+01 +1.29981E+01 +5.47318E+00 +2.45330E+01
 -1.03178E+01 +2.76268E+01 -2.53866E+01 +2.04803E+01 -3.36024E+01 +5.61508E+00 -3.16958E+01 -1.12144E+01
 -2.06327E+01 -2.34866E+01 -5.16603E+00 -2.66902E+01 +8.22980E+00 -2.02203E+01 +1.41444E+01 -7.58409E+00
 +1.05357E+01 +5.15808E+00 -4.32357E-01 +1.20346E+01 -1.33685E+01 +9.74497E+00 -2.20151E+01 -9.27507E-01
 -2.19673E+01 -1.54712E+01 -1.25794E+01 -2.76060E+01 +2.75689E+00 -3.19947E+01 +1.80700E+01 -2.65357E+01
 +2.73665E+01 -1.32563E+01 +2.71831E+01 +2.56891E+00 +1.80386E+01 +1.46831E+01 +4.17162E+00 +1.85148E+01
 -8.31189E+00 +1.31008E+01 -1.40722E+01 +1.44580E+00 -1.08158E+01 -1.08229E+01 -2.44803E-01 -1.79140E+01
 +1.27195E+01 -1.63790E+01 +2.20934E+01 -6.59106E+00 +2.34291E+01 +7.43344E+00 +1.57353E+01 +1.97797E+01
 +1.90060E+00 +2.51859E+01 -1.25524E+01 +2.12993E+01 -2.18343E+01 +9.67163E+00 -2.23543E+01 -4.92512E+00
 -1.42254E+01 -1.65538E+01 -1.17337E+00 -2.06480E+01 +1.10998E+01 -1.59358E+01 +1.73802E+01 -4.93405E+00
 +1.51711E+01 +7.18730E+00 +5.73269E+00 +1.48677E+01 -6.50364E+00 +1.45641E+01 -1.58800E+01 +6.26956E+00
 -1.79687E+01 -6.50220E+00 -1.14822E+01 -1.82466E+01 +1.17994E+00 -2.38430E+01 +1.49694E+01 -2.07493E+01
 +2.43558E+01 -1.00745E+01 +2.56815E+01 +3.91786E+00 +1.86951E+01 +1.56513E+01 +6.61383E+00 +2.06203E+01
 -5.29725E+00 +1.72899E+01 -1.20060E+01 +7.70232E+00 -1.08670E+01 -3.45559E+00 -2.72701E+00 -1.09097E+01
 +8.48274E+00 -1.10855E+01 +1.74757E+01 -3.64138E+00 +1.99069E+01 +8.40206E+00 +1.42464E+01 +1.99795E+01
 +2.42840E+00 +2.61659E+01 -1.09893E+01 +2.42841E+01 -2.07822E+01 +1.50326E+01 -2.32834E+01 +2.15963E+00
 -1.79183E+01 -9.16170E+00 -7.40303E+00 -1.45481E+01 +3.46656E+00 -1.22562E+01 +9.89880E+00 -3.87957E+00
 +9.16167E+00 +6.39169E+00 +1.72882E+00 +1.36162E+01 -8.96465E+00 +1.42471E+01 -1.80365E+01 +7.65431E+00
 -2.12782E+01 -3.62096E+00 -1.69666E+01 -1.49774E+01 -6.59326E+00 -2.17377E+01 +5.79071E+00 -2.11473E+01
 +1.53168E+01 -1.35308E+01 +1.83723E+01 -2.12200E+00 +1.41130E+01 +8.34661E+00 +4.77483E+00 +1.36745E+01
 -5.33319E+00 +1.19695E+01 -1.17079E+01 +4.41172E+00 -1.15874E+01 -5.30811E+00 -5.11245E+00 -1.26184E+01
 +4.77192E+00 -1.40536E+01 +1.36188E+01 -8.74110E+00 +1.74112E+01 +1.24124E+00 +1.42891E+01 +1.17783E+01
 +5.33346E+00 +1.84936E+01 -5.91571E+00 +1.86185E+01 -1.49868E+01 +1.21529E+01 -1.83822E+01 +1.83055E+00
 -1.50435E+01 -8.07987E+00 -6.75470E+00 -1.36116E+01 +2.67179E+00 -1.27787E+01 +9.06380E+00 -6.38333E+00
 +9.68466E+00 +2.38316E+00 +4.38622E+00 +9.35523E+00 -4.36484E+00 +1.12057E+01 -1.25829E+01 +6.87345E+00
 -1.64968E+01 -1.99910E+00 -1.41697E+01 -1.17929E+01 -6.31424E+00 -1.84762E+01 +4.03415E+00 -1.93251E+01
 +1.28312E+01 -1.40644E+01 +1.67483E+01 -4.94766E+00 +1.45664E+01 +4.23947E+00 +7.64780E+00 +9.81231E+00
 -6.98897E-01 +9.74882E+00 -6.67370E+00 +4.51423E+00 -7.62388E+00 -3.19163E+00 -3.16359E+00 -9.63865E+00
 +4.69590E+00 -1.16923E+01 +1.24452E+01 -8.15893E+00 +1.66046E+01 -2.79904E-01 +1.52167E+01 +8.82363E+00
 +8.66879E+00 +1.55013E+01 -4.98499E-01 +1.71303E+01 -8.69554E+00 +1.32106E+01 -1.28166E+01 +5.53930E+00
 -1.15397E+01 -2.59477E+00 -5.84364E+00 -7.83530E+00 +1.46382E+00 -8.18352E+00 +6.98801E+00 -3.81633E+00
 +8.21464E+00 +3.04038E+00 +4.57250E+00 +9.11144E+00 -2.35478E+00 +1.15023E+01 -9.54278E+00 +8.94071E+00
 -1.38444E+01 +2.30340E+00 -1.33384E+01 -5.78397E+00 -8.13328E+00 -1.20862E+01 -2.92473E-01 -1.41379E+01
 +7.06939E+00 -1.12711E+01 +1.11194E+01 -4.85962E+00 +1.04922E+01 +2.30751E+00 +5.82776E+00 +7.23986E+00
 -5.55252E-01 +8.01749E+00 -5.69218E+00 +4.57849E+00 -7.25684E+00 -1.30285E+00 -4.54510E+00 -6.82061E+00
 +1.25524E+00 -9.36503E+00 +7.60795E+00 -7.64110E+00 +1.17365E+01 -2.20392E+00 +1.18131E+01 +4.80505E+00
 +7.72041E+00 +1.05916E+01 +1.07145E+00 +1.29004E+01 -5.50430E+00 +1.09530E+01 -9.48925E+00 +5.73892E+00
 -9.53138E+00 -4.48118E-01 -5.97790E+00 -5.01472E+00 -6.75113E-01 -6.17250E+00 +3.86246E+00 -3.67218E+00
 +5.54476E+00 +1.13590E+00 +3.58990E+00 +5.92328E+00 -1.17146E+00 +8.40576E+00 -6.68582E+00 +7.32198E+00
 -1.05776E+01 +2.95338E+00 -1.11656E+01 -3.02344E+00 -8.16062E+00 -8.27263E+00 -2.75704E+00 -1.07957E+01
 +2.90472E+00 -9.76013E+00 +6.66008E+00 -5.81301E+00 +7.22572E+00 -7.62473E-01 +4.70601E+00 +3.22126E+00
 +4.98016E-01 +4.53256E+00 -3.34693E+00 +2.78910E+00 -5.01837E+00 -1.04811E+00 -3.71179E+00 -5.12778E+00
 +5.61331E-02 -7.52515E+00 +4.70200E+00 -7.06562E+00 +8.27451E+00 -3.80663E+00 +9.28853E+00 +1.01560E+00
 +7.33770E+00 +5.53501E+00 +3.23420E+00 +8.05294E+00 -1.36777E+00 +7.73940E+00 -4.68891E+00 +4.94624E+00
 -5.56861E+00 +1.01384E+00 -3.92163E+00 -2.32935E+00 -7.26064E-01 -3.70704E+00 +2.43481E+00 -2.65839E+00
 +4.06742E+00 +2.05872E-01 +3.39790E+00 +3.50459E+00 +6.74793E-01 +5.70043E+00 -2.97021E+00 +5.75663E+00
 -6.02761E+00 +3.55866E+00 -7.25486E+00 -6.68873E-02 -6.18471E+00 -3.72784E+00 -3.28973E+00 -6.06297E+00
 +2.50998E-01 -6.30064E+00 +3.06827E+00 -4.54806E+00 +4.17416E+00 -1.70270E+00 +3.34766E+00 +9.59786E-01
 +1.18299E+00 +2.33390E+00 -1.20318E+00 +1.93400E+00 -2.66651E+00 +6.32331E-02 -2.51580E+00 -2.35436E+00
 -7.80606E-01 -4.19124E+00 +1.83412E+00 -4.59696E+00 +4.27096E+00 -3.33912E+00 +5.57158E+00 -8.71464E-01
 +5.26341E+00 +1.88398E+00 +3.52581E+00 +3.93432E+00 +1.08063E+00 +4.61887E+00 -1.13094E+00 +3.85247E+00
 -2.33951E+00 +2.11961E+00 -2.24246E+00 +2.38569E-01 -1.08945E+00 -9.92756E-01 +4.61448E-01 -1.11696E+00
 +1.64175E+00 -1.75939E-01 +1.89256E+00 +1.34360E+00 +1.07580E+00 +2.73936E+00 -4.99444E-01 +3.39126E+00
 -2.23078E+00 +3.00317E+00 -3.47993E+00 +1.69699E+00 -3.82281E+00 -6.48259E-02 -3.19470E+00 -1.68234E+00
 -1.88414E+00 -2.65539E+00 -3.93064E-01 -2.76010E+00 +7.69148E-01 -2.10341E+00 +1.27231E+00 -1.04871E+00
 +1.06520E+00 -5.51922E-02 +3.62190E-01 +4.98994E-01 -4.64065E-01 +4.43412E-01 -1.03302E+00 -1.46833E-01
 -1.09114E+00 -1.00324E+00 -5.87403E-01 -1.77556E+00 +3.27066E-01 -2.15747E+00 +1.36429E+00 -1.98407E+00
 +2.20050E+00 -1.27540E+00 +2.57871E+00 -2.20435E-01 +2.38430E+00 +8.86948E-01 +1.67595E+00 +1.73854E+00
 +6.66941E-01 +2.10401E+00 -3.37585E-01 +1.90130E+00 -1.03226E+00 +1.22603E+00 -1.20869E+00 +3.29004E-01
 -8.30085E-01 -4.57494E-01 -5.64609E-02 -8.27910E-01 +7.95724E-01 -6.14853E-01 +1.35563E+00 +1.35758E-01
 +1.33362E+00 +1.15988E+00 +6.43331E-01 +2.05409E+00 -5.40560E-01 +2.41975E+00 -1.82202E+00 +2.02393E+00
 -2.71865E+00 +9.13285E-01 -2.84893E+00 -5.73370E-01 -2.09981E+00 -1.91230E+00 -7.00983E-01 -2.59175E+00
 +8.36890E-01 -2.32510E+00 +1.90911E+00 -1.19103E+00 +2.06226E+00 +3.67665E-01 +1.19815E+00 +1.70053E+00
 -3.55864E-01 +2.20888E+00 -1.95312E+00 +1.60553E+00 -2.88035E+00 +6.20458E-02 -2.65944E+00 -1.83010E+00
 -1.27120E+00 -3.28304E+00 +8.02799E-01 -3.63801E+00 +2.75228E+00 -2.65873E+00 +3.76524E+00 -6.62340E-01
 +3.37802E+00 +1.58089E+00 +1.69737E+00 +3.15126E+00 -6.11108E-01 +3.36768E+00 -2.57807E+00 +2.09605E+00
 -3.33291E+00 -1.61736E-01 -2.48668E+00 -2.45023E+00 -3.27092E-01 -3.75060E+00 +2.27034E+00 -3.41979E+00
 +4.19184E+00 -1.48970E+00 +4.55687E+00 +1.31200E+00 +3.11204E+00 +3.84290E+00 +3.71338E-01 +5.02129E+00
 -2.57086E+00 +4.29796E+00 -4.48823E+00 +1.91818E+00 -4.54868E+00 -1.15034E+00 -2.69205E+00 -3.60736E+00
 +3.12157E-01 -4.37162E+00 +3.16614E+00 -3.06021E+00 +4.58794E+00 -1.83504E-01 +3.87085E+00 +3.04143E+00
 +1.21453E+00 +5.19286E+00 -2.32575E+00 +5.25545E+00 -5.26452E+00 +3.07785E+00 -6.31489E+00 -5.28467E-01
 -4.95402E+00 -4.10578E+00 -1.67647E+00 -6.15907E+00 +2.18606E+00 -5.80230E+00 +5.01517E+00 -3.16168E+00
 +5.59898E+00 +6.48113E-01 +3.67074E+00 +3.97869E+00 +5.30724E-02 +5.34938E+00 -3.66784E+00 +4.09767E+00
 -5.81076E+00 +6.93371E-01 -5.33007E+00 -3.43081E+00 -2.29200E+00 -6.47330E+00 +2.11875E+00 -7.03641E+00
 +6.07880E+00 -4.74641E+00 +7.89761E+00 -4.46580E-01 +6.75324E+00 +4.13304E+00 +3.07113E+00 +7.10014E+00
 -1.62865E+00 +7.21430E+00 -5.36341E+00 +4.43921E+00 -6.53674E+00 -1.43883E-02 -4.64052E+00 -4.18665E+00
 -5.00772E-01 -6.20461E+00 +4.05093E+00 -5.10085E+00 +6.95189E+00 -1.25802E+00 +6.80242E+00 +3.72323E+00
 +3.49345E+00 +7.68971E+00 -1.71167E+00 +8.85767E+00 -6.68980E+00 +6.59660E+00 -9.35604E+00 +1.73070E+00
 -8.56566E+00 -3.78379E+00 -4.62821E+00 -7.67940E+00 +7.98117E-01 -8.35042E+00 +5.39907E+00 -5.55897E+00
 +7.19540E+00 -5.61524E-01 +5.40800E+00 +4.41081E+00 +8.18470E-01 +7.10568E+00 -4.54159E+00 +6.23099E+00
 -8.25125E+00 +2.03845E+00 -8.54758E+00 -3.75246E+00 -5.10839E+00 -8.67013E+00 +7.75019E-01 -1.05477E+01
 +6.72191E+00 -8.46903E+00 +1.02689E+01 -3.19047E+00 +9.93125E+00 +3.15382E+00 +5.85976E+00 +7.94881E+00
 -1.99723E-01 +9.21911E+00 -5.63816E+00 +6.49098E+00 -8.10117E+00 +1.01733E+00 -6.51429E+00 -4.74265E+00
 -1.56895E+00 -8.17593E+00 +4.55068E+00 -7.65200E+00 +9.09414E+00 -3.25132E+00 +9.93290E+00 +3.23737E+00
 +6.49899E+00 +9.06166E+00 +6.25672E-02 +1.16812E+01 -6.78281E+00 +9.87128E+00 -1.12166E+01 +4.27498E+00
