 Created: 19-Jan-2021
 $NMID
 ID='D:\BASISSIMULATI'
 FMTDAT='(8E13.5)'
 VOLUME=   1.00000E+00
 TRAMP=   1.00000E+00
 $END
 +5.94800E+01 +6.20535E-01 +5.28813E+01 -1.65226E+01 +3.51924E+01 -2.75752E+01 +1.14362E+01 -2.83473E+01
 -1.17623E+01 -1.79154E+01 -2.81846E+01 +1.08906E+00 -3.38658E+01 +2.33002E+01 -2.82127E+01 +4.22797E+01
 -1.40612E+01 +5.24882E+01 +3.31769E+00 +5.09494E+01 +1.79259E+01 +3.80988E+01 +2.49104E+01 +1.75781E+01
 +2.20140E+01 -4.93177E+00 +1.01739E+01 -2.34475E+01 -6.88455E+00 -3.34387E+01 -2.38910E+01 -3.30673E+01
 -3.56903E+01 -2.35600E+01 -3.87918E+01 -8.64754E+00 -3.23414E+01 +6.70642E+00 -1.82528E+01 +1.78574E+01
 -5.08813E-01 +2.18261E+01 +1.61040E+01 +1.80469E+01 +2.74084E+01 +8.33828E+00 +3.09661E+01 -3.83465E+00
 +2.66121E+01 -1.45244E+01 +1.62886E+01 -2.05062E+01 +3.29435E+00 -2.01616E+01 -8.77107E+00 -1.38081E+01
 -1.70271E+01 -3.43705E+00 -2.00039E+01 +7.99972E+00 -1.78485E+01 +1.74937E+01 -1.20512E+01 +2.27900E+01
 -4.84037E+00 +2.28869E+01 +1.53019E+00 +1.81294E+01 +5.38377E+00 +9.93700E+00 +5.96405E+00 +3.03251E-01
 +3.47542E+00 -8.75489E+00 -1.12707E+00 -1.56432E+01 -6.48578E+00 -1.94432E+01 -1.12040E+01 -1.99611E+01
 -1.41343E+01 -1.76202E+01 -1.45515E+01 -1.32732E+01 -1.22202E+01 -7.99736E+00 -7.38586E+00 -2.90963E+00
 -7.23243E-01 +9.93870E-01 +6.74976E+00 +2.98267E+00 +1.37999E+01 +2.72345E+00 +1.91623E+01 +3.78763E-01
 +2.17773E+01 -3.36639E+00 +2.10447E+01 -7.39225E+00 +1.70301E+01 -1.03655E+01 +1.05429E+01 -1.10686E+01
 +3.02787E+00 -8.76173E+00 -3.74138E+00 -3.46901E+00 -8.10820E+00 +3.91957E+00 -9.00189E+00 +1.17946E+01
 -6.28510E+00 +1.82135E+01 -8.55128E-01 +2.14346E+01 +5.55891E+00 +2.04456E+01 +1.08672E+01 +1.53188E+01
 +1.32315E+01 +7.26520E+00 +1.16353E+01 -1.65288E+00 +6.23042E+00 -9.08220E+00 -1.66089E+00 -1.30529E+01
 -9.90393E+00 -1.25626E+01 -1.61707E+01 -7.88570E+00 -1.86353E+01 -5.05747E-01 -1.65323E+01 +7.31703E+00
 -1.04016E+01 +1.32146E+01 -1.94259E+00 +1.54135E+01 +6.48099E+00 +1.32561E+01 +1.25335E+01 +7.38258E+00
 +1.45860E+01 -4.77732E-01 +1.21765E+01 -8.03726E+00 +6.11713E+00 -1.31359E+01 -1.77561E+00 -1.43719E+01
 -9.23450E+00 -1.14906E+01 -1.42068E+01 -5.42318E+00 -1.54293E+01 +2.02098E+00 -1.27496E+01 +8.70443E+00
 -7.11207E+00 +1.27800E+01 -2.33086E-01 +1.31953E+01 +5.92373E+00 +9.94469E+00 +9.70798E+00 +4.01362E+00
 +1.02184E+01 -2.94785E+00 +7.50165E+00 -9.11080E+00 +2.47811E+00 -1.29658E+01 -3.36185E+00 -1.36975E+01
 -8.38891E+00 -1.13462E+01 -1.12676E+01 -6.73424E+00 -1.12787E+01 -1.19839E+00 -8.46004E+00 +3.78345E+00
 -3.55003E+00 +6.96917E+00 +2.23383E+00 +7.64151E+00 +7.51268E+00 +5.75041E+00 +1.10798E+01 +1.88996E+00
 +1.21752E+01 -2.87093E+00 +1.06459E+01 -7.25725E+00 +6.96590E+00 -1.00939E+01 +2.11531E+00 -1.05837E+01
 -2.65347E+00 -8.49980E+00 -6.11441E+00 -4.25020E+00 -7.36802E+00 +1.20411E+00 -6.07530E+00 +6.56666E+00
 -2.56530E+00 +1.05175E+01 +2.22050E+00 +1.20505E+01 +6.94772E+00 +1.07525E+01 +1.02300E+01 +6.94506E+00
 +1.10104E+01 +1.63669E+00 +8.87956E+00 -3.71957E+00 +4.23446E+00 -7.61166E+00 -1.78425E+00 -8.89855E+00
 -7.57739E+00 -7.16105E+00 -1.15281E+01 -2.86175E+00 -1.24775E+01 +2.74959E+00 -1.00922E+01 +7.97494E+00
 -5.00339E+00 +1.11636E+01 +1.34162E+00 +1.12208E+01 +7.08512E+00 +7.96981E+00 +1.05105E+01 +2.24752E+00
 +1.05728E+01 -4.31358E+00 +7.24022E+00 -9.76144E+00 +1.52996E+00 -1.24201E+01 -4.78529E+00 -1.14203E+01
 -9.71769E+00 -6.99345E+00 -1.16875E+01 -4.27271E-01 -1.00313E+01 +6.31339E+00 -5.22964E+00 +1.11881E+01
 +1.22650E+00 +1.27175E+01 +7.29477E+00 +1.04520E+01 +1.10243E+01 +5.11927E+00 +1.11787E+01 -1.60206E+00
 +7.63725E+00 -7.61227E+00 +1.44399E+00 -1.10577E+01 -5.51541E+00 -1.09203E+01 -1.11064E+01 -7.33857E+00
 -1.36184E+01 -1.55784E+00 -1.23011E+01 +4.47650E+00 -7.59323E+00 +8.74845E+00 -9.70258E-01 +9.82061E+00
 +5.53522E+00 +7.29309E+00 +9.98432E+00 +1.92572E+00 +1.11421E+01 -4.61243E+00 +8.85197E+00 -1.02813E+01
 +4.05814E+00 -1.33187E+01 -1.52448E+00 -1.27909E+01 -5.97929E+00 -8.86892E+00 -7.80808E+00 -2.75072E+00
 -6.40186E+00 +3.73938E+00 -2.21561E+00 +8.73637E+00 +3.40059E+00 +1.09142E+01 +8.65024E+00 +9.87516E+00
 +1.18670E+01 +6.23316E+00 +1.20322E+01 +1.37473E+00 +9.07150E+00 -3.01226E+00 +3.84646E+00 -5.48410E+00
 -2.14393E+00 -5.28539E+00 -7.24488E+00 -2.55652E+00 -1.01516E+01 +1.74911E+00 -1.02809E+01 +6.19756E+00
 -7.90135E+00 +9.33962E+00 -3.99547E+00 +1.01571E+01 +8.54974E-02 +8.35341E+00 +3.05586E+00 +4.40920E+00
 +4.07918E+00 -5.99423E-01 +2.98851E+00 -5.34783E+00 +2.88959E-01 -8.65933E+00 -3.04126E+00 -9.82886E+00
 -5.87516E+00 -8.78429E+00 -7.28002E+00 -6.05246E+00 -6.77665E+00 -2.55780E+00 -4.44757E+00 +6.71867E-01
 -8.77540E-01 +2.79916E+00 +3.03984E+00 +3.38770E+00 +6.36167E+00 +2.48043E+00 +8.34386E+00 +5.39524E-01
 +8.61304E+00 -1.71922E+00 +7.22714E+00 -3.54099E+00 +4.62328E+00 -4.33425E+00 +1.48010E+00 -3.81213E+00
 -1.46192E+00 -2.04610E+00 -3.57588E+00 +5.69599E-01 -4.48184E+00 +3.42499E+00 -4.11495E+00 +5.84280E+00
 -2.72042E+00 +7.23470E+00 -7.82016E-01 +7.23394E+00 +1.09936E+00 +5.77942E+00 +2.35205E+00 +3.13512E+00
 +2.57563E+00 -1.60830E-01 +1.64800E+00 -3.41042E+00 -2.29435E-01 -5.91292E+00 -2.56482E+00 -7.13227E+00
 -4.68704E+00 -6.83502E+00 -5.91492E+00 -5.16058E+00 -5.74504E+00 -2.59845E+00 -4.00850E+00 +1.30698E-01
 -9.48537E-01 +2.26564E+00 +2.81135E+00 +3.21893E+00 +6.41029E+00 +2.75421E+00 +8.97194E+00 +1.07085E+00
 +9.84627E+00 -1.23634E+00 +8.80091E+00 -3.33910E+00 +6.10168E+00 -4.41805E+00 +2.45178E+00 -3.91624E+00
 -1.19913E+00 -1.72656E+00 -3.92396E+00 +1.74773E+00 -5.08677E+00 +5.68421E+00 -4.52949E+00 +9.06265E+00
 -2.61793E+00 +1.09541E+01 -1.30069E-01 +1.07923E+01 +1.98171E+00 +8.54414E+00 +2.88369E+00 +4.72832E+00
 +2.12028E+00 +2.72110E-01 -2.39422E-01 -3.74960E+00 -3.61258E+00 -6.41669E+00 -7.06823E+00 -7.21741E+00
 -9.59719E+00 -6.17922E+00 -1.04056E+01 -3.84072E+00 -9.14528E+00 -1.07646E+00 -6.01434E+00 +1.16999E+00
 -1.70226E+00 +2.16426E+00 +2.80163E+00 +1.58957E+00 +6.47746E+00 -3.72257E-01 +8.54407E+00 -3.10547E+00
 +8.65379E+00 -5.74665E+00 +6.96308E+00 -7.43539E+00 +4.06627E+00 -7.55731E+00 +8.17640E-01 -5.91344E+00
 -1.90492E+00 -2.77391E+00 -3.42953E+00 +1.19305E+00 -3.45470E+00 +5.09319E+00 -2.11030E+00 +8.03131E+00
 +9.45400E-02 +9.33176E+00 +2.41825E+00 +8.70085E+00 +4.08881E+00 +6.29467E+00 +4.51017E+00 +2.67877E+00
 +3.42372E+00 -1.30855E+00 +9.86262E-01 -4.75711E+00 -2.25484E+00 -6.90335E+00 -5.48596E+00 -7.31577E+00
 -7.82481E+00 -6.00283E+00 -8.54678E+00 -3.41436E+00 -7.28556E+00 -3.31102E-01 -4.15536E+00 +2.33610E+00
 +2.43390E-01 +3.79148E+00 +4.94610E+00 +3.58173E+00 +8.85274E+00 +1.74230E+00 +1.10103E+01 -1.18484E+00
 +1.08754E+01 -4.27811E+00 +8.48213E+00 -6.48388E+00 +4.45872E+00 -6.92265E+00 -1.23042E-01 -5.16842E+00
 -4.03444E+00 -1.41536E+00 -6.23731E+00 +3.52793E+00 -6.19276E+00 +8.42862E+00 -4.03541E+00 +1.19611E+01
 -5.52143E-01 +1.30888E+01 +3.03928E+00 +1.13839E+01 +5.45420E+00 +7.18281E+00 +5.74183E+00 +1.52154E+00
 +3.59952E+00 -4.14164E+00 -5.01881E-01 -8.33974E+00 -5.42951E+00 -1.00258E+01 -9.71153E+00 -8.88489E+00
 -1.19787E+01 -5.43028E+00 -1.13902E+01 -8.47567E-01 -7.90967E+00 +3.36855E+00 -2.34202E+00 +5.87573E+00
 +3.88676E+00 +5.90022E+00 +9.14208E+00 +3.47697E+00 +1.20603E+01 -5.63131E-01 +1.19472E+01 -4.85577E+00
 +8.97280E+00 -7.93337E+00 +4.10276E+00 -8.68709E+00 -1.20904E+00 -6.71552E+00 -5.46782E+00 -2.45141E+00
 -7.58410E+00 +2.97038E+00 -7.18057E+00 +8.05882E+00 -4.66900E+00 +1.14144E+01 -1.08173E+00 +1.21384E+01
 +2.27990E+00 +1.00782E+01 +4.26268E+00 +5.84109E+00 +4.21124E+00 +5.82970E-01 +2.14543E+00 -4.35236E+00
 -1.27971E+00 -7.82365E+00 -5.00509E+00 -9.19296E+00 -7.90550E+00 -8.45295E+00 -9.12285E+00 -6.15804E+00
 -8.29388E+00 -3.19961E+00 -5.61392E+00 -5.10142E-01 -1.73492E+00 +1.20612E+00 +2.45202E+00 +1.63838E+00
 +6.07065E+00 +8.95797E-01 +8.47056E+00 -5.90440E-01 +9.34269E+00 -2.23851E+00 +8.72567E+00 -3.49549E+00
 +6.92689E+00 -3.97062E+00 +4.40343E+00 -3.49564E+00 +1.64817E+00 -2.11694E+00 -8.90416E-01 -4.64786E-02
 -2.85087E+00 +2.39642E+00 -3.97876E+00 +4.83131E+00 -4.14468E+00 +6.84918E+00 -3.37113E+00 +8.04630E+00
 -1.86063E+00 +8.07774E+00 -1.07136E-03 +6.73820E+00 +1.67943E+00 +4.05548E+00 +2.62224E+00 +3.61096E-01
 +2.39887E+00 -3.70594E+00 +8.78584E-01 -7.29357E+00 -1.66000E+00 -9.52930E+00 -4.53188E+00 -9.76960E+00
 -6.79126E+00 -7.83082E+00 -7.49885E+00 -4.11559E+00 -6.03896E+00 +4.30219E-01 -2.38266E+00 +4.54488E+00
 +2.80506E+00 +7.01295E+00 +8.27583E+00 +7.05703E+00 +1.25187E+01 +4.62913E+00 +1.42089E+01 +4.90363E-01
 +1.26471E+01 -3.97104E+00 +8.04042E+00 -7.14797E+00 +1.51429E+00 -7.73191E+00 -5.17205E+00 -5.17419E+00
 -1.01368E+01 +6.89811E-02 -1.19607E+01 +6.60702E+00 -1.01578E+01 +1.25000E+01 -5.36826E+00 +1.58508E+01
 +8.04166E-01 +1.54211E+01 +6.27647E+00 +1.10670E+01 +9.14636E+00 +3.84242E+00 +8.31827E+00 -4.28009E+00
 +3.88762E+00 -1.09968E+01 -2.85189E+00 -1.43867E+01 -9.79283E+00 -1.35245E+01 -1.46754E+01 -8.78815E+00
 -1.58159E+01 -1.75553E+00 -1.26657E+01 +5.28657E+00 -6.01331E+00 +1.00666E+01 +2.24179E+00 +1.10537E+01
 +9.67584E+00 +7.94834E+00 +1.41020E+01 +1.77715E+00 +1.42595E+01 -5.44071E+00 +1.02081E+01 -1.13475E+01
 +3.29935E+00 -1.40085E+01 -4.26322E+00 -1.25328E+01 -1.01310E+01 -7.35297E+00 -1.25530E+01 -7.60059E-02
 -1.09137E+01 +7.04178E+00 -5.89758E+00 +1.18200E+01 +7.67473E-01 +1.28419E+01 +6.89253E+00 +9.88323E+00
 +1.05413E+01 +3.95051E+00 +1.06394E+01 -3.07380E+00 +7.28703E+00 -9.05189E+00 +1.68231E+00 -1.22690E+01
 -4.30291E+00 -1.19493E+01 -8.74591E+00 -8.44946E+00 -1.02838E+01 -3.08345E+00 -8.51634E+00 +2.34798E+00
 -4.08088E+00 +6.15569E+00 +1.60617E+00 +7.28867E+00 +6.83955E+00 +5.62304E+00 +1.01744E+01 +1.93555E+00
 +1.08536E+01 -2.40884E+00 +8.98533E+00 -5.93383E+00 +5.43086E+00 -7.52663E+00 +1.46416E+00 -6.75721E+00
 -1.66818E+00 -3.95177E+00 -3.13439E+00 -1.87932E-02 -2.73179E+00 +3.89218E+00 -8.75756E-01 +6.77098E+00
 +1.60827E+00 +8.03803E+00 +3.79871E+00 +7.66148E+00 +4.98109E+00 +6.08329E+00 +4.84134E+00 +4.00430E+00
