 Created: 19-Jan-2021
 $NMID
 ID='D:\BASISSIMULATI'
 FMTDAT='(8E13.5)'
 VOLUME=   1.00000E+00
 TRAMP=   1.00000E+00
 $END
 +5.64881E+01 +2.86217E-01 +5.18646E+01 -9.46709E+00 +3.89076E+01 -1.62395E+01 +2.02367E+01 -1.77159E+01
 -4.16655E-01 -1.29289E+01 -1.90278E+01 -2.52551E+00 -3.21515E+01 +1.13592E+01 -3.76477E+01 +2.55920E+01
 -3.50987E+01 +3.67786E+01 -2.58283E+01 +4.20734E+01 -1.25281E+01 +3.98674E+01 +1.41304E+00 +3.01933E+01
 +1.27128E+01 +1.47500E+01 +1.89426E+01 -3.45868E+00 +1.90449E+01 -2.07845E+01 +1.35089E+01 -3.37418E+01
 +4.17272E+00 -3.97727E+01 -6.28672E+00 -3.77962E+01 -1.50449E+01 -2.84191E+01 -1.98306E+01 -1.37677E+01
 -1.94672E+01 +3.01181E+00 -1.41313E+01 +1.84628E+01 -5.27251E+00 +2.95697E+01 +4.77451E+00 +3.43797E+01
 +1.33833E+01 +3.23608E+01 +1.82863E+01 +2.44259E+01 +1.81238E+01 +1.26352E+01 +1.27628E+01 -3.37951E-01
 +3.31625E+00 -1.18422E+01 -8.13383E+00 -1.98305E+01 -1.90334E+01 -2.32589E+01 -2.69501E+01 -2.22209E+01
 -3.01197E+01 -1.78040E+01 -2.78203E+01 -1.17229E+01 -2.04936E+01 -5.83468E+00 -9.59840E+00 -1.66203E+00
 +2.75683E+00 -4.12948E-02 +1.43039E+01 -9.73937E-01 +2.31062E+01 -3.70346E+00 +2.79379E+01 -6.98266E+00
 +2.84710E+01 -9.44988E+00 +2.52430E+01 -1.00105E+01 +1.94320E+01 -8.12458E+00 +1.25111E+01 -3.93251E+00
 +5.87882E+00 +1.80525E+00 +5.56987E-01 +7.92683E+00 -2.97428E+00 +1.31803E+01 -4.77935E+00 +1.65412E+01
 -5.32583E+00 +1.74522E+01 -5.25505E+00 +1.59289E+01 -5.13890E+00 +1.25100E+01 -5.29528E+00 +8.07902E+00
 -5.71187E+00 +3.61050E+00 -6.09285E+00 -8.22082E-02 -6.00541E+00 -2.53068E+00 -5.07405E+00 -3.67986E+00
 -3.15724E+00 -3.83068E+00 -4.47999E-01 -3.48265E+00 +2.53654E+00 -3.13023E+00 +5.07711E+00 -3.07853E+00
 +6.45248E+00 -3.33599E+00 +6.15932E+00 -3.61740E+00 +4.08561E+00 -3.45634E+00 +5.82537E-01 -2.39220E+00
 -3.59265E+00 -1.73049E-01 -7.45394E+00 +3.09151E+00 -1.00403E+01 +6.88076E+00 -1.06782E+01 +1.03417E+01
 -9.18036E+00 +1.24843E+01 -5.92059E+00 +1.24458E+01 -1.75962E+00 +9.75439E+00 +2.16697E+00 +4.51595E+00
 +4.74684E+00 -2.53448E+00 +5.19853E+00 -1.01426E+01 +3.30591E+00 -1.67900E+01 -4.87385E-01 -2.10390E+01
 -5.15586E+00 -2.18829E+01 -9.33051E+00 -1.90143E+01 -1.16428E+01 -1.29374E+01 -1.10894E+01 -4.88785E+00
 -7.32393E+00 +3.42811E+00 -7.96613E-01 +1.02190E+01 +7.30143E+00 +1.40278E+01 +1.52838E+01 +1.40848E+01
 +2.13514E+01 +1.05028E+01 +2.40221E+01 +4.26600E+00 +2.25023E+01 -2.99291E+00 +1.69083E+01 -9.37671E+00
 +8.27581E+00 -1.31787E+01 -1.64839E+00 -1.32999E+01 -1.07909E+01 -9.52702E+00 -1.72221E+01 -2.60002E+00
 -1.96032E+01 +5.94792E+00 -1.75013E+01 +1.41445E+01 -1.14976E+01 +2.00422E+01 -3.05856E+00 +2.21830E+01
 +5.80063E+00 +1.99509E+01 +1.29821E+01 +1.37285E+01 +1.67921E+01 +4.81910E+00 +1.63330E+01 -4.84961E+00
 +1.17090E+01 -1.31689E+01 +3.99666E+00 -1.83355E+01 -5.01132E+00 -1.92664E+01 -1.32281E+01 -1.58442E+01
 -1.87602E+01 -8.93646E+00 -2.03450E+01 -1.86088E-01 -1.76374E+01 +8.37543E+00 -1.12789E+01 +1.47999E+01
 -2.73760E+00 +1.76678E+01 +6.04221E+00 +1.64028E+01 +1.30937E+01 +1.13854E+01 +1.68783E+01 +3.84234E+00
 +1.66282E+01 -4.45766E+00 +1.25039E+01 -1.16258E+01 +5.53387E+00 -1.60920E+01 -2.64260E+00 -1.69571E+01
 -1.01654E+01 -1.41791E+01 -1.53811E+01 -8.55511E+00 -1.72086E+01 -1.50812E+00 -1.53595E+01 +5.26354E+00
 -1.03694E+01 +1.01891E+01 -3.43901E+00 +1.21845E+01 +3.86956E+00 +1.08847E+01 +1.00038E+01 +6.70229E+00
 +1.37707E+01 +7.02458E-01 +1.45846E+01 -5.66618E+00 +1.25607E+01 -1.09179E+01 +8.44137E+00 -1.38689E+01
 +3.38055E+00 -1.38910E+01 -1.35398E+00 -1.10264E+01 -4.68575E+00 -5.94308E+00 -5.96972E+00 +2.48554E-01
 -5.11427E+00 +6.26738E+00 -2.56352E+00 +1.09542E+01 +8.47259E-01 +1.35154E+01 +4.12026E+00 +1.36657E+01
 +6.34782E+00 +1.16443E+01 +6.92693E+00 +8.10993E+00 +5.68675E+00 +3.95152E+00 +2.90433E+00 +6.40273E-02
 -7.87506E-01 -2.85282E+00 -4.57032E+00 -4.42781E+00 -7.64184E+00 -4.65807E+00 -9.39862E+00 -3.85520E+00
 -9.55758E+00 -2.52100E+00 -8.19228E+00 -1.19098E+00 -5.68319E+00 -2.89036E-01 -2.60168E+00 -2.92455E-02
 +4.37386E-01 -3.85614E-01 +2.91564E+00 -1.13079E+00 +4.51021E+00 -1.92652E+00 +5.13243E+00 -2.43638E+00
 +4.90393E+00 -2.42775E+00 +4.08489E+00 -1.83572E+00 +2.97964E+00 -7.74223E-01 +1.84854E+00 +5.04841E-01
 +8.49856E-01 +1.68917E+00 +2.42492E-02 +2.49595E+00 -6.79094E-01 +2.74791E+00 -1.34808E+00 +2.41497E+00
 -2.04603E+00 +1.61194E+00 -2.76436E+00 +5.55760E-01 -3.40586E+00 -5.02741E-01 -3.80415E+00 -1.35126E+00
 -3.77345E+00 -1.87107E+00 -3.17292E+00 -2.05937E+00 -1.96528E+00 -2.01402E+00 -2.50362E-01 -1.88703E+00
 +1.73831E+00 -1.82250E+00 +3.67541E+00 -1.89907E+00 +5.21439E+00 -2.09529E+00 +6.06859E+00 -2.28922E+00
 +6.08106E+00 -2.29338E+00 +5.26415E+00 -1.91528E+00 +3.79771E+00 -1.02592E+00 +1.98579E+00 +3.84050E-01
 +1.82966E-01 +2.17837E+00 -1.29062E+00 +4.08858E+00 -2.22338E+00 +5.76574E+00 -2.55642E+00 +6.85834E+00
 -2.38688E+00 +7.09688E+00 -1.93040E+00 +6.36328E+00 -1.45364E+00 +4.72658E+00 -1.19552E+00 +2.43526E+00
 -1.29875E+00 -1.32949E-01 -1.76965E+00 -2.55142E+00 -2.47699E+00 -4.43578E+00 -3.18934E+00 -5.52345E+00
 -3.64053E+00 -5.72280E+00 -3.60520E+00 -5.12091E+00 -2.96398E+00 -3.94985E+00 -1.74116E+00 -2.52168E+00
 -1.04783E-01 -1.14977E+00 +1.67019E+00 -7.69106E-02 +3.26579E+00 +5.72375E-01 +4.39506E+00 +8.04882E-01
 +4.86708E+00 +7.36477E-01 +4.62684E+00 +5.43189E-01 +3.76090E+00 +4.00917E-01 +2.46908E+00 +4.31154E-01
 +1.01118E+00 +6.67500E-01 -3.56093E-01 +1.05107E+00 -1.43513E+00 +1.45440E+00 -2.12244E+00 +1.72528E+00
 -2.41533E+00 +1.73678E+00 -2.39108E+00 +1.42834E+00 -2.16735E+00 +8.26045E-01 -1.85699E+00 +3.67033E-02
 -1.53156E+00 -7.81837E-01 -1.20417E+00 -1.46480E+00 -8.36072E-01 -1.88556E+00 -3.63521E-01 -1.98826E+00
 +2.64565E-01 -1.79850E+00 +1.05140E+00 -1.40933E+00 +1.93190E+00 -9.47299E-01 +2.77510E+00 -5.29341E-01
 +3.41027E+00 -2.24170E-01 +3.67038E+00 -3.04838E-02 +3.44066E+00 +1.20632E-01 +2.69783E+00 +3.39141E-01
 +1.52763E+00 +7.32851E-01 +1.13851E-01 +1.36061E+00 -1.29987E+00 +2.19678E+00 -2.46638E+00 +3.11913E+00
 -3.19488E+00 +3.92637E+00 -3.39795E+00 +4.38265E+00 -3.11255E+00 +4.27878E+00 -2.48825E+00 +3.49407E+00
 -1.74516E+00 +2.04157E+00 -1.11226E+00 +8.30664E-02 -7.62616E-01 -2.09258E+00 -7.63444E-01 -4.12439E+00
 -1.05516E+00 -5.65538E+00 -1.46621E+00 -6.41153E+00 -1.76067E+00 -6.26396E+00 -1.70655E+00 -5.25849E+00
 -1.14668E+00 -3.60484E+00 -5.28309E-02 -1.62770E+00 +1.45246E+00 +3.08011E-01 +3.11349E+00 +1.87914E+00
 +4.59537E+00 +2.87308E+00 +5.56164E+00 +3.22646E+00 +5.75606E+00 +3.02499E+00 +5.06797E+00 +2.46592E+00
 +3.56420E+00 +1.79450E+00 +1.47935E+00 +1.23216E+00 -8.33519E-01 +9.16329E-01 -2.97938E+00 +8.67888E-01
 -4.60586E+00 +9.94329E-01 -5.47515E+00 +1.12679E+00 -5.50617E+00 +1.07949E+00 -4.77793E+00 +7.13943E-01
 -3.49568E+00 -1.08280E-02 -1.93079E+00 -1.01683E+00 -3.51868E-01 -2.12092E+00 +1.03383E+00 -3.08033E+00
 +2.11396E+00 -3.65718E+00 +2.87240E+00 -3.68372E+00 +3.36123E+00 -3.10985E+00 +3.65498E+00 -2.01913E+00
 +3.80356E+00 -6.08655E-01 +3.80078E+00 +8.61723E-01 +3.57974E+00 +2.13627E+00 +3.03788E+00 +3.02724E+00
 +2.08428E+00 +3.45723E+00 +6.94018E-01 +3.46794E+00 -1.04932E+00 +3.19283E+00 -2.93979E+00 +2.80239E+00
 -4.67312E+00 +2.43908E+00 -5.90678E+00 +2.16294E+00 -6.34306E+00 +1.92614E+00 -5.81362E+00 +1.58688E+00
 -4.34104E+00 +9.61073E-01 -2.15717E+00 -1.01934E-01 +3.31617E-01 -1.64201E+00 +2.62839E+00 -3.53465E+00
 +4.26069E+00 -5.48181E+00 +4.89850E+00 -7.05680E+00 +4.44368E+00 -7.79788E+00 +3.06509E+00 -7.33015E+00
 +1.16589E+00 -5.48499E+00 -7.12868E-01 -2.38320E+00 -2.03089E+00 +1.54559E+00 -2.39530E+00 +5.62057E+00
 -1.67654E+00 +9.03828E+00 -6.03101E-02 +1.10468E+01 +1.98273E+00 +1.11260E+01 +3.80720E+00 +9.12889E+00
 +4.75934E+00 +5.34613E+00 +4.35930E+00 +4.71205E-01 +2.45196E+00 -4.53223E+00 -7.15750E-01 -8.63505E+00
 -4.51729E+00 -1.09742E+01 -8.07026E+00 -1.10564E+01 -1.04375E+01 -8.88368E+00 -1.08598E+01 -4.96669E+00
 -8.96352E+00 -2.17336E-01 -4.88899E+00 +4.25718E+00 +6.97412E-01 +7.41323E+00 +6.71868E+00 +8.52138E+00
 +1.19095E+01 +7.34736E+00 +1.50980E+01 +4.21736E+00 +1.54818E+01 -5.19975E-02 +1.28332E+01 -4.34551E+00
 +7.57884E+00 -7.51976E+00 +7.32298E-01 -8.68757E+00 -6.31225E+00 -7.44717E+00 -1.20810E+01 -3.99793E+00
 -1.53484E+01 +8.88890E-01 -1.54168E+01 +6.04163E+00 -1.22803E+01 +1.01639E+01 -6.63333E+00 +1.21499E+01
 +2.80691E-01 +1.13640E+01 +6.94830E+00 +7.81476E+00 +1.19279E+01 +2.17900E+00 +1.41755E+01 -4.33459E+00
 +1.32790E+01 -1.02532E+01 +9.54417E+00 -1.41782E+01 +3.91443E+00 -1.51153E+01 -2.25825E+00 -1.27176E+01
 -7.53549E+00 -7.38245E+00 -1.07316E+01 -1.77762E-01 -1.11886E+01 +7.38801E+00 -8.92277E+00 +1.36998E+01
 -4.60812E+00 +1.73969E+01 +5.97393E-01 +1.76776E+01 +5.33994E+00 +1.44765E+01 +8.40199E+00 +8.47542E+00
 +8.99806E+00 +9.44576E-01 +6.96320E+00 -6.54607E+00 +2.78955E+00 -1.24781E+01 -2.49637E+00 -1.57167E+01
 -7.58472E+00 -1.57470E+01 -1.12000E+01 -1.27639E+01 -1.24082E+01 -7.59795E+00 -1.08404E+01 -1.49948E+00
 -6.77919E+00 +4.16279E+00 -1.09048E+00 +8.21637E+00 +4.98226E+00 +9.93826E+00 +1.01090E+01 +9.19006E+00
 +1.31795E+01 +6.40853E+00 +1.35529E+01 +2.46115E+00 +1.11922E+01 -1.59213E+00 +6.65665E+00 -4.76816E+00
 +9.57582E-01 -6.39380E+00 -4.68301E+00 -6.24772E+00 -9.11120E+00 -4.58067E+00 -1.14902E+01 -2.01572E+00
 -1.14635E+01 +6.39898E-01 -9.19800E+00 +2.61907E+00 -5.30623E+00 +3.39592E+00 -6.72393E-01 +2.81332E+00
 +3.76762E+00 +1.10732E+00 +7.23652E+00 -1.17315E+00 +9.26578E+00 -3.32542E+00 +9.75443E+00 -4.68630E+00
 +8.93085E+00 -4.80712E+00 +7.23756E+00 -3.56545E+00 +5.17764E+00 -1.18704E+00 +3.16892E+00 +1.82386E+00
 +1.44608E+00 +4.82313E+00 +3.44436E-02 +7.19421E+00 -1.20320E+00 +8.49840E+00 -2.46718E+00 +8.56859E+00
 -3.90456E+00 +7.52427E+00 -5.51544E+00 +5.70863E+00 -7.11430E+00 +3.57004E+00 -8.36105E+00 +1.52547E+00
 -8.85504E+00 -1.53078E-01 -8.26503E+00 -1.39585E+00 -6.45571E+00 -2.32103E+00 -3.57028E+00 -3.15540E+00
 -3.94711E-02 -4.11680E+00 +3.49246E+00 -5.29764E+00 +6.31070E+00 -6.58941E+00 +7.80663E+00 -7.67694E+00
