 Created: 19-Jan-2021
 $NMID
 ID='D:\BASISSIMULATI'
 FMTDAT='(8E13.5)'
 VOLUME=   1.00000E+00
 TRAMP=   1.00000E+00
 $END
 +6.61066E+01 -6.01971E-01 +5.27294E+01 +3.82131E+01 +1.82185E+01 +5.93152E+01 -2.06604E+01 +5.34885E+01
 -4.53807E+01 +2.48605E+01 -4.49135E+01 -1.13669E+01 -2.10942E+01 -3.67338E+01 +1.25818E+01 -3.88683E+01
 +3.80451E+01 -1.76007E+01 +4.19427E+01 +1.52235E+01 +2.23682E+01 +4.20523E+01 -1.03738E+01 +4.87561E+01
 -3.92863E+01 +3.18636E+01 -4.95754E+01 +2.11128E-01 -3.63089E+01 -2.97872E+01 -6.89784E+00 -4.27525E+01
 +2.28422E+01 -3.23615E+01 +3.69809E+01 -4.63105E+00 +2.78101E+01 +2.52150E+01 -8.18301E-02 +4.06624E+01
 -3.20989E+01 +3.25150E+01 -5.11120E+01 +3.75640E+00 -4.62749E+01 -3.18402E+01 -1.86611E+01 -5.66443E+01
 +1.91662E+01 -5.80975E+01 +4.94258E+01 -3.50816E+01 +5.80286E+01 +1.50870E+00 +4.15917E+01 +3.42571E+01
 +9.01487E+00 +4.79623E+01 -2.31362E+01 +3.71717E+01 -3.90409E+01 +8.71468E+00 -3.15296E+01 -2.19885E+01
 -5.48735E+00 -3.88876E+01 +2.49054E+01 -3.34352E+01 +4.35967E+01 -8.75675E+00 +4.09012E+01 +2.22039E+01
 +1.83325E+01 +4.35217E+01 -1.23887E+01 +4.45386E+01 -3.55596E+01 +2.52713E+01 -3.96861E+01 -3.76080E+00
 -2.33991E+01 -2.71354E+01 +3.93134E+00 -3.26112E+01 +2.71536E+01 -1.75032E+01 +3.32689E+01 +9.92842E+00
 +1.82302E+01 +3.47674E+01 -1.08926E+01 +4.31727E+01 -3.94826E+01 +2.95637E+01 -5.28303E+01 -4.30240E-01
 -4.36457E+01 -3.27536E+01 -1.57894E+01 -5.20018E+01 +1.76602E+01 -4.91677E+01 +4.09878E+01 -2.61183E+01
 +4.37002E+01 +5.44192E+00 +2.56727E+01 +2.99445E+01 -2.98703E+00 +3.57893E+01 -2.72169E+01 +2.10527E+01
 -3.46752E+01 -5.78181E+00 -2.18893E+01 -3.03570E+01 +4.21115E+00 -3.98513E+01 +3.00687E+01 -2.94500E+01
 +4.25624E+01 -4.60427E+00 +3.57009E+01 +2.19928E+01 +1.35319E+01 +3.70750E+01 -1.21554E+01 +3.36378E+01
 -2.80702E+01 +1.44311E+01 -2.63376E+01 -9.63481E+00 -8.52364E+00 -2.52790E+01 +1.52692E+01 -2.38052E+01
 +3.17187E+01 -5.62562E+00 +3.12352E+01 +1.99534E+01 +1.29589E+01 +3.95372E+01 -1.47484E+01 +4.25399E+01
 -3.85415E+01 +2.66256E+01 -4.68601E+01 -1.07796E+00 -3.57595E+01 -2.75800E+01 -1.08483E+01 -4.05698E+01
 +1.56114E+01 -3.45541E+01 +3.09149E+01 -1.34891E+01 +2.82533E+01 +1.13778E+01 +9.97641E+00 +2.72888E+01
 -1.38136E+01 +2.64002E+01 -3.05397E+01 +9.59268E+00 -3.15535E+01 -1.42059E+01 -1.63990E+01 -3.27473E+01
 +7.17675E+00 -3.67552E+01 +2.73778E+01 -2.45541E+01 +3.44731E+01 -2.71423E+00 +2.57087E+01 +1.75269E+01
 +6.53524E+00 +2.61503E+01 -1.24038E+01 +1.94878E+01 -2.08976E+01 +1.98383E+00 -1.44723E+01 -1.62583E+01
 +3.34636E+00 -2.48179E+01 +2.29305E+01 -1.83971E+01 +3.35793E+01 +4.35683E-01 +2.90594E+01 +2.25744E+01
 +1.08138E+01 +3.70496E+01 -1.27744E+01 +3.66208E+01 -3.06441E+01 +2.14259E+01 -3.46311E+01 -1.14333E+00
 -2.35125E+01 -2.02264E+01 -3.49536E+00 -2.69676E+01 +1.50364E+01 -1.88850E+01 +2.28056E+01 -9.49434E-01
 +1.62507E+01 +1.71014E+01 -8.50136E-01 +2.57797E+01 -1.94886E+01 +2.06075E+01 -3.01134E+01 +4.22475E+00
 -2.74606E+01 -1.51524E+01 -1.30785E+01 -2.80484E+01 +5.67078E+00 -2.85569E+01 +1.95330E+01 -1.72173E+01
 +2.21332E+01 -5.25461E-01 +1.31425E+01 +1.25833E+01 -1.73673E+00 +1.54072E+01 -1.38837E+01 +6.88791E+00
 -1.63060E+01 -7.96029E+00 -7.25818E+00 -2.07603E+01 +8.90462E+00 -2.41691E+01 +2.40242E+01 -1.56779E+01
 +3.03579E+01 +1.11792E+00 +2.45302E+01 +1.83856E+01 +9.20932E+00 +2.80529E+01 -8.30426E+00 +2.58682E+01
 -1.98032E+01 +1.34627E+01 -2.02829E+01 -2.58785E+00 -1.03523E+01 -1.41644E+01 +4.23164E+00 -1.56969E+01
 +1.55976E+01 -6.86822E+00 +1.77685E+01 +7.39271E+00 +9.59837E+00 +1.95517E+01 -4.80846E+00 +2.33353E+01
 -1.83322E+01 +1.68381E+01 -2.45145E+01 +3.32728E+00 -2.07760E+01 -1.05872E+01 -9.56080E+00 -1.84060E+01
 +3.10159E+00 -1.70141E+01 +1.08039E+01 -8.11975E+00 +1.00486E+01 +2.81404E+00 +1.93889E+00 +9.52106E+00
 -8.54231E+00 +8.20341E+00 -1.52251E+01 -5.58273E-01 -1.39869E+01 -1.21944E+01 -4.85964E+00 -2.05758E+01
 +8.03617E+00 -2.11901E+01 +1.86442E+01 -1.34277E+01 +2.20642E+01 -8.35540E-01 +1.69906E+01 +1.07385E+01
 +6.28022E+00 +1.61167E+01 -4.58684E+00 +1.33471E+01 -1.03172E+01 +4.56712E+00 -8.43164E+00 -5.20740E+00
 -3.96174E-01 -1.06938E+01 +9.26217E+00 -8.99482E+00 +1.53390E+01 -9.59044E-01 +1.45843E+01 +9.38630E+00
 +7.25202E+00 +1.69720E+01 -3.16962E+00 +1.82579E+01 -1.18367E+01 +1.29289E+01 -1.50260E+01 +3.89758E+00
 -1.19354E+01 -4.31489E+00 -4.92895E+00 -7.93449E+00 +1.83130E+00 -5.80268E+00 +4.60442E+00 +1.68440E-01
 +1.97840E+00 +6.12643E+00 -4.49131E+00 +8.35486E+00 -1.11876E+01 +5.20113E+00 -1.43615E+01 -2.12043E+00
 -1.20657E+01 -1.02172E+01 -5.10907E+00 -1.52942E+01 +3.41656E+00 -1.50772E+01 +9.74549E+00 -9.90441E+00
 +1.13281E+01 -2.46714E+00 +8.03965E+00 +3.61674E+00 +2.12781E+00 +5.63291E+00 -3.01961E+00 +3.06903E+00
 -4.61827E+00 -2.24475E+00 -1.84541E+00 -7.16959E+00 +3.84733E+00 -8.89240E+00 +9.57059E+00 -6.31425E+00
 +1.25055E+01 -5.11892E-01 +1.12945E+01 +5.90833E+00 +6.62611E+00 +1.01800E+01 +7.67735E-01 +1.07439E+01
 -3.65793E+00 +7.92853E+00 -4.99428E+00 +3.64519E+00 -3.30044E+00 +3.09913E-01 -1.86995E-01 -4.16496E-01
 +2.12271E+00 +1.57613E+00 +1.98397E+00 +4.89057E+00 -8.44094E-01 +7.43166E+00 -5.13592E+00 +7.52639E+00
 -8.88689E+00 +4.76912E+00 -1.03594E+01 +1.80189E-01 -8.93915E+00 -4.36186E+00 -5.38165E+00 -7.08588E+00
 -1.36370E+00 -7.18295E+00 +1.39252E+00 -5.13039E+00 +1.95718E+00 -2.35900E+00 +5.78581E-01 -4.75014E-01
 -1.54125E+00 -4.55731E-01 -2.92315E+00 -2.21955E+00 -2.56835E+00 -4.75357E+00 -4.15143E-01 -6.68910E+00
 +2.70476E+00 -7.00168E+00 +5.54360E+00 -5.47857E+00 +7.07170E+00 -2.74482E+00 +6.93991E+00 +1.21046E-01
 +5.55962E+00 +2.14920E+00 +3.80252E+00 +2.92092E+00 +2.51225E+00 +2.68511E+00 +2.09349E+00 +2.12908E+00
 +2.37537E+00 +1.96010E+00 +2.78422E+00 +2.53187E+00 +2.69983E+00 +3.69943E+00 +1.79120E+00 +4.94761E+00
 +1.63602E-01 +5.69254E+00 -1.73282E+00 +5.58066E+00 -3.35425E+00 +4.63404E+00 -4.32427E+00 +3.19105E+00
 -4.57230E+00 +1.70412E+00 -4.30072E+00 +5.20026E-01 -3.82926E+00 -2.43693E-01 -3.42034E+00 -6.83900E-01
 -3.17864E+00 -9.97690E-01 -3.05832E+00 -1.35345E+00 -2.94342E+00 -1.82036E+00 -2.73314E+00 -2.37757E+00
 -2.37818E+00 -2.96925E+00 -1.86132E+00 -3.54953E+00 -1.15952E+00 -4.08159E+00 -2.35384E-01 -4.50004E+00
 +9.22205E-01 -4.68110E+00 +2.23395E+00 -4.46464E+00 +3.49764E+00 -3.73504E+00 +4.43170E+00 -2.51875E+00
 +4.79261E+00 -1.03077E+00 +4.50919E+00 +3.79193E-01 +3.75137E+00 +1.37326E+00 +2.87644E+00 +1.79468E+00
 +2.26200E+00 +1.76289E+00 +2.10559E+00 +1.62668E+00 +2.30275E+00 +1.78276E+00 +2.48356E+00 +2.44768E+00
 +2.20491E+00 +3.50853E+00 +1.20535E+00 +4.54629E+00 -4.15994E-01 +5.03627E+00 -2.20514E+00 +4.62956E+00
 -3.55761E+00 +3.36487E+00 -4.02491E+00 +1.68622E+00 -3.56146E+00 +2.40634E-01 -2.57113E+00 -4.49747E-01
 -1.71317E+00 -2.70040E-01 -1.55737E+00 +4.08054E-01 -2.26664E+00 +9.06474E-01 -3.48149E+00 +5.98580E-01
 -4.48080E+00 -7.38875E-01 -4.54778E+00 -2.76985E+00 -3.35556E+00 -4.73330E+00 -1.16746E+00 -5.81041E+00
 +1.26270E+00 -5.54006E+00 +3.04963E+00 -4.06521E+00 +3.61481E+00 -2.07457E+00 +2.97652E+00 -4.61439E-01
 +1.73601E+00 +1.28246E-01 +7.61312E-01 -3.76000E-01 +7.29609E-01 -1.43907E+00 +1.76700E+00 -2.20802E+00
 +3.37652E+00 -1.96990E+00 +4.69582E+00 -5.39873E-01 +4.95166E+00 +1.62642E+00 +3.87293E+00 +3.65852E+00
 +1.84312E+00 +4.71884E+00 -2.90953E-01 +4.43746E+00 -1.65555E+00 +3.10385E+00 -1.80253E+00 +1.51239E+00
 -9.38527E-01 +5.41431E-01 +1.91665E-01 +6.87253E-01 +7.07346E-01 +1.79971E+00 +6.79867E-02 +3.16032E+00
 -1.62866E+00 +3.86304E+00 -3.68473E+00 +3.29731E+00 -5.15745E+00 +1.47888E+00 -5.34492E+00 -9.45967E-01
 -4.14716E+00 -3.02466E+00 -2.11427E+00 -3.97983E+00 -1.58736E-01 -3.59546E+00 +9.13762E-01 -2.30729E+00
 +8.07677E-01 -9.54985E-01 -1.34552E-01 -3.31912E-01 -1.14098E+00 -7.72816E-01 -1.43744E+00 -1.99497E+00
 -6.62763E-01 -3.27021E+00 +9.47405E-01 -3.82813E+00 +2.69966E+00 -3.27018E+00 +3.82202E+00 -1.77375E+00
 +3.87399E+00 +1.71169E-02 +2.96684E+00 +1.34720E+00 +1.68088E+00 +1.75371E+00 +7.32666E-01 +1.29882E+00
 +5.79365E-01 +5.09696E-01 +1.17731E+00 +6.62146E-02 +2.02286E+00 +4.13370E-01 +2.44679E+00 +1.51257E+00
 +1.99493E+00 +2.86565E+00 +6.83902E-01 +3.79300E+00 -1.00663E+00 +3.80783E+00 -2.39578E+00 +2.87850E+00
 -2.96797E+00 +1.43683E+00 -2.63989E+00 +1.33338E-01 -1.78272E+00 -5.19126E-01 -9.93954E-01 -4.12894E-01
 -7.52940E-01 +1.22572E-01 -1.15686E+00 +5.35553E-01 -1.88459E+00 +3.85355E-01 -2.40360E+00 -3.99516E-01
 -2.29528E+00 -1.48590E+00 -1.50749E+00 -2.34060E+00 -3.86196E-01 -2.55278E+00 +5.32249E-01 -2.08281E+00
 +8.45840E-01 -1.28854E+00 +5.35476E-01 -7.09957E-01 -1.43151E-02 -7.36184E-01 -2.42402E-01 -1.35254E+00
 +2.41449E-01 -2.12390E+00 +1.39285E+00 -2.43602E+00 +2.71643E+00 -1.86362E+00 +3.52174E+00 -4.52277E-01
 +3.31634E+00 +1.25964E+00 +2.11249E+00 +2.50898E+00 +4.61423E-01 +2.72759E+00 -8.22827E-01 +1.87878E+00
 -1.10972E+00 +5.09341E-01 -3.21160E-01 -5.30951E-01 +9.94726E-01 -5.61476E-01 +1.94584E+00 +5.25487E-01
 +1.79444E+00 +2.16592E+00 +3.98875E-01 +3.40628E+00 -1.65847E+00 +3.42934E+00 -3.35090E+00 +2.03837E+00
 -3.76208E+00 -1.80071E-01 -2.61792E+00 -2.12943E+00 -4.91323E-01 -2.78704E+00 +1.45904E+00 -1.78888E+00
 +2.10085E+00 +3.15610E-01 +9.70587E-01 +2.30551E+00 -1.41270E+00 +2.92626E+00 -3.76103E+00 +1.59396E+00
 -4.67657E+00 -1.22202E+00 -3.42075E+00 -4.17339E+00 -3.75346E-01 -5.70574E+00 +3.07934E+00 -4.89279E+00
 +5.24068E+00 -1.98465E+00 +4.98002E+00 +1.64809E+00 +2.38386E+00 +4.18116E+00 -1.22349E+00 +4.28858E+00
 -3.92409E+00 +1.87982E+00 -4.20561E+00 -1.78885E+00 -1.79489E+00 -4.72277E+00 +2.13321E+00 -5.22660E+00
 +5.51654E+00 -2.83338E+00 +6.47251E+00 +1.38149E+00 +4.32124E+00 +5.30143E+00 +1.18489E-02 +6.85492E+00
 -4.30699E+00 +5.13064E+00 -6.38203E+00 +9.22806E-01 -5.05932E+00 -3.61380E+00 -9.54961E-01 -6.05587E+00
 +3.79238E+00 -4.99961E+00 +6.59757E+00 -8.62747E-01 +5.79544E+00 +4.25202E+00 +1.57904E+00 +7.60264E+00
 -4.01166E+00 +7.24478E+00 -8.08841E+00 +3.11052E+00 -8.41217E+00 -2.86314E+00 -4.61416E+00 -7.66713E+00
