 Created: 19-Jan-2021
 $NMID
 ID='D:\BASISSIMULATI'
 FMTDAT='(8E13.5)'
 VOLUME=   1.00000E+00
 TRAMP=   1.00000E+00
 $END
 +2.05999E+01 -2.98639E-01 +1.86211E+01 +7.77104E+00 +1.32500E+01 +1.38568E+01 +5.92095E+00 +1.66257E+01
 -1.49620E+00 +1.56368E+01 -7.19709E+00 +1.14197E+01 -9.90568E+00 +5.29625E+00 -9.17873E+00 -9.97369E-01
 -5.47866E+00 -5.77811E+00 -7.24546E-03 -7.84624E+00 +5.64334E+00 -6.76657E+00 +9.92009E+00 -2.93604E+00
 +1.17023E+01 +2.56722E+00 +1.05586E+01 +8.29954E+00 +6.80957E+00 +1.28390E+01 +1.39608E+00 +1.51390E+01
 -4.40006E+00 +1.47596E+01 -9.29747E+00 +1.19280E+01 -1.23272E+01 +7.42646E+00 -1.30382E+01 +2.35393E+00
 -1.15558E+01 -2.16786E+00 -8.49244E+00 -5.26316E+00 -4.75053E+00 -6.48189E+00 -1.27818E+00 -5.85618E+00
 +1.15609E+00 -3.83504E+00 +2.11724E+00 -1.12916E+00 +1.55892E+00 +1.48397E+00 -2.18192E-01 +3.34231E+00
 -2.67995E+00 +4.02784E+00 -5.20533E+00 +3.42097E+00 -7.22695E+00 +1.68190E+00 -8.33538E+00 -8.22382E-01
 -8.33289E+00 -3.61826E+00 -7.23717E+00 -6.22598E+00 -5.24690E+00 -8.24102E+00 -2.68576E+00 -9.38695E+00
 +6.02085E-02 -9.54012E+00 +2.60189E+00 -8.73122E+00 +4.59871E+00 -7.13052E+00 +5.80195E+00 -5.02070E+00
 +6.08905E+00 -2.75858E+00 +5.48638E+00 -7.25697E-01 +4.17464E+00 +7.30960E-01 +2.47047E+00 +1.36198E+00
 +7.80044E-01 +1.07162E+00 -4.73052E-01 -4.74721E-02 -9.35423E-01 -1.71422E+00 -4.08851E-01 -3.50149E+00
 +1.08898E+00 -4.91828E+00 +3.30744E+00 -5.51752E+00 +5.80028E+00 -5.00568E+00 +8.01483E+00 -3.32633E+00
 +9.41571E+00 -6.93070E-01 +9.61493E+00 +2.44158E+00 +8.47516E+00 +5.47900E+00 +6.15768E+00 +7.80994E+00
 +3.09883E+00 +8.96063E+00 -8.31389E-02 +8.71280E+00 -2.73073E+00 +7.16563E+00 -4.30510E+00 +4.72105E+00
 -4.51979E+00 +1.99341E+00 -3.41531E+00 -3.36251E-01 -1.35446E+00 -1.68581E+00 +1.06263E+00 -1.71641E+00
 +3.14355E+00 -4.18712E-01 +4.27337E+00 +1.88134E+00 +4.06704E+00 +4.59961E+00 +2.46612E+00 +7.03507E+00
 -2.44228E-01 +8.54071E+00 -3.50252E+00 +8.68157E+00 -6.60579E+00 +7.34118E+00 -8.87864E+00 +4.75026E+00
 -9.83504E+00 +1.43103E+00 -9.29332E+00 -1.92852E+00 -7.41695E+00 -4.63938E+00 -4.67189E+00 -6.17487E+00
 -1.71196E+00 -6.29301E+00 +7.79232E-01 -5.08926E+00 +2.25119E+00 -2.96765E+00 +2.41499E+00 -5.38750E-01
 +1.30722E+00 +1.52997E+00 -7.24796E-01 +2.67482E+00 -3.11158E+00 +2.56902E+00 -5.20144E+00 +1.19714E+00
 -6.41757E+00 -1.14581E+00 -6.39453E+00 -3.92913E+00 -5.06229E+00 -6.51566E+00 -2.65872E+00 -8.31398E+00
 +3.30964E-01 -8.91706E+00 +3.29195E+00 -8.19471E+00 +5.62593E+00 -6.31886E+00 +6.89028E+00 -3.71725E+00
 +6.89751E+00 -9.67720E-01 +5.75240E+00 +1.34039E+00 +3.81934E+00 +2.74423E+00 +1.62924E+00 +3.01222E+00
 -2.50435E-01 +2.19150E+00 -1.35088E+00 +5.88238E-01 -1.41013E+00 -1.31284E+00 -4.29178E-01 -2.96897E+00
 +1.33575E+00 -3.91018E+00 +3.44123E+00 -3.84911E+00 +5.36699E+00 -2.74421E+00 +6.64099E+00 -8.02941E-01
 +6.94917E+00 +1.57402E+00 +6.20424E+00 +3.89225E+00 +4.55875E+00 +5.68155E+00 +2.36140E+00 +6.60390E+00
 +6.91937E-02 +6.52621E+00 -1.86206E+00 +5.54224E+00 -3.08208E+00 +3.94072E+00 -3.42120E+00 +2.12973E+00
 -2.91986E+00 +5.36947E-01 -1.80808E+00 -4.89426E-01 -4.42237E-01 -7.56343E-01 +7.83814E-01 -2.61734E-01
 +1.53127E+00 +8.15425E-01 +1.59115E+00 +2.16584E+00 +9.25213E-01 +3.42734E+00 -3.34041E-01 +4.26970E+00
 -1.92171E+00 +4.46739E+00 -3.50600E+00 +3.94454E+00 -4.76460E+00 +2.78426E+00 -5.45423E+00 +1.20256E+00
 -5.45893E+00 -5.04965E-01 -4.80788E+00 -2.03016E+00 -3.66133E+00 -3.11795E+00 -2.26975E+00 -3.61670E+00
 -9.16566E-01 -3.50391E+00 +1.42550E-01 -2.88352E+00 +7.31185E-01 -1.95737E+00 +7.84626E-01 -9.77996E-01
 +3.57828E-01 -1.93556E-01 -3.91387E-01 +2.03912E-01 -1.23941E+00 +1.16645E-01 -1.94606E+00 -4.41213E-01
 -2.30569E+00 -1.34933E+00 -2.19019E+00 -2.40853E+00 -1.57525E+00 -3.38386E+00 -5.44894E-01 -4.05462E+00
 +7.26439E-01 -4.26114E+00 +2.01083E+00 -3.93870E+00 +3.07508E+00 -3.13153E+00 +3.73035E+00 -1.98375E+00
 +3.87260E+00 -7.08807E-01 +3.50506E+00 +4.56363E-01 +2.73744E+00 +1.30265E+00 +1.76173E+00 +1.69450E+00
 +8.09450E-01 +1.59962E+00 +9.95672E-02 +1.09586E+00 -2.11053E-01 +3.53035E-01 -6.34581E-02 -4.06329E-01
 +4.89938E-01 -9.58702E-01 +1.29766E+00 -1.13184E+00 +2.14469E+00 -8.45381E-01 +2.80305E+00 -1.30057E-01
 +3.08562E+00 +8.79143E-01 +2.89047E+00 +1.97446E+00 +2.22510E+00 +2.92408E+00 +1.20468E+00 +3.52647E+00
 +2.49878E-02 +3.65744E+00 -1.08378E+00 +3.29859E+00 -1.91085E+00 +2.54057E+00 -2.31362E+00 +1.56038E+00
 -2.24959E+00 +5.78649E-01 -1.78419E+00 -1.92854E-01 -1.07273E+00 -6.00682E-01 -3.21528E-01 -5.84348E-01
 +2.62389E-01 -1.88184E-01 +5.20551E-01 +4.51971E-01 +3.79703E-01 +1.14354E+00 -1.32665E-01 +1.68462E+00
 -8.97079E-01 +1.91257E+00 -1.73247E+00 +1.74206E+00 -2.44043E+00 +1.18394E+00 -2.85255E+00 +3.40924E-01
 -2.86948E+00 -6.18293E-01 -2.48290E+00 -1.49984E+00 -1.77548E+00 -2.13035E+00 -8.99600E-01 -2.39674E+00
 -4.02476E-02 -2.27084E+00 +6.28700E-01 -1.81358E+00 +9.84511E-01 -1.15821E+00 +9.82632E-01 -4.77107E-01
 +6.64749E-01 +5.97978E-02 +1.46416E-01 +3.24987E-01 -4.12391E-01 +2.62416E-01 -8.46557E-01 -1.00911E-01
 -1.02553E+00 -6.63240E-01 -8.84076E-01 -1.27393E+00 -4.37024E-01 -1.77053E+00 +2.25339E-01 -2.01808E+00
 +9.59797E-01 -1.94129E+00 +1.60512E+00 -1.54215E+00 +2.02091E+00 -8.98630E-01 +2.12097E+00 -1.45350E-01
 +1.89332E+00 +5.59310E-01 +1.40212E+00 +1.07141E+00 +7.71049E-01 +1.29575E+00 +1.52605E-01 +1.20799E+00
 -3.09422E-01 +8.59207E-01 -5.14805E-01 +3.62006E-01 -4.30641E-01 -1.38341E-01 -9.82153E-02 -5.00443E-01
 +3.78596E-01 -6.21927E-01 +8.60336E-01 -4.64439E-01 +1.20751E+00 -6.23819E-02 +1.31571E+00 +4.86643E-01
 +1.14153E+00 +1.04710E+00 +7.12843E-01 +1.47996E+00 +1.21116E-01 +1.67761E+00 -5.02140E-01 +1.59037E+00
 -1.01861E+00 +1.23817E+00 -1.31761E+00 +7.04528E-01 -1.34300E+00 +1.14833E-01 -1.10599E+00 -3.95560E-01
 -6.80858E-01 -7.15018E-01 -1.84959E-01 -7.82709E-01 +2.51515E-01 -6.02368E-01 +5.18325E-01 -2.39622E-01
 +5.52173E-01 +1.96092E-01 +3.51306E-01 +5.80090E-01 -2.56080E-02 +8.04105E-01 -4.75635E-01 +8.03063E-01
 -8.78365E-01 +5.70443E-01 -1.12637E+00 +1.58698E-01 -1.15174E+00 -3.34956E-01 -9.42129E-01 -7.93487E-01
 -5.42805E-01 -1.10927E+00 -4.44123E-02 -1.21032E+00 +4.40071E-01 -1.07714E+00 +8.03289E-01 -7.46321E-01
 +9.69421E-01 -3.00392E-01 +9.11790E-01 +1.53297E-01 +6.58084E-01 +5.09251E-01 +2.82200E-01 +6.89404E-01
 -1.14988E-01 +6.61435E-01 -4.31022E-01 +4.45491E-01 -5.87100E-01 +1.07915E-01 -5.46984E-01 -2.56221E-01
 -3.25064E-01 -5.47330E-01 +1.82218E-02 -6.86177E-01 +3.92285E-01 -6.33279E-01 +6.99508E-01 -3.98110E-01
 +8.59734E-01 -3.59747E-02 +8.30019E-01 +3.66510E-01 +6.14738E-01 +7.13536E-01 +2.63658E-01 +9.24169E-01
 -1.41405E-01 +9.52237E-01 -5.07776E-01 +7.97045E-01 -7.55421E-01 +5.02308E-01 -8.36677E-01 +1.43776E-01
 -7.47155E-01 -1.91063E-01 -5.25154E-01 -4.25716E-01 -2.39986E-01 -5.13860E-01 +2.74096E-02 -4.49950E-01
 +2.06215E-01 -2.68686E-01 +2.53913E-01 -3.38073E-02 +1.66129E-01 +1.80407E-01 -2.42630E-02 +3.09632E-01
 -2.58101E-01 +3.16291E-01 -4.67506E-01 +1.98167E-01 -5.94880E-01 -1.32053E-02 -6.07905E-01 -2.63414E-01
 -5.06505E-01 -4.91743E-01 -3.20210E-01 -6.48366E-01 -9.72692E-02 -7.07137E-01 +1.10773E-01 -6.70492E-01
 +2.64140E-01 -5.65531E-01 +3.44984E-01 -4.33069E-01 +3.59876E-01 -3.13526E-01 +3.34383E-01 -2.34323E-01
 +3.02059E-01 -2.02687E-01 +2.91805E-01 -2.05844E-01 +3.17942E-01 -2.18056E-01 +3.76209E-01 -2.11683E-01
 +4.46764E-01 -1.68222E-01 +5.02847E-01 -8.54221E-02 +5.21805E-01 +2.19823E-02 +4.94434E-01 +1.28066E-01
 +4.29208E-01 +2.05890E-01 +3.49770E-01 +2.38350E-01 +2.86491E-01 +2.25697E-01 +2.64969E-01 +1.86865E-01
 +2.95569E-01 +1.53857E-01 +3.67810E-01 +1.60882E-01 +4.51854E-01 +2.31817E-01 +5.06992E-01 +3.70321E-01
 +4.94582E-01 +5.56132E-01 +3.91293E-01 +7.49188E-01 +1.98265E-01 +9.00569E-01 -5.70377E-02 +9.67044E-01
 -3.27194E-01 +9.24642E-01 -5.57704E-01 +7.76916E-01 -7.02533E-01 +5.55113E-01 -7.37559E-01 +3.10003E-01
 -6.67755E-01 +9.77383E-02 -5.25865E-01 -3.60136E-02 -3.62944E-01 -6.88798E-02 -2.33673E-01 -7.71001E-03
 -1.80870E-01 +1.14038E-01 -2.23827E-01 +2.46487E-01 -3.53780E-01 +3.37844E-01 -5.37545E-01 +3.48798E-01
 -7.27837E-01 +2.62569E-01 -8.76832E-01 +8.79595E-02 -9.48750E-01 -1.44973E-01 -9.27862E-01 -3.94709E-01
 -8.20013E-01 -6.20069E-01 -6.47973E-01 -7.90275E-01 -4.42865E-01 -8.90465E-01 -2.34927E-01 -9.21647E-01
 -4.66834E-02 -8.96103E-01 +1.09650E-01 -8.30672E-01 +2.30510E-01 -7.40822E-01 +3.16740E-01 -6.37689E-01
 +3.69296E-01 -5.28779E-01 +3.87241E-01 -4.21269E-01 +3.69185E-01 -3.25643E-01 +3.17567E-01 -2.57110E-01
 +2.43631E-01 -2.33158E-01 +1.70200E-01 -2.67299E-01 +1.29819E-01 -3.60980E-01 +1.57431E-01 -4.96940E-01
 +2.78954E-01 -6.37510E-01 +4.99186E-01 -7.30077E-01 +7.93508E-01 -7.19639E-01 +1.10739E+00 -5.65677E-01
 +1.36567E+00 -2.58402E-01 +1.49057E+00 +1.71231E-01 +1.42417E+00 +6.52253E-01 +1.14891E+00 +1.08684E+00
 +6.99466E-01 +1.37378E+00 +1.60838E-01 +1.43660E+00 -3.48503E-01 +1.24841E+00 -7.05448E-01 +8.45668E-01
 -8.15893E-01 +3.25366E-01 -6.43931E-01 -1.75337E-01 -2.27625E-01 -5.13023E-01 +3.24494E-01 -5.77022E-01
 +8.56956E-01 -3.22860E-01 +1.20601E+00 +2.09808E-01 +1.24372E+00 +9.01080E-01 +9.15603E-01 +1.57707E+00
 +2.60927E-01 +2.05282E+00 -5.91151E-01 +2.18121E+00 -1.44996E+00 +1.89467E+00 -2.10996E+00 +1.22808E+00
 -2.40391E+00 +3.15494E-01 -2.24866E+00 -6.39632E-01 -1.67087E+00 -1.41407E+00 -8.04921E-01 -1.82179E+00
 +1.37482E-01 -1.76362E+00 +9.19064E-01 -1.25598E+00 +1.33724E+00 -4.30681E-01 +1.27732E+00 +4.95330E-01
 +7.44628E-01 +1.27305E+00 -1.33362E-01 +1.68428E+00 -1.13620E+00 +1.59824E+00 -2.00406E+00 +1.00722E+00
 -2.50261E+00 +3.16986E-02 -2.48274E+00 -1.10691E+00 -1.91999E+00 -2.13947E+00 -9.23299E-01 -2.81539E+00
 +2.89484E-01 -2.96515E+00 +1.44355E+00 -2.54369E+00 +2.27397E+00 -1.64337E+00 +2.59079E+00 -4.73106E-01
 +2.32638E+00 +6.91432E-01 +1.55310E+00 +1.57448E+00 +4.66818E-01 +1.96739E+00 -6.59867E-01 +1.77990E+00
 -1.54341E+00 +1.06288E+00 -1.95809E+00 -3.21091E-03 -1.79109E+00 -1.15125E+00 -1.07043E+00 -2.09159E+00
