 Created: 19-Jan-2021
 $NMID
 ID='D:\BASISSIMULATI'
 FMTDAT='(8E13.5)'
 VOLUME=   1.00000E+00
 TRAMP=   1.00000E+00
 $END
 +1.74612E+01 -5.54830E-01 +1.51559E+01 +8.66155E+00 +8.37219E+00 +1.53020E+01 -8.76746E-01 +1.74069E+01
 -9.85189E+00 +1.43608E+01 -1.58995E+01 +7.07259E+00 -1.72357E+01 -2.29570E+00 -1.34728E+01 -1.09704E+01
 -5.73153E+00 -1.63872E+01 +3.69254E+00 -1.69494E+01 +1.20098E+01 -1.24984E+01 +1.67625E+01 -4.35824E+00
 +1.65505E+01 +5.05798E+00 +1.14445E+01 +1.29637E+01 +2.96210E+00 +1.70232E+01 -6.38299E+00 +1.60422E+01
 -1.38258E+01 +1.03187E+01 -1.71683E+01 +1.55260E+00 -1.54284E+01 -7.65885E+00 -9.12871E+00 -1.45909E+01
 -1.39292E-01 -1.71972E+01 +8.87721E+00 -1.47138E+01 +1.52543E+01 -7.88296E+00 +1.71104E+01 +1.26831E+00
 +1.39035E+01 +1.00301E+01 +6.59005E+00 +1.58121E+01 -2.66077E+00 +1.69089E+01 -1.11102E+01 +1.30036E+01
 -1.62608E+01 +5.25891E+00 -1.65946E+01 -4.02879E+00 -1.20204E+01 -1.21105E+01 -3.89866E+00 -1.65981E+01
 +5.36328E+00 -1.61702E+01 +1.30246E+01 -1.09610E+01 +1.68222E+01 -2.51858E+00 +1.56391E+01 +6.65544E+00
 +9.83296E+00 +1.38469E+01 +1.12806E+00 +1.69322E+01 -7.89676E+00 +1.50053E+01 -1.45721E+01 +8.64405E+00
 -1.69277E+01 -2.63504E-01 -1.42736E+01 -9.07915E+00 -7.40260E+00 -1.51960E+01 +1.64676E+00 -1.68094E+01
 +1.01949E+01 -1.34493E+01 +1.57148E+01 -6.11721E+00 +1.65787E+01 +3.01244E+00 +1.25385E+01 +1.12369E+01
 +4.79672E+00 +1.61254E+01 -4.35144E+00 +1.62375E+01 -1.21984E+01 +1.15477E+01 -1.64257E+01 +3.45019E+00
 -1.57888E+01 -5.65488E+00 -1.04838E+01 -1.30734E+01 -2.08679E+00 -1.66141E+01 +6.91417E+00 -1.52360E+01
 +1.38563E+01 -9.35445E+00 +1.66899E+01 -7.15760E-01 +1.45834E+01 +8.12104E+00 +8.16750E+00 +1.45424E+01
 -6.53634E-01 +1.66531E+01 -9.26763E+00 +1.38357E+01 -1.51274E+01 +6.93121E+00 -1.65045E+01 -2.01219E+00
 -1.29985E+01 -1.03465E+01 -5.65413E+00 -1.56080E+01 +3.35084E+00 -1.62456E+01 +1.13507E+01 -1.20779E+01
 +1.59814E+01 -4.34502E+00 +1.58786E+01 +4.66065E+00 +1.10804E+01 +1.22739E+01 +3.01285E+00 +1.62455E+01
 -5.93297E+00 +1.54067E+01 -1.31102E+01 +1.00130E+01 -1.63992E+01 +1.66668E+00 -1.48333E+01 -7.15941E+00
 -8.88332E+00 -1.38544E+01 -3.15638E-01 -1.64418E+01 +8.33194E+00 -1.41629E+01 +1.45020E+01 -7.69921E+00
 +1.63737E+01 +1.03118E+00 +1.34004E+01 +9.44292E+00 +6.46890E+00 +1.50490E+01 -2.36473E+00 +1.61958E+01
 -1.04852E+01 +1.25514E+01 -1.54922E+01 +5.20088E+00 -1.59098E+01 -3.67611E+00 -1.16219E+01 -1.14520E+01
 -3.90384E+00 -1.58291E+01 +4.95660E+00 -1.55182E+01 +1.23373E+01 -1.06187E+01 +1.60580E+01 -2.58665E+00
 +1.50241E+01 +6.19775E+00 +9.54879E+00 +1.31355E+01 +1.25825E+00 +1.61779E+01 -7.39138E+00 +1.44313E+01
 -1.38416E+01 +8.41970E+00 -1.61884E+01 -7.23598E-02 -1.37442E+01 -8.52969E+00 -7.23929E+00 -1.44513E+01
 +1.39623E+00 -1.60900E+01 +9.60530E+00 -1.29679E+01 +1.49609E+01 -6.01576E+00 +1.58839E+01 +2.70448E+00
 +1.21081E+01 +1.06113E+01 +4.75752E+00 +1.53676E+01 -3.98840E+00 +1.55719E+01 -1.15411E+01 +1.11708E+01
 -1.56690E+01 +3.47320E+00 -1.51566E+01 -5.23946E+00 -1.01629E+01 -1.23890E+01 -2.17157E+00 -1.58636E+01
 +6.44941E+00 -1.46414E+01 +1.31496E+01 -9.09137E+00 +1.59506E+01 -8.61451E-01 +1.40302E+01 +7.61030E+00
 +7.96373E+00 +1.38182E+01 -4.48300E-01 +1.59300E+01 -8.71456E+00 +1.33275E+01 -1.43907E+01 +6.78785E+00
 -1.58023E+01 -1.74888E+00 -1.25385E+01 -9.75502E+00 -5.57184E+00 -1.48638E+01 +3.03158E+00 -1.55689E+01
 +1.07250E+01 -1.16688E+01 +1.52347E+01 -4.32409E+00 +1.52320E+01 +4.28787E+00 +1.07248E+01 +1.16183E+01
 +3.05312E+00 +1.55014E+01 -5.50942E+00 +1.47942E+01 -1.24292E+01 +9.71312E+00 -1.56626E+01 +1.76760E+00
 -1.42590E+01 -6.68817E+00 -8.64087E+00 -1.31528E+01 -4.76238E-01 -1.57177E+01 +7.81641E+00 -1.36304E+01
 +1.37845E+01 -7.51554E+00 +1.56668E+01 +8.12258E-01 +1.29131E+01 +8.88678E+00 +6.34497E+00 +1.43206E+01
 -2.08923E+00 +1.55109E+01 -9.89236E+00 +1.21124E+01 -1.47578E+01 +5.13724E+00 -1.52514E+01 -3.34616E+00
 -1.12339E+01 -1.08267E+01 -3.90063E+00 -1.50938E+01 +4.57467E+00 -1.48905E+01 +1.16838E+01 -1.02841E+01
 +1.53266E+01 -2.64361E+00 +1.44312E+01 +5.76664E+00 +9.26954E+00 +1.24584E+01 +1.37473E+00 +1.54553E+01
 -6.91424E+00 +1.38770E+01 -1.31455E+01 +8.19744E+00 -1.54795E+01 +1.02561E-01 -1.32321E+01 -8.00994E+00
 -7.07525E+00 -1.37410E+01 +1.16431E+00 -1.53994E+01 +9.04662E+00 -1.25013E+01 +1.42412E+01 -5.91076E+00
 +1.52162E+01 +2.41740E+00 +1.16898E+01 +1.00176E+01 +4.71199E+00 +1.46434E+01 -3.64835E+00 +1.49315E+01
 -1.09167E+01 +1.08036E+01 -1.49452E+01 +3.48718E+00 -1.45478E+01 -4.84897E+00 -9.84881E+00 -1.17381E+01
 -2.24467E+00 -1.51451E+01 +6.01134E+00 -1.40680E+01 +1.24767E+01 -8.83232E+00 +1.52422E+01 -9.92911E-01
 +1.34959E+01 +7.12782E+00 +7.76121E+00 +1.31279E+01 -2.59640E-01 +1.52363E+01 -8.19112E+00 +1.28357E+01
 -1.36878E+01 +6.64295E+00 -1.51281E+01 -1.50456E+00 -1.20923E+01 -9.19434E+00 -5.48527E+00 -1.41531E+01
 +2.73350E+00 -1.49186E+01 +1.01310E+01 -1.12711E+01 +1.45209E+01 -4.29616E+00 +1.46097E+01 +3.93829E+00
 +1.03779E+01 +1.09952E+01 +3.08374E+00 +1.47894E+01 -5.11093E+00 +1.42041E+01 -1.17813E+01 +9.41917E+00
 -1.49572E+01 +1.85628E+00 -1.37048E+01 -6.24369E+00 -8.40160E+00 -1.24845E+01 -6.22115E-01 -1.50236E+01
 +7.32913E+00 -1.31158E+01 +1.31005E+01 -7.33231E+00 +1.49886E+01 +6.10433E-01 +1.24413E+01 +8.36019E+00
 +6.21875E+00 +1.36255E+01 -1.83308E+00 +1.48531E+01 -9.33018E+00 +1.16863E+01 -1.40563E+01 +5.06860E+00
 -1.46183E+01 -3.03766E+00 -1.08563E+01 -1.02329E+01 -3.88977E+00 -1.43907E+01 +4.21614E+00 -1.42863E+01
 +1.10625E+01 -9.95719E+00 +1.46267E+01 -2.69033E+00 +1.38597E+01 +5.36073E+00 +8.99535E+00 +1.18138E+01
 +1.47843E+00 +1.47632E+01 -6.46389E+00 +1.33420E+01 -1.24822E+01 +7.97753E+00 -1.47998E+01 +2.62293E-01
 -1.27370E+01 -7.51840E+00 -6.91086E+00 -1.30635E+01 +9.49892E-01 -1.47367E+01 +8.51740E+00 -1.20492E+01
 +1.35542E+01 -5.80272E+00 +1.45748E+01 +2.14999E+00 +1.12836E+01 +9.45442E+00 +4.66078E+00 +1.39515E+01
 -3.32999E+00 +1.43156E+01 -1.03235E+01 +1.04458E+01 -1.42530E+01 +3.49286E+00 -1.39615E+01 -4.48205E+00
 -9.54158E+00 -1.11190E+01 -2.30695E+00 -1.44573E+01 +5.59855E+00 -1.35150E+01 +1.18360E+01 -8.57748E+00
 +1.45635E+01 -1.11109E+00 +1.29798E+01 +6.67216E+00 +7.56024E+00 +1.24701E+01 -8.66091E-02 +1.45712E+01
 -7.69585E+00 +1.23599E+01 -1.30173E+01 +6.49695E+00 -1.44808E+01 -1.27810E+00 -1.16597E+01 -8.66297E+00
 -5.39496E+00 -1.34744E+01 +2.45539E+00 -1.42935E+01 +9.56730E+00 -1.08844E+01 +1.38387E+01 -4.26187E+00
 +1.40110E+01 +3.61064E+00 +1.00396E+01 +1.04030E+01 +3.10546E+00 +1.41083E+01 -4.73617E+00 +1.36356E+01
 -1.11649E+01 +9.13124E+00 -1.42818E+01 +1.93359E+00 -1.31703E+01 -5.82457E+00 -8.16573E+00 -1.18481E+01
 -7.54233E-01 -1.43584E+01 +6.86868E+00 -1.26186E+01 +1.24484E+01 -7.14986E+00 +1.43380E+01 +4.24652E-01
 +1.19846E+01 +7.86169E+00 +6.09068E+00 +1.29622E+01 -1.59514E+00 +1.42214E+01 -8.79717E+00 +1.12730E+01
 -1.33863E+01 +4.99552E+00 -1.40096E+01 -2.74940E+00 -1.04889E+01 -9.66909E+00 -3.87192E+00 -1.37185E+01
 +3.87974E+00 -1.37047E+01 +1.04719E+01 -9.63804E+00 +1.39569E+01 -2.72756E+00 +1.33090E+01 +4.97868E+00
 +8.72634E+00 +1.12005E+01 +1.57025E+00 +1.41003E+01 -6.03897E+00 +1.28257E+01 -1.18504E+01 +7.76023E+00
 -1.41482E+01 +4.07811E-01 -1.22584E+01 -7.05367E+00 -6.74649E+00 -1.24175E+01 +7.51903E-01 -1.41007E+01
 +8.01616E+00 -1.16114E+01 +1.28984E+01 -5.69214E+00 +1.39587E+01 +1.90111E+00 +1.08893E+01 +8.92023E+00
 +4.60447E+00 +1.32904E+01 -3.03213E+00 +1.37234E+01 -9.76006E+00 +1.00973E+01 -1.35911E+01 +3.49095E+00
 -1.33969E+01 -4.13744E+00 -9.24125E+00 -1.05303E+01 -2.35920E+00 -1.37991E+01 +5.20973E+00 -1.29820E+01
 +1.12261E+01 -8.32703E+00 +1.39132E+01 -1.21689E+00 +1.24816E+01 +6.24195E+00 +7.36111E+00 +1.18432E+01
 +7.17788E-02 +1.39333E+01 -7.22734E+00 +1.18997E+01 -1.23777E+01 +6.35023E+00 -1.38596E+01 -1.06843E+00
 -1.12405E+01 -8.15949E+00 -5.30140E+00 -1.28265E+01 +2.19610E+00 -1.36930E+01 +9.03240E+00 -1.05088E+01
 +1.31869E+01 -4.22186E+00 +1.34351E+01 +3.30370E+00 +9.70985E+00 +9.84046E+00 +3.11900E+00 +1.34569E+01
 -4.38388E+00 +1.30881E+01 -1.05786E+01 +8.84938E+00 -1.36352E+01 +2.00034E+00 -1.26547E+01 -5.42950E+00
 -7.93345E+00 -1.12420E+01 -8.73502E-01 -1.37209E+01 +6.43369E+00 -1.21382E+01 +1.18268E+01 -6.96848E+00
 +1.37140E+01 +2.53918E-01 +1.15426E+01 +7.38989E+00 +5.96119E+00 +1.23293E+01 -1.37433E+00 +1.36148E+01
 -8.29191E+00 +1.08721E+01 -1.27465E+01 +4.91854E+00 -1.34246E+01 -2.48023E+00 -1.01317E+01 -9.13393E+00
 -3.84772E+00 -1.30760E+01 +3.56426E+00 -1.31450E+01 +9.91056E+00 -9.32662E+00 +1.33161E+01 -2.75606E+00
 +1.27784E+01 +4.61922E+00 +8.46261E+00 +1.06169E+01 +1.65100E+00 +1.34655E+01 -5.63815E+00 +1.23275E+01
 -1.12485E+01 +7.54575E+00 -1.35236E+01 +5.40036E-01 -1.17959E+01 -6.61439E+00 -6.58247E+00 -1.18015E+01
 +5.69340E-01 -1.34905E+01 +7.54155E+00 -1.11874E+01 +1.22726E+01 -5.57944E+00 +1.33669E+01 +1.66967E+00
 +1.05065E+01 +8.41364E+00 +4.54362E+00 +1.26589E+01 -2.75360E+00 +1.31539E+01 -9.22506E+00 +9.75824E+00
 -1.29583E+01 +3.48211E+00 -1.28535E+01 -3.81392E+00 -8.94784E+00 -9.97062E+00 -2.40217E+00 -1.31691E+01
 +4.84361E+00 -1.24681E+01 +1.06456E+01 -8.08108E+00 +1.32904E+01 -1.31116E+00 +1.20006E+01 +5.83588E+00
 +7.16405E+00 +1.12459E+01 +2.16456E-01 +1.33217E+01 -6.78425E+00 +1.14547E+01 -1.17677E+01 +6.20316E+00
 -1.32633E+01 -8.74554E-01 -1.08343E+01 -7.68253E+00 -5.20507E+00 -1.22079E+01 +1.95455E+00 -1.31160E+01
 +8.52493E+00 -1.01439E+01 +1.25640E+01 -4.17668E+00 +1.28812E+01 +3.01633E+00 +9.38858E+00 +9.30605E+00
 +3.12503E+00 +1.28339E+01 -4.05284E+00 +1.25608E+01 -1.00209E+01 +8.57366E+00 -1.30162E+01 +2.05731E+00
 -1.21575E+01 -5.05721E+00 -7.70493E+00 -1.06650E+01 -9.80778E-01 -1.31101E+01 +6.02286E+00 -1.16744E+01
 +1.12344E+01 -6.78847E+00 +1.31154E+01 +9.72894E-02 +1.11150E+01 +6.94347E+00 +5.83066E+00 +1.17255E+01
 -1.16963E+00 +1.30326E+01 -7.81305E+00 +1.04835E+01 -1.21355E+01 +4.83815E+00 -1.28624E+01 -2.22907E+00
 -9.78444E+00 -8.62601E+00 -3.81777E+00 -1.24620E+01 +3.26854E+00 -1.26066E+01 +9.37714E+00 -9.02289E+00
