 Created: 19-Jan-2021
 $NMID
 ID='D:\BASISSIMULATI'
 FMTDAT='(8E13.5)'
 VOLUME=   1.00000E+00
 TRAMP=   1.00000E+00
 $END
 +2.16848E+01 -6.27496E-01 +1.87497E+01 +1.03007E+01 +1.02428E+01 +1.75267E+01 -5.70562E-01 +1.85279E+01
 -9.58239E+00 +1.32169E+01 -1.34567E+01 +3.95714E+00 -1.09320E+01 -5.38461E+00 -3.30125E+00 -1.09724E+01
 +6.11733E+00 -1.05147E+01 +1.33035E+01 -4.16167E+00 +1.51298E+01 +5.56308E+00 +1.05972E+01 +1.47671E+01
 +1.22774E+00 +1.97283E+01 -9.53696E+00 +1.83626E+01 -1.76909E+01 +1.10407E+01 -2.02349E+01 +4.37108E-01
 -1.63460E+01 -9.52535E+00 -7.68586E+00 -1.52163E+01 +2.26770E+00 -1.47150E+01 +9.59888E+00 -8.54774E+00
 +1.14953E+01 +5.41166E-01 +7.34565E+00 +8.68923E+00 -1.03519E+00 +1.24489E+01 -1.01386E+01 +1.01485E+01
 -1.61571E+01 +2.54590E+00 -1.64910E+01 -7.47737E+00 -1.07713E+01 -1.60577E+01 -1.00125E+00 -1.98718E+01
 +9.23645E+00 -1.74391E+01 +1.61885E+01 -9.69476E+00 +1.73990E+01 +3.90573E-01 +1.26598E+01 +8.98636E+00
 +4.07113E+00 +1.29082E+01 -4.80329E+00 +1.08592E+01 -1.03513E+01 +3.92114E+00 -1.03351E+01 -4.89396E+00
 -4.76414E+00 -1.18477E+01 +4.12285E+00 -1.39575E+01 +1.27534E+01 -1.01725E+01 +1.76366E+01 -1.78069E+00
 +1.67379E+01 +8.10479E+00 +1.02743E+01 +1.57756E+01 +6.19200E-01 +1.83837E+01 -8.63779E+00 +1.50509E+01
 -1.41027E+01 +7.19688E+00 -1.39016E+01 -2.03605E+00 -8.39808E+00 -9.02984E+00 -2.68033E-02 -1.11143E+01
 +7.68521E+00 -7.60652E+00 +1.15187E+01 -6.06608E-02 +9.83018E+00 +8.36407E+00 +3.19007E+00 +1.41621E+01
 -5.85440E+00 +1.48676E+01 -1.37926E+01 +1.00215E+01 -1.75358E+01 +1.34372E+00 -1.56268E+01 -7.95278E+00
 -8.80083E+00 -1.44283E+01 +3.18194E-01 -1.57629E+01 +8.25983E+00 -1.16521E+01 +1.20721E+01 -3.90491E+00
 +1.04709E+01 +4.28811E+00 +4.32426E+00 +9.62231E+00 -3.71324E+00 +9.97929E+00 -1.02643E+01 +5.24919E+00
 -1.25676E+01 -2.64395E+00 -9.56253E+00 -1.05168E+01 -2.29652E+00 -1.51898E+01 +6.49983E+00 -1.47391E+01
 +1.34951E+01 -9.24419E+00 +1.60664E+01 -7.43917E-01 +1.33198E+01 +7.57640E+00 +6.42346E+00 +1.26398E+01
 -1.87086E+00 +1.26783E+01 -8.32184E+00 +7.90828E+00 -1.04737E+01 +4.20921E-01 -7.60975E+00 -6.66154E+00
 -1.01304E+00 -1.04256E+01 +6.56063E+00 -9.31129E+00 +1.19833E+01 -3.71385E+00 +1.29904E+01 +4.18893E+00
 +9.06609E+00 +1.13078E+01 +1.63246E+00 +1.48629E+01 -6.52276E+00 +1.34715E+01 -1.23490E+01 +7.67762E+00
 -1.37275E+01 -2.79885E-01 -1.02883E+01 -7.35979E+00 -3.53290E+00 -1.09163E+01 +3.77719E+00 -9.72784E+00
 +8.71909E+00 -4.45602E+00 +9.35725E+00 +2.63966E+00 +5.49119E+00 +8.61022E+00 -1.28628E+00 +1.09858E+01
 -8.23557E+00 +8.74257E+00 -1.25597E+01 +2.69160E+00 -1.25042E+01 -4.85733E+00 -8.03592E+00 -1.10157E+01
 -8.39309E-01 -1.34532E+01 +6.36026E+00 -1.13027E+01 +1.08730E+01 -5.48196E+00 +1.10941E+01 +1.68817E+00
 +7.11495E+00 +7.40931E+00 +6.62681E-01 +9.50661E+00 -5.60084E+00 +7.27074E+00 -9.13643E+00 +1.71443E+00
 -8.52303E+00 -4.84951E+00 -4.00145E+00 -9.73438E+00 +2.64066E+00 -1.09404E+01 +8.78908E+00 -7.93238E+00
 +1.20381E+01 -1.83336E+00 +1.11306E+01 +5.03419E+00 +6.43621E+00 +1.00710E+01 -2.14264E-01 +1.14197E+01
 -6.26326E+00 +8.67941E+00 -9.43544E+00 +3.03995E+00 -8.62130E+00 -3.20758E+00 -4.29166E+00 -7.58437E+00
 +1.71279E+00 -8.39699E+00 +6.92499E+00 -5.38827E+00 +9.22911E+00 +1.84285E-01 +7.68587E+00 +6.06456E+00
 +2.88455E+00 +9.89744E+00 -3.30900E+00 +1.01539E+01 -8.50050E+00 +6.71857E+00 -1.07111E+01 +9.15769E-01
 -9.14411E+00 -5.02894E+00 -4.47809E+00 -8.87071E+00 +1.42226E+00 -9.22110E+00 +6.25351E+00 -6.07469E+00
 +8.18017E+00 -7.86247E-01 +6.54296E+00 +4.48337E+00 +2.09490E+00 +7.62707E+00 -3.31906E+00 +7.41534E+00
 -7.50404E+00 +3.96250E+00 -8.78135E+00 -1.34098E+00 -6.63754E+00 -6.39429E+00 -1.90654E+00 -9.22021E+00
 +3.57843E+00 -8.73616E+00 +7.71738E+00 -5.16206E+00 +8.96729E+00 +8.80787E-02 +6.93331E+00 +4.97901E+00
 +2.50057E+00 +7.65900E+00 -2.53622E+00 +7.17762E+00 -6.19111E+00 +3.83775E+00 -7.06579E+00 -9.48798E-01
 -4.88340E+00 -5.23579E+00 -5.73569E-01 -7.31435E+00 +4.11556E+00 -6.37640E+00 +7.31729E+00 -2.81280E+00
 +7.77842E+00 +1.96294E+00 +5.33683E+00 +6.08677E+00 +9.63140E-01 +7.98034E+00 -3.64043E+00 +6.96047E+00
 -6.71828E+00 +3.48645E+00 -7.14577E+00 -1.04356E+00 -4.85253E+00 -4.85764E+00 -8.25299E-01 -6.50833E+00
 +3.30147E+00 -5.42840E+00 +5.89793E+00 -2.13055E+00 +5.97412E+00 +2.01858E+00 +3.55066E+00 +5.35206E+00
 -3.73398E-01 +6.56018E+00 -4.23355E+00 +5.19294E+00 -6.52324E+00 +1.81514E+00 -6.37943E+00 -2.23778E+00
 -3.90307E+00 -5.39817E+00 -9.59852E-02 -6.48156E+00 +3.55132E+00 -5.13720E+00 +5.65138E+00 -1.96237E+00
 +5.45572E+00 +1.75517E+00 +3.12779E+00 +4.55646E+00 -3.46352E-01 +5.38289E+00 -3.56488E+00 +3.97620E+00
 -5.26721E+00 +9.55703E-01 -4.82021E+00 -2.44792E+00 -2.44619E+00 -4.88906E+00 +8.88320E-01 -5.43367E+00
 +3.87004E+00 -3.91030E+00 +5.35913E+00 -9.54028E-01 +4.82628E+00 +2.26421E+00 +2.53906E+00 +4.50811E+00
 -5.66947E-01 +4.95699E+00 -3.27215E+00 +3.51010E+00 -4.55452E+00 +8.01504E-01 -3.97847E+00 -2.07040E+00
 -1.84302E+00 -3.98434E+00 +9.60021E-01 -4.23113E+00 +3.31264E+00 -2.77349E+00 +4.31182E+00 -2.36163E-01
 +3.61126E+00 +2.36027E+00 +1.53479E+00 +4.00902E+00 -1.07405E+00 +4.10593E+00 -3.19791E+00 +2.66763E+00
 -4.04523E+00 +3.00850E-01 -3.34659E+00 -2.05529E+00 -1.43717E+00 -3.50493E+00 +8.97941E-01 -3.53881E+00
 +2.74551E+00 -2.21364E+00 +3.42142E+00 -1.05077E-01 +2.72355E+00 +1.93735E+00 +9.87136E-01 +3.12988E+00
 -1.06966E+00 +3.05289E+00 -2.64039E+00 +1.79466E+00 -3.14464E+00 -1.07630E-01 -2.43953E+00 -1.89675E+00
 -8.52007E-01 -2.89732E+00 +9.71254E-01 -2.77037E+00 +2.32880E+00 -1.62483E+00 +2.73568E+00 +4.91091E-02
 +2.09624E+00 +1.58921E+00 +7.17408E-01 +2.42408E+00 -8.32942E-01 +2.28537E+00 -1.95881E+00 +1.29073E+00
 -2.26458E+00 -1.26247E-01 -1.69181E+00 -1.40214E+00 -5.17837E-01 -2.06660E+00 +7.73601E-01 -1.91396E+00
 +1.69086E+00 -1.06124E+00 +1.92077E+00 +1.20997E-01 +1.43237E+00 +1.16876E+00 +4.64981E-01 +1.70700E+00
 -5.85152E-01 +1.58263E+00 -1.32747E+00 +9.01577E-01 -1.52230E+00 -3.54429E-02 -1.15483E+00 -8.64319E-01
 -4.16924E-01 -1.29917E+00 +3.86796E-01 -1.22918E+00 +9.64173E-01 -7.38691E-01 +1.14084E+00 -5.19305E-02
 +9.07962E-01 +5.67165E-01 +4.01841E-01 +9.15979E-01 -1.67106E-01 +9.16473E-01 -6.01290E-01 +6.22342E-01
 -7.82976E-01 +1.76577E-01 -6.99319E-01 -2.55480E-01 -4.24011E-01 -5.47030E-01 -7.20084E-02 -6.42416E-01
 +2.48410E-01 -5.55449E-01 +4.66359E-01 -3.43460E-01 +5.54463E-01 -7.53788E-02 +5.16585E-01 +1.89913E-01
 +3.71085E-01 +4.08629E-01 +1.42169E-01 +5.45717E-01 -1.36725E-01 +5.68885E-01 -4.13997E-01 +4.53155E-01
 -6.17638E-01 +1.97303E-01 -6.69455E-01 -1.56949E-01 -5.15689E-01 -5.17977E-01 -1.61978E-01 -7.61514E-01
 +3.06613E-01 -7.72750E-01 +7.37187E-01 -4.99337E-01 +9.56339E-01 +8.69454E-03 +8.39620E-01 +5.95471E-01
 +3.75293E-01 +1.04279E+00 -3.08560E-01 +1.15048E+00 -9.73142E-01 +8.24179E-01 -1.35117E+00 +1.32306E-01
 -1.25445E+00 -6.97949E-01 -6.63480E-01 -1.35313E+00 +2.42418E-01 -1.55255E+00 +1.13515E+00 -1.16874E+00
 +1.65648E+00 -2.97673E-01 +1.56264E+00 +7.56575E-01 +8.36509E-01 +1.58583E+00 -2.83280E-01 +1.83557E+00
 -1.37661E+00 +1.35552E+00 -1.99806E+00 +2.79358E-01 -1.85714E+00 -1.00588E+00 -9.49661E-01 -1.99743E+00
 +4.18242E-01 -2.27295E+00 +1.73157E+00 -1.66872E+00 +2.46106E+00 -3.64827E-01 +2.27730E+00 +1.16422E+00
 +1.19779E+00 +2.32262E+00 -3.97992E-01 +2.62719E+00 -1.90007E+00 +1.91021E+00 -2.70138E+00 +4.06165E-01
 -2.44376E+00 -1.31996E+00 -1.17691E+00 -2.58283E+00 +6.39480E-01 -2.84746E+00 +2.29971E+00 -1.95349E+00
 +3.12446E+00 -1.99458E-01 +2.73634E+00 +1.75452E+00 +1.22699E+00 +3.13519E+00 -8.57426E-01 +3.36230E+00
 -2.71495E+00 +2.29120E+00 -3.59897E+00 +2.90685E-01 -3.12084E+00 -1.88292E+00 -1.42124E+00 -3.37330E+00
 +8.64494E-01 -3.56413E+00 +2.84184E+00 -2.33643E+00 +3.70627E+00 -1.35930E-01 +3.07007E+00 +2.18422E+00
 +1.13391E+00 +3.69067E+00 -1.37166E+00 +3.74176E+00 -3.45988E+00 +2.25587E+00 -4.27441E+00 -2.35499E-01
 -3.43722E+00 -2.77898E+00 -1.21659E+00 -4.36658E+00 +1.55835E+00 -4.33727E+00 +3.81100E+00 -2.65284E+00
 +4.63985E+00 +6.70101E-02 +3.68443E+00 +2.77206E+00 +1.28577E+00 +4.38858E+00 -1.62920E+00 +4.24807E+00
 -3.90146E+00 +2.36658E+00 -4.59692E+00 -5.41930E-01 -3.38679E+00 -3.33123E+00 -6.96371E-01 -4.86911E+00
 +2.44361E+00 -4.49057E+00 +4.79199E+00 -2.27671E+00 +5.38700E+00 +9.57058E-01 +3.93763E+00 +3.96668E+00
 +9.57157E-01 +5.56429E+00 -2.42107E+00 +5.09306E+00 -4.88006E+00 +2.70194E+00 -5.43960E+00 -6.94582E-01
 -3.85485E+00 -3.76328E+00 -7.30729E-01 -5.27432E+00 +2.70017E+00 -4.59434E+00 +5.05537E+00 -1.95277E+00
 +5.35099E+00 +1.63006E+00 +3.40360E+00 +4.73219E+00 -7.83174E-02 +6.08806E+00 -3.75658E+00 +5.09665E+00
 -6.18226E+00 +2.07562E+00 -6.36988E+00 -1.84517E+00 -4.19897E+00 -5.15592E+00 -4.79312E-01 -6.55937E+00
 +3.35289E+00 -5.49047E+00 +5.79427E+00 -2.35460E+00 +5.87106E+00 +1.61589E+00 +3.53621E+00 +4.83739E+00
 -2.95130E-01 +5.99939E+00 -4.09263E+00 +4.59173E+00 -6.30932E+00 +1.12292E+00 -5.99776E+00 -3.06334E+00
 -3.19870E+00 -6.30732E+00 +1.05643E+00 -7.28772E+00 +5.13714E+00 -5.55306E+00 +7.45056E+00 -1.71650E+00
 +7.07411E+00 +2.76927E+00 +4.13216E+00 +6.17461E+00 -2.37132E-01 +7.17462E+00 -4.31849E+00 +5.38090E+00
 -6.49238E+00 +1.50933E+00 -5.88017E+00 -2.88859E+00 -2.70457E+00 -6.03072E+00 +1.78233E+00 -6.61024E+00
 +5.78154E+00 -4.32342E+00 +7.65442E+00 -6.55971E-03 +6.57691E+00 +4.67815E+00 +2.87999E+00 +7.88957E+00
 -2.06356E+00 +8.33533E+00 -6.36774E+00 +5.79213E+00 -8.37293E+00 +1.20912E+00 -7.30591E+00 -3.65259E+00
 -3.59683E+00 -6.90734E+00 +1.27717E+00 -7.29073E+00 +5.36597E+00 -4.66839E+00 +7.01553E+00 -1.02420E-01
 +5.52905E+00 +4.55637E+00 +1.45637E+00 +7.39473E+00 -3.60812E+00 +7.19730E+00 -7.64493E+00 +3.93950E+00
 -9.00564E+00 -1.18592E+00 -7.07188E+00 -6.22515E+00 -2.51395E+00 -9.22706E+00 +2.95837E+00 -9.01509E+00
 +7.25988E+00 -5.66125E+00 +8.75033E+00 -4.70550E-01 +6.88736E+00 +4.52331E+00 +2.45122E+00 +7.35648E+00
 -2.75266E+00 +6.91415E+00 -6.60072E+00 +3.38108E+00 -7.49207E+00 -1.81872E+00 -4.99069E+00 -6.57475E+00
