 Created: 19-Jan-2021
 $NMID
 ID='D:\BASISSIMULATI'
 FMTDAT='(8E13.5)'
 VOLUME=   1.00000E+00
 TRAMP=   1.00000E+00
 $END
 +2.09595E+01 +3.92807E-01 +2.06330E+01 +3.09036E+00 +1.98789E+01 +5.68673E+00 +1.87226E+01 +8.11047E+00
 +1.72019E+01 +1.02960E+01 +1.53651E+01 +1.21858E+01 +1.32698E+01 +1.37318E+01 +1.09808E+01 +1.48972E+01
 +8.56793E+00 +1.56573E+01 +6.10398E+00 +1.60003E+01 +3.66217E+00 +1.59275E+01 +1.31384E+00 +1.54531E+01
 -8.73787E-01 +1.46035E+01 -2.83971E+00 +1.34162E+01 -4.53105E+00 +1.19390E+01 -5.90458E+00 +1.02275E+01
 -6.92805E+00 +8.34390E+00 -7.58100E+00 +6.35442E+00 -7.85526E+00 +4.32732E+00 -7.75502E+00 +2.33055E+00
 -7.29645E+00 +4.29609E-01 -6.50701E+00 -1.31464E+00 -5.42432E+00 -2.84781E+00 -4.09471E+00 -4.12370E+00
 -2.57159E+00 -5.10568E+00 -9.13491E-01 -5.76766E+00 +8.17962E-01 -6.09485E+00 +2.56016E+00 -6.08393E+00
 +4.25163E+00 -5.74302E+00 +5.83408E+00 -5.09112E+00 +7.25430E+00 -4.15728E+00 +8.46586E+00 -2.97940E+00
 +9.43054E+00 -1.60274E+00 +1.01195E+01 -7.82796E-02 +1.05139E+01 +1.53921E+00 +1.06058E+01 +3.19309E+00
 +1.03975E+01 +4.82684E+00 +9.90183E+00 +6.38604E+00 +9.14133E+00 +7.82022E+00 +8.14715E+00 +9.08449E+00
 +6.95784E+00 +1.01411E+01 +5.61789E+00 +1.09604E+01 +4.17598E+00 +1.15221E+01 +2.68322E+00 +1.18154E+01
 +1.19123E+00 +1.18394E+01 -2.49676E-01 +1.16031E+01 -1.59228E+00 +1.11245E+01 -2.79411E+00 +1.04300E+01
 -3.81889E+00 +9.55339E+00 -4.63775E+00 +8.53432E+00 -5.23015E+00 +7.41686E+00 -5.58448E+00 +6.24779E+00
 -5.69840E+00 +5.07484E+00 -5.57874E+00 +3.94494E+00 -5.24115E+00 +2.90249E+00 -4.70941E+00 +1.98776E+00
 -4.01445E+00 +1.23544E+00 -3.19312E+00 +6.73424E-01 -2.28678E+00 +3.21845E-01 -1.33973E+00 +1.92385E-01
 -3.97511E-01 +2.87920E-01 +4.94751E-01 +6.02463E-01 +1.29405E+00 +1.12144E+00 +1.96107E+00 +1.82229E+00
 +2.46162E+00 +2.67528E+00 +2.76790E+00 +3.64469E+00 +2.85949E+00 +4.69009E+00 +2.72412E+00 +5.76786E+00
 +2.35809E+00 +6.83277E+00 +1.76642E+00 +7.83966E+00 +9.62696E-01 +8.74504E+00 -3.14510E-02 +9.50874E+00
 -1.18707E+00 +1.00953E+01 -2.46892E+00 +1.04752E+01 -3.83674E+00 +1.06263E+01 -5.24661E+00 +1.05339E+01
 -6.65255E+00 +1.01923E+01 -8.00813E+00 +9.60415E+00 -9.26806E+00 +8.78081E+00 -1.03898E+01 +7.74197E+00
 -1.13351E+01 +6.51492E+00 -1.20713E+01 +5.13368E+00 -1.25723E+01 +3.63781E+00 -1.28200E+01 +2.07112E+00
 -1.28044E+01 +4.80155E-01 -1.25241E+01 -1.08737E+00 -1.19867E+01 -2.58418E+00 -1.12081E+01 -3.96507E+00
 -1.02122E+01 -5.18838E+00 -9.03039E+00 -6.21744E+00 -7.69996E+00 -7.02181E+00 -6.26327E+00 -7.57826E+00
 -4.76622E+00 -7.87161E+00 -3.25674E+00 -7.89517E+00 -1.78320E+00 -7.65103E+00 -3.92834E-01 -7.14994E+00
 +8.69828E-01 -6.41097E+00 +1.96441E+00 -5.46088E+00 +2.85600E+00 -4.33324E+00 +3.51629E+00 -3.06728E+00
 +3.92448E+00 -1.70666E+00 +4.06790E+00 -2.97998E-01 +3.94245E+00 +1.11064E+00 +3.55267E+00 +2.47130E+00
 +2.91155E+00 +3.73770E+00 +2.04008E+00 +4.86667E+00 +9.66544E-01 +5.81958E+00 -2.74432E-01 +6.56354E+00
 -1.64304E+00 +7.07240E+00 -3.09560E+00 +7.32756E+00 -4.58596E+00 +7.31849E+00 -6.06701E+00 +7.04305E+00
 -7.49218E+00 +6.50744E+00 -8.81694E+00 +5.72596E+00 -1.00002E+01 +4.72048E+00 -1.10054E+01 +3.51963E+00
 -1.18020E+01 +2.15791E+00 -1.23661E+01 +6.74420E-01 -1.26812E+01 -8.88332E-01 -1.27384E+01 -2.48588E+00
 -1.25371E+01 -4.07320E+00 -1.20844E+01 -5.60615E+00 -1.13952E+01 -7.04288E+00 -1.04911E+01 -8.34506E+00
 -9.40011E+00 -9.47910E+00 -8.15542E+00 -1.04171E+01 -6.79427E+00 -1.11376E+01 -5.35672E+00 -1.16264E+01
 -3.88438E+00 -1.18764E+01 -2.41898E+00 -1.18881E+01 -1.00111E+00 -1.16694E+01 +3.31085E-01 -1.12349E+01
 +1.54307E+00 -1.06058E+01 +2.60492E+00 -9.80855E+00 +3.49223E+00 -8.87428E+00 +4.18673E+00 -7.83750E+00
 +4.67675E+00 -6.73501E+00 +4.95745E+00 -5.60463E+00 +5.03082E+00 -4.48393E+00 +4.90546E+00 -3.40907E+00
 +4.59612E+00 -2.41364E+00 +4.12308E+00 -1.52761E+00 +3.51137E+00 -7.76475E-01 +2.78982E+00 -1.80494E-01
 +1.99002E+00 +2.45808E-01 +1.14519E+00 +4.93990E-01 +2.89108E-01 +5.61817E-01 -5.45108E-01 +4.53175E-01
 -1.32602E+00 +1.77782E-01 -2.02488E+00 -2.49284E-01 -2.61655E+00 -8.08227E-01 -3.08020E+00 -1.47531E+00
 -3.39993E+00 -2.22378E+00 -3.56516E+00 -3.02479E+00 -3.57086E+00 -3.84848E+00 -3.41753E+00 -4.66499E+00
 -3.11111E+00 -5.44543E+00 -2.66257E+00 -6.16290E+00 -2.08745E+00 -6.79330E+00 -1.40518E+00 -7.31609E+00
 -6.38346E-01 -7.71488E+00 +1.88177E-01 -7.97792E+00 +1.04813E+00 -8.09832E+00 +1.91481E+00 -8.07421E+00
 +2.76199E+00 -7.90863E+00 +3.56480E+00 -7.60935E+00 +4.30056E+00 -7.18840E+00 +4.94948E+00 -6.66163E+00
 +5.49531E+00 -6.04800E+00 +5.92574E+00 -5.36886E+00 +6.23280E+00 -4.64717E+00 +6.41296E+00 -3.90664E+00
 +6.46716E+00 -3.17089E+00 +6.40068E+00 -2.46261E+00 +6.22279E+00 -1.80286E+00 +5.94640E+00 -1.21029E+00
 +5.58743E+00 -7.00608E-01 +5.16425E+00 -2.86084E-01 +4.69692E+00 +2.47948E-02 +4.20645E+00 +2.27527E-01
 +3.71409E+00 +3.21654E-01 +3.24049E+00 +3.10683E-01 +2.80504E+00 +2.01864E-01 +2.42521E+00 +5.84581E-03
 +2.11596E+00 -2.63777E-01 +1.88927E+00 -5.91015E-01 +1.75381E+00 -9.58102E-01 +1.71466E+00 -1.34616E+00
 +1.77325E+00 -1.73591E+00 +1.92737E+00 -2.10831E+00 +2.17130E+00 -2.44529E+00 +2.49614E+00 -2.73031E+00
 +2.89015E+00 -2.94896E+00 +3.33919E+00 -3.08938E+00 +3.82733E+00 -3.14264E+00 +4.33740E+00 -3.10300E+00
 +4.85161E+00 -2.96804E+00 +5.35217E+00 -2.73869E+00 +5.82196E+00 -2.41913E+00 +6.24503E+00 -2.01655E+00
 +6.60718E+00 -1.54090E+00 +6.89638E+00 -1.00446E+00 +7.10317E+00 -4.21357E-01 +7.22088E+00 +1.92899E-01
 +7.24584E+00 +8.22016E-01 +7.17740E+00 +1.44947E+00 +7.01795E+00 +2.05906E+00 +6.77268E+00 +2.63545E+00
 +6.44943E+00 +3.16467E+00 +6.05829E+00 +3.63452E+00 +5.61128E+00 +4.03497E+00 +5.12185E+00 +4.35841E+00
 +4.60442E+00 +4.59984E+00 +4.07387E+00 +4.75699E+00 +3.54506E+00 +4.83029E+00 +3.03231E+00 +4.82280E+00
 +2.54897E+00 +4.74001E+00 +2.10699E+00 +4.58962E+00 +1.71660E+00 +4.38121E+00 +1.38601E+00 +4.12583E+00
 +1.12122E+00 +3.83568E+00 +9.25862E-01 +3.52356E+00 +8.01225E-01 +3.20256E+00 +7.46236E-01 +2.88550E+00
 +7.57602E-01 +2.58464E+00 +8.29993E-01 +2.31123E+00 +9.56286E-01 +2.07520E+00 +1.12786E+00 +1.88491E+00
 +1.33493E+00 +1.74692E+00 +1.56689E+00 +1.66588E+00 +1.81271E+00 +1.64441E+00 +2.06129E+00 +1.68315E+00
 +2.30178E+00 +1.78079E+00 +2.52395E+00 +1.93420E+00 +2.71848E+00 +2.13861E+00 +2.87718E+00 +2.38783E+00
 +2.99320E+00 +2.67450E+00 +3.06119E+00 +2.99035E+00 +3.07738E+00 +3.32654E+00 +3.03961E+00 +3.67392E+00
 +2.94732E+00 +4.02330E+00 +2.80148E+00 +4.36577E+00 +2.60448E+00 +4.69290E+00 +2.35999E+00 +4.99697E+00
 +2.07277E+00 +5.27116E+00 +1.74847E+00 +5.50968E+00 +1.39344E+00 +5.70783E+00 +1.01449E+00 +5.86214E+00
 +6.18705E-01 +5.97030E+00 +2.13203E-01 +6.03118E+00 -1.95017E-01 +6.04477E+00 -5.99259E-01 +6.01211E+00
 -9.93264E-01 +5.93515E+00 -1.37133E+00 +5.81668E+00 -1.72840E+00 +5.66017E+00 -2.06012E+00 +5.46963E+00
 -2.36287E+00 +5.24950E+00 -2.63380E+00 +5.00453E+00 -2.87078E+00 +4.73960E+00 -3.07242E+00 +4.45970E+00
 -3.23799E+00 +4.16977E+00 -3.36743E+00 +3.87466E+00 -3.46123E+00 +3.57905E+00 -3.52045E+00 +3.28741E+00
 -3.54661E+00 +3.00393E+00 -3.54168E+00 +2.73255E+00 -3.50803E+00 +2.47685E+00 -3.44840E+00 +2.24012E+00
 -3.36583E+00 +2.02527E+00 -3.26371E+00 +1.83486E+00 -3.14566E+00 +1.67104E+00 -3.01558E+00 +1.53555E+00
 -2.87760E+00 +1.42965E+00 -2.73601E+00 +1.35412E+00 -2.59527E+00 +1.30923E+00 -2.45995E+00 +1.29464E+00
 -2.33462E+00 +1.30943E+00 -2.22384E+00 +1.35201E+00 -2.13203E+00 +1.42015E+00 -2.06337E+00 +1.51090E+00
 -2.02171E+00 +1.62066E+00 -2.01045E+00 +1.74514E+00 -2.03239E+00 +1.87947E+00 -2.08965E+00 +2.01819E+00
 -2.18354E+00 +2.15541E+00 -2.31441E+00 +2.28489E+00 -2.48166E+00 +2.40021E+00 -2.68359E+00 +2.49490E+00
 -2.91738E+00 +2.56265E+00 -3.17913E+00 +2.59749E+00 -3.46384E+00 +2.59400E+00 -3.76551E+00 +2.54750E+00
 -4.07722E+00 +2.45427E+00 -4.39134E+00 +2.31169E+00 -4.69961E+00 +2.11844E+00 -4.99347E+00 +1.87459E+00
 -5.26422E+00 +1.58169E+00 -5.50334E+00 +1.24284E+00 -5.70274E+00 +8.62651E-01 -5.85503E+00 +4.47214E-01
 -5.95383E+00 +3.97039E-03 -5.99402E+00 -4.58446E-01 -5.97192E+00 -9.30421E-01 -5.88557E+00 -1.40162E+00
 -5.73478E+00 -1.86129E+00 -5.52129E+00 -2.29858E+00 -5.24880E+00 -2.70290E+00 -4.92288E+00 -3.06426E+00
 -4.55092E+00 -3.37364E+00 -4.14196E+00 -3.62332E+00 -3.70644E+00 -3.80720E+00 -3.25590E+00 -3.92102E+00
 -2.80268E+00 -3.96264E+00 -2.35950E+00 -3.93212E+00 -1.93908E+00 -3.83186E+00 -1.55368E+00 -3.66655E+00
 -1.21470E+00 -3.44312E+00 -9.32251E-01 -3.17060E+00 -7.14770E-01 -2.85982E+00 -5.68688E-01 -2.52318E+00
 -4.98141E-01 -2.17419E+00 -5.04753E-01 -1.82713E+00 -5.87509E-01 -1.49654E+00 -7.42700E-01 -1.19670E+00
 -9.63979E-01 -9.41215E-01 -1.24249E+00 -7.42427E-01 -1.56711E+00 -6.11020E-01 -1.92475E+00 -5.55573E-01
 -2.30076E+00 -5.82204E-01 -2.67942E+00 -6.94285E-01 -3.04438E+00 -8.92248E-01 -3.37929E+00 -1.17348E+00
 -3.66832E+00 -1.53232E+00 -3.89673E+00 -1.96020E+00 -4.05143E+00 -2.44580E+00 -4.12147E+00 -2.97542E+00
 -4.09848E+00 -3.53336E+00 -3.97701E+00 -4.10239E+00 -3.75486E+00 -4.66436E+00 -3.43316E+00 -5.20074E+00
 -3.01652E+00 -5.69329E+00 -2.51286E+00 -6.12467E+00 -1.93330E+00 -6.47908E+00 -1.29185E+00 -6.74282E+00
 -6.04967E-01 -6.90485E+00 +1.08919E-01 -6.95721E+00 +8.29986E-01 -6.89535E+00 +1.53768E+00 -6.71842E+00
 +2.21137E+00 -6.42934E+00 +2.83111E+00 -6.03483E+00 +3.37825E+00 -5.54521E+00 +3.83618E+00 -4.97419E+00
 +4.19090E+00 -4.33846E+00 +4.43155E+00 -3.65717E+00 +4.55086E+00 -2.95132E+00 +4.54549E+00 -2.24315E+00
 +4.41618E+00 -1.55533E+00 +4.16783E+00 -9.10253E-01 +3.80943E+00 -3.29240E-01 +3.35381E+00 +1.68186E-01
 +2.81731E+00 +5.65009E-01 +2.21924E+00 +8.47337E-01 +1.58132E+00 +1.00493E+00 +9.27003E-01 +1.03163E+00
 +2.80657E-01 +9.25618E-01 -3.33196E-01 +6.89557E-01 -8.90729E-01 +3.30599E-01 -1.36962E+00 -1.39800E-01
 -1.74982E+00 -7.06187E-01 -2.01431E+00 -1.34957E+00 -2.14967E+00 -2.04799E+00 -2.14660E+00 -2.77724E+00
 -2.00034E+00 -3.51161E+00 -1.71085E+00 -4.22475E+00 -1.28290E+00 -4.89055E+00 -7.25982E-01 -5.48398E+00
