 Created: 19-Jan-2021
 $NMID
 ID='D:\BASISSIMULATI'
 FMTDAT='(8E13.5)'
 VOLUME=   1.00000E+00
 TRAMP=   1.00000E+00
 $END
 +1.32487E+01 +8.07298E-03 +1.25182E+01 +3.69209E+00 +1.06633E+01 +6.86531E+00 +7.95730E+00 +9.18036E+00
 +4.77521E+00 +1.04195E+01 +1.53671E+00 +1.05206E+01 -1.35517E+00 +9.57949E+00 -3.57087E+00 +7.82950E+00
 -4.89829E+00 +5.60150E+00 -5.26801E+00 +3.27135E+00 -4.75648E+00 +1.20272E+00 -3.56784E+00 -3.05987E-01
 -1.99744E+00 -1.06306E+00 -3.83468E-01 -1.00747E+00 +9.46038E-01 -2.12679E-01 +1.72261E+00 +1.12972E+00
 +1.77619E+00 +2.74325E+00 +1.05801E+00 +4.31122E+00 -3.55296E-01 +5.52579E+00 -2.27612E+00 +6.13422E+00
 -4.43625E+00 +5.97543E+00 -6.52804E+00 +5.00207E+00 -8.25001E+00 +3.28533E+00 -9.35020E+00 +1.00252E+00
 -9.66091E+00 -1.59028E+00 -9.12047E+00 -4.19584E+00 -7.77906E+00 -6.51801E+00 -5.78871E+00 -8.30229E+00
 -3.37929E+00 -9.36908E+00 -8.24586E-01 -9.63523E+00 +1.59630E+00 -9.12117E+00 +3.63676E+00 -7.94353E+00
 +5.11421E+00 -6.29460E+00 +5.93139E+00 -4.41234E+00 +6.08476E+00 -2.54538E+00 +5.65951E+00 -9.18230E-01
 +4.81236E+00 +2.98452E-01 +3.74525E+00 +1.00868E+00 +2.67381E+00 +1.20044E+00 +1.79545E+00 +9.42764E-01
 +1.26128E+00 +3.71376E-01 +1.15590E+00 -3.34479E-01 +1.48734E+00 -9.80573E-01 +2.18833E+00 -1.38736E+00
 +3.12822E+00 -1.41663E+00 +4.13363E+00 -9.91548E-01 +5.01467E+00 -1.07495E-01 +5.59295E+00 +1.16750E+00
 +5.72751E+00 +2.70259E+00 +5.33512E+00 +4.32249E+00 +4.40231E+00 +5.83191E+00 +2.98772E+00 +7.04241E+00
 +1.21449E+00 +7.79806E+00 -7.46034E-01 +7.99647E+00 -2.69697E+00 +7.60247E+00 -4.44182E+00 +6.65245E+00
 -5.81012E+00 +5.24924E+00 -6.67935E+00 +3.54800E+00 -6.99023E+00 +1.73522E+00 -6.75328E+00 +3.82814E-03
 -6.04598E+00 -1.47246E+00 -5.00076E+00 -2.56180E+00 -3.78569E+00 -3.19092E+00 -2.58038E+00 -3.35367E+00
 -1.55054E+00 -3.11002E+00 -8.24592E-01 -2.57590E+00 -4.75814E-01 -1.90502E+00 -5.12332E-01 -1.26541E+00
 -8.76604E-01 -8.13853E-01 -1.45447E+00 -6.71785E-01 -2.09262E+00 -9.06314E-01 -2.62203E+00 -1.51899E+00
 -2.88413E+00 -2.44416E+00 -2.75587E+00 -3.55734E+00 -2.17006E+00 -4.69249E+00 -1.12789E+00 -5.66595E+00
 +2.98419E-01 -6.30359E+00 +1.97338E+00 -6.46738E+00 +3.71564E+00 -6.07727E+00 +5.32257E+00 -5.12527E+00
 +6.59869E+00 -3.67928E+00 +7.38387E+00 -1.87594E+00 +7.57700E+00 +9.66888E-02 +7.15170E+00 +2.02442E+00
 +6.16148E+00 +3.69652E+00 +4.73334E+00 +4.93542E+00 +3.05059E+00 +5.62208E+00 +1.32713E+00 +5.71316E+00
 -2.23080E-01 +5.24744E+00 -1.41696E+00 +4.34005E+00 -2.12897E+00 +3.16546E+00 -2.30955E+00 +1.93138E+00
 -1.99228E+00 +8.47466E-01 -1.28856E+00 +9.33477E-02 -3.70547E-01 -2.09044E-01 +5.55517E-01 -1.47170E-02
 +1.28142E+00 +6.36701E-01 +1.62987E+00 +1.62617E+00 +1.48316E+00 +2.77277E+00 +8.03048E-01 +3.86103E+00
 -3.61204E-01 +4.67405E+00 -1.87810E+00 +5.02755E+00 -3.55191E+00 +4.79943E+00 -5.15089E+00 +3.95051E+00
 -6.44140E+00 +2.53300E+00 -7.22314E+00 +6.85265E-01 -7.35978E+00 -1.38651E+00 -6.80065E+00 -3.43711E+00
 -5.58979E+00 -5.21740E+00 -3.86109E+00 -6.51038E+00 -1.81998E+00 -7.16295E+00 +2.85635E-01 -7.10835E+00
 +2.20086E+00 -6.37605E+00 +3.70053E+00 -5.08733E+00 +4.62150E+00 -3.43738E+00 +4.88580E+00 -1.66639E+00
 +4.51105E+00 -2.40645E-02 +3.60662E+00 +1.26716E+00 +2.35622E+00 +2.04460E+00 +9.89355E-01 +2.22870E+00
 -2.53756E-01 +1.83381E+00 -1.15870E+00 +9.64764E-01 -1.56918E+00 -2.00150E-01 -1.41040E+00 -1.43714E+00
 -6.99891E-01 -2.51155E+00 +4.55575E-01 -3.21391E+00 +1.87658E+00 -3.39191E+00 +3.33845E+00 -2.97365E+00
 +4.60527E+00 -1.97856E+00 +5.46541E+00 -5.14715E-01 +5.76311E+00 +1.23722E+00 +5.42163E+00 +3.05053E+00
 +4.45443E+00 +4.68573E+00 +2.96304E+00 +5.92526E+00 +1.12207E+00 +6.60467E+00 -8.46316E-01 +6.63563E+00
 -2.70429E+00 +6.01754E+00 -4.23207E+00 +4.83628E+00 -5.25832E+00 +3.25055E+00 -5.68292E+00 +1.46804E+00
 -5.48899E+00 -2.84778E-01 -4.74267E+00 -1.79476E+00 -3.58115E+00 -2.89132E+00 -2.19081E+00 -3.46870E+00
 -7.79232E-01 -3.49822E+00 +4.54906E-01 -3.02913E+00 +1.34952E+00 -2.17831E+00 +1.80053E+00 -1.11074E+00
 +1.77412E+00 -1.38685E-02 +1.30855E+00 +9.30130E-01 +5.05594E-01 +1.57026E+00 -4.86722E-01 +1.80703E+00
 -1.49713E+00 +1.60466E+00 -2.35649E+00 +9.93734E-01 -2.92175E+00 +6.43725E-02 -3.09517E+00 -1.04860E+00
 -2.83644E+00 -2.18605E+00 -2.16628E+00 -3.18745E+00 -1.16149E+00 -3.91278E+00 +5.73396E-02 -4.26081E+00
 +1.34343E+00 -4.18110E+00 +2.54409E+00 -3.67877E+00 +3.52060E+00 -2.81166E+00 +4.16541E+00 -1.68078E+00
 +4.41418E+00 -4.15738E-01 +4.25182E+00 +8.42630E-01 +3.71192E+00 +1.96003E+00 +2.87018E+00 +2.82460E+00
 +1.83313E+00 +3.35904E+00 +7.23843E-01 +3.52790E+00 -3.33408E-01 +3.33929E+00 -1.22767E+00 +2.84144E+00
 -1.87333E+00 +2.11487E+00 -2.21843E+00 +1.26126E+00 -2.24877E+00 +3.90683E-01 -1.98742E+00 -3.91308E-01
 -1.49029E+00 -9.95442E-01 -8.38239E-01 -1.35805E+00 -1.26904E-01 -1.44719E+00 +5.44641E-01 -1.26514E+00
 +1.08522E+00 -8.47149E-01 +1.42179E+00 -2.56655E-01 +1.50747E+00 +4.22345E-01 +1.32683E+00 +1.09512E+00
 +8.97652E-01 +1.66715E+00 +2.69179E-01 +2.05520E+00 -4.83214E-01 +2.19727E+00 -1.26637E+00 +2.06045E+00
 -1.98002E+00 +1.64566E+00 -2.52862E+00 +9.88728E-01 -2.83323E+00 +1.57278E-01 -2.84186E+00 -7.56217E-01
 -2.53711E+00 -1.64484E+00 -1.93989E+00 -2.39989E+00 -1.10858E+00 -2.92455E+00 -1.33338E-01 -3.14660E+00
 +8.73921E-01 -3.02887E+00 +1.79297E+00 -2.57551E+00 +2.51047E+00 -1.83330E+00 +2.93501E+00 -8.87278E-01
 +3.01003E+00 +1.48871E-01 +2.72257E+00 +1.14681E+00 +2.10652E+00 +1.98012E+00 +1.23968E+00 +2.54132E+00
 +2.34517E-01 +2.75701E+00 -7.76122E-01 +2.59880E+00 -1.65670E+00 +2.08840E+00 -2.28764E+00 +1.29590E+00
 -2.58236E+00 +3.31063E-01 -2.50004E+00 -6.71188E-01 -2.05236E+00 -1.56929E+00 -1.30274E+00 -2.23500E+00
 -3.58254E-01 -2.57194E+00 +6.45043E-01 -2.52995E+00 +1.56128E+00 -2.11305E+00 +2.25573E+00 -1.37965E+00
 +2.62457E+00 -4.34864E-01 +2.61046E+00 +5.84199E-01 +2.21152E+00 +1.52805E+00 +1.48231E+00 +2.25658E+00
 +5.26520E-01 +2.65974E+00 -5.17723E-01 +2.67406E+00 -1.49779E+00 +2.29244E+00 -2.26884E+00 +1.56581E+00
 -2.71517E+00 +5.96106E-01 -2.76747E+00 -4.78266E-01 -2.41325E+00 -1.50250E+00 -1.69898E+00 -2.32800E+00
 -7.23540E-01 -2.83410E+00 +3.76119E-01 -2.94582E+00 +1.44496E+00 -2.64473E+00 +2.33245E+00 -1.97165E+00
 +2.91445E+00 -1.02042E+00 +3.11113E+00 +7.59970E-02 +2.89818E+00 +1.16516E+00 +2.30982E+00 +2.09746E+00
 +1.43309E+00 +2.74783E+00 +3.94455E-01 +3.03358E+00 -6.59288E-01 +2.92572E+00 -1.58276E+00 +2.45217E+00
 -2.25321E+00 +1.69255E+00 -2.58803E+00 +7.65313E-01 -2.55592E+00 -1.90518E-01 -2.18019E+00 -1.03642E+00
 -1.53397E+00 -1.65481E+00 -7.27959E-01 -1.96599E+00 +1.07062E-01 -1.93897E+00 +8.40319E-01 -1.59478E+00
 +1.36065E+00 -1.00194E+00 +1.59268E+00 -2.64879E-01 +1.50721E+00 +4.92704E-01 +1.12443E+00 +1.14692E+00
 +5.09662E-01 +1.59234E+00 -2.37590E-01 +1.75733E+00 -9.99317E-01 +1.61396E+00 -1.65707E+00 +1.18111E+00
 -2.10954E+00 +5.20504E-01 -2.28708E+00 -2.73478E-01 -2.16112E+00 -1.08853E+00 -1.74714E+00 -1.81133E+00
 -1.10119E+00 -2.34397E+00 -3.10415E-01 -2.61770E+00 +5.20489E-01 -2.60172E+00 +1.28496E+00 -2.30622E+00
 +1.88987E+00 -1.77930E+00 +2.26821E+00 -1.09842E+00 +2.38751E+00 -3.58015E-01 +2.25271E+00 +3.44830E-01
 +1.90358E+00 +9.24432E-01 +1.40711E+00 +1.31823E+00 +8.46308E-01 +1.49456E+00 +3.07219E-01 +1.45554E+00
 -1.33874E-01 +1.23483E+00 -4.21178E-01 +8.90907E-01 -5.26581E-01 +4.97011E-01 -4.52426E-01 +1.29392E-01
 -2.29660E-01 -1.44321E-01 +8.81367E-02 -2.74962E-01 +4.33791E-01 -2.38507E-01 +7.37189E-01 -3.87941E-02
 +9.35927E-01 +2.93949E-01 +9.84433E-01 +7.08360E-01 +8.60314E-01 +1.14007E+00 +5.67144E-01 +1.52140E+00
 +1.33453E-01 +1.79123E+00 -3.91792E-01 +1.90361E+00 -9.46438E-01 +1.83394E+00 -1.46401E+00 +1.58202E+00
 -1.88292E+00 +1.17159E+00 -2.15470E+00 +6.46649E-01 -2.25022E+00 +6.50183E-02 -2.16311E+00 -5.09688E-01
 -1.90995E+00 -1.01672E+00 -1.52737E+00 -1.40618E+00 -1.06652E+00 -1.64534E+00 -5.85706E-01 -1.72247E+00
 -1.42240E-01 -1.64769E+00 +2.15415E-01 -1.45080E+00 +4.54101E-01 -1.17655E+00 +5.60193E-01 -8.77726E-01
 +5.41056E-01 -6.07405E-01 +4.23509E-01 -4.11082E-01 +2.49540E-01 -3.19979E-01 +6.98252E-02 -3.46375E-01
 -6.40544E-02 -4.81639E-01 -1.07629E-01 -6.97297E-01 -3.06638E-02 -9.49018E-01 +1.77637E-01 -1.18304E+00
 +5.06151E-01 -1.34418E+00 +9.22519E-01 -1.38431E+00 +1.37699E+00 -1.27016E+00 +1.80902E+00 -9.89136E-01
 +2.15572E+00 -5.52482E-01 +2.36109E+00 +5.08895E-03 +2.38459E+00 +6.29153E-01 +2.20786E+00 +1.25245E+00
 +1.83852E+00 +1.80397E+00 +1.31018E+00 +2.21899E+00 +6.78763E-01 +2.44860E+00 +1.52148E-02 +2.46736E+00
 -6.04200E-01 +2.27768E+00 -1.10885E+00 +1.91027E+00 -1.44422E+00 +1.42034E+00 -1.58039E+00 +8.79949E-01
 -1.51698E+00 +3.67469E-01 -1.28381E+00 -4.42193E-02 -9.36873E-01 -2.99165E-01 -5.50054E-01 -3.67513E-01
 -2.03762E-01 -2.50913E-01 +2.79212E-02 +1.68762E-02 +8.95772E-02 +3.74472E-01 -4.57073E-02 +7.41969E-01
 -3.70668E-01 +1.03340E+00 -8.43462E-01 +1.17074E+00 -1.39282E+00 +1.09720E+00 -1.92822E+00 +7.87784E-01
 -2.35358E+00 +2.55146E-01 -2.58257E+00 -4.50302E-01 -2.55299E+00 -1.24635E+00 -2.23801E+00 -2.03029E+00
 -1.65228E+00 -2.69403E+00 -8.51670E-01 -3.14067E+00 +7.35052E-02 -3.30007E+00 +1.01095E+00 -3.14069E+00
 +1.84283E+00 -2.67592E+00 +2.46364E+00 -1.96346E+00 +2.79671E+00 -1.09773E+00 +2.80670E+00 -1.96219E-01
 +2.50592E+00 +6.18143E-01 +1.95321E+00 +1.23601E+00 +1.24550E+00 +1.57892E+00 +5.03015E-01 +1.61216E+00
 -1.49579E-01 +1.35083E+00 -6.03134E-01 +8.58113E-01 -7.81968E-01 +2.35754E-01 -6.56783E-01 -3.91972E-01
 -2.50343E-01 -8.98267E-01 +3.65180E-01 -1.17472E+00 +1.07899E+00 -1.14970E+00 +1.75901E+00 -8.01197E-01
 +2.27313E+00 -1.61900E-01 +2.51101E+00 +6.84560E-01 +2.40285E+00 +1.61574E+00 +1.93208E+00 +2.48913E+00
 +1.13968E+00 +3.16466E+00 +1.19294E-01 +3.52728E+00 -9.96262E-01 +3.50611E+00 -2.05513E+00 +3.08680E+00
 -2.91003E+00 +2.31510E+00 -3.44152E+00 +1.29082E+00 -3.57732E+00 +1.53022E-01 -3.30423E+00 -9.41385E-01
 -2.67083E+00 -1.84212E+00 -1.78023E+00 -2.42930E+00 -7.74014E-01 -2.63263E+00 +1.90239E-01 -2.44264E+00
