 Created: 19-Jan-2021
 $NMID
 ID='D:\BASISSIMULATI'
 FMTDAT='(8E13.5)'
 VOLUME=   1.00000E+00
 TRAMP=   1.00000E+00
 $END
 +3.18435E+01 -9.08706E-01 +2.75071E+01 +1.49427E+01 +1.50996E+01 +2.52827E+01 -4.44467E-01 +2.65303E+01
 -1.31230E+01 +1.88569E+01 -1.83998E+01 +5.99047E+00 -1.50344E+01 -6.50104E+00 -5.42379E+00 -1.36572E+01
 +5.65155E+00 -1.32022E+01 +1.32683E+01 -6.34314E+00 +1.45491E+01 +3.02400E+00 +9.81183E+00 +1.02810E+01
 +2.19204E+00 +1.22875E+01 -4.03600E+00 +8.78843E+00 -5.61696E+00 +2.39357E+00 -1.91950E+00 -2.82768E+00
 +4.76784E+00 -3.44577E+00 +1.03826E+01 +1.54840E+00 +1.11264E+01 +1.01396E+01 +5.42168E+00 +1.81628E+01
 -5.15383E+00 +2.12608E+01 -1.64241E+01 +1.70136E+01 -2.34362E+01 +6.23385E+00 -2.27265E+01 -7.19986E+00
 -1.39901E+01 -1.79357E+01 -3.72547E-01 -2.14694E+01 +1.27789E+01 -1.61544E+01 +2.01678E+01 -3.98999E+00
 +1.88112E+01 +1.01782E+01 +9.30810E+00 +2.07005E+01 -4.44475E+00 +2.35055E+01 -1.69546E+01 +1.77746E+01
 -2.34864E+01 +6.18113E+00 -2.20224E+01 -6.38318E+00 -1.39754E+01 -1.49967E+01 -3.37541E+00 -1.68185E+01
 +5.05892E+00 -1.21853E+01 +8.06181E+00 -4.23653E+00 +5.19809E+00 +2.70942E+00 -1.12575E+00 +5.24343E+00
 -6.97847E+00 +2.43913E+00 -8.89740E+00 -3.80842E+00 -5.60378E+00 -9.81072E+00 +1.36973E+00 -1.19708E+01
 +8.43017E+00 -8.61816E+00 +1.16934E+01 -9.15277E-01 +8.93060E+00 +7.60506E+00 +7.65118E-01 +1.26677E+01
 -9.46308E+00 +1.12955E+01 -1.71285E+01 +3.30868E+00 -1.84067E+01 -8.43162E+00 -1.20643E+01 -1.91745E+01
 -1.24437E-01 -2.43269E+01 +1.29139E+01 -2.14819E+01 +2.19698E+01 -1.15134E+01 +2.35513E+01 +1.75921E+00
 +1.72384E+01 +1.31927E+01 +5.82506E+00 +1.85059E+01 -5.92976E+00 +1.60633E+01 -1.33739E+01 +7.47580E+00
 -1.39264E+01 -3.22119E+00 -8.07167E+00 -1.14153E+01 +1.03053E+00 -1.39411E+01 +9.10003E+00 -1.03734E+01
 +1.27188E+01 -3.03321E+00 +1.08284E+01 +4.25159E+00 +5.07313E+00 +8.02179E+00 -1.13179E+00 +6.81339E+00
 -4.33977E+00 +1.78321E+00 -2.78283E+00 -3.93816E+00 +2.75634E+00 -6.83982E+00 +9.31826E+00 -4.80377E+00
 +1.32058E+01 +1.78846E+00 +1.18070E+01 +1.01469E+01 +4.93933E+00 +1.63313E+01 -4.92945E+00 +1.70978E+01
 -1.37064E+01 +1.14779E+01 -1.74908E+01 +1.34643E+00 -1.43595E+01 -9.30072E+00 -5.30185E+00 -1.60517E+01
 +6.13108E+00 -1.60065E+01 +1.53189E+01 -9.06311E+00 +1.85443E+01 +2.01675E+00 +1.45713E+01 +1.27901E+01
 +5.13310E+00 +1.90346E+01 -5.87220E+00 +1.85232E+01 -1.41017E+01 +1.18933E+01 -1.66265E+01 +2.24799E+00
 -1.31045E+01 -6.30061E+00 -5.76893E+00 -1.04665E+01 +1.72194E+00 -9.17287E+00 +6.01573E+00 -3.87734E+00
 +5.57212E+00 +2.26879E+00 +1.26268E+00 +6.00173E+00 -4.18297E+00 +5.51127E+00 -7.59310E+00 +1.26141E+00
 -6.94530E+00 -4.30335E+00 -2.37616E+00 -8.00830E+00 +3.86623E+00 -7.55083E+00 +8.50192E+00 -2.68896E+00
 +8.82041E+00 +4.55281E+00 +4.04736E+00 +1.07684E+01 -4.17324E+00 +1.27435E+01 -1.24234E+01 +8.99008E+00
 -1.70028E+01 +5.28380E-01 -1.55963E+01 -9.45907E+00 -8.35818E+00 -1.69606E+01 +2.08432E+00 -1.88661E+01
 +1.17179E+01 -1.43228E+01 +1.68422E+01 -5.11251E+00 +1.56273E+01 +5.11405E+00 +8.84754E+00 +1.23995E+01
 -5.18367E-01 +1.41418E+01 -8.62250E+00 +1.01263E+01 -1.24072E+01 +2.49279E+00 -1.08504E+01 -5.31341E+00
 -5.26160E+00 -1.01077E+01 +1.46508E+00 -1.03315E+01 +6.26171E+00 -6.61427E+00 +7.29516E+00 -1.31158E+00
 +4.72824E+00 +2.72680E+00 +5.06512E-01 +3.55869E+00 -2.69683E+00 +1.05945E+00 -2.85594E+00 -3.07677E+00
 +3.74535E-01 -6.22733E+00 +5.45985E+00 -6.18616E+00 +9.71287E+00 -2.31599E+00 +1.06047E+01 +4.04693E+00
 +7.03878E+00 +1.01383E+01 -1.85627E-02 +1.30190E+01 -7.85974E+00 +1.09605E+01 -1.31821E+01 +4.31999E+00
 -1.35471E+01 -4.50845E+00 -8.49462E+00 -1.20613E+01 +1.94085E-01 -1.52696E+01 +9.20999E+00 -1.27719E+01
 +1.50936E+01 -5.49642E+00 +1.56710E+01 +3.73999E+00 +1.09218E+01 +1.14295E+01 +2.91429E+00 +1.48344E+01
 -5.14118E+00 +1.30716E+01 -1.02802E+01 +7.36282E+00 -1.09943E+01 +3.75335E-01 -7.74091E+00 -5.01864E+00
 -2.56442E+00 -6.98793E+00 +1.95715E+00 -5.43953E+00 +3.92892E+00 -1.88201E+00 +2.95499E+00 +1.43837E+00
 +1.95161E-01 +2.69241E+00 -2.33108E+00 +1.35799E+00 -2.83466E+00 -1.56952E+00 -7.05722E-01 -4.13033E+00
 +3.13755E+00 -4.43720E+00 +6.66824E+00 -1.68953E+00 +7.73988E+00 +3.32944E+00 +5.17591E+00 +8.52153E+00
 -5.61275E-01 +1.13975E+01 -7.45015E+00 +1.02353E+01 -1.27227E+01 +4.93805E+00 -1.40555E+01 -2.81192E+00
 -1.06070E+01 -1.01895E+01 -3.43470E+00 -1.43828E+01 +4.89914E+00 -1.37652E+01 +1.13645E+01 -8.57112E+00
 +1.36918E+01 -7.86179E-01 +1.12614E+01 +6.68994E+00 +5.28291E+00 +1.12345E+01 -1.78904E+00 +1.15274E+01
 -7.32334E+00 +7.98223E+00 -9.58355E+00 +2.42637E+00 -8.34158E+00 -2.78762E+00 -4.79615E+00 -5.81949E+00
 -8.78950E-01 -6.06049E+00 +1.69879E+00 -4.23600E+00 +2.20794E+00 -1.88796E+00 +1.13118E+00 -5.18256E-01
 -2.16121E-01 -8.18149E-01 -4.61198E-01 -2.35090E+00 +1.04842E+00 -3.82660E+00 +3.84988E+00 -3.82105E+00
 +6.54763E+00 -1.57896E+00 +7.48899E+00 +2.49706E+00 +5.61047E+00 +6.92019E+00 +1.04810E+00 +9.73771E+00
 -4.78947E+00 +9.41759E+00 -9.73950E+00 +5.59672E+00 -1.17774E+01 -6.58777E-01 -9.89101E+00 -7.21366E+00
 -4.54846E+00 -1.16985E+01 +2.44954E+00 -1.24622E+01 +8.67250E+00 -9.23323E+00 +1.20157E+01 -3.21110E+00
 +1.15025E+01 +3.44047E+00 +7.60221E+00 +8.46886E+00 +1.95216E+00 +1.03972E+01 -3.36993E+00 +9.01929E+00
 -6.69085E+00 +5.34134E+00 -7.34048E+00 +1.03608E+00 -5.76994E+00 -2.31929E+00 -3.18116E+00 -3.87283E+00
 -8.76785E-01 -3.73082E+00 +3.50068E-01 -2.72677E+00 +5.07742E-01 -1.87629E+00 +2.67515E-01 -1.80362E+00
 +4.93006E-01 -2.42250E+00 +1.69068E+00 -3.01788E+00 +3.66390E+00 -2.67474E+00 +5.54700E+00 -8.31569E-01
 +6.20763E+00 +2.32355E+00 +4.82567E+00 +5.81989E+00 +1.36882E+00 +8.26661E+00 -3.27080E+00 +8.45474E+00
 -7.56003E+00 +5.92650E+00 -9.91706E+00 +1.24924E+00 -9.35919E+00 -4.13909E+00 -5.92517E+00 -8.45698E+00
 -6.88580E-01 -1.02589E+01 +4.64338E+00 -8.98321E+00 +8.37488E+00 -5.14394E+00 +9.44070E+00 -9.86856E-02
 +7.75079E+00 +4.49599E+00 +4.13772E+00 +7.30482E+00 -4.33069E-02 +7.75574E+00 -3.47091E+00 +6.14124E+00
 -5.32938E+00 +3.37261E+00 -5.51215E+00 +5.27305E-01 -4.50562E+00 -1.59532E+00 -3.04634E+00 -2.72081E+00
 -1.73516E+00 -3.06748E+00 -7.91952E-01 -3.08937E+00 -5.02376E-02 -3.14765E+00 +8.32966E-01 -3.28430E+00
 +2.08064E+00 -3.20801E+00 +3.57719E+00 -2.48980E+00 +4.84697E+00 -8.59724E-01 +5.24730E+00 +1.55388E+00
 +4.28544E+00 +4.17265E+00 +1.90607E+00 +6.14331E+00 -1.39357E+00 +6.67051E+00 -4.68635E+00 +5.36178E+00
 -6.93373E+00 +2.43046E+00 -7.37032E+00 -1.33658E+00 -5.79566E+00 -4.83846E+00 -2.65466E+00 -7.04287E+00
 +1.12153E+00 -7.33889E+00 +4.44474E+00 -5.72540E+00 +6.43485E+00 -2.77273E+00 +6.68241E+00 +6.10596E-01
 +5.32210E+00 +3.50153E+00 +2.91305E+00 +5.24757E+00 +1.97139E-01 +5.61572E+00 -2.15690E+00 +4.77411E+00
 -3.72749E+00 +3.14564E+00 -4.38657E+00 +1.21617E+00 -4.23319E+00 -6.18618E-01 -3.47328E+00 -2.11849E+00
 -2.31361E+00 -3.17700E+00 -9.14786E-01 -3.75415E+00 +5.92777E-01 -3.81739E+00 +2.06138E+00 -3.32847E+00
 +3.29195E+00 -2.28012E+00 +4.04607E+00 -7.54922E-01 +4.10746E+00 +1.03524E+00 +3.36695E+00 +2.76079E+00
 +1.89033E+00 +4.04329E+00 -6.54879E-02 +4.55906E+00 -2.10005E+00 +4.13884E+00 -3.76615E+00 +2.82642E+00
 -4.68316E+00 +8.76576E-01 -4.63108E+00 -1.30411E+00 -3.60097E+00 -3.25204E+00 -1.79412E+00 -4.54903E+00
 +4.22371E-01 -4.90900E+00 +2.58935E+00 -4.23550E+00 +4.24457E+00 -2.64453E+00 +5.01508E+00 -4.51075E-01
 +4.70112E+00 +1.88250E+00 +3.33576E+00 +3.83502E+00 +1.20065E+00 +4.94288E+00 -1.21882E+00 +4.92156E+00
 -3.34179E+00 +3.75738E+00 -4.64368E+00 +1.73315E+00 -4.80897E+00 -6.33879E-01 -3.83195E+00 -2.73436E+00
 -2.02291E+00 -4.04848E+00 +9.11605E-02 -4.30428E+00 +1.94081E+00 -3.55236E+00 +3.09955E+00 -2.12583E+00
 +3.40852E+00 -5.00087E-01 +2.99111E+00 +8.89550E-01 +2.15568E+00 +1.79544E+00 +1.23384E+00 +2.20809E+00
 +4.32005E-01 +2.29219E+00 -2.32866E-01 +2.24562E+00 -8.83505E-01 +2.15719E+00 -1.64700E+00 +1.94139E+00
 -2.50889E+00 +1.39056E+00 -3.24271E+00 +3.24205E-01 -3.46780E+00 -1.24029E+00 -2.82439E+00 -2.99199E+00
 -1.18981E+00 -4.37487E+00 +1.17314E+00 -4.78339E+00 +3.62598E+00 -3.83227E+00 +5.34623E+00 -1.57996E+00
 +5.63934E+00 +1.40910E+00 +4.24318E+00 +4.21575E+00 +1.48666E+00 +5.88937E+00 -1.78368E+00 +5.81841E+00
 -4.49741E+00 +3.99069E+00 -5.76349E+00 +1.02352E+00 -5.21650E+00 -2.06185E+00 -3.15579E+00 -4.23528E+00
 -4.13262E-01 -4.85787E+00 +1.99707E+00 -3.91598E+00 +3.29654E+00 -1.98783E+00 +3.24344E+00 +4.06367E-02
 +2.18674E+00 +1.38069E+00 +8.52300E-01 +1.68163E+00 -3.46739E-02 +1.15132E+00 -1.10270E-01 +4.03300E-01
 +4.58271E-01 +1.06410E-01 +1.07760E+00 +6.09220E-01 +1.06022E+00 +1.72695E+00 +2.24149E-02 +2.80449E+00
 -1.85172E+00 +3.03698E+00 -3.82334E+00 +1.90101E+00 -4.90348E+00 -5.13516E-01 -4.32126E+00 -3.44519E+00
 -1.93932E+00 -5.72922E+00 +1.58920E+00 -6.29071E+00 +5.01873E+00 -4.64752E+00 +6.99993E+00 -1.18852E+00
 +6.65499E+00 +2.91717E+00 +3.98398E+00 +6.16194E+00 -8.91153E-02 +7.31356E+00 -4.06725E+00 +5.93584E+00
 -6.48708E+00 +2.58308E+00 -6.52132E+00 -1.42555E+00 -4.31224E+00 -4.55974E+00 -8.87304E-01 -5.71915E+00
 +2.30623E+00 -4.67912E+00 +4.03938E+00 -2.14411E+00 +3.82481E+00 +6.11566E-01 +2.08988E+00 +2.34799E+00
 -7.52776E-02 +2.42882E+00 -1.47270E+00 +1.09153E+00 -1.39102E+00 -7.06103E-01 +4.43099E-02 -1.78910E+00
 +1.93526E+00 -1.37712E+00 +3.06456E+00 +4.91264E-01 +2.52546E+00 +2.93423E+00 +2.24607E-01 +4.62748E+00
 -2.99388E+00 +4.45152E+00 -5.68195E+00 +2.08144E+00 -6.44186E+00 -1.76946E+00 -4.60503E+00 -5.58850E+00
 -6.14825E-01 -7.69872E+00 +4.08250E+00 -7.01412E+00 +7.61370E+00 -3.57082E+00 +8.47880E+00 +1.42019E+00
 +6.22137E+00 +6.04269E+00 +1.66185E+00 +8.47404E+00 -3.42329E+00 +7.76470E+00 -7.04591E+00 +4.25054E+00
 -7.84953E+00 -5.91436E-01 -5.67792E+00 -4.78492E+00 -1.61498E+00 -6.71003E+00 +2.52120E+00 -5.79078E+00
 +5.00013E+00 -2.70708E+00 +4.94313E+00 +9.60484E-01 +2.68284E+00 +3.48556E+00 -4.42549E-01 +3.80002E+00
 -2.75985E+00 +1.97405E+00 -3.07946E+00 -8.50101E-01 -1.27508E+00 -3.03836E+00 +1.65207E+00 -3.28434E+00
