 Created: 19-Jan-2021
 $NMID
 ID='D:\BASISSIMULATI'
 FMTDAT='(8E13.5)'
 VOLUME=   1.00000E+00
 TRAMP=   1.00000E+00
 $END
 +7.42390E+01 +2.42279E-01 +7.14839E+01 +1.91962E+01 +6.37251E+01 +3.66472E+01 +5.15887E+01 +5.12689E+01
 +3.60481E+01 +6.19680E+01 +1.83425E+01 +6.79725E+01 -1.25715E-01 +6.88933E+01 -1.79068E+01 +6.47544E+01
 -3.36234E+01 +5.59871E+01 -4.60826E+01 +4.33924E+01 -5.43734E+01 +2.80711E+01 -5.79389E+01 +1.13304E+01
 -5.66189E+01 -5.42639E+00 -5.06593E+01 -2.08172E+01 -4.06871E+01 -3.35963E+01 -2.76541E+01 -4.27565E+01
 -1.27532E+01 -4.76110E+01 +2.68419E+00 -4.78471E+01 +1.73018E+01 -4.35487E+01 +2.98333E+01 -3.51844E+01
 +3.92084E+01 -2.35637E+01 +4.46416E+01 -9.76479E+00 +4.56956E+01 +4.96034E+00 +4.23149E+01 +1.92938E+01
 +3.48269E+01 +3.19652E+01 +2.39098E+01 +4.18591E+01 +1.05318E+01 +4.81094E+01 -4.13527E+00 +5.01706E+01
 -1.88172E+01 +4.78616E+01 -3.22480E+01 +4.13778E+01 -4.32780E+01 +3.12713E+01 -5.09713E+01 +1.84000E+01
 -5.46842E+01 +3.85131E+00 -5.41175E+01 -1.11528E+01 -4.93390E+01 -2.53623E+01 -4.07747E+01 -3.76065E+01
 -2.91678E+01 -4.68938E+01 -1.55127E+01 -5.24953E+01 -9.65982E-01 -5.40050E+01 +1.32544E+01 -5.13716E+01
 +2.59754E+01 -4.48988E+01 +3.61701E+01 -3.52159E+01 +4.30450E+01 -2.32193E+01 +4.61068E+01 -9.99153E+00
 +4.52027E+01 +3.29474E+00 +4.05296E+01 +1.54808E+01 +3.26143E+01 +2.55233E+01 +2.22631E+01 +3.25855E+01
 +1.04886E+01 +3.61090E+01 -1.58194E+00 +3.58617E+01 -1.28077E+01 +3.19555E+01 -2.21362E+01 +2.48348E+01
 -2.86972E+01 +1.52347E+01 -3.18796E+01 +4.11449E+00 -3.13860E+01 -7.42956E+00 -2.72591E+01 -1.82625E+01
 -1.98777E+01 -2.73127E+01 -9.92324E+00 -3.36686E+01 +1.68030E+00 -3.66609E+01 +1.38487E+01 -3.59235E+01
 +2.54337E+01 -3.14280E+01 +3.53250E+01 -2.34886E+01 +4.25501E+01 -1.27362E+01 +4.63612E+01 -6.50241E-02
 +4.63041E+01 +1.34444E+01 +4.22605E+01 +2.66189E+01 +3.44621E+01 +3.82952E+01 +2.34731E+01 +4.74217E+01
 +1.01448E+01 +5.31519E+01 -4.45619E+00 +5.49198E+01 -1.91381E+01 +5.24918E+01 -3.26860E+01 +4.59899E+01
 -4.39665E+01 +3.58846E+01 -5.20255E+01 +2.29572E+01 -5.61720E+01 +8.23565E+00 -5.60387E+01 -7.09201E+00
 -5.16158E+01 -2.17775E+01 -4.32544E+01 -3.46188E+01 -3.16385E+01 -4.45621E+01 -1.77289E+01 -5.07930E+01
 -2.68262E+00 -5.28064E+01 +1.22441E+01 -5.04510E+01 +2.58022E+01 -4.39438E+01 +3.68560E+01 -3.38527E+01
 +4.44796E+01 -2.10500E+01 +4.80365E+01 -6.63909E+00 +4.72344E+01 +8.13816E+00 +4.21510E+01 +2.20065E+01
 +3.32284E+01 +3.37655E+01 +2.12371E+01 +4.23911E+01 +7.21096E+00 +4.71236E+01 -7.63898E+00 +4.75321E+01
 -2.20271E+01 +4.35526E+01 -3.47015E+01 +3.54937E+01 -4.45502E+01 +2.40122E+01 -5.06949E+01 +1.00584E+01
 -5.25665E+01 -5.20385E+00 -4.99532E+01 -2.04939E+01 -4.30192E+01 -3.45222E+01 -3.22918E+01 -4.60988E+01
 -1.86178E+01 -5.42330E+01 -3.09284E+00 -5.82168E+01 +1.30299E+01 -5.76843E+01 +2.84443E+01 -5.26425E+01
 +4.19007E+01 -4.34705E+01 +5.23092E+01 -3.08880E+01 +5.88311E+01 -1.58944E+01 +6.09475E+01 +3.14451E-01
 +5.85018E+01 +1.64466E+01 +5.17115E+01 +3.12215E+01 +4.11486E+01 +4.34763E+01 +2.76903E+01 +5.22624E+01
 +1.24441E+01 +5.69229E+01 -3.34571E+00 +5.71451E+01 -1.84025E+01 +5.29852E+01 -3.15246E+01 +4.48597E+01
 -4.16848E+01 +3.35083E+01 -4.81148E+01 +1.99292E+01 -5.03680E+01 +5.29269E+00 -4.83533E+01 -9.15882E+00
 -4.23398E+01 -2.22161E+01 -3.29305E+01 -3.28052E+01 -2.10077E+01 -4.00770E+01 -7.65536E+00 -4.34769E+01
 +5.93499E+00 -4.27897E+01 +1.85673E+01 -3.81541E+01 +2.91434E+01 -3.00478E+01 +3.67558E+01 -1.92433E+01
 +4.07649E+01 -6.73887E+00 +4.08506E+01 +6.32932E+00 +3.70383E+01 +1.87863E+01 +2.96936E+01 +2.95199E+01
 +1.94881E+01 +3.75769E+01 +7.33954E+00 +4.22439E+01 -5.66945E+00 +4.31080E+01 -1.83862E+01 +4.00905E+01
 -2.96883E+01 +3.34524E+01 -3.85806E+01 +2.37691E+01 -4.42814E+01 +1.18800E+01 -4.62886E+01 -1.18621E+00
 -4.44228E+01 -1.43015E+01 -3.88408E+01 -2.63364E+01 -3.00212E+01 -3.62584E+01 -1.87216E+01 -4.32208E+01
 -5.91176E+00 -4.66355E+01 +7.31122E+00 -4.62232E+01 +1.98185E+01 -4.20366E+01 +3.05473E+01 -3.44543E+01
 +3.85934E+01 -2.41474E+01 +4.32885E+01 -1.20198E+01 +4.42579E+01 +8.70659E-01 +4.14521E+01 +1.34048E+01
 +3.51500E+01 +2.44994E+01 +2.59339E+01 +3.32018E+01 +1.46381E+01 +3.87717E+01 +2.27532E+00 +4.07459E+01
 -1.00516E+01 +3.89781E+01 -2.12462E+01 +3.36504E+01 -3.03140E+01 +2.52580E+01 -3.64496E+01 +1.45650E+01
 -3.91064E+01 +2.53775E+00 -3.80447E+01 -9.73957E+00 -3.33528E+01 -2.11596E+01 -2.54395E+01 -3.06885E+01
 -1.49988E+01 -3.74565E+01 -2.94997E+00 -4.08338E+01 +9.64222E+00 -4.04862E+01 +2.16598E+01 -3.64051E+01
 +3.20287E+01 -2.89088E+01 +3.98124E+01 -1.86166E+01 +4.42936E+01 -6.39528E+00 +4.50370E+01 +6.71435E+00
 +4.19284E+01 +1.95873E+01 +3.51856E+01 +3.11110E+01 +2.53412E+01 +4.02815E+01 +1.31973E+01 +4.62900E+01
 -2.41253E-01 +4.85934E+01 -1.38535E+01 +4.69617E+01 -2.64971E+01 +4.14990E+01 -3.71066E+01 +3.26354E+01
 -4.47841E+01 +2.10914E+01 -4.88769E+01 +7.81748E+00 -4.90334E+01 -6.08688E+00 -4.52334E+01 -1.94660E+01
 -3.77910E+01 -3.12066E+01 -2.73279E+01 -4.03322E+01 -1.47212E+01 -4.60864E+01 -1.02881E+00 -4.79972E+01
 +1.26001E+01 -4.59173E+01 +2.50229E+01 -4.00366E+01 +3.52001E+01 -3.08661E+01 +4.22840E+01 -1.91941E+01
 +4.56905E+01 -6.01935E+00 +4.51481E+01 +7.53409E+00 +4.07212E+01 +2.03125E+01 +3.28039E+01 +3.12306E+01
 +2.20859E+01 +3.93637E+01 +9.49403E+00 +4.40262E+01 -3.88779E+00 +4.48295E+01 -1.69105E+01 +4.17148E+01
 -2.84578E+01 +3.49571E+01 -3.75418E+01 +2.51417E+01 -4.33861E+01 +1.31137E+01 -4.54921E+01 -9.45817E-02
 -4.36809E+01 -1.33519E+01 -3.81080E+01 -2.55245E+01 -2.92493E+01 -3.55728E+01 -1.78601E+01 -4.26398E+01
 -4.91011E+00 -4.61240E+01 +8.49943E+00 -4.57298E+01 +2.12301E+01 -4.14923E+01 +3.22032E+01 -3.37736E+01
 +4.04916E+01 -2.32313E+01 +4.53985E+01 -1.07617E+01 +4.65161E+01 +2.57715E+00 +4.37598E+01 +1.56557E+01
 +3.73745E+01 +2.73698E+01 +2.79131E+01 +3.67345E+01 +1.61881E+01 +4.29675E+01 +3.20207E+00 +4.55557E+01
 -9.93873E+00 +4.42980E+01 -2.21189E+01 +3.93216E+01 -3.23093E+01 +3.10698E+01 -3.96544E+01 +2.02636E+01
 -4.35449E+01 +7.83923E+00 -4.36692E+01 -5.13303E+00 -4.00389E+01 -1.75403E+01 -3.29867E+01 -2.83226E+01
 -2.31370E+01 -3.65634E+01 -1.13517E+01 -4.15678E+01 +1.34486E+00 -4.29211E+01 +1.38538E+01 -4.05236E+01
 +2.50963E+01 -3.45981E+01 +3.41061E+01 -2.56701E+01 +4.01120E+01 -1.45216E+01 +4.26036E+01 -2.12319E+00
 +4.13746E+01 +1.04494E+01 +3.65394E+01 +2.21083E+01 +2.85227E+01 +3.18470E+01 +1.80224E+01 +3.88263E+01
 +5.94887E+00 +4.24467E+01 -6.65355E+00 +4.23985E+01 -1.86968E+01 +3.86889E+01 -2.91424E+01 +3.16400E+01
 -3.70909E+01 +2.18609E+01 -4.18586E+01 +1.01949E+01 -4.30362E+01 -2.35330E+00 -4.05235E+01 -1.47042E+01
 -3.45375E+01 -2.57962E+01 -2.55932E+01 -3.46769E+01 -1.44596E+01 -4.05844E+01 -2.09257E+00 -4.30128E+01
 +1.04468E+01 -4.17549E+01 +2.20834E+01 -3.69199E+01 +3.18205E+01 -2.89235E+01 +3.88250E+01 -1.84518E+01
 +4.24983E+01 -6.40239E+00 +4.25279E+01 +6.19290E+00 +3.89129E+01 +1.82566E+01 +3.19646E+01 +2.87578E+01
 +2.22786E+01 +3.68004E+01 +1.06839E+01 +4.16994E+01 -1.82860E+00 +4.30395E+01 -1.41911E+01 +4.07099E+01
 -2.53502E+01 +3.49130E+01 -3.43571E+01 +2.61471E+01 -4.04486E+01 +1.51629E+01 -4.31116E+01 +2.89871E+00
 -4.21267E+01 -9.60010E+00 -3.75863E+01 -2.12706E+01 -2.98858E+01 -3.11232E+01 -1.96891E+01 -3.83264E+01
 -7.87105E+00 -4.22770E+01 +4.55767E+00 -4.26514E+01 +1.65377E+01 -3.94325E+01 +2.70518E+01 -3.29101E+01
 +3.52114E+01 -2.36554E+01 +4.03329E+01 -1.24710E+01 +4.19951E+01 -3.21694E-01 +4.00748E+01 +1.17490E+01
 +3.47563E+01 +2.27082E+01 +2.65147E+01 +3.16227E+01 +1.60741E+01 +3.77383E+01 +4.34496E+00 +4.05444E+01
 -7.65518E+00 +3.98169E+01 -1.88890E+01 +3.56366E+01 -2.83891E+01 +2.83816E+01 -3.53404E+01 +1.86936E+01
 -3.91508E+01 +7.42236E+00 -3.95006E+01 -4.44843E+00 -3.63701E+01 -1.58859E+01 -3.00403E+01 -2.58973E+01
 -2.10678E+01 -3.36154E+01 -1.02366E+01 -3.83727E+01 +1.51005E+00 -3.97592E+01 +1.31514E+01 -3.76565E+01
 +2.36772E+01 -3.22483E+01 +3.21749E+01 -2.40033E+01 +3.79081E+01 -1.36347E+01 +4.03798E+01 -2.03868E+00
 +3.93751E+01 +9.78382E+00 +3.49789E+01 +2.08130E+01 +2.75687E+01 +3.00983E+01 +1.77817E+01 +3.68403E+01
 +6.45915E+00 +4.04594E+01 -5.42592E+00 +4.06455E+01 -1.68529E+01 +3.73846E+01 -2.68415E+01 +3.09596E+01
 -3.45364E+01 +2.19257E+01 -3.92805E+01 +1.10623E+01 -4.06719E+01 -6.94220E-01 -3.85979E+01 -1.23317E+01
 -3.32448E+01 -2.28489E+01 -2.50815E+01 -3.13427E+01 -1.48191E+01 -3.70848E+01 -3.34929E+00 -3.95855E+01
 +8.33235E+00 -3.86353E+01 +1.92125E+01 -3.43230E+01 +2.83472E+01 -2.70282E+01 +3.49436E+01 -1.73884E+01
 +3.84281E+01 -6.24446E+00 +3.84962E+01 +5.43226E+00 +3.51387E+01 +1.66232E+01 +2.86426E+01 +2.63506E+01
 +1.95673E+01 +3.37614E+01 +8.69615E+00 +3.82013E+01 -3.03052E+00 +3.92712E+01 -1.45959E+01 +3.68618E+01
 -2.49941E+01 +3.11633E+01 -3.33165E+01 +2.26501E+01 -3.88301E+01 +1.20402E+01 -4.10404E+01 +2.34188E-01
 -3.97342E+01 -1.17617E+01 -3.49987E+01 -2.29211E+01 -2.72144E+01 -3.22857E+01 -1.70230E+01 -3.90468E+01
 -5.27306E+00 -4.26148E+01 +7.05161E+00 -4.26696E+01 +1.89160E+01 -3.91884E+01 +2.93215E+01 -3.24475E+01
 +3.73912E+01 -2.29999E+01 +4.24440E+01 -1.16277E+01 +4.40527E+01 +7.23610E-01 +4.20802E+01 +1.30256E+01
 +3.66913E+01 +2.42539E+01 +2.83381E+01 +3.34752E+01 +1.77220E+01 +3.99258E+01 +5.73380E+00 +4.30768E+01
 -6.62196E+00 +4.26778E+01 -1.83121E+01 +3.87780E+01 -2.83626E+01 +3.17216E+01 -3.59406E+01 +2.21179E+01
 -4.04247E+01 +1.07890E+01 -4.14574E+01 -1.30034E+00 -3.89743E+01 -1.31249E+01 -3.32088E+01 -2.36859E+01
 -2.46713E+01 -3.20960E+01 -1.41055E+01 -3.76540E+01 -2.42362E+00 -3.99036E+01 +9.37083E+00 -3.86718E+01
 +2.02691E+01 -3.40821E+01 +2.93429E+01 -2.65435E+01 +3.58230E+01 -1.67142E+01 +3.91639E+01 -5.44472E+00
 +3.90898E+01 +6.29465E+00 +3.56169E+01 +1.74975E+01 +2.90508E+01 +2.72067E+01 +1.99596E+01 +3.45960E+01
 +9.12412E+00 +3.90396E+01 -2.52891E+00 +4.01651E+01 -1.40068E+01 +3.78836E+01 -2.43357E+01 +3.23967E+01
 -3.26434E+01 +2.41777E+01 -3.82332E+01 +1.39301E+01 -4.06428E+01 +2.52692E+00 -3.96823E+01 -9.06497E+00
