 Created: 19-Jan-2021
 $NMID
 ID='D:\BASISSIMULATI'
 FMTDAT='(8E13.5)'
 VOLUME=   1.00000E+00
 TRAMP=   1.00000E+00
 $END
 +3.49179E+01 +5.90318E-01 +3.35710E+01 +5.58920E+00 +2.93597E+01 +1.02494E+01 +2.27579E+01 +1.43284E+01
 +1.45072E+01 +1.76059E+01 +5.52349E+00 +1.98915E+01 -3.21671E+00 +2.10383E+01 -1.07963E+01 +2.09581E+01
 -1.64683E+01 +1.96391E+01 -1.97424E+01 +1.71619E+01 -2.04379E+01 +1.37079E+01 -1.86946E+01 +9.55923E+00
 -1.49446E+01 +5.08453E+00 -9.84624E+00 +7.10695E-01 -4.19268E+00 -3.11798E+00 +1.19376E+00 -5.98989E+00
 +5.56655E+00 -7.57942E+00 +8.34590E+00 -7.69589E+00 +9.18439E+00 -6.32054E+00 +8.00007E+00 -3.62469E+00
 +4.97427E+00 +3.59148E-02 +5.16277E-01 +4.15205E+00 -4.79862E+00 +8.11568E+00 -1.03081E+01 +1.12925E+01
 -1.53478E+01 +1.31043E+01 -1.93306E+01 +1.31095E+01 -2.18104E+01 +1.10716E+01 -2.25248E+01 +7.00493E+00
 -2.14107E+01 +1.18924E+00 -1.85958E+01 -5.84941E+00 -1.43679E+01 -1.33918E+01 -9.12918E+00 -2.06068E+01
 -3.34277E+00 -2.66512E+01 +2.52082E+00 -3.07752E+01 +8.03014E+00 -3.24206E+01 +1.28277E+01 -3.12968E+01
 +1.66508E+01 -2.74258E+01 +1.93383E+01 -2.11469E+01 +2.08257E+01 -1.30825E+01 +2.11321E+01 -4.06607E+00
 +2.03427E+01 +4.95777E+00 +1.85924E+01 +1.30476E+01 +1.60509E+01 +1.93807E+01 +1.29127E+01 +2.33534E+01
 +9.39062E+00 +2.46536E+01 +5.71212E+00 +2.32957E+01 +2.11440E+00 +1.96143E+01 -1.16246E+00 +1.42160E+01
 -3.88752E+00 +7.89860E+00 -5.85625E+00 +1.54549E+00 -6.91223E+00 -3.98778E+00 -6.97065E+00 -7.98176E+00
 -6.03968E+00 -9.94122E+00 -4.23501E+00 -9.65241E+00 -1.78330E+00 -7.20269E+00 +9.88695E-01 -2.96100E+00
 +3.68083E+00 +2.47709E+00 +5.86066E+00 +8.37150E+00 +7.11527E+00 +1.39353E+01 +7.10779E+00 +1.84344E+01
 +5.63075E+00 +2.12769E+01 +2.64822E+00 +2.20808E+01 -1.68061E+00 +2.07112E+01 -7.00202E+00 +1.72866E+01
 -1.27945E+01 +1.21525E+01 -1.84210E+01 +5.82898E+00 -2.32002E+01 -1.05930E+00 -2.64909E+01 -7.86061E+00
 -2.77757E+01 -1.39711E+01 -2.67357E+01 -1.88972E+01 -2.33029E+01 -2.23000E+01 -1.76831E+01 -2.40158E+01
 -1.03454E+01 -2.40549E+01 -1.97551E+00 -2.25801E+01 +6.59896E+00 -1.98704E+01 +1.45057E+01 -1.62772E+01
 +2.09333E+01 -1.21787E+01 +2.52316E+01 -7.93985E+00 +2.69946E+01 -3.88077E+00 +2.61134E+01 -2.57419E-01
 +2.27917E+01 +2.74695E+00 +1.75221E+01 +5.02058E+00 +1.10242E+01 +6.51565E+00 +4.15431E+00 +7.23780E+00
 -2.20363E+00 +7.23612E+00 -7.25030E+00 +6.59562E+00 -1.03722E+01 +5.43303E+00 -1.12182E+01 +3.89516E+00
 -9.74214E+00 +2.15791E+00 -6.20528E+00 +4.23308E-01 -1.13890E+00 -1.08790E+00 +4.72728E+00 -2.14999E+00
 +1.05615E+01 -2.55262E+00 +1.55379E+01 -2.12651E+00 +1.89419E+01 -7.71462E-01 +2.02592E+01 +1.51771E+00
 +1.92373E+01 +4.63237E+00 +1.59120E+01 +8.34305E+00 +1.05970E+01 +1.23080E+01 +3.83867E+00 +1.60989E+01
 -3.65654E+00 +1.92423E+01 -1.11122E+01 +2.12737E+01 -1.77764E+01 +2.17977E+01 -2.30093E+01 +2.05464E+01
 -2.63518E+01 +1.74274E+01 -2.75688E+01 +1.25535E+01 -2.66621E+01 +6.24845E+00 -2.38541E+01 -9.74952E-01
 -1.95460E+01 -8.46269E+00 -1.42578E+01 -1.54899E+01 -8.55953E+00 -2.13447E+01 -3.00307E+00 -2.54162E+01
 +1.93704E+00 -2.72736E+01 +5.90680E+00 -2.67263E+01 +8.69656E+00 -2.38562E+01 +1.02447E+01 -1.90154E+01
 +1.06235E+01 -1.27899E+01 +1.00111E+01 -5.93114E+00 +8.65609E+00 +7.35005E-01 +6.84044E+00 +6.41112E+00
 +4.84537E+00 +1.04296E+01 +2.92499E+00 +1.23386E+01 +1.28906E+00 +1.19618E+01 +9.48135E-02 +9.42228E+00
 -5.53688E-01 +5.12786E+00 -6.01449E-01 -2.80332E-01 -3.68044E-02 -6.01055E+00 +1.11339E+00 -1.12228E+01
 +2.78604E+00 -1.51378E+01 +4.88130E+00 -1.71378E+01 +7.26045E+00 -1.68471E+01 +9.74450E+00 -1.41795E+01
 +1.21161E+01 -9.35000E+00 +1.41276E+01 -2.84630E+00 +1.55167E+01 +4.63352E+00 +1.60301E+01 +1.22694E+01
 +1.54532E+01 +1.92217E+01 +1.36435E+01 +2.47338E+01 +1.05609E+01 +2.82223E+01 +6.29177E+00 +2.93425E+01
 +1.06019E+00 +2.80225E+01 -4.77774E+00 +2.44624E+01 -1.07576E+01 +1.90993E+01 -1.63481E+01 +1.25454E+01
 -2.10072E+01 +5.50720E+00 -2.42453E+01 -1.30225E+00 -2.56893E+01 -7.24674E+00 -2.51368E+01 -1.18355E+01
 -2.25935E+01 -1.47691E+01 -1.82861E+01 -1.59586E+01 -1.26481E+01 -1.55174E+01 -6.27726E+00 -1.37290E+01
 +1.30495E-01 -1.09970E+01 +5.86302E+00 -7.78548E+00 +1.02805E+01 -4.55794E+00 +1.28983E+01 -1.72350E+00
 +1.34525E+01 +4.04138E-01 +1.19395E+01 +1.63097E+00 +8.62256E+00 +1.88926E+00 +4.00347E+00 +1.22828E+00
 -1.23763E+00 -2.07251E-01 -6.32745E+00 -2.20602E+00 -1.04989E+01 -4.52097E+00 -1.30916E+01 -6.89771E+00
 -1.36404E+01 -9.09717E+00 -1.19394E+01 -1.09108E+01 -8.07345E+00 -1.21687E+01 -2.41206E+00 -1.27420E+01
 +4.43409E+00 -1.25424E+01 +1.16878E+01 -1.15203E+01 +1.85021E+01 -9.66615E+00 +2.40658E+01 -7.01246E+00
 +2.77052E+01 -3.63977E+00 +2.89668E+01 +3.17454E-01 +2.76725E+01 +4.66650E+00 +2.39390E+01 +9.15704E+00
 +1.81597E+01 +1.34893E+01 +1.09525E+01 +1.73314E+01 +3.08067E+00 +2.03466E+01 -4.64257E+00 +2.22272E+01
 -1.14525E+01 +2.27330E+01 -1.67222E+01 +2.17288E+01 -2.00312E+01 +1.92133E+01 -2.12055E+01 +1.53373E+01
 -2.03249E+01 +1.04023E+01 -1.76991E+01 +4.84145E+00 -1.38160E+01 -8.20543E-01 -9.27053E+00 -6.02225E+00
 -4.68565E+00 -1.02310E+01 -6.34217E-01 -1.30100E+01 +2.42688E+00 -1.40779E+01 +4.20332E+00 -1.33529E+01
 +4.58598E+00 -1.09726E+01 +3.64869E+00 -7.28675E+00 +1.62349E+00 -2.82183E+00 -1.14132E+00 +1.78029E+00
 -4.23324E+00 +5.84126E+00 -7.22997E+00 +8.73390E+00 -9.74887E+00 +9.96662E+00 -1.14858E+01 +9.25324E+00
 -1.22394E+01 +6.55829E+00 -1.19207E+01 +2.11058E+00 -1.05479E+01 -3.61749E+00 -8.23052E+00 -9.96335E+00
 -5.14694E+00 -1.61540E+01 -1.51955E+00 -2.14023E+01 +2.40847E+00 -2.50068E+01 +6.39191E+00 -2.64428E+01
 +1.01967E+01 -2.54318E+01 +1.36078E+01 -2.19802E+01 +1.64335E+01 -1.63820E+01 +1.85078E+01 -9.18481E+00
 +1.96943E+01 -1.12363E+00 +1.98920E+01 +6.96900E+00 +1.90445E+01 +1.42646E+01 +1.71511E+01 +2.00389E+01
 +1.42790E+01 +2.37575E+01 +1.05714E+01 +2.51364E+01 +6.25065E+00 +2.41698E+01 +1.61182E+00 +2.11218E+01
 -2.99466E+00 +1.64853E+01 -7.19119E+00 +1.09129E+01 -1.06103E+01 +5.13011E+00 -1.29373E+01 -1.57093E-01
 -1.39523E+01 -4.34834E+00 -1.35663E+01 -7.01806E+00 -1.18439E+01 -7.95906E+00 -9.00917E+00 -7.19648E+00
 -5.43017E+00 -4.97151E+00 -1.58356E+00 -1.69884E+00 +1.99881E+00 +2.09531E+00 +4.79496E+00 +5.84531E+00
 +6.36156E+00 +9.01841E+00 +6.39721E+00 +1.11780E+01 +4.79100E+00 +1.20300E+01 +1.64862E+00 +1.14486E+01
 -2.70880E+00 +9.47878E+00 -7.77482E+00 +6.31788E+00 -1.29140E+01 +2.28119E+00 -1.74385E+01 -2.24332E+00
 -2.06944E+01 -6.84339E+00 -2.21489E+01 -1.11278E+01 -2.14634E+01 -1.47631E+01 -1.85451E+01 -1.74983E+01
 -1.35682E+01 -1.91772E+01 -6.96075E+00 -1.97376E+01 +6.41385E-01 -1.92015E+01 +8.46795E+00 -1.76597E+01
 +1.57068E+01 -1.52535E+01 +2.16028E+01 -1.21584E+01 +2.55505E+01 -8.56994E+00 +2.71688E+01 -4.69489E+00
 +2.63469E+01 -7.44897E-01 +2.32562E+01 +3.06745E+00 +1.83266E+01 +6.53311E+00 +1.21901E+01 +9.45335E+00
 +5.59923E+00 +1.16503E+01 -6.67825E-01 +1.29813E+01 -5.90460E+00 +1.33563E+01 -9.56191E+00 +1.27547E+01
 -1.13116E+01 +1.12399E+01 -1.10803E+01 +8.96606E+00 -9.05009E+00 +6.17518E+00 -5.62617E+00 +3.18184E+00
 -1.37718E+00 +3.45443E-01 +3.04306E+00 -1.96807E+00 +6.98177E+00 -3.43108E+00 +9.86985E+00 -3.80006E+00
 +1.12904E+01 -2.95566E+00 +1.10246E+01 -9.30697E-01 +9.07084E+00 +2.07968E+00 +5.63529E+00 +5.72869E+00
 +1.09692E+00 +9.55030E+00 -4.04650E+00 +1.30106E+01 -9.24386E+00 +1.55725E+01 -1.39581E+01 +1.67665E+01
 -1.77271E+01 +1.62569E+01 -2.02102E+01 +1.38953E+01 -2.12168E+01 +9.75267E+00 -2.07142E+01 +4.12428E+00
 -1.88159E+01 -2.49452E+00 -1.57551E+01 -9.45982E+00 -1.18468E+01 -1.60524E+01 -7.44694E+00 -2.15639E+01
 -2.91191E+00 -2.53847E+01 +1.43424E+00 -2.70818E+01 +5.32372E+00 -2.64569E+01 +8.55796E+00 -2.35755E+01
 +1.10105E+01 -1.87622E+01 +1.26224E+01 -1.25644E+01 +1.33919E+01 -5.68606E+00 +1.33641E+01 +1.09900E+00
 +1.26201E+01 +7.04250E+00 +1.12696E+01 +1.15144E+01 +9.44639E+00 +1.40803E+01 +7.30583E+00 +1.45530E+01
 +5.02266E+00 +1.30127E+01 +2.78689E+00 +9.79182E+00 +7.95758E-01 +5.42850E+00 -7.59223E-01 +5.93475E-01
 -1.71019E+00 -3.99832E+00 -1.93415E+00 -7.68045E+00 -1.37465E+00 -9.91947E+00 -6.00949E-02 -1.03804E+01
 +1.88532E+00 -8.96527E+00 +4.24170E+00 -5.82000E+00 +6.70678E+00 -1.31033E+00 +8.92295E+00 +4.02970E+00
 +1.05162E+01 +9.56875E+00 +1.11427E+01 +1.46588E+01 +1.05380E+01 +1.87147E+01 +8.56103E+00 +2.12821E+01
 +5.22645E+00 +2.20863E+01 +7.19659E-01 +2.10561E+01 -4.60971E+00 +1.83215E+01 -1.02769E+01 +1.41874E+01
 -1.57115E+01 +9.08690E+00 -2.03221E+01 +3.52442E+00 -2.35685E+01 -1.98655E+00 -2.50320E+01 -6.98036E+00
 -2.44742E+01 -1.10851E+01 -2.18758E+01 -1.40528E+01 -1.74488E+01 -1.57713E+01 -1.16196E+01 -1.62591E+01
 -4.98440E+00 -1.56456E+01 +1.75993E+00 -1.41422E+01 +7.89872E+00 -1.20073E+01 +1.27875E+01 -9.51419E+00
 +1.59325E+01 -6.92166E+00 +1.70538E+01 -4.45382E+00 +1.61211E+01 -2.28783E+00 +1.33583E+01 -5.49905E-01
 +9.21519E+00 +6.82661E-01 +4.30977E+00 +1.37590E+00 -6.51542E-01 +1.53281E+00 -4.96502E+00 +1.18831E+00
 -8.02045E+00 +4.06543E-01 -9.37951E+00 -7.19447E-01 -8.83156E+00 -2.06700E+00 -6.41945E+00 -3.48408E+00
 -2.43248E+00 -4.79270E+00 +2.63259E+00 -5.79757E+00 +8.13666E+00 -6.30087E+00 +1.33808E+01 -6.12294E+00
 +1.76951E+01 -5.12684E+00 +2.05220E+01 -3.24389E+00 +2.14836E+01 -4.95653E-01 +2.04248E+01 +2.99166E+00
 +1.74269E+01 +6.98460E+00 +1.27915E+01 +1.11541E+01 +6.99739E+00 +1.51019E+01 +6.37331E-01 +1.84005E+01
 -5.65620E+00 +2.06423E+01 -1.12867E+01 +2.14918E+01 -1.57605E+01 +2.07347E+01 -1.87373E+01 +1.83161E+01
 -2.00589E+01 +1.43608E+01 -1.97530E+01 +9.17253E+00 -1.80151E+01 +3.20975E+00 -1.51717E+01 -2.96045E+00
 -1.16300E+01 -8.72538E+00 -7.82413E+00 -1.34993E+01 -4.16275E+00 -1.67963E+01 -9.86369E-01 -1.82936E+01
 +1.46253E+00 -1.78768E+01 +3.05351E+00 -1.56593E+01 +3.76704E+00 -1.19731E+01 +3.68037E+00 -7.33136E+00
 +2.94438E+00 -2.36609E+00 +1.75600E+00 +2.25119E+00 +3.30657E-01 +5.89518E+00 -1.12146E+00 +8.06819E+00
 -2.41305E+00 +8.46609E+00 -3.39036E+00 +7.01982E+00 -3.93756E+00 +3.90667E+00 -3.97650E+00 -4.70554E-01
