 Created: 19-Jan-2021
 $NMID
 ID='D:\BASISSIMULATI'
 FMTDAT='(8E13.5)'
 VOLUME=   1.00000E+00
 TRAMP=   1.00000E+00
 $END
 +1.16439E+01 +1.93255E-01 +1.14794E+01 +1.90521E+00 +1.10647E+01 +3.57292E+00 +1.04094E+01 +5.16008E+00
 +9.52802E+00 +6.63222E+00 +8.44025E+00 +7.95739E+00 +7.17011E+00 +9.10694E+00 +5.74558E+00 +1.00561E+01
 +4.19797E+00 +1.07844E+01 +2.56123E+00 +1.12763E+01 +8.71208E-01 +1.15216E+01 -8.35167E-01 +1.15151E+01
 -2.52065E+00 +1.12576E+01 -4.14851E+00 +1.07549E+01 -5.68334E+00 +1.00184E+01 -7.09180E+00 +9.06461E+00
 -8.34338E+00 +7.91460E+00 -9.41103E+00 +6.59378E+00 -1.02717E+01 +5.13122E+00 -1.09071E+01 +3.55904E+00
 -1.13035E+01 +1.91171E+00 -1.14528E+01 +2.25265E-01 -1.13521E+01 -1.46344E+00 -1.10040E+01 -3.11758E+00
 -1.04164E+01 -4.70113E+00 -9.60251E+00 -6.17966E+00 -8.58049E+00 -7.52109E+00 -7.37294E+00 -8.69638E+00
 -6.00648E+00 -9.68016E+00 -4.51116E+00 -1.04513E+01 -2.91981E+00 -1.09932E+01 -1.26726E+00 -1.12946E+01
 +4.10324E-01 -1.13491E+01 +2.07633E+00 -1.11560E+01 +3.69444E+00 -1.07199E+01 +5.22943E+00 -1.00507E+01
 +6.64795E+00 -9.16337E+00 +7.91926E+00 -8.07755E+00 +9.01585E+00 -6.81726E+00 +9.91409E+00 -5.41026E+00
 +1.05947E+01 -3.88748E+00 +1.10431E+01 -2.28229E+00 +1.12501E+01 -6.29854E-01 +1.12113E+01 +1.03373E+00
 +1.09280E+01 +2.67216E+00 +1.04069E+01 +4.24973E+00 +9.65959E+00 +5.73214E+00 +8.70279E+00 +7.08721E+00
 +7.55769E+00 +8.28558E+00 +6.24955E+00 +9.30135E+00 +4.80716E+00 +1.01127E+01 +3.26218E+00 +1.07022E+01
 +1.64849E+00 +1.10573E+01 +1.37285E-03 +1.11707E+01 -1.64319E+00 +1.10404E+01 -3.24933E+00 +1.06694E+01
 -4.78208E+00 +1.00663E+01 -6.20813E+00 +9.24462E+00 -7.49654E+00 +8.22260E+00 -8.61943E+00 +7.02285E+00
 -9.55257E+00 +5.67181E+00 -1.02759E+01 +4.19919E+00 -1.07740E+01 +2.63729E+00 -1.10363E+01 +1.02033E+00
 -1.10575E+01 -6.16346E-01 -1.08375E+01 -2.23701E+00 -1.03815E+01 -3.80635E+00 -9.69975E+00 -5.29020E+00
 -8.80754E+00 -6.65634E+00 -7.72464E+00 -7.87517E+00 -6.47497E+00 -8.92032E+00 -5.08604E+00 -9.76928E+00
 -3.58836E+00 -1.04038E+01 -2.01477E+00 -1.08105E+01 -3.99709E-01 -1.09807E+01 +1.22154E+00 -1.09112E+01
 +2.81359E+00 -1.06038E+01 +4.34179E+00 -1.00657E+01 +5.77289E+00 -9.30881E+00 +7.07584E+00 -8.35011E+00
 +8.22242E+00 -7.21080E+00 +9.18787E+00 -5.91601E+00 +9.95141E+00 -4.49423E+00 +1.04967E+01 -2.97666E+00
 +1.08122E+01 -1.39655E+00 +1.08914E+01 +2.11545E-01 +1.07330E+01 +1.81250E+00 +1.03407E+01 +3.37141E+00
 +9.72346E+00 +4.85434E+00 +8.89514E+00 +6.22907E+00 +7.87412E+00 +7.46579E+00 +6.68297E+00 +8.53773E+00
 +5.34793E+00 +9.42179E+00 +3.89835E+00 +1.00990E+01 +2.36602E+00 +1.05548E+01 +7.84496E-01 +1.07798E+01
 -8.11659E-01 +1.07692E+01 -2.38761E+00 +1.05239E+01 -3.90901E+00 +1.00493E+01 -5.34276E+00 +9.35638E+00
 -6.65774E+00 +8.46045E+00 -7.82545E+00 +7.38140E+00 -8.82066E+00 +6.14306E+00 -9.62192E+00 +4.77268E+00
 -1.02121E+01 +3.30036E+00 -1.05786E+01 +1.75837E+00 -1.07138E+01 +1.80451E-01 -1.06151E+01 -1.39893E+00
 -1.02851E+01 -2.94532E+00 -9.73122E+00 -4.42504E+00 -8.96602E+00 -5.80594E+00 -8.00646E+00 -7.05803E+00
 -6.87379E+00 -8.15423E+00 -5.59298E+00 -9.07086E+00 -4.19220E+00 -9.78822E+00 -2.70218E+00 -1.02910E+01
 -1.15557E+00 -1.05685E+01 +4.13816E-01 -1.06151E+01 +1.97172E+00 -1.04300E+01 +3.48417E+00 -1.00178E+01
 +4.91825E+00 -9.38781E+00 +6.24282E+00 -8.55400E+00 +7.42916E+00 -7.53495E+00 +8.45160E+00 -6.35315E+00
 +9.28810E+00 -5.03465E+00 +9.92072E+00 -3.60841E+00 +1.03360E+01 -2.10571E+00 +1.05252E+01 -5.59446E-01
 +1.04845E+01 +9.96595E-01 +1.02152E+01 +2.52846E+00 +9.72355E+00 +4.00277E+00 +9.02060E+00 +5.38747E+00
 +8.12201E+00 +6.65249E+00 +7.04769E+00 +7.77044E+00 +5.82135E+00 +8.71716E+00 +4.46997E+00 +9.47227E+00
 +3.02322E+00 +1.00196E+01 +1.51280E+00 +1.03476E+01 -2.82360E-02 +1.04493E+01 -1.56624E+00 +1.03230E+01
 -3.06767E+00 +9.97175E+00 -4.49984E+00 +9.40356E+00 -5.83162E+00 +8.63117E+00 -7.03412E+00 +7.67175E+00
 -8.08132E+00 +6.54651E+00 -8.95062E+00 +5.28026E+00 -9.62335E+00 +3.90084E+00 -1.00851E+01 +2.43850E+00
 -1.03262E+01 +9.25270E-01 -1.03417E+01 -6.05762E-01 -1.01317E+01 -2.12118E+00 -9.70095E+00 -3.58795E+00
 -9.05933E+00 -4.97417E+00 -8.22113E+00 -6.24973E+00 -7.20495E+00 -7.38698E+00 -6.03322E+00 -8.36133E+00
 -4.73175E+00 -9.15180E+00 -3.32912E+00 -9.74142E+00 -1.85608E+00 -1.01176E+01 -3.44876E-01 -1.02726E+01
 +1.17148E+00 -1.02033E+01 +2.65991E+00 -9.91158E+00 +4.08798E+00 -9.40412E+00 +5.42466E+00 -8.69236E+00
 +6.64093E+00 -7.79214E+00 +7.71045E+00 -6.72338E+00 +8.61012E+00 -5.50966E+00 +9.32060E+00 -4.17768E+00
 +9.82667E+00 -2.75668E+00 +1.01176E+01 -1.27778E+00 +1.01875E+01 +2.26665E-01 +1.00350E+01 +1.72380E+00
 +9.66393E+00 +3.18100E+00 +9.08266E+00 +4.56653E+00 +8.30421E+00 +5.85028E+00 +7.34586E+00 +7.00443E+00
 +6.22880E+00 +8.00400E+00 +4.97765E+00 +8.82743E+00 +3.61990E+00 +9.45705E+00 +2.18533E+00 +9.87941E+00
 +7.05344E-01 +1.00856E+01 -7.87699E-01 +1.00716E+01 -2.26122E+00 +9.83789E+00 -3.68311E+00 +9.38999E+00
 -5.02244E+00 +8.73800E+00 -6.25012E+00 +7.89646E+00 -7.33957E+00 +6.88401E+00 -8.26723E+00 +5.72301E+00
 -9.01312E+00 +4.43902E+00 -9.56127E+00 +3.06023E+00 -9.90002E+00 +1.61686E+00 -1.00223E+01 +1.40485E-01
 -9.92585E+00 -1.33663E+00 -9.61304E+00 -2.78228E+00 -9.09106E+00 -4.16498E+00 -8.37162E+00 -5.45467E+00
 -7.47073E+00 -6.62336E+00 -6.40832E+00 -7.64577E+00 -5.20780E+00 -8.49982E+00 -3.89559E+00 -9.16714E+00
 -2.50047E+00 -9.63348E+00 -1.05301E+00 -9.88899E+00 +4.15142E-01 -9.92841E+00 +1.87194E+00 -9.75123E+00
 +3.28562E+00 -9.36166E+00 +4.62543E+00 -8.76852E+00 +5.86225E+00 -7.98506E+00 +6.96927E+00 -7.02869E+00
 +7.92256E+00 -5.92051E+00 +8.70156E+00 -4.68495E+00 +9.28955E+00 -3.34915E+00 +9.67402E+00 -1.94241E+00
 +9.84689E+00 -4.95501E-01 +9.80473E+00 +9.59939E-01 +9.54879E+00 +2.39216E+00 +9.08500E+00 +3.76996E+00
 +8.42378E+00 +5.06337E+00 +7.57989E+00 +6.24432E+00 +6.57200E+00 +7.28723E+00 +5.42236E+00 +8.16956E+00
 +4.15626E+00 +8.87234E+00 +2.80149E+00 +9.38050E+00 +1.38776E+00 +9.68328E+00 -5.40262E-02 +9.77439E+00
 -1.49237E+00 +9.65217E+00 -2.89591E+00 +9.31963E+00 -4.23408E+00 +8.78436E+00 -5.47781E+00 +8.05833E+00
 -6.60011E+00 +7.15770E+00 -7.57671E+00 +6.10236E+00 -8.38652E+00 +4.91559E+00 -9.01215E+00 +3.62348E+00
 -9.44024E+00 +2.25436E+00 -9.66177E+00 +8.38225E-01 -9.67223E+00 -5.93969E-01 -9.47172E+00 -2.01096E+00
 -9.06495E+00 -3.38187E+00 -8.46111E+00 -4.67687E+00 -7.67367E+00 -5.86783E+00 -6.72011E+00 -6.92895E+00
 -5.62148E+00 -7.83728E+00 -4.40198E+00 -8.57325E+00 -3.08837E+00 -9.12108E+00 -1.70947E+00 -9.46913E+00
 -2.95457E-01 -9.61010E+00 +1.12279E+00 -9.54126E+00 +2.51431E+00 -9.26443E+00 +3.84882E+00 -8.78597E+00
 +5.09729E+00 -8.11665E+00 +6.23263E+00 -7.27135E+00 +7.23025E+00 -6.26879E+00 +8.06861E+00 -5.13108E+00
 +8.72968E+00 -3.88324E+00 +9.19932E+00 -2.55267E+00 +9.46759E+00 -1.16852E+00 +9.52894E+00 +2.38948E-01
 +9.38237E+00 +1.63899E+00 +9.03140E+00 +3.00110E+00 +8.48401E+00 +4.29561E+00 +7.75244E+00 +5.49440E+00
 +6.85293E+00 +6.57148E+00 +5.80538E+00 +7.50354E+00 +4.63285E+00 +8.27048E+00 +3.36112E+00 +8.85585E+00
 +2.01808E+00 +9.24715E+00 +6.33138E-01 +9.43615E+00 -7.63443E-01 +9.41905E+00 -2.14118E+00 +9.19655E+00
 -3.47006E+00 +8.77382E+00 -4.72116E+00 +8.16040E+00 -5.86734E+00 +7.36996E+00 -6.88375E+00 +6.42003E+00
 -7.74843E+00 +5.33156E+00 -8.44276E+00 +4.12852E+00 -8.95186E+00 +2.83732E+00 -9.26492E+00 +1.48627E+00
 -9.37542E+00 +1.04926E-01 -9.28127E+00 -1.27654E+00 -8.98485E+00 -2.62800E+00 -8.49293E+00 -3.92001E+00
 -7.81654E+00 -5.12451E+00 -6.97075E+00 -6.21535E+00 -5.97424E+00 -7.16892E+00 -4.84900E+00 -7.96464E+00
 -3.61978E+00 -8.58540E+00 -2.31353E+00 -9.01793E+00 -9.58874E-01 -9.25311E+00 +4.14568E-01 -9.28611E+00
 +1.77681E+00 -9.11652E+00 +3.09817E+00 -8.74837E+00 +4.34988E+00 -8.19000E+00 +5.50475E+00 -7.45387E+00
 +6.53775E+00 -6.55634E+00 +7.42654E+00 -5.51721E+00 +8.15196E+00 -4.35939E+00 +8.69845E+00 -3.10831E+00
 +9.05437E+00 -1.79139E+00 +9.21226E+00 -4.37479E-01 +9.16897E+00 +9.23853E-01 +8.92578E+00 +2.26290E+00
 +8.48830E+00 +3.55049E+00 +7.86637E+00 +4.75862E+00 +7.07386E+00 +5.86107E+00 +6.12830E+00 +6.83396E+00
 +5.05057E+00 +7.65628E+00 +3.86439E+00 +8.31032E+00 +2.59578E+00 +8.78208E+00 +1.27254E+00 +9.06157E+00
 -7.63671E-02 +9.14298E+00 -1.42149E+00 +9.02486E+00 -2.73351E+00 +8.71009E+00 -3.98384E+00 +8.20585E+00
 -5.14533E+00 +7.52343E+00 -6.19277E+00 +6.67799E+00 -7.10351E+00 +5.68823E+00 -7.85788E+00 +4.57597E+00
 -8.43969E+00 +3.36565E+00 -8.83652E+00 +2.08382E+00 -9.04000E+00 +7.58557E-01 -9.04600E+00 -5.81169E-01
 -8.85470E+00 -1.90612E+00 -8.47057E+00 -3.18741E+00 -7.90230E+00 -4.39718E+00 -7.16258E+00 -5.50915E+00
 -6.26780E+00 -6.49921E+00 -5.23772E+00 -7.34598E+00 -4.09503E+00 -8.03120E+00 -2.86481E+00 -8.54018E+00
 -1.57405E+00 -8.86210E+00 -2.50979E-01 -8.99023E+00 +1.07549E+00 -8.92209E+00 +2.37641E+00 -8.65946E+00
 +3.62347E+00 -8.20838E+00 +4.78954E+00 -7.57898E+00 +5.84932E+00 -6.78527E+00 +6.77986E+00 -5.84482E+00
 +7.56108E+00 -4.77837E+00 +8.17616E+00 -3.60938E+00 +8.61195E+00 -2.36350E+00 +8.85923E+00 -1.06803E+00
 +8.91290E+00 +2.48698E-01 +8.77210E+00 +1.55794E+00 +8.44020E+00 +2.83114E+00 +7.92473E+00 +4.04061E+00
 +7.23724E+00 +5.16004E+00 +6.39298E+00 +6.16518E+00 +5.41062E+00 +7.03428E+00 +4.31179E+00 +7.74860E+00
 +3.12065E+00 +8.29279E+00 +1.86331E+00 +8.65527E+00 +5.67312E-01 +8.82841E+00 -7.39028E-01 +8.80872E+00
 -2.02720E+00 +8.59695E+00 -3.26914E+00 +8.19801E+00 -4.43782E+00 +7.62090E+00 -5.50789E+00 +6.87848E+00
 -6.45614E+00 +5.98721E+00 -7.26210E+00 +4.96675E+00 -7.90841E+00 +3.83957E+00 -8.38122E+00 +2.63042E+00
 -8.67049E+00 +1.36580E+00 -8.77021E+00 +7.33741E-02 -8.67849E+00 -1.21862E+00 -8.39763E+00 -2.48202E+00
 -7.93407E+00 -3.68929E+00 -7.29819E+00 -4.81421E+00 -6.50413E+00 -5.83236E+00 -5.56946E+00 -6.72172E+00
 -4.51479E+00 -7.46307E+00 -3.36331E+00 -8.04049E+00 -2.14028E+00 -8.44164E+00 -8.72494E-01 -8.65805E+00
 +4.12334E-01 -8.68529E+00 +1.68615E+00 -8.52305E+00 +2.92120E+00 -8.17519E+00 +4.09059E+00 -7.64957E+00
