 Created: 19-Jan-2021
 $NMID
 ID='D:\BASISSIMULATI'
 FMTDAT='(8E13.5)'
 VOLUME=   1.00000E+00
 TRAMP=   1.00000E+00
 $END
 +2.32739E+01 +3.97063E-01 +2.20916E+01 +3.68399E+00 +1.82949E+01 +6.67648E+00 +1.23486E+01 +9.16836E+00
 +4.97920E+00 +1.09736E+01 -2.91676E+00 +1.19341E+01 -1.03868E+01 +1.19314E+01 -1.65419E+01 +1.09020E+01
 -2.06663E+01 +8.85478E+00 -2.23037E+01 +5.88554E+00 -2.13091E+01 +2.18630E+00 -1.78594E+01 -1.95590E+00
 -1.24239E+01 -6.17303E+00 -5.69773E+00 -1.00442E+01 +1.49066E+00 -1.31364E+01 +8.28556E+00 -1.50545E+01
 +1.39099E+01 -1.54940E+01 +1.77569E+01 -1.42897E+01 +1.94561E+01 -1.14518E+01 +1.89072E+01 -7.18373E+00
 +1.62778E+01 -1.87579E+00 +1.19691E+01 +3.92679E+00 +6.55350E+00 +9.57912E+00 +6.95842E-01 +1.44101E+01
 -4.93148E+00 +1.78055E+01 -9.72807E+00 +1.92892E+01 -1.32299E+01 +1.85927E+01 -1.51519E+01 +1.57013E+01
 -1.54042E+01 +1.08694E+01 -1.40846E+01 +4.60186E+00 -1.14481E+01 -2.39858E+00 -7.86192E+00 -9.31225E+00
 -3.75309E+00 -1.53021E+01 +4.44494E-01 -1.96192E+01 +4.33570E+00 -2.17006E+01 +7.59827E+00 -2.12461E+01
 +1.00028E+01 -1.82624E+01 +1.14190E+01 -1.30694E+01 +1.18099E+01 -6.26529E+00 +1.12180E+01 +1.34420E+00
 +9.74805E+00 +8.84524E+00 +7.54930E+00 +1.53299E+01 +4.80087E+00 +2.00106E+01 +1.70139E+00 +2.23197E+01
 -1.53740E+00 +2.19815E+01 -4.69477E+00 +1.90460E+01 -7.54519E+00 +1.38821E+01 -9.86525E+00 +7.12882E+00
 -1.14452E+01 -3.86981E-01 -1.21058E+01 -7.75587E+00 -1.17194E+01 -1.41005E+01 -1.02328E+01 -1.86839E+01
 -7.68817E+00 -2.09985E+01 -4.23638E+00 -2.08232E+01 -1.40117E-01 -1.82431E+01 +4.23802E+00 -1.36304E+01
 +8.46291E+00 -7.58922E+00 +1.20688E+01 -8.73118E-01 +1.46118E+01 +5.71266E+00 +1.57272E+01 +1.14115E+01
 +1.51833E+01 +1.56051E+01 +1.29241E+01 +1.78816E+01 +9.09336E+00 +1.80739E+01 +4.03427E+00 +1.62663E+01
 -1.73705E+00 +1.27689E+01 -7.58348E+00 +8.06600E+00 -1.28187E+01 +2.74705E+00 -1.67911E+01 -2.57041E+00
 -1.89682E+01 -7.31471E+00 -1.90111E+01 -1.10221E+01 -1.68279E+01 -1.33797E+01 -1.25971E+01 -1.42465E+01
 -6.75701E+00 -1.36511E+01 +3.92582E-02 -1.17696E+01 +6.99866E+00 -8.88967E+00 +1.32842E+01 -5.36599E+00
 +1.81197E+01 -1.57491E+00 +2.08898E+01 +2.12582E+00 +2.12217E+01 +5.42804E+00 +1.90375E+01 +8.09269E+00
 +1.45693E+01 +9.95775E+00 +8.33419E+00 +1.09366E+01 +1.07277E+00 +1.10099E+01 -6.34241E+00 +1.02145E+01
 -1.30159E+01 +8.63266E+00 -1.81417E+01 +6.38408E+00 -2.11051E+01 +3.62054E+00 -2.15588E+01 +5.23757E-01
 -1.94656E+01 -2.69643E+00 -1.51004E+01 -5.80576E+00 -9.01302E+00 -8.55369E+00 -1.95569E+00 -1.06877E+01
 +5.21355E+00 -1.19744E+01 +1.16395E+01 -1.22255E+01 +1.65759E+01 -1.13263E+01 +1.94747E+01 -9.26205E+00
 +2.00490E+01 -6.13687E+00 +1.82996E+01 -2.18081E+00 +1.45060E+01 +2.25870E+00 +9.18143E+00 +6.74255E+00
 +3.00121E+00 +1.07818E+01 -3.28672E+00 +1.38923E+01 -8.95576E+00 +1.56546E+01 -1.33874E+01 +1.57737E+01
 -1.61398E+01 +1.41271E+01 -1.69902E+01 +1.07952E+01 -1.59483E+01 +6.06800E+00 -1.32390E+01 +4.23976E-01
 -9.26094E+00 -5.51737E+00 -4.52656E+00 -1.10648E+01 +4.06487E-01 -1.55388E+01 +5.00340E+00 -1.83582E+01
 +8.81084E+00 -1.91193E+01 +1.14998E+01 -1.76554E+01 +1.28888E+01 -1.40679E+01 +1.29469E+01 -8.72445E+00
 +1.17791E+01 -2.22144E+00 +9.59725E+00 +4.68391E+00 +6.68437E+00 +1.11651E+01 +3.35628E+00 +1.64290E+01
 -7.28864E-02 +1.98174E+01 -3.31783E+00 +2.08926E+01 -6.14009E+00 +1.94968E+01 -8.35678E+00 +1.57754E+01
 -9.84179E+00 +1.01625E+01 -1.05222E+01 +3.32808E+00 -1.03728E+01 -3.90483E+00 -9.41176E+00 -1.06634E+01
 -7.69844E+00 -1.61344E+01 -5.33390E+00 -1.96663E+01 -2.46310E+00 -2.08498E+01 +7.23902E-01 -1.95670E+01
 +3.99410E+00 -1.60025E+01 +7.07993E+00 -1.06167E+01 +9.69536E+00 -4.08364E+00 +1.15601E+01 +2.79713E+00
 +1.24300E+01 +9.20206E+00 +1.21307E+01 +1.43862E+01 +1.05891E+01 +1.77730E+01 +7.85801E+00 +1.90195E+01
 +4.12786E+00 +1.80508E+01 -2.77901E-01 +1.50589E+01 -4.92595E+00 +1.04681E+01 -9.31397E+00 +4.87365E+00
 -1.29258E+01 -1.03931E+00 -1.52946E+01 -6.58251E+00 -1.60659E+01 -1.11476E+01 -1.50516E+01 -1.42740E+01
 -1.22672E+01 -1.56944E+01 -7.94439E+00 -1.53528E+01 -2.51649E+00 -1.33962E+01 +3.42369E+00 -1.01410E+01
 +9.18982E+00 -6.02284E+00 +1.40842E+01 -1.53575E+00 +1.74855E+01 +2.82904E+00 +1.89315E+01 +6.63783E+00
 +1.81842E+01 +9.55593E+00 +1.52686E+01 +1.13724E+01 +1.04786E+01 +1.20069E+01 +4.34835E+00 +1.15009E+01
 -2.40911E+00 +9.99606E+00 -8.98736E+00 +7.70556E+00 -1.45869E+01 +4.88316E+00 -1.85163E+01 +1.79465E+00
 -2.02813E+01 -1.30504E+00 -1.96498E+01 -4.18743E+00 -1.66836E+01 -6.65905E+00 -1.17327E+01 -8.56437E+00
 -5.39259E+00 -9.78568E+00 +1.57017E+00 -1.02426E+01 +8.31457E+00 -9.89282E+00 +1.40308E+01 -8.73626E+00
 +1.80412E+01 -6.82077E+00 +1.98841E+01 -4.24907E+00 +1.93683E+01 -1.18378E+00 +1.65932E+01 +2.15261E+00
 +1.19309E+01 +5.48527E+00 +5.97486E+00 +8.50399E+00 -5.39230E-01 +1.08896E+01 -6.82790E+00 +1.23477E+01
 -1.21579E+01 +1.26474E+01 -1.59345E+01 +1.16572E+01 -1.77700E+01 +9.37545E+00 -1.75223E+01 +5.94730E+00
 -1.53024E+01 +1.66435E+00 -1.14490E+01 -3.05500E+00 -6.47640E+00 -7.70455E+00 -1.00330E+00 -1.17453E+01
 +4.32747E+00 -1.46700E+01 +8.92705E+00 -1.60702E+01 +1.23269E+01 -1.56948E+01 +1.42256E+01 -1.34934E+01
 +1.45118E+01 -9.63593E+00 +1.32617E+01 -4.50447E+00 +1.07146E+01 +1.34315E+00 +7.23031E+00 +7.23495E+00
 +3.23749E+00 +1.24646E+01 -8.21650E-01 +1.63797E+01 -4.54107E+00 +1.84664E+01 -7.59017E+00 +1.84204E+01
 -9.73893E+00 +1.61918E+01 -1.08677E+01 +1.19996E+01 -1.09630E+01 +6.31092E+00 -1.01025E+01 -2.12117E-01
 -8.43256E+00 -6.79237E+00 -6.14498E+00 -1.26338E+01 -3.45378E+00 -1.70217E+01 -5.77363E-01 -1.94141E+01
 +2.27415E+00 -1.95112E+01 +4.90628E+00 -1.72952E+01 +7.14395E+00 -1.30328E+01 +8.83379E+00 -7.24240E+00
 +9.84742E+00 -6.28127E-01 +1.00873E+01 +6.00907E+00 +9.49568E+00 +1.18724E+01 +8.06614E+00 +1.62689E+01
 +5.85522E+00 +1.86941E+01 +2.99150E+00 +1.88921E+01 -3.21348E-01 +1.68826E+01 -3.81053E+00 +1.29522E+01
 -7.15092E+00 +7.61300E+00 -9.99269E+00 +1.53243E+00 -1.19981E+01 -4.55317E+00 -1.28833E+01 -9.93148E+00
 -1.24599E+01 -1.40005E+01 -1.06704E+01 -1.63377E+01 -7.60984E+00 -1.67434E+01 -3.53136E+00 -1.52548E+01
 +1.16994E+00 -1.21292E+01 +5.99315E+00 -7.80120E+00 +1.03853E+01 -2.82028E+00 +1.38071E+01 +2.22183E+00
 +1.58018E+01 +6.76405E+00 +1.60590E+01 +1.03397E+01 +1.44632E+01 +1.26240E+01 +1.11203E+01 +1.34596E+01
 +6.35615E+00 +1.28607E+01 +6.86286E-01 +1.09948E+01 -5.24036E+00 +8.14902E+00 -1.07183E+01 +4.68563E+00
 -1.50729E+01 +9.93885E-01 -1.77469E+01 -2.55455E+00 -1.83750E+01 -5.64197E+00 -1.68357E+01 -8.02920E+00
 -1.32728E+01 -9.56715E+00 -8.08353E+00 -1.01963E+01 -1.87293E+00 -9.93707E+00 +4.61913E+00 -8.87370E+00
 +1.06095E+01 -7.13688E+00 +1.53701E+01 -4.88703E+00 +1.83203E+01 -2.30115E+00 +1.91002E+01 +4.36189E-01
 +1.76172E+01 +3.13835E+00 +1.40569E+01 +5.62013E+00 +8.85902E+00 +7.70163E+00 +2.66111E+00 +9.21440E+00
 -3.78314E+00 +1.00113E+01 -9.69923E+00 +9.98023E+00 -1.43886E+01 +9.06069E+00 -1.73143E+01 +7.26033E+00
 -1.81645E+01 +4.66844E+00 -1.68856E+01 +1.46252E+00 -1.36829E+01 -2.09531E+00 -8.98730E+00 -5.67401E+00
 -3.39526E+00 -8.90170E+00 +2.40992E+00 -1.14042E+01 +7.74521E+00 -1.28501E+01 +1.20110E+01 -1.29966E+01
 +1.47604E+01 -1.17295E+01 +1.57457E+01 -9.09110E+00 +1.49382E+01 -5.29028E+00 +1.25190E+01 -6.91332E-01
 +8.84535E+00 +4.21874E+00 +4.39626E+00 +8.88203E+00 -2.92000E-01 +1.27352E+01 -4.69320E+00 +1.52802E+01
 -8.35165E+00 +1.61519E+01 -1.09289E+01 +1.51718E+01 -1.22319E+01 +1.23807E+01 -1.22212E+01 +8.04429E+00
 -1.09994E+01 +2.62999E+00 -8.78433E+00 -3.24448E+00 -5.87260E+00 -8.88351E+00 -2.59794E+00 -1.35993E+01
 +7.07867E-01 -1.67993E+01 +3.74777E+00 -1.80638E+01 +6.28259E+00 -1.72038E+01 +8.14339E+00 -1.42893E+01
 +9.23373E+00 -9.64565E+00 +9.52419E+00 -3.81605E+00 +9.04204E+00 +2.50393E+00 +7.85939E+00 +8.55287E+00
 +6.08238E+00 +1.35988E+01 +3.84307E+00 +1.70316E+01 +1.29443E+00 +1.84397E+01 -1.39263E+00 +1.76613E+01
 -4.03171E+00 +1.48041E+01 -6.42537E+00 +1.02293E+01 -8.37321E+00 +4.50464E+00 -9.68500E+00 -1.66942E+00
 -1.01985E+01 -7.54881E+00 -9.80052E+00 -1.24391E+01 -8.44850E+00 -1.57805E+01 -6.18840E+00 -1.72144E+01
 -3.16526E+00 -1.66215E+01 +3.77313E-01 -1.41303E+01 +4.11101E+00 -1.00924E+01 +7.65041E+00 -5.03187E+00
 +1.05925E+01 +4.25765E-01 +1.25642E+01 +5.63396E+00 +1.32715E+01 +1.00046E+01 +1.25449E+01 +1.30762E+01
 +1.03718E+01 +1.45628E+01 +6.91243E+00 +1.43781E+01 +2.49379E+00 +1.26333E+01 -2.41903E+00 +9.61139E+00
 -7.27181E+00 +5.72125E+00 -1.14856E+01 +1.44060E+00 -1.45285E+01 -2.74511E+00 -1.59860E+01 -6.39919E+00
 -1.56195E+01 -9.17901E+00 -1.34052E+01 -1.08654E+01 -9.54646E+00 -1.13741E+01 -4.45706E+00 -1.07499E+01
 +1.28340E+00 -9.14643E+00 +6.99765E+00 -6.79618E+00 +1.19937E+01 -3.97614E+00 +1.56523E+01 -9.74014E-01
 +1.75066E+01 +1.94044E+00 +1.73048E+01 +4.53642E+00 +1.50456E+01 +6.63425E+00 +1.09819E+01 +8.10955E+00
 +5.59172E+00 +8.89104E+00 -4.79772E-01 +8.95488E+00 -6.50086E+00 +8.31808E+00 -1.17449E+01 +7.03313E+00
 -1.55815E+01 +5.18492E+00 -1.75557E+01 +2.88994E+00 -1.74435E+01 +2.96499E-01 -1.52787E+01 -2.41605E+00
 -1.13454E+01 -5.04140E+00 -6.13951E+00 -7.35551E+00 -3.03532E-01 -9.13202E+00 +5.45608E+00 -1.01635E+01
 +1.04579E+01 -1.02869E+01 +1.41290E+01 -9.40907E+00 +1.60729E+01 -7.52993E+00 +1.61130E+01 -4.75694E+00
 +1.43063E+01 -1.30820E+00 +1.09282E+01 +2.49880E+00 +6.43008E+00 +6.27348E+00 +1.37636E+00 +9.59182E+00
 -3.62900E+00 +1.20454E+01 -8.01752E+00 +1.32938E+01 -1.13226E+01 +1.31138E+01 -1.32294E+01 +1.14377E+01
 -1.36027E+01 +8.37360E+00 -1.24908E+01 +4.20577E+00 -1.01067E+01 -6.29826E-01 -6.79050E+00 -5.59087E+00
 -2.95955E+00 -1.00912E+01 +9.46076E-01 -1.35727E+01 +4.51573E+00 -1.55777E+01 +7.41126E+00 -1.58116E+01
 +9.39659E+00 -1.41876E+01 +1.03517E+01 -1.08451E+01 +1.02712E+01 -6.14069E+00 +9.24983E+00 -6.09641E-01
 +7.45918E+00 +5.09698E+00 +5.11931E+00 +1.02917E+01 +2.47094E+00 +1.43368E+01 -2.48967E-01 +1.67262E+01
 -2.82538E+00 +1.71514E+01 -5.07651E+00 +1.55429E+01 -6.85876E+00 +1.20819E+01 -8.06709E+00 +7.17901E+00
