 Created: 19-Jan-2021
 $NMID
 ID='D:\BASISSIMULATI'
 FMTDAT='(8E13.5)'
 VOLUME=   1.00000E+00
 TRAMP=   1.00000E+00
 $END
 +4.05394E+01 -2.11232E-01 +3.79505E+01 +1.27559E+01 +3.08846E+01 +2.36528E+01 +2.06089E+01 +3.09339E+01
 +8.88625E+00 +3.37477E+01 -2.37872E+00 +3.20663E+01 -1.15073E+01 +2.66433E+01 -1.73490E+01 +1.88183E+01
 -1.94582E+01 +1.02139E+01 -1.81160E+01 +2.39830E+00 -1.42004E+01 -3.41515E+00 -8.94537E+00 -6.56692E+00
 -3.64893E+00 -7.01552E+00 +6.02021E-01 -5.26297E+00 +3.12917E+00 -2.17108E+00 +3.74610E+00 +1.27983E+00
 +2.71915E+00 +4.22825E+00 +6.27621E-01 +6.10949E+00 -1.83237E+00 +6.73753E+00 -4.04615E+00 +6.28052E+00
 -5.63013E+00 +5.14725E+00 -6.49844E+00 +3.82274E+00 -6.83640E+00 +2.70219E+00 -6.99543E+00 +1.96899E+00
 -7.34488E+00 +1.54868E+00 -8.12545E+00 +1.14781E+00 -9.34732E+00 +3.63659E-01 -1.07621E+01 -1.16904E+00
 -1.19166E+01 -3.63738E+00 -1.22740E+01 -6.95679E+00 -1.13692E+01 -1.07528E+01 -8.95503E+00 -1.44257E+01
 -5.09896E+00 -1.72830E+01 -2.02101E-01 -1.87068E+01 +5.06817E+00 -1.83125E+01 +9.91689E+00 -1.60565E+01
 +1.35986E+01 -1.22652E+01 +1.55890E+01 -7.57315E+00 +1.57079E+01 -2.78568E+00 +1.41618E+01 +1.30310E+00
 +1.14946E+01 +4.09177E+00 +8.45605E+00 +5.30847E+00 +5.82052E+00 +5.06892E+00 +4.19899E+00 +3.84049E+00
 +3.89048E+00 +2.32037E+00 +4.80957E+00 +1.25674E+00 +6.50837E+00 +1.25618E+00 +8.28855E+00 +2.62414E+00
 +9.37702E+00 +5.27768E+00 +9.12345E+00 +8.75250E+00 +7.17224E+00 +1.23038E+01 +3.56717E+00 +1.50781E+01
 -1.23707E+00 +1.63159E+01 -6.46061E+00 +1.55380E+01 -1.11625E+01 +1.26712E+01 -1.44463E+01 +8.08426E+00
 -1.56601E+01 +2.52397E+00 -1.45461E+01 -3.03413E+00 -1.13052E+01 -7.58744E+00 -6.56321E+00 -1.03158E+01
 -1.24549E+00 -1.07527E+01 +3.61106E+00 -8.88085E+00 +7.06771E+00 -5.13342E+00 +8.46989E+00 -3.01837E-01
 +7.57076E+00 +4.62759E+00 +4.56831E+00 +8.67162E+00 +5.16863E-02 +1.10398E+01 -5.12799E+00 +1.12772E+01
 -1.00315E+01 +9.33281E+00 -1.38114E+01 +5.54421E+00 -1.58610E+01 +5.48102E-01 -1.59036E+01 -4.85998E+00
 -1.40097E+01 -9.88267E+00 -1.05450E+01 -1.38608E+01 -6.06921E+00 -1.63693E+01 -1.21064E+00 -1.72543E+01
 +3.45151E+00 -1.66115E+01 +7.47401E+00 -1.47193E+01 +1.05909E+01 -1.19492E+01 +1.27080E+01 -8.67761E+00
 +1.38609E+01 -5.22090E+00 +1.41546E+01 -1.80474E+00 +1.37055E+01 +1.43000E+00 +1.26039E+01 +4.39488E+00
 +1.09042E+01 +7.01081E+00 +8.64488E+00 +9.17225E+00 +5.88687E+00 +1.07332E+01 +2.75456E+00 +1.15221E+01
 -5.36898E-01 +1.13820E+01 -3.68167E+00 +1.02263E+01 -6.31579E+00 +8.09139E+00 -8.07792E+00 +5.16957E+00
 -8.68530E+00 +1.80863E+00 -8.00616E+00 -1.52733E+00 -6.10923E+00 -4.33105E+00 -3.27531E+00 -6.14499E+00
 +3.59665E-02 -6.65394E+00 +3.26004E+00 -5.75584E+00 +5.82849E+00 -3.59335E+00 +7.27624E+00 -5.36935E-01
 +7.33194E+00 +2.87883E+00 +5.97159E+00 +6.05354E+00 +3.42344E+00 +8.43360E+00 +1.22486E-01 +9.61556E+00
 -3.37551E+00 +9.41840E+00 -6.50228E+00 +7.91019E+00 -8.78438E+00 +5.38419E+00 -9.92717E+00 +2.29099E+00
 -9.85870E+00 -8.57640E-01 -8.72588E+00 -3.59157E+00 -6.84615E+00 -5.56983E+00 -4.62739E+00 -6.63479E+00
 -2.47528E+00 -6.82346E+00 -7.08989E-01 -6.33605E+00 +4.96473E-01 -5.47161E+00 +1.13050E+00 -4.54753E+00
 +1.32749E+00 -3.82205E+00 +1.31513E+00 -3.43756E+00 +1.34442E+00 -3.39641E+00 +1.61918E+00 -3.57278E+00
 +2.24165E+00 -3.75582E+00 +3.18636E+00 -3.71190E+00 +4.30704E+00 -3.25026E+00 +5.37352E+00 -2.27620E+00
 +6.12847E+00 -8.19743E-01 +6.35015E+00 +9.66034E-01 +5.90609E+00 +2.83554E+00 +4.78594E+00 +4.50193E+00
 +3.10687E+00 +5.69677E+00 +1.09138E+00 +6.22450E+00 -9.76012E-01 +6.00009E+00 -2.80301E+00 +5.06276E+00
 -4.14239E+00 +3.56450E+00 -4.83265E+00 +1.73761E+00 -4.81915E+00 -1.50155E-01 -4.15360E+00 -1.84250E+00
 -2.97433E+00 -3.13393E+00 -1.47408E+00 -3.89457E+00 +1.36414E-01 -4.07790E+00 +1.66091E+00 -3.71276E+00
 +2.94043E+00 -2.88460E+00 +3.86384E+00 -1.71244E+00 +4.36735E+00 -3.27719E-01 +4.42658E+00 +1.14035E+00
 +4.04647E+00 +2.57171E+00 +3.25333E+00 +3.85576E+00 +2.09222E+00 +4.88869E+00 +6.29543E-01 +5.57213E+00
 -1.04128E+00 +5.81647E+00 -2.79501E+00 +5.55066E+00 -4.47519E+00 +4.73719E+00 -5.90321E+00 +3.38880E+00
 -6.89689E+00 +1.58200E+00 -7.29654E+00 -5.37914E-01 -6.99413E+00 -2.76409E+00 -5.95918E+00 -4.84867E+00
 -4.25520E+00 -6.53479E+00 -2.04162E+00 -7.59501E+00 +4.41022E-01 -7.86916E+00 +2.90127E+00 -7.29417E+00
 +5.03789E+00 -5.91952E+00 +6.58484E+00 -3.90457E+00 +7.35196E+00 -1.49770E+00 +7.25397E+00 +9.99649E-01
 +6.32262E+00 +3.27745E+00 +4.69992E+00 +5.06245E+00 +2.61415E+00 +6.15638E+00 +3.43407E-01 +6.46090E+00
 -1.82654E+00 +5.98570E+00 -3.64258E+00 +4.83942E+00 -4.91628E+00 +3.20654E+00 -5.54312E+00 +1.31506E+00
 -5.50714E+00 -5.98466E-01 -4.87216E+00 -2.32070E+00 -3.76280E+00 -3.68533E+00 -2.34010E+00 -4.58646E+00
 -7.76504E-01 -4.98123E+00 +7.65689E-01 -4.88340E+00 +2.14964E+00 -4.35109E+00 +3.27234E+00 -3.47198E+00
 +4.06659E+00 -2.34916E+00 +4.49851E+00 -1.08968E+00 +4.56268E+00 +2.03272E-01 +4.27695E+00 +1.43497E+00
 +3.67818E+00 +2.52159E+00 +2.81937E+00 +3.39172E+00 +1.76759E+00 +3.98830E+00 +6.02017E-01 +4.27133E+00
 -5.89107E-01 +4.22118E+00 -1.71321E+00 +3.84199E+00 -2.67995E+00 +3.16365E+00 -3.40909E+00 +2.24179E+00
 -3.83867E+00 +1.15464E+00 -3.93207E+00 -3.00178E-03 -3.68286E+00 -1.12839E+00 -3.11633E+00 -2.12083E+00
 -2.28755E+00 -2.89186E+00 -1.27596E+00 -3.37409E+00 -1.77418E-01 -3.52774E+00 +9.05328E-01 -3.34407E+00
 +1.87248E+00 -2.84559E+00 +2.63635E+00 -2.08319E+00 +3.12891E+00 -1.13092E+00 +3.30736E+00 -7.89259E-02
 +3.15730E+00 +9.74606E-01 +2.69364E+00 +1.93185E+00 +1.95916E+00 +2.70361E+00 +1.02104E+00 +3.21689E+00
 -3.45984E-02 +3.42133E+00 -1.10989E+00 +3.29402E+00 -2.10359E+00 +2.84221E+00 -2.92029E+00 +2.10348E+00
 -3.47940E+00 +1.14317E+00 -3.72338E+00 +4.89212E-02 -3.62392E+00 -1.07715E+00 -3.18554E+00 -2.12818E+00
 -2.44583E+00 -3.00315E+00 -1.47230E+00 -3.61716E+00 -3.55905E-01 -3.91029E+00 +7.98006E-01 -3.85388E+00
 +1.88037E+00 -3.45357E+00 +2.78949E+00 -2.74874E+00 +3.44135E+00 -1.80826E+00 +3.77785E+00 -7.23328E-01
 +3.77239E+00 +4.01991E-01 +3.43201E+00 +1.46133E+00 +2.79610E+00 +2.35664E+00 +1.93196E+00 +3.00771E+00
 +9.27588E-01 +3.35976E+00 -1.17398E-01 +3.38834E+00 -1.10181E+00 +3.10117E+00 -1.93297E+00 +2.53671E+00
 -2.53579E+00 +1.75974E+00 -2.85994E+00 +8.54287E-01 -2.88437E+00 -8.52942E-02 -2.61882E+00 -9.64173E-01
 -2.10199E+00 -1.69680E+00 -1.39676E+00 -2.21549E+00 -5.82869E-01 -2.47689E+00 +2.51969E-01 -2.46571E+00
 +1.02154E+00 -2.19520E+00 +1.65012E+00 -1.70464E+00 +2.07989E+00 -1.05397E+00 +2.27610E+00 -3.16594E-01
 +2.22944E+00 +4.29009E-01 +1.95552E+00 +1.10763E+00 +1.49178E+00 +1.65476E+00 +8.92336E-01 +2.02241E+00
 +2.21535E-01 +2.18277E+00 -4.52959E-01 +2.12951E+00 -1.06685E+00 +1.87701E+00 -1.56500E+00 +1.45763E+00
 -1.90597E+00 +9.17626E-01 -2.06497E+00 +3.12121E-01 -2.03526E+00 -3.00354E-01 -1.82790E+00 -8.63336E-01
 -1.47001E+00 -1.32752E+00 -1.00167E+00 -1.65507E+00 -4.71686E-01 -1.82290E+00 +6.74817E-02 -1.82444E+00
 +5.65092E-01 -1.66983E+00 +9.77394E-01 -1.38433E+00 +1.27210E+00 -1.00504E+00 +1.43152E+00 -5.76224E-01
 +1.45389E+00 -1.43847E-01 +1.35260E+00 +2.50101E-01 +1.15343E+00 +5.72539E-01 +8.90138E-01 +8.02826E-01
 +5.99050E-01 +9.34290E-01 +3.13630E-01 +9.73508E-01 +5.98525E-02 +9.37500E-01 -1.46750E-01 +8.49385E-01
 -3.01901E-01 +7.33334E-01 -4.11190E-01 +6.09825E-01 -4.86826E-01 +4.92111E-01 -5.43296E-01 +3.84578E-01
 -5.92878E-01 +2.83246E-01 -6.41964E-01 +1.78238E-01 -6.88985E-01 +5.76089E-02 -7.24352E-01 -8.83121E-02
 -7.32399E-01 -2.63036E-01 -6.94926E-01 -4.61299E-01 -5.95600E-01 -6.68290E-01 -4.24355E-01 -8.60885E-01
 -1.80933E-01 -1.01070E+00 +1.23078E-01 -1.08842E+00 +4.64096E-01 -1.06874E+00 +8.08337E-01 -9.35033E-01
 +1.11531E+00 -6.83207E-01 +1.34259E+00 -3.24057E-01 +1.45129E+00 +1.16127E-01 +1.41163E+00 +5.96889E-01
 +1.20800E+00 +1.06684E+00 +8.42904E-01 +1.46861E+00 +3.39240E-01 +1.74527E+00 -2.59598E-01 +1.84755E+00
 -8.92227E-01 +1.74139E+00 -1.48458E+00 +1.41473E+00 -1.95787E+00 +8.82400E-01 -2.23864E+00 +1.88244E-01
 -2.26980E+00 -5.96747E-01 -2.02109E+00 -1.38063E+00 -1.49710E+00 -2.06091E+00 -7.41194E-01 -2.53829E+00
 +1.66255E-01 -2.73180E+00 +1.11578E+00 -2.59310E+00 +1.98248E+00 -2.11729E+00 +2.64370E+00 -1.34776E+00
 +2.99834E+00 -3.73601E-01 +2.98417E+00 +6.80855E-01 +2.59023E+00 +1.67322E+00 +1.86144E+00 +2.46454E+00
 +8.94018E-01 +2.94153E+00 -1.77912E-01 +3.03556E+00 -1.20282E+00 +2.73487E+00 -2.03580E+00 +2.08749E+00
 -2.56200E+00 +1.19397E+00 -2.71521E+00 +1.91103E-01 -2.48808E+00 -7.70655E-01 -1.93228E+00 -1.55190E+00
 -1.14838E+00 -2.04668E+00 -2.67738E-01 -2.19854E+00 +5.70342E-01 -2.00751E+00 +1.24171E+00 -1.52706E+00
 +1.65656E+00 -8.52020E-01 +1.77151E+00 -1.00369E-01 +1.59285E+00 +6.07628E-01 +1.17103E+00 +1.16873E+00
 +5.88422E-01 +1.51124E+00 -5.68890E-02 +1.60264E+00 -6.67719E-01 +1.44987E+00 -1.16189E+00 +1.09325E+00
 -1.48173E+00 +5.96271E-01 -1.59816E+00 +3.37870E-02 -1.51010E+00 -5.18988E-01 -1.24032E+00 -9.95050E-01
 -8.29797E-01 -1.34118E+00 -3.31878E-01 -1.52092E+00 +1.92733E-01 -1.51588E+00 +6.80327E-01 -1.32652E+00
 +1.06847E+00 -9.72995E-01 +1.30119E+00 -4.95769E-01 +1.33567E+00 +4.47053E-02 +1.15034E+00 +5.70927E-01
 +7.52985E-01 +9.95148E-01 +1.86874E-01 +1.23067E+00 -4.67842E-01 +1.20694E+00 -1.09970E+00 +8.86280E-01
 -1.57959E+00 +2.78651E-01 -1.78170E+00 -5.49548E-01 -1.60896E+00 -1.47641E+00 -1.01809E+00 -2.33731E+00
 -3.86211E-02 -2.94938E+00 +1.21961E+00 -3.14444E+00 +2.57438E+00 -2.80481E+00 +3.79522E+00 -1.89464E+00
 +4.64114E+00 -4.79301E-01 +4.90587E+00 +1.27313E+00 +4.46208E+00 +3.11082E+00 +3.29499E+00 +4.73627E+00
 +1.51743E+00 +5.85760E+00 -6.38794E-01 +6.24395E+00 -2.85573E+00 +5.77387E+00 -4.78141E+00 +4.46633E+00
 -6.09239E+00 +2.48676E+00 -6.55470E+00 +1.25276E-01 -6.07084E+00 -2.25014E+00 -4.70296E+00 -4.25747E+00
 -2.66637E+00 -5.56936E+00 -2.94075E-01 -5.97340E+00 +2.02176E+00 -5.41183E+00 +3.89991E+00 -3.99244E+00
 +5.03824E+00 -1.96852E+00 +5.26653E+00 +3.08338E-01 +4.57367E+00 +2.45303E+00 +3.10446E+00 +4.11618E+00
