 Created: 19-Jan-2021
 $NMID
 ID='D:\BASISSIMULATI'
 FMTDAT='(8E13.5)'
 VOLUME=   1.00000E+00
 TRAMP=   1.00000E+00
 $END
 +2.15007E+01 +1.34004E-01 +2.08302E+01 +5.10801E+00 +1.89426E+01 +9.73491E+00 +1.59801E+01 +1.37066E+01
 +1.21640E+01 +1.67680E+01 +7.77549E+00 +1.87373E+01 +3.13208E+00 +1.95194E+01 -1.43877E+00 +1.91117E+01
 -5.62665E+00 +1.76026E+01 -9.16313E+00 +1.51613E+01 -1.18427E+01 +1.20222E+01 -1.35377E+01 +8.46245E+00
 -1.42065E+01 +4.77779E+00 -1.38939E+01 +1.25633E+00 -1.27234E+01 -1.84588E+00 -1.08836E+01 -4.32592E+00
 -8.60854E+00 -6.04981E+00 -6.15471E+00 -6.96165E+00 -3.77643E+00 -7.08543E+00 -1.70232E+00 -6.51955E+00
 -1.14528E-01 -5.42449E+00 +8.67152E-01 -4.00502E+00 +1.19496E+00 -2.48865E+00 +8.95839E-01 -1.10231E+00
 +6.69517E-02 -4.94603E-02 -1.13550E+00 +5.10167E-01 -2.51301E+00 +4.76448E-01 -3.84543E+00 -1.81178E-01
 -4.91363E+00 -1.42051E+00 -5.52205E+00 -3.13044E+00 -5.51889E+00 -5.14144E+00 -4.81232E+00 -7.24171E+00
 -3.38090E+00 -9.19748E+00 -1.27746E+00 -1.07755E+01 +1.37403E+00 -1.17659E+01 +4.38823E+00 -1.20028E+01
 +7.53414E+00 -1.13811E+01 +1.05551E+01 -9.86843E+00 +1.31914E+01 -7.50990E+00 +1.52036E+01 -4.42614E+00
 +1.63941E+01 -8.04717E-01 +1.66252E+01 +3.11469E+00 +1.58323E+01 +7.05978E+00 +1.40306E+01 +1.07481E+01
 +1.13149E+01 +1.39107E+01 +7.85273E+00 +1.63143E+01 +3.87108E+00 +1.77812E+01 -3.62048E-01 +1.82037E+01
 -4.55931E+00 +1.75527E+01 -8.43735E+00 +1.58802E+01 -1.17396E+01 +1.33143E+01 -1.42568E+01 +1.00477E+01
 -1.58427E+01 +6.32166E+00 -1.64253E+01 +2.40547E+00 -1.60102E+01 -1.42605E+00 -1.46789E+01 -4.91484E+00
 -1.25795E+01 -7.84025E+00 -9.91218E+00 -1.00359E+01 -6.91120E+00 -1.14016E+01 -3.82367E+00 -1.19091E+01
 -8.88173E-01 -1.16016E+01 +1.68528E+00 -1.05867E+01 +3.73228E+00 -9.02478E+00 +5.14640E+00 -7.11167E+00
 +5.88604E+00 -5.05995E+00 +5.97520E+00 -3.07859E+00 +5.49827E+00 -1.35375E+00 +4.58937E+00 -3.22116E-02
 +3.41739E+00 +7.91033E-01 +2.16817E+00 +1.08008E+00 +1.02554E+00 +8.59620E-01 +1.52897E-01 +2.10646E-01
 -3.22826E-01 -7.39107E-01 -3.23486E-01 -1.82907E+00 +1.72841E-01 -2.88272E+00 +1.12992E+00 -3.72582E+00
 +2.45705E+00 -4.20427E+00 +4.01798E+00 -4.20003E+00 +5.64418E+00 -3.64340E+00 +7.15122E+00 -2.52086E+00
 +8.35669E+00 -8.77419E-01 +9.09805E+00 +1.18642E+00 +9.24867E+00 +3.52299E+00 +8.73070E+00 +5.95024E+00
 +7.52351E+00 +8.26772E+00 +5.66697E+00 +1.02745E+01 +3.25929E+00 +1.17870E+01 +4.49624E-01 +1.26560E+01
 -2.57396E+00 +1.27798E+01 -5.59992E+00 +1.21140E+01 -8.41090E+00 +1.06762E+01 -1.08018E+01 +8.54489E+00
 -1.25971E+01 +5.85377E+00 -1.36649E+01 +2.78062E+00 -1.39283E+01 -4.66978E-01 -1.33712E+01 -3.66860E+00
 -1.20391E+01 -6.60885E+00 -1.00346E+01 -9.09466E+00 -7.50899E+00 -1.09704E+01 -4.64845E+00 -1.21297E+01
 -1.65884E+00 -1.25227E+01 +1.25155E+00 -1.21591E+01 +3.88881E+00 -1.11049E+01 +6.08866E+00 -9.47584E+00
 +7.72880E+00 -7.42569E+00 +8.73725E+00 -5.13240E+00 +9.09622E+00 -2.78218E+00 +8.84116E+00 -5.53544E-01
 +8.05518E+00 +1.39748E+00 +6.85961E+00 +2.94963E+00 +5.40142E+00 +4.02524E+00 +3.83888E+00 +4.59484E+00
 +2.32673E+00 +4.67728E+00 +1.00218E+00 +4.33552E+00 -2.70126E-02 +3.66846E+00 -6.91239E-01 +2.79986E+00
 -9.64036E-01 +1.86519E+00 -8.62789E-01 +9.97894E-01 -4.45318E-01 +3.16211E-01 +1.97302E-01 -8.81888E-02
 +9.50905E-01 -1.58768E-01 +1.69041E+00 +1.20880E-01 +2.29279E+00 +7.25974E-01 +2.64970E+00 +1.59347E+00
 +2.67844E+00 +2.62865E+00 +2.33044E+00 +3.71463E+00 +1.59639E+00 +4.72399E+00 +5.07572E-01 +5.53131E+00
 -8.66599E-01 +6.02546E+00 -2.42464E+00 +6.12065E+00 -4.04205E+00 +5.76494E+00 -5.58252E+00 +4.94580E+00
 -6.91019E+00 +3.69197E+00 -7.90196E+00 +2.07165E+00 -8.45860E+00 +1.87029E-01 -8.51380E+00 -1.83406E+00
 -8.04031E+00 -3.84891E+00 -7.05257E+00 -5.71187E+00 -5.60588E+00 -7.28657E+00 -3.79187E+00 -8.45727E+00
 -1.73103E+00 -9.13837E+00 +4.37229E-01 -9.28128E+00 +2.56595E+00 -8.87807E+00 +4.51255E+00 -7.96171E+00
 +6.15011E+00 -6.60277E+00 +7.37725E+00 -4.90317E+00 +8.12559E+00 -2.98735E+00 +8.36434E+00 -9.91774E-01
 +8.10160E+00 +9.46244E-01 +7.38242E+00 +2.69952E+00 +6.28384E+00 +4.16080E+00 +4.90736E+00 +5.25052E+00
 +3.36969E+00 +5.92207E+00 +1.79250E+00 +6.16395E+00 +2.92202E-01 +5.99899E+00 -1.02944E+00 +5.48058E+00
 -2.09304E+00 +4.68654E+00 -2.84700E+00 +3.71099E+00 -3.27033E+00 +2.65535E+00 -3.37261E+00 +1.61894E+00
 -3.19120E+00 +6.90341E-01 -2.78615E+00 -6.00116E-02 -2.23332E+00 -5.85145E-01 -1.61624E+00 -8.64550E-01
 -1.01778E+00 -9.04592E-01 -5.12122E-01 -7.36409E-01 -1.57956E-01 -4.11580E-01 +6.66580E-03 +3.96564E-03
 -3.27190E-02 +4.37172E-01 -2.66354E-01 +8.15523E-01 -6.61977E-01 +1.07441E+00 -1.16863E+00 +1.16354E+00
 -1.72219E+00 +1.05181E+00 -2.25199E+00 +7.30241E-01 -2.68798E+00 +2.12755E-01 -2.96768E+00 -4.65274E-01
 -3.04233E+00 -1.25043E+00 -2.88166E+00 -2.07631E+00 -2.47690E+00 -2.86980E+00 -1.84176E+00 -3.55780E+00
 -1.01138E+00 -4.07395E+00 -3.92868E-02 -4.36468E+00 +1.00719E+00 -4.39403E+00 +2.05273E+00 -4.14689E+00
 +3.02047E+00 -3.63034E+00 +3.83849E+00 -2.87306E+00 +4.44577E+00 -1.92291E+00 +4.79718E+00 -8.42875E-01
 +4.86701E+00 +2.94191E-01 +4.65076E+00 +1.41153E+00 +4.16520E+00 +2.43468E+00 +3.44658E+00 +3.29729E+00
 +2.54739E+00 +3.94611E+00 +1.53176E+00 +4.34487E+00 +4.70142E-01 +4.47643E+00 -5.66348E-01 +4.34356E+00
 -1.51146E+00 +3.96784E+00 -2.30869E+00 +3.38723E+00 -2.91517E+00 +2.65236E+00 -3.30426E+00 +1.82198E+00
 -3.46675E+00 +9.57973E-01 -3.41046E+00 +1.20383E-01 -3.15866E+00 -6.37148E-01 -2.74712E+00 -1.27114E+00
 -2.22050E+00 -1.75099E+00 -1.62807E+00 -2.06044E+00 -1.01949E+00 -2.19775E+00 -4.40704E-01 -2.17471E+00
 +6.94851E-02 -2.01452E+00 +4.82004E-01 -1.74887E+00 +7.79097E-01 -1.41457E+00 +9.54802E-01 -1.04992E+00
 +1.01438E+00 -6.91248E-01 +9.72819E-01 -3.69947E-01 +8.52543E-01 -1.10097E-01 +6.80718E-01 +7.30269E-02
 +4.86279E-01 +1.73546E-01 +2.97057E-01 +1.94680E-01 +1.37222E-01 +1.47631E-01 +2.52558E-02 +4.98257E-02
 -2.73977E-02 -7.72971E-02 -1.69265E-02 -2.10704E-01 +5.30055E-02 -3.28168E-01 +1.72105E-01 -4.10430E-01
 +3.24858E-01 -4.42941E-01 +4.92339E-01 -4.17055E-01 +6.54222E-01 -3.30601E-01 +7.90804E-01 -1.87828E-01
 +8.84861E-01 +1.23755E-03 +9.23173E-01 +2.21916E-01 +8.97607E-01 +4.56358E-01 +8.05705E-01 +6.85221E-01
 +6.50743E-01 +8.89398E-01 +4.41300E-01 +1.05162E+00 +1.90416E-01 +1.15782E+00 -8.55784E-02 +1.19820E+00
 -3.68418E-01 +1.16783E+00 -6.39338E-01 +1.06690E+00 -8.80462E-01 +9.00524E-01 -1.07603E+00 +6.78224E-01
 -1.21342E+00 +4.13115E-01 -1.28383E+00 +1.20903E-01 -1.28274E+00 -1.81225E-01 -1.20999E+00 -4.75724E-01
 -1.06963E+00 -7.45752E-01 -8.69502E-01 -9.76114E-01 -6.20666E-01 -1.15404E+00 -3.36681E-01 -1.26979E+00
 -3.28221E-02 -1.31703E+00 +2.74738E-01 -1.29306E+00 +5.69733E-01 -1.19884E+00 +8.36565E-01 -1.03889E+00
 +1.06102E+00 -8.21022E-01 +1.23090E+00 -5.55974E-01 +1.33659E+00 -2.56952E-01 +1.37151E+00 +6.09449E-02
 +1.33251E+00 +3.81369E-01 +1.22008E+00 +6.87448E-01 +1.03849E+00 +9.62565E-01 +7.95747E-01 +1.19119E+00
 +5.03368E-01 +1.35971E+00 +1.75955E-01 +1.45725E+00 -1.69406E-01 +1.47642E+00 -5.13960E-01 +1.41391E+00
 -8.38258E-01 +1.27092E+00 -1.12327E+00 +1.05337E+00 -1.35154E+00 +7.71796E-01 -1.50839E+00 +4.40971E-01
 -1.58298E+00 +7.91696E-02 -1.56918E+00 -2.92819E-01 -1.46627E+00 -6.52943E-01 -1.27913E+00 -9.79314E-01
 -1.01822E+00 -1.25171E+00 -6.99041E-01 -1.45302E+00 -3.41183E-01 -1.57058E+00 +3.29117E-02 -1.59720E+00
 +3.99520E-01 -1.53182E+00 +7.35347E-01 -1.37972E+00 +1.01927E+00 -1.15225E+00 +1.23398E+00 -8.66073E-01
 +1.36733E+00 -5.41934E-01 +1.41334E+00 -2.03064E-01 +1.37269E+00 +1.26635E-01 +1.25271E+00 +4.24526E-01
 +1.06672E+00 +6.71087E-01 +8.32926E-01 +8.51537E-01 +5.72845E-01 +9.57070E-01 +3.09415E-01 +9.85587E-01
 +6.49449E-02 +9.41834E-01 -1.40896E-01 +8.36927E-01 -2.92884E-01 +6.87291E-01 -3.81658E-01 +5.13081E-01
 -4.04613E-01 +3.36242E-01 -3.66163E-01 +1.78357E-01 -2.77349E-01 +5.84881E-02 -1.54791E-01 -8.77844E-03
 -1.90737E-02 -1.49090E-02 +1.07289E-01 +4.15560E-02 +2.02152E-01 +1.54641E-01 +2.46062E-01 +3.11293E-01
 +2.24409E-01 +4.92450E-01 +1.29175E-01 +6.74731E-01 -3.98854E-02 +8.32633E-01 -2.74778E-01 +9.41008E-01
 -5.59574E-01 +9.77635E-01 -8.71497E-01 +9.25612E-01 -1.18271E+00 +7.75361E-01 -1.46268E+00 +5.26031E-01
 -1.68088E+00 +1.86150E-01 -1.80965E+00 -2.26566E-01 -1.82692E+00 -6.86256E-01 -1.71851E+00 -1.16075E+00
 -1.47990E+00 -1.61405E+00 -1.11711E+00 -2.00927E+00 -6.46787E-01 -2.31177E+00 -9.52749E-02 -2.49220E+00
 +5.03140E-01 -2.52924E+00 +1.10875E+00 -2.41166E+00 +1.67949E+00 -2.13969E+00 +2.17431E+00 -1.72534E+00
 +2.55650E+00 -1.19180E+00 +2.79677E+00 -5.71874E-01 +2.87579E+00 +9.44731E-02 +2.78586E+00 +7.63148E-01
 +2.53171E+00 +1.38939E+00 +2.13024E+00 +1.93135E+00 +1.60924E+00 +2.35337E+00 +1.00517E+00 +2.62889E+00
 +3.60270E-01 +2.74252E+00 -2.80860E-01 +2.69117E+00 -8.74892E-01 +2.48422E+00 -1.38323E+00 +2.14257E+00
 -1.77508E+00 +1.69672E+00 -2.02982E+00 +1.18412E+00 -2.13848E+00 +6.45843E-01 -2.10416E+00 +1.23101E-01
 -1.94145E+00 -3.46301E-01 -1.67485E+00 -7.31097E-01 -1.33623E+00 -1.00909E+00 -9.61836E-01 -1.16883E+00
 -5.88837E-01 -1.21028E+00 -2.51871E-01 -1.14444E+00 +2.01042E-02 -9.91996E-01 +2.06401E-01 -7.81013E-01
 +2.96379E-01 -5.44050E-01 +2.90255E-01 -3.14832E-01 +1.98867E-01 -1.24869E-01 +4.24310E-02 -2.92447E-04
 -1.51608E-01 +4.07555E-02 -3.51415E-01 -1.00265E-02 -5.24030E-01 -1.50208E-01 -6.38767E-01 -3.66773E-01
 -6.70401E-01 -6.37287E-01 -6.01873E-01 -9.31995E-01 -4.26230E-01 -1.21665E+00 -1.47627E-01 -1.45580E+00
 +2.18710E-01 -1.61628E+00 +6.47574E-01 -1.67050E+00 +1.10583E+00 -1.59929E+00 +1.55523E+00 -1.39409E+00
 +1.95579E+00 -1.05805E+00 +2.26934E+00 -6.06244E-01 +2.46305E+00 -6.46998E-02 +2.51247E+00 +5.31521E-01
 +2.40395E+00 +1.14110E+00 +2.13608E+00 +1.71982E+00 +1.72014E+00 +2.22425E+00 +1.17942E+00 +2.61539E+00
 +5.47512E-01 +2.86198E+00 -1.34278E-01 +2.94315E+00 -8.20230E-01 +2.85028E+00 -1.46385E+00 +2.58775E+00
 -2.02161E+00 +2.17261E+00 -2.45641E+00 +1.63326E+00 -2.74053E+00 +1.00709E+00 -2.85770E+00 +3.37438E-01
