 Created: 19-Jan-2021
 $NMID
 ID='D:\BASISSIMULATI'
 FMTDAT='(8E13.5)'
 VOLUME=   1.00000E+00
 TRAMP=   1.00000E+00
 $END
 +3.19331E+01 -6.21596E-01 +2.88759E+01 +1.32211E+01 +1.99845E+01 +2.40885E+01 +7.36642E+00 +2.96662E+01
 -6.05788E+00 +2.89459E+01 -1.72990E+01 +2.24358E+01 -2.40385E+01 +1.19765E+01 -2.51708E+01 +2.21060E-01
 -2.10093E+01 -1.00718E+01 -1.31148E+01 -1.67375E+01 -3.80803E+00 -1.87120E+01 +4.48846E+00 -1.62169E+01
 +9.89288E+00 -1.05919E+01 +1.15169E+01 -3.83655E+00 +9.61534E+00 +1.99469E+00 +5.40905E+00 +5.36941E+00
 +6.49423E-01 +5.66575E+00 -2.93697E+00 +3.27494E+00 -4.15895E+00 -5.94890E-01 -2.68289E+00 -4.33987E+00
 +9.15757E-01 -6.47259E+00 +5.37165E+00 -6.07210E+00 +9.14144E+00 -3.04421E+00 +1.08786E+01 +1.87371E+00
 +9.83005E+00 +7.35175E+00 +6.04329E+00 +1.18687E+01 +3.34352E-01 +1.41509E+01 -5.96161E+00 +1.35201E+01
 -1.13727E+01 +1.00560E+01 -1.46879E+01 +4.53872E+00 -1.52563E+01 -1.79817E+00 -1.31085E+01 -7.61809E+00
 -8.88245E+00 -1.18277E+01 -3.59158E+00 -1.38197E+01 +1.68054E+00 -1.35521E+01 +6.06131E+00 -1.14598E+01
 +9.06422E+00 -8.24517E+00 +1.06179E+01 -4.62833E+00 +1.09597E+01 -1.14352E+00 +1.04484E+01 +1.95636E+00
 +9.37474E+00 +4.66680E+00 +7.84163E+00 +7.09805E+00 +5.75771E+00 +9.30351E+00 +2.94287E+00 +1.11456E+01
 -6.99285E-01 +1.22597E+01 -5.01373E+00 +1.21387E+01 -9.50482E+00 +1.03177E+01 -1.33744E+01 +6.59452E+00
 -1.56928E+01 +1.20596E+00 -1.56602E+01 -5.11310E+00 -1.28798E+01 -1.12277E+01 -7.55265E+00 -1.58465E+01
 -5.19460E-01 -1.78516E+01 +6.87931E+00 -1.66208E+01 +1.31030E+01 -1.22435E+01 +1.67939E+01 -5.55670E+00
 +1.71378E+01 +2.02306E+00 +1.40987E+01 +8.83686E+00 +8.45119E+00 +1.34020E+01 +1.59477E+00 +1.47972E+01
 -4.80630E+00 +1.29059E+01 -9.26125E+00 +8.44265E+00 -1.08475E+01 +2.75406E+00 -9.45022E+00 -2.55656E+00
 -5.77736E+00 -6.07523E+00 -1.14379E+00 -6.96934E+00 +2.91562E+00 -5.21371E+00 +5.09487E+00 -1.58563E+00
 +4.69960E+00 +2.57124E+00 +1.85381E+00 +5.74761E+00 -2.53005E+00 +6.72018E+00 -7.01086E+00 +4.92484E+00
 -1.00363E+01 +6.43911E-01 -1.04003E+01 -5.04821E+00 -7.61089E+00 -1.05682E+01 -2.06306E+00 -1.42588E+01
 +5.03357E+00 -1.48544E+01 +1.19556E+01 -1.18495E+01 +1.69137E+01 -5.66586E+00 +1.85268E+01 +2.42773E+00
 +1.61942E+01 +1.06225E+01 +1.02650E+01 +1.70215E+01 +1.96294E+00 +2.01162E+01 -6.91333E+00 +1.91612E+01
 -1.44326E+01 +1.43522E+01 -1.89987E+01 +6.76539E+00 -1.97228E+01 -1.92174E+00 -1.66088E+01 -9.84723E+00
 -1.05128E+01 -1.54099E+01 -2.89593E+00 -1.76288E+01 +4.55474E+00 -1.63302E+01 +1.03351E+01 -1.21273E+01
 +1.34574E+01 -6.20937E+00 +1.36304E+01 -9.28275E-03 +1.12529E+01 +5.15785E+00 +7.23855E+00 +8.39115E+00
 +2.73304E+00 +9.36599E+00 -1.19493E+00 +8.33372E+00 -3.80497E+00 +5.97611E+00 -4.82056E+00 +3.16841E+00
 -4.42630E+00 +7.23576E-01 -3.14384E+00 -8.12326E-01 -1.63452E+00 -1.26471E+00 -4.91245E-01 -8.19149E-01
 -7.79786E-02 +8.83795E-02 -4.55313E-01 +9.37037E-01 -1.40216E+00 +1.28921E+00 -2.51541E+00 +9.13658E-01
 -3.34981E+00 -1.65390E-01 -3.55337E+00 -1.69770E+00 -2.96096E+00 -3.29676E+00 -1.62523E+00 -4.55664E+00
 +2.15093E-01 -5.15983E+00 +2.21150E+00 -4.94751E+00 +3.99875E+00 -3.93911E+00 +5.27629E+00 -2.30480E+00
 +5.85848E+00 -3.07692E-01 +5.68704E+00 +1.76170E+00 +4.81244E+00 +3.63859E+00 +3.35923E+00 +5.11355E+00
 +1.49221E+00 +6.03846E+00 -6.04690E-01 +6.31810E+00 -2.73412E+00 +5.90067E+00 -4.68189E+00 +4.77830E+00
 -6.21628E+00 +3.00117E+00 -7.10195E+00 +6.99980E-01 -7.13398E+00 -1.89619E+00 -6.18843E+00 -4.46140E+00
 -4.27575E+00 -6.60455E+00 -1.57832E+00 -7.93259E+00 +1.54637E+00 -8.13465E+00 +4.60735E+00 -7.06670E+00
 +7.06468E+00 -4.81186E+00 +8.44106E+00 -1.69451E+00 +8.43416E+00 +1.76288E+00 +6.99970E+00 +4.93627E+00
 +4.38020E+00 +7.23033E+00 +1.06714E+00 +8.21179E+00 -2.29861E+00 +7.71187E+00 -5.06628E+00 +5.87006E+00
 -6.72119E+00 +3.10555E+00 -7.00052E+00 +2.13806E-02 -5.94927E+00 -2.73601E+00 -3.90169E+00 -4.62700E+00
 -1.39274E+00 -5.34093E+00 +9.77626E-01 -4.85946E+00 +2.69233E+00 -3.44588E+00 +3.43935E+00 -1.56445E+00
 +3.17731E+00 +2.48005E-01 +2.12929E+00 +1.52385E+00 +7.08268E-01 +1.98252E+00 -6.04049E-01 +1.59446E+00
 -1.39182E+00 +5.75996E-01 -1.41712E+00 -6.81387E-01 -6.80335E-01 -1.72671E+00 +5.85644E-01 -2.17806E+00
 +1.98415E+00 -1.82949E+00 +3.06664E+00 -7.08445E-01 +3.45717E+00 +9.30494E-01 +2.95632E+00 +2.67248E+00
 +1.59781E+00 +4.05129E+00 -3.56004E-01 +4.67114E+00 -2.47744E+00 +4.30990E+00 -4.27843E+00 +2.97774E+00
 -5.32971E+00 +9.17626E-01 -5.36457E+00 -1.45145E+00 -4.34184E+00 -3.63278E+00 -2.45434E+00 -5.16703E+00
 -8.23322E-02 -5.73590E+00 +2.29485E+00 -5.23041E+00 +4.20670E+00 -3.76917E+00 +5.29319E+00 -1.66494E+00
 +5.37715E+00 +6.50451E-01 +4.49280E+00 +2.72342E+00 +2.86655E+00 +4.17498E+00 +8.57676E-01 +4.77487E+00
 -1.12546E+00 +4.47864E+00 -2.71319E+00 +3.42239E+00 -3.64713E+00 +1.87970E+00 -3.82301E+00 +1.93207E-01
 -3.29723E+00 -1.30207E+00 -2.25899E+00 -2.34666E+00 -9.77322E-01 -2.80190E+00 +2.63345E-01 -2.66523E+00
 +1.22412E+00 -2.05514E+00 +1.75645E+00 -1.17213E+00 +1.82290E+00 -2.46290E-01 +1.49179E+00 +5.15710E-01
 +9.09632E-01 +9.72979E-01 +2.59273E-01 +1.07389E+00 -2.85564E-01 +8.57493E-01 -5.99301E-01 +4.34582E-01
 -6.29004E-01 -4.56405E-02 -4.00218E-01 -4.34729E-01 -4.30089E-03 -6.20853E-01 +4.28579E-01 -5.53601E-01
 +7.63797E-01 -2.52888E-01 +8.95804E-01 +1.99085E-01 +7.73328E-01 +6.80153E-01 +4.10895E-01 +1.05908E+00
 -1.15403E-01 +1.22768E+00 -6.86447E-01 +1.12694E+00 -1.16836E+00 +7.61199E-01 -1.44390E+00 +1.97627E-01
 -1.43984E+00 -4.48787E-01 -1.14415E+00 -1.04110E+00 -6.09346E-01 -1.45118E+00 +5.88441E-02 -1.58846E+00
 +7.24590E-01 -1.42017E+00 +1.25177E+00 -9.78622E-01 +1.53365E+00 -3.54047E-01 +1.51587E+00 +3.25346E-01
 +1.20763E+00 +9.21449E-01 +6.78753E-01 +1.31613E+00 +4.35879E-02 +1.43622E+00 -5.64608E-01 +1.26823E+00
 -1.02277E+00 +8.59582E-01 -1.24418E+00 +3.06593E-01 -1.19591E+00 -2.67955E-01 -9.03926E-01 -7.42313E-01
 -4.45154E-01 -1.02212E+00 +7.14285E-02 -1.05979E+00 +5.30033E-01 -8.62899E-01 +8.33834E-01 -4.89964E-01
 +9.25493E-01 -3.51622E-02 +7.98028E-01 +3.94337E-01 +4.93925E-01 +7.02976E-01 +9.31438E-02 +8.27735E-01
 -3.06846E-01 +7.50764E-01 -6.14114E-01 +5.01161E-01 -7.62992E-01 +1.45910E-01 -7.27783E-01 -2.27460E-01
 -5.26560E-01 -5.32149E-01 -2.14605E-01 -7.02127E-01 +1.30507E-01 -7.06308E-01 +4.28265E-01 -5.53787E-01
 +6.14236E-01 -2.89321E-01 +6.54209E-01 +1.93718E-02 +5.50350E-01 +2.99059E-01 +3.38298E-01 +4.88741E-01
 +7.63799E-02 +5.53402E-01 -1.70016E-01 +4.90648E-01 -3.44850E-01 +3.28990E-01 -4.14563E-01 +1.18632E-01
 -3.74851E-01 -8.25729E-02 -2.49744E-01 -2.24280E-01 -8.35698E-02 -2.76082E-01 +7.18426E-02 -2.34221E-01
 +1.71293E-01 -1.21125E-01 +1.88027E-01 +2.18238E-02 +1.20318E-01 +1.46209E-01 -8.71288E-03 +2.09994E-01
 -1.57782E-01 +1.88942E-01 -2.78792E-01 +8.31922E-02 -3.29825E-01 -8.25995E-02 -2.86484E-01 -2.65464E-01
 -1.48734E-01 -4.15004E-01 +5.83802E-02 -4.86199E-01 +2.90241E-01 -4.50940E-01 +4.92994E-01 -3.05533E-01
 +6.16177E-01 -7.24195E-02 +6.24669E-01 +2.04236E-01 +5.07203E-01 +4.67986E-01 +2.79555E-01 +6.62401E-01
 -1.82447E-02 +7.43432E-01 -3.30008E-01 +6.89151E-01 -5.94980E-01 +5.04769E-01 -7.60429E-01 +2.21921E-01
 -7.92558E-01 -1.07585E-01 -6.83477E-01 -4.22186E-01 -4.52824E-01 -6.62957E-01 -1.43743E-01 -7.85380E-01
 +1.85879E-01 -7.68088E-01 +4.75064E-01 -6.16794E-01 +6.71833E-01 -3.62684E-01 +7.43243E-01 -5.56839E-02
 +6.81332E-01 +2.45902E-01 +5.03840E-01 +4.87155E-01 +2.49692E-01 +6.27236E-01 -2.96559E-02 +6.46802E-01
 -2.81044E-01 +5.50731E-01 -4.60272E-01 +3.65751E-01 -5.40333E-01 +1.33701E-01 -5.15611E-01 -9.79299E-02
 -4.01333E-01 -2.86017E-01 -2.28693E-01 -4.00184E-01 -3.69649E-02 -4.27812E-01 +1.35434E-01 -3.74815E-01
 +2.58848E-01 -2.62311E-01 +3.17544E-01 -1.20285E-01 +3.11162E-01 +2.00206E-02 +2.52473E-01 +1.33054E-01
 +1.62370E-01 +2.03636E-01 +6.36454E-02 +2.28441E-01 -2.46856E-02 +2.14298E-01 -9.10760E-02 +1.74151E-01
 -1.32390E-01 +1.22141E-01 -1.52204E-01 +6.93385E-02 -1.57349E-01 +2.13768E-02 -1.54065E-01 -2.15192E-02
 -1.45135E-01 -6.23862E-02 -1.28962E-01 -1.04257E-01 -1.00829E-01 -1.47102E-01 -5.57951E-02 -1.86185E-01
 +7.91598E-03 -2.12552E-01 +8.63444E-02 -2.15550E-01 +1.69133E-01 -1.86596E-01 +2.41209E-01 -1.22876E-01
 +2.86437E-01 -2.96356E-02 +2.92175E-01 +7.98937E-02 +2.53254E-01 +1.87113E-01 +1.74031E-01 +2.72572E-01
 +6.77009E-02 +3.21030E-01 -4.70627E-02 +3.25471E-01 -1.51176E-01 +2.88697E-01 -2.30329E-01 +2.21911E-01
 -2.78554E-01 +1.40630E-01 -2.98905E-01 +5.92607E-02 -3.00876E-01 -1.38256E-02 -2.95328E-01 -7.88747E-02
 -2.88625E-01 -1.43844E-01 -2.78165E-01 -2.19990E-01 -2.51219E-01 -3.15194E-01 -1.88066E-01 -4.27244E-01
 -6.90280E-02 -5.39615E-01 +1.16414E-01 -6.21818E-01 +3.61235E-01 -6.35140E-01 +6.36232E-01 -5.42942E-01
 +8.91425E-01 -3.23090E-01 +1.06422E+00 +2.09660E-02 +1.09319E+00 +4.54030E-01 +9.34329E-01 +9.10538E-01
 +5.75890E-01 +1.30429E+00 +4.73395E-02 +1.54509E+00 -5.80435E-01 +1.55894E+00 -1.20482E+00 +1.30699E+00
 -1.70967E+00 +7.98566E-01 -1.98839E+00 +9.46354E-02 -1.96686E+00 -6.99824E-01 -1.62107E+00 -1.45341E+00
 -9.85195E-01 -2.03246E+00 -1.48211E-01 -2.32672E+00 +7.60659E-01 -2.27115E+00 +1.59460E+00 -1.85940E+00
 +2.21547E+00 -1.14609E+00 +2.51840E+00 -2.37841E-01 +2.45018E+00 +7.25210E-01 +2.01805E+00 +1.59348E+00
 +1.28784E+00 +2.23311E+00 +3.72187E-01 +2.54780E+00 -5.88661E-01 +2.49371E+00 -1.44998E+00 +2.08534E+00
 -2.08572E+00 +1.39190E+00 -2.40808E+00 +5.25084E-01 -2.38066E+00 -3.79713E-01 -2.02326E+00 -1.18564E+00
 -1.40747E+00 -1.77683E+00 -6.43679E-01 -2.07737E+00 +1.38701E-01 -2.06363E+00 +8.14851E-01 -1.76744E+00
 +1.28777E+00 -1.26883E+00 +1.50665E+00 -6.79140E-01 +1.47612E+00 -1.16961E-01 +1.25362E+00 +3.18253E-01
 +9.34304E-01 +5.69181E-01 +6.25963E-01 +6.34257E-01 +4.19331E-01 +5.67536E-01 +3.61025E-01 +4.63359E-01
 +4.36852E-01 +4.28232E-01 +5.71417E-01 +5.46262E-01 +6.46273E-01 +8.47201E-01 +5.33906E-01 +1.28676E+00
 +1.39890E-01 +1.74676E+00 -5.57963E-01 +2.05812E+00 -1.48542E+00 +2.04345E+00 -2.47203E+00 +1.56998E+00
