 Created: 19-Jan-2021
 $NMID
 ID='D:\BASISSIMULATI'
 FMTDAT='(8E13.5)'
 VOLUME=   1.00000E+00
 TRAMP=   1.00000E+00
 $END
 +3.39070E+01 +4.56054E-01 +3.29823E+01 +6.28417E+00 +3.07233E+01 +1.17170E+01 +2.72659E+01 +1.64726E+01
 +2.28090E+01 +2.03109E+01 +1.76009E+01 +2.30473E+01 +1.19249E+01 +2.45623E+01 +6.08168E+00 +2.48070E+01
 +3.72025E-01 +2.38046E+01 -4.92088E+00 +2.16470E+01 -9.54701E+00 +1.84875E+01 -1.33030E+01 +1.45303E+01
 -1.60420E+01 +1.00166E+01 -1.76804E+01 +5.20945E+00 -1.81998E+01 +3.77499E-01 -1.76455E+01 -4.22109E+00
 -1.61207E+01 -8.35329E+00 -1.37776E+01 -1.18239E+01 -1.08062E+01 -1.44854E+01 -7.42045E+00 -1.62441E+01
 -3.84425E+00 -1.70636E+01 -2.97347E-01 -1.69632E+01 +3.01795E+00 -1.60143E+01 +5.92819E+00 -1.43325E+01
 +8.29778E+00 -1.20687E+01 +1.00351E+01 -9.39672E+00 +1.10954E+01 -6.50198E+00 +1.14808E+01 -3.56874E+00
 +1.12368E+01 -7.68732E-01 +1.04465E+01 +1.74882E+00 +9.22275E+00 +3.86519E+00 +7.69867E+00 +5.49761E+00
 +6.01728E+00 +6.60213E+00 +4.32133E+00 +7.17365E+00 +2.74364E+00 +7.24346E+00 +1.39867E+00 +6.87450E+00
 +3.75839E-01 +6.15478E+00 -2.65127E-01 +5.18952E+00 -4.96504E-01 +4.09270E+00 -3.22657E-01 +2.97841E+00
 +2.22077E-01 +1.95281E+00 +1.07740E+00 +1.10708E+00 +2.16259E+00 +5.11756E-01 +3.38313E+00 +2.12883E-01
 +4.63788E+00 +2.29960E-01 +5.82639E+00 +5.55846E-01 +6.85568E+00 +1.15846E+00 +7.64632E+00 +1.98408E+00
 +8.13729E+00 +2.96194E+00 +8.28932E+00 +4.00969E+00 +8.08684E+00 +5.03950E+00 +7.53815E+00 +5.96411E+00
 +6.67427E+00 +6.70270E+00 +5.54623E+00 +7.18607E+00 +4.22135E+00 +7.36095E+00 +2.77872E+00 +7.19305E+00
 +1.30404E+00 +6.66902E+00 -1.15633E-01 +5.79696E+00 -1.39702E+00 +4.60569E+00 -2.46537E+00 +3.14291E+00
 -3.25853E+00 +1.47234E+00 -3.73017E+00 -3.30024E-01 -3.85203E+00 -2.18004E+00 -3.61514E+00 -3.99002E+00
 -3.02998E+00 -5.67322E+00 -2.12559E+00 -7.14834E+00 -9.47866E-01 -8.34346E+00 +4.43066E-01 -9.19953E+00
 +1.97599E+00 -9.67312E+00 +3.57226E+00 -9.73837E+00 +5.14974E+00 -9.38811E+00 +6.62680E+00 -8.63409E+00
 +7.92628E+00 -7.50632E+00 +8.97913E+00 -6.05169E+00 +9.72774E+00 -4.33171E+00 +1.01286E+01 -2.41979E+00
 +1.01546E+01 -3.97853E-01 +9.79604E+00 +1.64731E+00 +9.06159E+00 +3.62796E+00 +7.97784E+00 +5.45940E+00
 +6.58830E+00 +7.06379E+00 +4.95156E+00 +8.37373E+00 +3.13872E+00 +9.33543E+00 +1.23022E+00 +9.91120E+00
 -6.87815E-01 +1.00814E+01 -2.52764E+00 +9.84523E+00 -4.20404E+00 +9.22122E+00 -5.63845E+00 +8.24613E+00
 -6.76289E+00 +6.97339E+00 -7.52344E+00 +5.47055E+00 -7.88305E+00 +3.81597E+00 -7.82362E+00 +2.09493E+00
 -7.34708E+00 +3.95299E-01 -6.47557E+00 -1.19694E+00 -5.25045E+00 -2.60222E+00 -3.73034E+00 -3.75155E+00
 -1.98825E+00 -4.59020E+00 -1.07834E-01 -5.08065E+00 +1.82094E+00 -5.20461E+00 +3.70653E+00 -4.96399E+00
 +5.46064E+00 -4.38072E+00 +7.00296E+00 -3.49550E+00 +8.26544E+00 -2.36535E+00 +9.19588E+00 -1.06032E+00
 +9.76062E+00 +3.40602E-01 +9.94617E+00 +1.75419E+00 +9.75970E+00 +3.09780E+00 +9.22820E+00 +4.29427E+00
 +8.39663E+00 +5.27643E+00 +7.32487E+00 +5.99095E+00 +6.08391E+00 +6.40144E+00 +4.75130E+00 +6.49034E+00
 +3.40636E+00 +6.25982E+00 +2.12527E+00 +5.73124E+00 +9.76447E-01 +4.94359E+00 +1.64943E-02 +3.95072E+00
 -7.13044E-01 +2.81770E+00 -1.18790E+00 +1.61651E+00 -1.40213E+00 +4.21310E-01 -1.36795E+00 -6.96358E-01
 -1.11440E+00 -1.67213E+00 -6.84835E-01 -2.45287E+00 -1.33541E-01 -2.99990E+00 +4.78327E-01 -3.29127E+00
 +1.08726E+00 -3.32282E+00 +1.63197E+00 -3.10810E+00 +2.05785E+00 -2.67707E+00 +2.32075E+00 -2.07369E+00
 +2.39020E+00 -1.35263E+00 +2.25152E+00 -5.75225E-01 +1.90682E+00 +1.94923E-01 +1.37489E+00 +8.96493E-01
 +6.89873E-01 +1.47479E+00 -1.01135E-01 +1.88559E+00 -9.41371E-01 +2.09828E+00 -1.76838E+00 +2.09795E+00
 -2.51841E+00 +1.88652E+00 -3.13090E+00 +1.48255E+00 -3.55279E+00 +9.20051E-01 -3.74235E+00 +2.46106E-01
 -3.67227E+00 -4.82349E-01 -3.33181E+00 -1.20246E+00 -2.72788E+00 -1.84979E+00 -1.88490E+00 -2.36284E+00
 -8.43613E-01 -2.68736E+00 +3.41273E-01 -2.78024E+00 +1.60432E+00 -2.61269E+00 +2.87333E+00 -2.17256E+00
 +4.07375E+00 -1.46550E+00 +5.13330E+00 -5.15121E-01 +5.98648E+00 +6.38133E-01 +6.57867E+00 +1.93907E+00
 +6.86963E+00 +3.32088E+00 +6.83605E+00 +4.70893E+00 +6.47321E+00 +6.02517E+00 +5.79541E+00 +7.19272E+00
 +4.83531E+00 +8.14050E+00 +3.64219E+00 +8.80744E+00 +2.27912E+00 +9.14625E+00 +8.19490E-01 +9.12635E+00
 -6.57279E-01 +8.73581E+00 -2.07021E+00 +7.98225E+00 -3.34142E+00 +6.89265E+00 -4.40054E+00 +5.51200E+00
 -5.18876E+00 +3.90095E+00 -5.66209E+00 +2.13256E+00 -5.79388E+00 +2.88418E-01 -5.57626E+00 -1.54581E+00
 -5.02055E+00 -3.28494E+00 -4.15657E+00 -4.84881E+00 -3.03090E+00 -6.16657E+00 -1.70424E+00 -7.18032E+00
 -2.47984E-01 -7.84811E+00 +1.25978E+00 -8.14594E+00 +2.73862E+00 -8.06885E+00 +4.11016E+00 -7.63084E+00
 +5.30235E+00 -6.86390E+00 +6.25335E+00 -5.81588E+00 +6.91477E+00 -4.54772E+00 +7.25413E+00 -3.12986E+00
 +7.25642E+00 -1.63827E+00 +6.92467E+00 -1.50196E-01 +6.27949E+00 +1.26003E+00 +5.35767E+00 +2.52499E+00
 +4.20982E+00 +3.58765E+00 +2.89744E+00 +4.40424E+00 +1.48922E+00 +4.94627E+00 +5.71891E-02 +5.20166E+00
 -1.32737E+00 +5.17492E+00 -2.59781E+00 +4.88632E+00 -3.69575E+00 +4.37026E+00 -4.57406E+00 +3.67279E+00
 -5.19922E+00 +2.84850E+00 -5.55280E+00 +1.95705E+00 -5.63205E+00 +1.05941E+00 -5.44956E+00 +2.14166E-01
 -5.03203E+00 -5.26010E-01 -4.41824E+00 -1.11739E+00 -3.65632E+00 -1.52764E+00 -2.80059E+00 -1.73752E+00
 -1.90807E+00 -1.74174E+00 -1.03486E+00 -1.54892E+00 -2.32785E-01 -1.18071E+00 +4.53726E-01 -6.70082E-01
 +9.90177E-01 -5.89620E-02 +1.35386E+00 +6.04669E-01 +1.53494E+00 +1.27002E+00 +1.53668E+00 +1.88687E+00
 +1.37483E+00 +2.40884E+00 +1.07621E+00 +2.79640E+00 +6.76646E-01 +3.01938E+00 +2.18274E-01 +3.05888E+00
 -2.53455E-01 +2.90839E+00 -6.92983E-01 +2.57412E+00 -1.05781E+00 +2.07456E+00 -1.31144E+00 +1.43910E+00
 -1.42584E+00 +7.06163E-01 -1.38342E+00 -7.94293E-02 -1.17822E+00 -8.69346E-01 -8.16324E-01 -1.61491E+00
 -3.15561E-01 -2.27027E+00 +2.95684E-01 -2.79531E+00 +9.80273E-01 -3.15825E+00 +1.69473E+00 -3.33769E+00
 +2.39205E+00 -3.32387E+00 +3.02475E+00 -3.11937E+00 +3.54798E+00 -2.73884E+00 +3.92241E+00 -2.20804E+00
 +4.11685E+00 -1.56222E+00 +4.11029E+00 -8.43818E-01 +3.89332E+00 -9.97785E-02 +3.46886E+00 +6.21435E-01
 +2.85210E+00 +1.27289E+00 +2.06962E+00 +1.81212E+00 +1.15792E+00 +2.20379E+00 +1.61253E-01 +2.42188E+00
 -8.70959E-01 +2.45125E+00 -1.88706E+00 +2.28861E+00 -2.83616E+00 +1.94265E+00 -3.67116E+00 +1.43348E+00
 -4.35143E+00 +7.91381E-01 -4.84514E+00 +5.48950E-02 -5.13110E+00 -7.31529E-01 -5.19981E+00 -1.52027E+00
 -5.05396E+00 -2.26342E+00 -4.70813E+00 -2.91572E+00 -4.18775E+00 -3.43722E+00 -3.52756E+00 -3.79573E+00
 -2.76940E+00 -3.96866E+00 -1.95967E+00 -3.94442E+00 -1.14661E+00 -3.72300E+00 -3.77373E-01 -3.31601E+00
 +3.04665E-01 -2.74592E+00 +8.62437E-01 -2.04475E+00 +1.26727E+00 -1.25212E+00 +1.50045E+00 -4.12976E-01
 +1.55422E+00 +4.25073E-01 +1.43207E+00 +1.21451E+00 +1.14840E+00 +1.91067E+00 +7.27543E-01 +2.47429E+00
 +2.02176E-01 +2.87376E+00 -3.88700E-01 +3.08690E+00 -1.00217E+00 +3.10222E+00 -1.59403E+00 +2.91953E+00
 -2.12148E+00 +2.54991E+00 -2.54567E+00 +2.01502E+00 -2.83415E+00 +1.34584E+00 -2.96275E+00 +5.80839E-01
 -2.91714E+00 -2.36238E-01 -2.69373E+00 -1.05894E+00 -2.29997E+00 -1.84077E+00 -1.75399E+00 -2.53788E+00
 -1.08362E+00 -3.11165E+00 -3.24862E-01 -3.53084E+00 +4.80162E-01 -3.77348E+00 +1.28563E+00 -3.82814E+00
 +2.04464E+00 -3.69455E+00 +2.71197E+00 -3.38368E+00 +3.24673E+00 -2.91710E+00 +3.61478E+00 -2.32570E+00
 +3.79080E+00 -1.64791E+00 +3.75988E+00 -9.27410E-01 +3.51848E+00 -2.10599E-01 +3.07476E+00 +4.56213E-01
 +2.44824E+00 +1.02955E+00 +1.66875E+00 +1.47140E+00 +7.74834E-01 +1.75151E+00 -1.88417E-01 +1.84929E+00
 -1.17194E+00 +1.75505E+00 -2.12548E+00 +1.47069E+00 -3.00052E+00 +1.00967E+00 -3.75306E+00 +3.96204E-01
 -4.34621E+00 -3.36098E-01 -4.75228E+00 -1.14624E+00 -4.95440E+00 -1.98828E+00 -4.94749E+00 -2.81413E+00
 -4.73841E+00 -3.57644E+00 -4.34557E+00 -4.23151E+00 -3.79761E+00 -4.74195E+00 -3.13165E+00 -5.07900E+00
 -2.39088E+00 -5.22425E+00 -1.62185E+00 -5.17080E+00 -8.71544E-01 -4.92360E+00 -1.84415E-01 -4.49919E+00
 +4.00369E-01 -3.92450E+00 +8.51343E-01 -3.23521E+00 +1.14665E+00 -2.47341E+00 +1.27528E+00 -1.68488E+00
 +1.23767E+00 -9.16232E-01 +1.04543E+00 -2.11868E-01 +7.20445E-01 +3.88762E-01 +2.93203E-01 +8.53644E-01
 -1.99352E-01 +1.16015E+00 -7.16447E-01 +1.29633E+00 -1.21632E+00 +1.26157E+00 -1.65910E+00 +1.06634E+00
 -2.00955E+00 +7.31374E-01 -2.23948E+00 +2.86040E-01 -2.32960E+00 -2.33793E-01 -2.27082E+00 -7.88313E-01
 -2.06480E+00 -1.33656E+00 -1.72377E+00 -1.83928E+00 -1.26957E+00 -2.26155E+00 -7.32127E-01 -2.57522E+00
 -1.47308E-01 -2.76063E+00 +4.45591E-01 -2.80796E+00 +1.00656E+00 -2.71765E+00 +1.49761E+00 -2.50026E+00
 +1.88538E+00 -2.17556E+00 +2.14329E+00 -1.77096E+00 +2.25334E+00 -1.31951E+00 +2.20717E+00 -8.57483E-01
 +2.00651E+00 -4.21772E-01 +1.66291E+00 -4.73433E-02 +1.19680E+00 +2.35180E-01 +6.36005E-01 +4.01557E-01
 +1.37116E-02 +4.35478E-01 -6.33790E-01 +3.29539E-01 -1.26956E+00 +8.55603E-02 -1.85843E+00 -2.85730E-01
 -2.36918E+00 -7.65626E-01 -2.77643E+00 -1.32889E+00 -3.06200E+00 -1.94561E+00 -3.21576E+00 -2.58327E+00
 -3.23584E+00 -3.20900E+00 -3.12832E+00 -3.79162E+00 -2.90638E+00 -4.30363E+00 -2.58890E+00 -4.72270E+00
 -2.19894E+00 -5.03281E+00 -1.76182E+00 -5.22484E+00 -1.30334E+00 -5.29666E+00 -8.47958E-01 -5.25272E+00
 -4.17357E-01 -5.10314E+00 -2.92081E-02 -4.86259E+00 +3.03578E-01 -4.54882E+00 +5.73181E-01 -4.18113E+00
 +7.76759E-01 -3.77889E+00 +9.15952E-01 -3.36024E+00 +9.96049E-01 -2.94093E+00 +1.02494E+00 -2.53365E+00
 +1.01194E+00 -2.14756E+00 +9.66643E-01 -1.78836E+00 +8.97855E-01 -1.45855E+00 +8.12750E-01 -1.15811E+00
 +7.16308E-01 -8.85305E-01 +6.11059E-01 -6.37589E-01 +4.97164E-01 -4.12577E-01 +3.72799E-01 -2.08855E-01
 +2.34790E-01 -2.66199E-02 +7.94224E-02 +1.31932E-01 -9.66600E-02 +2.62521E-01 -2.95580E-01 +3.59003E-01
 -5.17461E-01 +4.13871E-01 -7.59862E-01 +4.18995E-01 -1.01747E+00 +3.66520E-01 -1.28213E+00 +2.49830E-01
