 Created: 19-Jan-2021
 $NMID
 ID='D:\BASISSIMULATI'
 FMTDAT='(8E13.5)'
 VOLUME=   1.00000E+00
 TRAMP=   1.00000E+00
 $END
 +3.57590E+01 +7.48173E-01 +3.26988E+01 +4.53075E+00 +2.31016E+01 +7.59298E+00 +9.29240E+00 +9.61653E+00
 -5.44491E+00 +1.03906E+01 -1.77044E+01 +9.83014E+00 -2.48077E+01 +8.01455E+00 -2.54435E+01 +5.22784E+00
 -1.99362E+01 +1.97117E+00 -1.00851E+01 -1.08337E+00 +1.36339E+00 -3.21047E+00 +1.14582E+01 -3.80628E+00
 +1.77916E+01 -2.57672E+00 +1.90580E+01 +3.21398E-01 +1.52901E+01 +4.24466E+00 +7.73350E+00 +8.16663E+00
 -1.57712E+00 +1.09133E+01 -1.04009E+01 +1.14778E+01 -1.68633E+01 +9.32943E+00 -1.98667E+01 +4.61938E+00
 -1.92468E+01 -1.78904E+00 -1.56658E+01 -8.49534E+00 -1.03058E+01 -1.39080E+01 -4.47886E+00 -1.66738E+01
 +7.23706E-01 -1.60687E+01 +4.64734E+00 -1.22329E+01 +7.11492E+00 -6.17006E+00 +8.31349E+00 +5.00607E-01
 +8.59522E+00 +5.98033E+00 +8.27993E+00 +8.79352E+00 +7.53349E+00 +8.21322E+00 +6.35868E+00 +4.48173E+00
 +4.68706E+00 -1.24416E+00 +2.52005E+00 -7.21384E+00 +4.92382E-02 -1.15812E+01 -2.30528E+00 -1.29374E+01
 -3.96696E+00 -1.07216E+01 -4.36956E+00 -5.38891E+00 -3.16381E+00 +1.71708E+00 -3.88979E-01 +8.75022E+00
 +3.45913E+00 +1.38933E+01 +7.50080E+00 +1.58782E+01 +1.06766E+01 +1.43417E+01 +1.20288E+01 +9.91219E+00
 +1.09778E+01 +4.00427E+00 +7.50724E+00 -1.61444E+00 +2.19856E+00 -5.35233E+00 -3.90058E+00 -6.25924E+00
 -9.53823E+00 -4.28968E+00 -1.35756E+01 -2.88282E-01 -1.52686E+01 +4.29323E+00 -1.44350E+01 +7.85657E+00
 -1.14640E+01 +9.15176E+00 -7.17380E+00 +7.65469E+00 -2.56903E+00 +3.71437E+00 +1.42577E+00 -1.57087E+00
 +4.17719E+00 -6.70484E+00 +5.44346E+00 -1.02602E+01 +5.34963E+00 -1.13147E+01 +4.26397E+00 -9.72215E+00
 +2.63232E+00 -6.13879E+00 +8.34478E-01 -1.80050E+00 -8.88689E-01 +1.87497E+00 -2.42154E+00 +3.73435E+00
 -3.69454E+00 +3.24449E+00 -4.58830E+00 +6.48657E-01 -4.87663E+00 -3.12149E+00 -4.24852E+00 -6.74675E+00
 -2.41562E+00 -8.93723E+00 +7.27769E-01 -8.83448E+00 +4.95410E+00 -6.27520E+00 +9.63168E+00 -1.83819E+00
 +1.37847E+01 +3.33568E+00 +1.62943E+01 +7.89045E+00 +1.61999E+01 +1.06597E+01 +1.30186E+01 +1.10045E+01
 +6.97821E+00 +8.98480E+00 -9.23497E-01 +5.31759E+00 -9.07917E+00 +1.14247E+00 -1.56311E+01 -2.32779E+00
 -1.89457E+01 -4.16181E+00 -1.80750E+01 -3.96315E+00 -1.30688E+01 -1.95228E+00 -5.03558E+00 +1.13761E+00
 +4.08464E+00 +4.30832E+00 +1.19894E+01 +6.60375E+00 +1.66064E+01 +7.38006E+00 +1.66501E+01 +6.46039E+00
 +1.19856E+01 +4.13741E+00 +3.69283E+00 +1.03746E+00 -6.19346E+00 -2.09781E+00 -1.52040E+01 -4.63517E+00
 -2.10751E+01 -6.20758E+00 -2.23351E+01 -6.76346E+00 -1.86774E+01 -6.50603E+00 -1.10209E+01 -5.75930E+00
 -1.24548E+00 -4.81982E+00 +8.31896E+00 -3.85270E+00 +1.55040E+01 -2.86822E+00 +1.88466E+01 -1.78097E+00
 +1.79205E+01 -5.18810E-01 +1.33751E+01 +8.71168E-01 +6.68717E+00 +2.17254E+00 -2.88440E-01 +3.03592E+00
 -5.83307E+00 +3.09761E+00 -8.79591E+00 +2.14061E+00 -8.83027E+00 +2.35762E-01 -6.38570E+00 -2.19898E+00
 -2.48154E+00 -4.45977E+00 +1.65041E+00 -5.73603E+00 +4.93585E+00 -5.36156E+00 +6.72943E+00 -3.05980E+00
 +6.91770E+00 +9.01684E-01 +5.84314E+00 +5.71114E+00 +4.09668E+00 +1.01853E+01 +2.26465E+00 +1.30783E+01
 +7.22506E-01 +1.34427E+01 -4.56369E-01 +1.09351E+01 -1.45545E+00 +5.96666E+00 -2.56268E+00 -3.56510E-01
 -3.97865E+00 -6.50168E+00 -5.66572E+00 -1.09164E+01 -7.30143E+00 -1.24615E+01 -8.35984E+00 -1.07435E+01
 -8.29604E+00 -6.24509E+00 -6.76869E+00 -2.10323E-01 -3.81843E+00 +5.68965E+00 +6.89960E-02 +9.81621E+00
 +4.04865E+00 +1.10181E+01 +7.13487E+00 +8.94997E+00 +8.48919E+00 +4.16337E+00 +7.68758E+00 -2.05604E+00
 +4.87874E+00 -8.05528E+00 +7.76826E-01 -1.22771E+01 -3.51722E+00 -1.36849E+01 -6.81731E+00 -1.20273E+01
 -8.18828E+00 -7.87288E+00 -7.21515E+00 -2.41129E+00 -4.12362E+00 +2.91132E+00 +2.85333E-01 +6.80910E+00
 +4.86684E+00 +8.50145E+00 +8.45902E+00 +7.88831E+00 +1.02065E+01 +5.51415E+00 +9.78421E+00 +2.34480E+00
 +7.45768E+00 -5.62523E-01 +3.96826E+00 -2.38739E+00 +2.85509E-01 -2.77035E+00 -2.69082E+00 -1.87004E+00
 -4.38469E+00 -2.46957E-01 -4.67673E+00 +1.37553E+00 -3.88203E+00 +2.38469E+00 -2.58984E+00 +2.49108E+00
 -1.42729E+00 +1.80966E+00 -8.31765E-01 +7.86590E-01 -9.09897E-01 +3.11719E-03 -1.42916E+00 -6.94878E-02
 -1.93990E+00 +7.26383E-01 -1.97986E+00 +2.14790E+00 -1.28389E+00 +3.61652E+00 +8.03525E-02 +4.41550E+00
 +1.70419E+00 +3.95432E+00 +2.96568E+00 +2.00833E+00 +3.25302E+00 -1.15250E+00 +2.20703E+00 -4.79712E+00
 -1.04197E-01 -7.92768E+00 -3.14647E+00 -9.57851E+00 -6.04082E+00 -9.12709E+00 -7.81590E+00 -6.51599E+00
 -7.71640E+00 -2.31046E+00 -5.46897E+00 +2.43415E+00 -1.41611E+00 +6.46090E+00 +3.53373E+00 +8.67167E+00
 +8.13486E+00 +8.45096E+00 +1.11498E+01 +5.85382E+00 +1.17104E+01 +1.59910E+00 +9.58492E+00 -3.13174E+00
 +5.26644E+00 -7.03084E+00 -1.47850E-01 -9.03503E+00 -5.25585E+00 -8.62138E+00 -8.74144E+00 -5.94113E+00
 -9.74237E+00 -1.75592E+00 -8.08680E+00 +2.79959E+00 -4.32937E+00 +6.55270E+00 +4.21683E-01 +8.62219E+00
 +4.83236E+00 +8.64481E+00 +7.72593E+00 +6.83635E+00 +8.40688E+00 +3.87850E+00 +6.83208E+00 +6.76668E-01
 +3.58397E+00 -1.92799E+00 -3.37781E-01 -3.39952E+00 -3.83520E+00 -3.62861E+00 -6.03939E+00 -2.90462E+00
 -6.54590E+00 -1.75936E+00 -5.49074E+00 -7.45039E-01 -3.45272E+00 -2.27865E-01 -1.22365E+00 -2.69592E-01
 +4.71561E-01 -6.35223E-01 +1.21035E+00 -9.19011E-01 +9.87510E-01 -7.38112E-01 +1.77018E-01 +8.10674E-02
 -6.39485E-01 +1.39650E+00 -9.12739E-01 +2.76855E+00 -3.47589E-01 +3.60205E+00 +9.72863E-01 +3.36668E+00
 +2.60531E+00 +1.81894E+00 +3.90143E+00 -8.56032E-01 +4.24716E+00 -4.04082E+00 +3.30262E+00 -6.83396E+00
 +1.15741E+00 -8.31222E+00 -1.65717E+00 -7.82769E+00 -4.31009E+00 -5.24427E+00 -5.92568E+00 -1.03188E+00
 -5.87130E+00 +3.82161E+00 -3.98331E+00 +8.06402E+00 -6.54156E-01 +1.05289E+01 +3.25382E+00 +1.04785E+01
 +6.64703E+00 +7.83577E+00 +8.52161E+00 +3.23077E+00 +8.26845E+00 -2.15724E+00 +5.86697E+00 -6.92000E+00
 +1.90565E+00 -9.81085E+00 -2.57964E+00 -1.00918E+01 -6.40198E+00 -7.73523E+00 -8.56502E+00 -3.42262E+00
 -8.54653E+00 +1.65840E+00 -6.43891E+00 +6.15551E+00 -2.90602E+00 +8.93008E+00 +1.02700E+00 +9.36138E+00
 +4.28382E+00 +7.49053E+00 +6.04993E+00 +3.96887E+00 +5.99358E+00 -1.65266E-01 +4.33060E+00 -3.80649E+00
 +1.71972E+00 -6.09864E+00 -9.71275E-01 -6.65289E+00 -2.94911E+00 -5.60856E+00 -3.73579E+00 -3.52923E+00
 -3.29153E+00 -1.17923E+00 -1.98575E+00 +7.39557E-01 -4.33253E-01 +1.80243E+00 +7.43108E-01 +1.96126E+00
 +1.13934E+00 +1.50387E+00 +7.08352E-01 +8.97348E-01 -2.36976E-01 +5.78267E-01 -1.15474E+00 +7.68640E-01
 -1.49117E+00 +1.38511E+00 -9.06100E-01 +2.07393E+00 +5.74638E-01 +2.35844E+00 +2.53721E+00 +1.84458E+00
 +4.30078E+00 +4.07988E-01 +5.14498E+00 -1.70940E+00 +4.56892E+00 -3.93497E+00 +2.49345E+00 -5.52969E+00
 -6.66217E-01 -5.83128E+00 -4.08936E+00 -4.49661E+00 -6.77974E+00 -1.65924E+00 -7.86875E+00 +2.05793E+00
 -6.89715E+00 +5.68926E+00 -3.98425E+00 +8.19509E+00 +1.73963E-01 +8.77344E+00 +4.48375E+00 +7.11824E+00
 +7.76014E+00 +3.54031E+00 +9.07061E+00 -1.09211E+00 +8.01213E+00 -5.58183E+00 +4.83664E+00 -8.73592E+00
 +3.85535E-01 -9.70557E+00 -4.14839E+00 -8.23111E+00 -7.56064E+00 -4.71792E+00 -8.97497E+00 -1.20141E-01
 -8.08284E+00 +4.33314E+00 -5.21344E+00 +7.48718E+00 -1.21730E+00 +8.58225E+00 +2.79646E+00 +7.45159E+00
 +5.78639E+00 +4.54146E+00 +7.06864E+00 +7.52884E-01 +6.48563E+00 -2.84120E+00 +4.40867E+00 -5.31358E+00
 +1.58309E+00 -6.13806E+00 -1.12734E+00 -5.30802E+00 -3.01099E+00 -3.28966E+00 -3.70785E+00 -8.34107E-01
 -3.27929E+00 +1.28407E+00 -2.13408E+00 +2.51382E+00 -8.45248E-01 +2.68114E+00 +7.33513E-02 +2.00397E+00
 +3.51123E-01 +9.71671E-01 +4.24193E-02 +1.37208E-01 -5.19434E-01 -1.01563E-01 -8.75438E-01 +3.46543E-01
 -6.43174E-01 +1.23462E+00 +3.07772E-01 +2.07667E+00 +1.77390E+00 +2.34130E+00 +3.26346E+00 +1.67053E+00
 +4.15876E+00 +4.43447E-02 +3.94189E+00 -2.17115E+00 +2.40578E+00 -4.31483E+00 -2.25942E-01 -5.63627E+00
 -3.31923E+00 -5.55060E+00 -5.99329E+00 -3.85765E+00 -7.38253E+00 -8.48938E-01 -6.91622E+00 +2.73988E+00
 -4.52548E+00 +5.92393E+00 -7.06289E-01 +7.75609E+00 +3.58961E+00 +7.61862E+00 +7.21023E+00 +5.42768E+00
 +9.13251E+00 +1.68373E+00 +8.76669E+00 -2.65274E+00 +6.14245E+00 -6.42645E+00 +1.91730E+00 -8.61580E+00
 -2.79889E+00 -8.62640E+00 -6.75355E+00 -6.46125E+00 -8.90450E+00 -2.71670E+00 -8.71200E+00 +1.59382E+00
 -6.28401E+00 +5.33395E+00 -2.33308E+00 +7.56706E+00 +2.03949E+00 +7.81103E+00 +5.66532E+00 +6.15131E+00
 +7.63884E+00 +3.18359E+00 +7.55809E+00 -1.89747E-01 +5.60833E+00 -3.04145E+00 +2.47052E+00 -4.68970E+00
 -9.09810E-01 -4.87476E+00 -3.61634E+00 -3.79281E+00 -5.02579E+00 -1.98515E+00 -4.96265E+00 -1.27562E-01
 -3.70399E+00 +1.20528E+00 -1.84248E+00 +1.72077E+00 -6.12711E-02 +1.47683E+00 +1.10047E+00 +8.20442E-01
 +1.41294E+00 +2.24082E-01 +1.00070E+00 +8.24407E-02 +2.58439E-01 +5.44802E-01 -3.26472E-01 +1.44485E+00
 -3.77754E-01 +2.35485E+00 +2.14358E-01 +2.74686E+00 +1.24253E+00 +2.20451E+00 +2.25545E+00 +6.09567E-01
 +2.72953E+00 -1.76690E+00 +2.27830E+00 -4.30783E+00 +8.24154E-01 -6.22227E+00 -1.33230E+00 -6.79559E+00
 -3.57573E+00 -5.63790E+00 -5.15823E+00 -2.84715E+00 -5.44403E+00 +9.72729E-01 -4.13693E+00 +4.85363E+00
 -1.41259E+00 +7.72905E+00 +2.09387E+00 +8.74641E+00 +5.44912E+00 +7.53100E+00 +7.68772E+00 +4.31813E+00
 +8.10317E+00 -9.11859E-02 +6.47380E+00 -4.54263E+00 +3.15049E+00 -7.84897E+00 -1.02495E+00 -9.12452E+00
 -4.95024E+00 -8.03473E+00 -7.57513E+00 -4.88701E+00 -8.20280E+00 -5.36737E-01 -6.68985E+00 +3.86195E+00
 -3.48478E+00 +7.18485E+00 +5.05838E-01 +8.64761E+00 +4.18230E+00 +8.00634E+00 +6.56740E+00 +5.59368E+00
 +7.07815E+00 +2.18658E+00 +5.67433E+00 -1.24689E+00 +2.84358E+00 -3.83942E+00 -5.66408E-01 -5.06425E+00
 -3.61207E+00 -4.85263E+00 -5.53058E+00 -3.56054E+00 -5.94472E+00 -1.80534E+00 -4.93770E+00 -2.33903E-01
 -2.98290E+00 +6.97058E-01 -7.59937E-01 +8.55535E-01 +1.07725E+00 +4.42598E-01 +2.10264E+00 -1.21841E-01
 +2.22688E+00 -3.90009E-01 +1.68296E+00 -8.21708E-02 +9.01976E-01 +7.85213E-01 +3.28830E-01 +1.88747E+00
