 Created: 19-Jan-2021
 $NMID
 ID='D:\BASISSIMULATI'
 FMTDAT='(8E13.5)'
 VOLUME=   1.00000E+00
 TRAMP=   1.00000E+00
 $END
 +2.23665E+01 -3.45007E-01 +2.03040E+01 +8.52954E+00 +1.46451E+01 +1.54607E+01 +6.72340E+00 +1.90672E+01
 -1.66248E+00 +1.87614E+01 -8.67901E+00 +1.48629E+01 -1.28848E+01 +8.49460E+00 -1.35526E+01 +1.29385E+00
 -1.08126E+01 -4.98925E+00 -5.58926E+00 -8.90608E+00 +6.46807E-01 -9.63835E+00 +6.24677E+00 -7.16642E+00
 +9.77972E+00 -2.24309E+00 +1.03623E+01 +3.81358E+00 +7.84615E+00 +9.45225E+00 +2.82582E+00 +1.32617E+01
 -3.52861E+00 +1.42956E+01 -9.76554E+00 +1.22748E+01 -1.44984E+01 +7.62509E+00 -1.67206E+01 +1.34940E+00
 -1.60172E+01 -5.22685E+00 -1.26288E+01 -1.07713E+01 -7.36171E+00 -1.42442E+01 -1.37383E+00 -1.51132E+01
 +4.10619E+00 -1.34388E+01 +8.05728E+00 -9.81927E+00 +9.87743E+00 -5.21632E+00 +9.48413E+00 -7.11816E-01
 +7.28889E+00 +2.74450E+00 +4.06137E+00 +4.53671E+00 +7.23281E-01 +4.49149E+00 -1.87441E+00 +2.87656E+00
 -3.13825E+00 +2.98846E-01 -2.84319E+00 -2.46521E+00 -1.14930E+00 -4.66176E+00 +1.47044E+00 -5.72776E+00
 +4.36570E+00 -5.39914E+00 +6.86982E+00 -3.74050E+00 +8.44692E+00 -1.09842E+00 +8.79306E+00 +2.00226E+00
 +7.87435E+00 +4.98840E+00 +5.90160E+00 +7.36209E+00 +3.25613E+00 +8.79078E+00 +3.90635E-01 +9.14885E+00
 -2.26854E+00 +8.50902E+00 -4.39620E+00 +7.09435E+00 -5.80783E+00 +5.20908E+00 -6.46223E+00 +3.16815E+00
 -6.43526E+00 +1.24148E+00 -5.87798E+00 -3.77932E-01 -4.97335E+00 -1.58182E+00 -3.90224E+00 -2.33646E+00
 -2.82351E+00 -2.66410E+00 -1.86680E+00 -2.62506E+00 -1.13245E+00 -2.30612E+00 -6.91562E-01 -1.81562E+00
 -5.81361E-01 -1.28139E+00 -7.95080E-01 -8.45387E-01 -1.27021E+00 -6.49863E-01 -1.88207E+00 -8.13311E-01
 -2.45026E+00 -1.39972E+00 -2.76235E+00 -2.38915E+00 -2.61446E+00 -3.66004E+00 -1.86147E+00 -4.99282E+00
 -4.65083E-01 -6.09969E+00 +1.47449E+00 -6.67849E+00 +3.71526E+00 -6.48110E+00 +5.90486E+00 -5.38064E+00
 +7.64399E+00 -3.41989E+00 +8.57056E+00 -8.25501E-01 +8.44576E+00 +2.02003E+00 +7.22082E+00 +4.64673E+00
 +5.06591E+00 +6.59342E+00 +2.35010E+00 +7.51073E+00 -4.26822E-01 +7.24665E+00 -2.73826E+00 +5.89213E+00
 -4.14790E+00 +3.77302E+00 -4.41272E+00 +1.38646E+00 -3.54625E+00 -7.06313E-01 -1.82478E+00 -2.00765E+00
 +2.68061E-01 -2.20209E+00 +2.14816E+00 -1.23718E+00 +3.26599E+00 +6.54489E-01 +3.23892E+00 +2.99993E+00
 +1.94927E+00 +5.18903E+00 -4.16667E-01 +6.61419E+00 -3.39990E+00 +6.81456E+00 -6.36535E+00 +5.59084E+00
 -8.64307E+00 +3.06260E+00 -9.68210E+00 -3.47093E-01 -9.18126E+00 -3.99819E+00 -7.16548E+00 -7.17276E+00
 -3.98864E+00 -9.23550E+00 -2.60772E-01 -9.77857E+00 +3.28504E+00 -8.71669E+00 +5.95584E+00 -6.30968E+00
 +7.25479E+00 -3.10605E+00 +6.99351E+00 +1.80138E-01 +5.33435E+00 +2.83127E+00 +2.75213E+00 +4.28978E+00
 -7.62538E-02 +4.28532E+00 -2.42921E+00 +2.89581E+00 -3.70831E+00 +5.27958E-01 -3.57773E+00 -2.17860E+00
 -2.04278E+00 -4.50130E+00 +5.50832E-01 -5.80401E+00 +3.59688E+00 -5.68643E+00 +6.36907E+00 -4.07877E+00
 +8.18930E+00 -1.25976E+00 +8.58473E+00 +2.20593E+00 +7.39730E+00 +5.59628E+00 +4.82040E+00 +8.19627E+00
 +1.35484E+00 +9.46006E+00 -2.30541E+00 +9.13337E+00 -5.43058E+00 +7.30826E+00 -7.41908E+00 +4.39837E+00
 -7.93014E+00 +1.04112E+00 -6.95503E+00 -2.04955E+00 -4.81142E+00 -4.24544E+00 -2.06333E+00 -5.14376E+00
 +6.13643E-01 -4.65233E+00 +2.58971E+00 -3.00190E+00 +3.42425E+00 -6.83995E-01 +2.96234E+00 +1.66973E+00
 +1.36328E+00 +3.43766E+00 -9.44101E-01 +4.15252E+00 -3.36719E+00 +3.60674E+00 -5.29076E+00 +1.89540E+00
 -6.21993E+00 -6.11546E-01 -5.89220E+00 -3.35957E+00 -4.33331E+00 -5.74016E+00 -1.84582E+00 -7.23038E+00
 +1.06519E+00 -7.50935E+00 +3.81048E+00 -6.52543E+00 +5.85051E+00 -4.50038E+00 +6.81389E+00 -1.87153E+00
 +6.57377E+00 +8.12819E-01 +5.26631E+00 +3.01920E+00 +3.24915E+00 +4.34660E+00 +1.01159E+00 +4.60943E+00
 -9.41080E-01 +3.86833E+00 -2.20175E+00 +2.40401E+00 -2.54830E+00 +6.42411E-01 -1.98437E+00 -9.49509E-01
 -7.26979E-01 -1.97247E+00 +8.53700E-01 -2.18301E+00 +2.32666E+00 -1.54204E+00 +3.30176E+00 -2.14609E-01
 +3.51741E+00 +1.47658E+00 +2.89500E+00 +3.13134E+00 +1.54936E+00 +4.36573E+00 -2.44743E-01 +4.89781E+00
 -2.12044E+00 +4.60623E+00 -3.70365E+00 +3.55011E+00 -4.69532E+00 +1.94783E+00 -4.93251E+00 +1.21660E-01
 -4.41620E+00 -1.57733E+00 -3.30144E+00 -2.84630E+00 -1.85433E+00 -3.49241E+00 -3.87559E-01 -3.46660E+00
 +8.10001E-01 -2.86378E+00 +1.53368E+00 -1.89151E+00 +1.70076E+00 -8.16439E-01 +1.35893E+00 +9.84655E-02
 +6.65528E-01 +6.51232E-01 -1.55526E-01 +7.40719E-01 -8.68364E-01 +3.81476E-01 -1.27835E+00 -3.07758E-01
 -1.27250E+00 -1.13746E+00 -8.39170E-01 -1.89374E+00 -6.45288E-02 -2.38678E+00 +8.91916E-01 -2.49067E+00
 +1.83570E+00 -2.16680E+00 +2.58052E+00 -1.46706E+00 +2.98662E+00 -5.17783E-01 +2.98663E+00 +5.10700E-01
 +2.59460E+00 +1.44135E+00 +1.89761E+00 +2.12628E+00 +1.03320E+00 +2.47386E+00 +1.58443E-01 +2.46230E+00
 -5.82371E-01 +2.13813E+00 -1.08474E+00 +1.60114E+00 -1.30071E+00 +9.80012E-01 -1.24300E+00 +4.04457E-01
 -9.76671E-01 -2.04969E-02 -6.01307E-01 -2.33011E-01 -2.27837E-01 -2.22820E-01 +4.48459E-02 -2.87420E-02
 +1.48972E-01 +2.73280E-01 +5.93600E-02 +5.88470E-01 -2.04323E-01 +8.23824E-01 -5.84203E-01 +9.06910E-01
 -9.97809E-01 +7.99435E-01 -1.35557E+00 +5.03424E-01 -1.57870E+00 +5.93417E-02 -1.61409E+00 -4.62949E-01
 -1.44370E+00 -9.78317E-01 -1.08701E+00 -1.40271E+00 -5.96411E-01 -1.66863E+00 -4.68113E-02 -1.73701E+00
 +4.78569E-01 -1.60343E+00 +9.03391E-01 -1.29785E+00 +1.17167E+00 -8.78104E-01 +1.25709E+00 -4.18482E-01
 +1.16666E+00 +4.33596E-03 +9.38074E-01 +3.25391E-01 +6.31488E-01 +5.02994E-01 +3.17286E-01 +5.25625E-01
 +6.21951E-02 +4.12957E-01 -8.35976E-02 +2.10879E-01 -9.58972E-02 -1.84532E-02 +1.92875E-02 -2.09622E-01
 +2.27562E-01 -3.07436E-01 +4.73631E-01 -2.78276E-01 +6.92963E-01 -1.17043E-01 +8.25340E-01 +1.51699E-01
 +8.27547E-01 +4.78621E-01 +6.82660E-01 +7.99633E-01 +4.03999E-01 +1.04900E+00 +3.29075E-02 +1.17289E+00
 -3.69247E-01 +1.14062E+00 -7.33241E-01 +9.51251E-01 -9.95880E-01 +6.34135E-01 -1.11273E+00 +2.43266E-01
 -1.06706E+00 -1.53415E-01 -8.73191E-01 -4.87605E-01 -5.73412E-01 -7.04282E-01 -2.29262E-01 -7.72605E-01
 +9.11432E-02 -6.91783E-01 +3.27033E-01 -4.90729E-01 +4.37253E-01 -2.21581E-01 +4.08348E-01 +5.15257E-02
 +2.56772E-01 +2.66043E-01 +2.48333E-02 +3.74090E-01 -2.28736E-01 +3.52278E-01 -4.41532E-01 +2.06262E-01
 -5.60828E-01 -3.08999E-02 -5.54708E-01 -3.06140E-01 -4.18656E-01 -5.57899E-01 -1.76296E-01 -7.29281E-01
 +1.25811E-01 -7.80059E-01 +4.28094E-01 -6.95031E-01 +6.70501E-01 -4.87032E-01 +8.04943E-01 -1.94070E-01
 +8.05074E-01 +1.28702E-01 +6.71446E-01 +4.20420E-01 +4.31053E-01 +6.26919E-01 +1.31492E-01 +7.11535E-01
 -1.68931E-01 +6.62146E-01 -4.13040E-01 +4.93096E-01 -5.56130E-01 +2.41753E-01 -5.74510E-01 -3.94466E-02
 -4.69648E-01 -2.93746E-01 -2.67203E-01 -4.71380E-01 -1.12974E-02 -5.39177E-01 +2.44666E-01 -4.86613E-01
 +4.48749E-01 -3.27247E-01 +5.60614E-01 -9.54004E-02 +5.59105E-01 +1.61102E-01 +4.45891E-01 +3.90613E-01
 +2.44594E-01 +5.47814E-01 -4.28460E-03 +6.02374E-01 -2.51558E-01 +5.44523E-01 -4.49013E-01 +3.86567E-01
 -5.58679E-01 +1.60156E-01 -5.59986E-01 -9.00510E-02 -4.53502E-01 -3.15090E-01 -2.60646E-01 -4.71075E-01
 -1.94832E-02 -5.27529E-01 +2.22564E-01 -4.73121E-01 +4.17706E-01 -3.17802E-01 +5.26815E-01 -9.09601E-02
 +5.26847E-01 +1.64039E-01 +4.15274E-01 +3.97928E-01 +2.10735E-01 +5.64741E-01 -5.02469E-02 +6.30466E-01
 -3.19900E-01 +5.79555E-01 -5.47998E-01 +4.18063E-01 -6.91218E-01 +1.72807E-01 -7.21334E-01 -1.13357E-01
 -6.30712E-01 -3.89314E-01 -4.34042E-01 -6.05142E-01 -1.65909E-01 -7.21491E-01 +1.25410E-01 -7.17136E-01
 +3.86849E-01 -5.93258E-01 +5.70525E-01 -3.73566E-01 +6.42930E-01 -1.00143E-01 +5.91573E-01 +1.74281E-01
 +4.27757E-01 +3.96268E-01 +1.84858E-01 +5.21965E-01 -8.76791E-02 +5.25810E-01 -3.33587E-01 +4.05923E-01
 -5.00587E-01 +1.85080E-01 -5.50731E-01 -9.30614E-02 -4.68268E-01 -3.71881E-01 -2.63458E-01 -5.92471E-01
 +2.85246E-02 -7.05101E-01 +3.53551E-01 -6.79287E-01 +6.48379E-01 -5.10501E-01 +8.52610E-01 -2.22094E-01
 +9.20565E-01 +1.38085E-01 +8.30769E-01 +5.05948E-01 +5.91151E-01 +8.12905E-01 +2.38763E-01 +9.98955E-01
 -1.66148E-01 +1.02467E+00 -5.50834E-01 +8.79738E-01 -8.43638E-01 +5.86158E-01 -9.87998E-01 +1.95367E-01
 -9.54136E-01 -2.20588E-01 -7.46053E-01 -5.82315E-01 -4.02191E-01 -8.18431E-01 +1.06929E-02 -8.80088E-01
 +4.09584E-01 -7.51743E-01 +7.11159E-01 -4.55826E-01 +8.48622E-01 -5.00169E-02 +7.86125E-01 +3.82754E-01
 +5.27689E-01 +7.49983E-01 +1.18488E-01 +9.68113E-01 -3.62236E-01 +9.80282E-01 -8.15694E-01 +7.69601E-01
 -1.14297E+00 +3.64945E-01 -1.26563E+00 -1.62424E-01 -1.14327E+00 -7.11266E-01 -7.84159E-01 -1.16979E+00
 -2.46343E-01 -1.43842E+00 +3.71719E-01 -1.45138E+00 +9.49526E-01 -1.19233E+00 +1.36864E+00 -7.00547E-01
 +1.53773E+00 -6.55979E-02 +1.41317E+00 +5.88910E-01 +1.01074E+00 +1.12972E+00 +4.05164E-01 +1.44165E+00
 -2.82891E-01 +1.45294E+00 -9.10365E-01 +1.15255E+00 -1.34130E+00 +5.95340E-01 -1.47626E+00 -1.06728E-01
 -1.27529E+00 -8.06017E-01 -7.69159E-01 -1.34941E+00 -5.57757E-02 -1.61103E+00 +7.18016E-01 -1.52060E+00
 +1.38606E+00 -1.08093E+00 +1.79795E+00 -3.70419E-01 +1.85220E+00 +4.70803E-01 +1.52011E+00 +1.26860E+00
 +8.54888E-01 +1.85110E+00 -1.67054E-02 +2.08587E+00 -9.18891E-01 +1.90998E+00 -1.66300E+00 +1.34612E+00
 -2.08766E+00 +5.00736E-01 -2.09454E+00 -4.55989E-01 -1.67165E+00 -1.32468E+00 -8.98699E-01 -1.91878E+00
 +6.70862E-02 -2.10513E+00 +1.02248E+00 -1.83436E+00 +1.76062E+00 -1.15407E+00 +2.11550E+00 -2.01537E-01
 +1.99894E+00 +8.23260E-01 +1.42189E+00 +1.69884E+00 +4.94965E-01 +2.22928E+00 -5.92526E-01 +2.28719E+00
 -1.61103E+00 +1.84295E+00 -2.33895E+00 +9.73911E-01 -2.61047E+00 -1.49308E-01 -2.35258E+00 -1.29690E+00
 -1.60322E+00 -2.22755E+00 -5.06018E-01 -2.73986E+00 +7.17861E-01 -2.71643E+00 +1.81512E+00 -2.15112E+00
 +2.55383E+00 -1.15298E+00 +2.77365E+00 +7.43889E-02 +2.42187E+00 +1.27435E+00 +1.56714E+00 +2.19110E+00
 +3.87521E-01 +2.62471E+00 -8.65382E-01 +2.47539E+00 -1.91897E+00 +1.76733E+00 -2.53799E+00 +6.46288E-01
