 Created: 19-Jan-2021
 $NMID
 ID='D:\BASISSIMULATI'
 FMTDAT='(8E13.5)'
 VOLUME=   1.00000E+00
 TRAMP=   1.00000E+00
 $END
 +1.16460E+01 +9.09355E-02 +1.13337E+01 +2.64074E+00 +1.04704E+01 +5.05806E+00 +9.09905E+00 +7.22550E+00
 +7.28719E+00 +9.03801E+00 +5.12363E+00 +1.04080E+01 +2.71420E+00 +1.12694E+01 +1.76494E-01 +1.15812E+01
 -2.36581E+00 +1.13291E+01 -4.78903E+00 +1.05261E+01 -6.97544E+00 +9.21236E+00 -8.81906E+00 +7.45244E+00
 -1.02307E+01 +5.33272E+00 -1.11424E+01 +2.95687E+00 -1.15106E+01 +4.40901E-01 -1.13182E+01 -2.09257E+00
 -1.05754E+01 -4.52026E+00 -9.31928E+00 -6.72423E+00 -7.61174E+00 -8.59758E+00 -5.53654E+00 -1.00497E+01
 -3.19525E+00 -1.10106E+01 -7.02171E-01 -1.14343E+01 +1.82115E+00 -1.13011E+01 +4.25192E+00 -1.06182E+01
 +6.47200E+00 -9.41983E+00 +8.37372E+00 -7.76503E+00 +9.86507E+00 -5.73505E+00 +1.08741E+01 -3.42923E+00
 +1.13525E+01 -9.60191E-01 +1.12779E+01 +1.55169E+00 +1.06546E+01 +3.98413E+00 +9.51403E+00 +6.21892E+00
 +7.91232E+00 +8.14764E+00 +5.92818E+00 +9.67694E+00 +3.65874E+00 +1.07330E+01 +1.21485E+00 +1.12653E+01
 -1.28430E+00 +1.12486E+01 -3.71705E+00 +1.06847E+01 -5.96514E+00 +9.60188E+00 -7.91948E+00 +8.05358E+00
 -9.48546E+00 +6.11589E+00 -1.05875E+01 +3.88370E+00 -1.11727E+01 +1.46605E+00 -1.12134E+01 -1.01912E+00
 -1.07085E+01 -3.45081E+00 -9.68341E+00 -5.71080E+00 -8.18880E+00 -7.68940E+00 -6.29814E+00 -9.29078E+00
 -4.10402E+00 -1.04376E+01 -1.71369E+00 -1.10749E+01 +7.56271E-01 -1.11723E+01 +3.18556E+00 -1.07261E+01
 +5.45605E+00 -9.75864E+00 +7.45753E+00 -8.31797E+00 +9.09305E+00 -6.47487E+00 +1.02836E+01 -4.31965E+00
 +1.09720E+01 -1.95766E+00 +1.11255E+01 +4.95874E-01 +1.07374E+01 +2.92143E+00 +9.82760E+00 +5.20104E+00
 +8.44108E+00 +7.22404E+00 +6.64606E+00 +8.89240E+00 +4.53051E+00 +1.01255E+01 +2.19787E+00 +1.08641E+01
 -2.38048E-01 +1.10729E+01 -2.65856E+00 +1.07427E+01 -4.94592E+00 +9.89033E+00 -6.98907E+00 +8.55813E+00
 -8.68898E+00 +6.81166E+00 -9.96349E+00 +4.73653E+00 -1.07512E+01 +2.43422E+00 -1.10147E+01 +1.70921E-02
 -1.07419E+01 -2.39707E+00 -9.94684E+00 -4.69083E+00 -8.66913E+00 -6.75277E+00 -6.97166E+00 -8.48293E+00
 -4.93766E+00 -9.79767E+00 -2.66663E+00 -1.06337E+01 -2.69432E-01 -1.09510E+01 +2.13711E+00 -1.07351E+01
 +4.43591E+00 -9.99718E+00 +6.51528E+00 -8.77407E+00 +8.27441E+00 -7.12601E+00 +9.62821E+00 -5.13383E+00
 +1.05115E+01 -2.89501E+00 +1.08819E+01 -5.18863E-01 +1.07224E+01 +1.87880E+00 +1.00414E+01 +4.18130E+00
 +8.87297E+00 +6.27675E+00 +7.27469E+00 +8.06354E+00 +5.32499E+00 +9.45522E+00 +3.11928E+00 +1.03847E+01
 +7.65276E-01 +1.08075E+01 -1.62227E+00 +1.07038E+01 -3.92714E+00 +1.00795E+01 -6.03733E+00 +8.96583E+00
 -7.85048E+00 +7.41769E+00 -9.27884E+00 +5.51109E+00 -1.02535E+01 +3.33936E+00 -1.07278E+01 +1.00857E+00
 -1.06795E+01 -1.36763E+00 -1.01116E+01 -3.67356E+00 -9.05267E+00 -5.79715E+00 -7.55498E+00 -7.63536E+00
 -5.69207E+00 -9.09921E+00 -3.55516E+00 -1.01181E+01 -1.24863E+00 -1.06431E+01 +1.11502E+00 -1.06494E+01
 +3.42071E+00 -1.01377E+01 +5.55636E+00 -9.13351E+00 +7.41833E+00 -7.68655E+00 +8.91647E+00 -5.86790E+00
 +9.97845E+00 -3.76662E+00 +1.05533E+01 -1.48538E+00 +1.06138E+01 +8.64542E-01 +1.01578E+01 +3.16871E+00
 +9.20836E+00 +5.31511E+00 +7.81239E+00 +7.19954E+00 +6.03853E+00 +8.73074E+00 +3.97366E+00 +9.83478E+00
 +1.71871E+00 +1.04586E+01 -6.16323E-01 +1.05726E+01 -2.91770E+00 +1.01721E+01 -5.07352E+00 +9.27726E+00
 -6.97912E+00 +7.93250E+00 -8.54218E+00 +6.20392E+00 -9.68719E+00 +4.17622E+00 -1.03591E+01 +1.94852E+00
 -1.05260E+01 -3.70475E-01 -1.01805E+01 -2.66781E+00 -9.34022E+00 -4.83175E+00 -8.04686E+00 -6.75721E+00
 -6.36404E+00 -8.35090E+00 -4.37423E+00 -9.53581E+00 -2.17474E+00 -1.02549E+01 +1.27109E-01 -1.04740E+01
 +2.41916E+00 -1.01831E+01 +4.58992E+00 -9.39728E+00 +6.53396E+00 -8.15548E+00 +8.15706E+00 -6.51885E+00
 +9.38076E+00 -4.56764E+00 +1.01461E+01 -2.39727E+00 +1.04167E+01 -1.13668E-01 +1.01800E+01 +2.17188E+00
 +9.44846E+00 +4.34817E+00 +8.25836E+00 +6.30950E+00 +6.66834E+00 +7.96078E+00 +4.75638E+00 +9.22216E+00
 +2.61602E+00 +1.00329E+01 +3.51747E-01 +1.03542E+01 -1.92609E+00 +1.01713E+01 -4.10664E+00 +9.49382E+00
 -6.08397E+00 +8.35550E+00 -7.76220E+00 +6.81246E+00 -9.06016E+00 +4.94040E+00 -9.91528E+00 +2.83093E+00
 -1.02867E+01 +5.87027E-01 -1.01570E+01 -1.68191E+00 -9.53338E+00 -3.86546E+00 -8.44692E+00 -5.85751E+00
 -6.95121E+00 -7.56147E+00 -5.11966E+00 -8.89486E+00 -3.04190E+00 -9.79342E+00 -8.19407E-01 -1.02141E+01
 +1.43946E+00 -1.01372E+01 +3.62475E+00 -9.56718E+00 +5.63026E+00 -8.53262E+00 +7.35870E+00 -7.08456E+00
 +8.72641E+00 -5.29409E+00 +9.66742E+00 -3.24887E+00 +1.01366E+01 -1.04879E+00 +1.01119E+01 +1.19886E+00
 +9.59527E+00 +3.38466E+00 +8.61262E+00 +5.40235E+00 +7.21249E+00 +7.15405E+00 +5.46366E+00 +8.55493E+00
 +3.45176E+00 +9.53741E+00 +1.27507E+00 +1.00543E+01 -9.60225E-01 +1.00813E+01 -3.14530E+00 +9.61770E+00
 -5.17392E+00 +8.68694E+00 -6.94764E+00 +7.33500E+00 -8.38055E+00 +5.62833E+00 -9.40349E+00 +3.65050E+00
 -9.96732E+00 +1.49817E+00 -1.00453E+01 -7.23662E-01 -9.63451E+00 -2.90680E+00 -8.75559E+00 -4.94510E+00
 -7.45208E+00 -6.73960E+00 -5.78805E+00 -8.20340E+00 -3.84503E+00 -9.26579E+00 -1.71800E+00 -9.87571E+00
 +4.89281E-01 -1.00042E+01 +2.66929E+00 -9.64577E+00 +4.71601E+00 -8.81861E+00 +6.53008E+00 -7.56371E+00
 +8.02360E+00 -5.94280E+00 +9.12441E+00 -4.03529E+00 +9.77958E+00 -1.93446E+00 +9.95792E+00 +2.57189E-01
 +9.65151E+00 +2.43289E+00 +8.87602E+00 +4.48681E+00 +7.66990E+00 +6.31921E+00 +6.09253E+00 +7.84129E+00
 +4.22122E+00 +8.97950E+00 +2.14748E+00 +9.67904E+00 -2.74927E-02 +9.90659E+00 -2.19771E+00 +9.65180E+00
 -4.25760E+00 +8.92784E+00 -6.10711E+00 +7.77065E+00 -7.65660E+00 +6.23723E+00 -8.83115E+00 +4.40276E+00
 -9.57420E+00 +2.35696E+00 -9.85029E+00 +1.99708E-01 -9.64670E+00 -1.96388E+00 -8.97411E+00 -4.02852E+00
 -7.86596E+00 -5.89393E+00 -6.37686E+00 -7.46965E+00 -4.57985E+00 -8.67949E+00 -2.56284E+00 -9.46516E+00
 -4.24312E-01 -9.78910E+00 +1.73150E+00 -9.63627E+00 +3.79970E+00 -9.01486E+00 +5.67978E+00 -7.95584E+00
 +7.28058E+00 -6.51140E+00 +8.52465E+00 -4.75245E+00 +9.35203E+00 -2.76504E+00 +9.72312E+00 -6.46223E-01
 +9.62058E+00 +1.50071E+00 +9.05014E+00 +3.57125E+00 +8.04029E+00 +5.46480E+00 +6.64084E+00 +7.08951E+00
 +4.92051E+00 +8.36675E+00 +2.96348E+00 +9.23492E+00 +8.65347E-01 +9.65243E+00 -1.27160E+00 +9.59968E+00
 -3.34332E+00 +9.07998E+00 -5.24913E+00 +8.11932E+00 -6.89657E+00 +6.76516E+00 -8.20589E+00 +5.08398E+00
 -9.11393E+00 +3.15810E+00 -9.57713E+00 +1.08159E+00 -9.57366E+00 -1.04428E+00 -9.10442E+00 -3.11601E+00
 -8.19296E+00 -5.03288E+00 -6.88434E+00 -6.70189E+00 -5.24283E+00 -8.04222E+00 -3.34883E+00 -8.98918E+00
 -1.29487E+00 -9.49731E+00 +8.18866E-01 -9.54258E+00 +2.88944E+00 -9.12351E+00 +4.81619E+00 -8.26123E+00
 +6.50560E+00 -6.99837E+00 +7.87585E+00 -5.39702E+00 +8.86077E+00 -3.53560E+00 +9.41305E+00 -1.50509E+00
 +9.50650E+00 +5.95460E-01 +9.13730E+00 +2.66374E+00 +8.32413E+00 +4.59918E+00 +7.10725E+00 +6.30782E+00
 +5.54650E+00 +7.70689E+00 +3.71835E+00 +8.72882E+00 +1.71217E+00 +9.32446E+00 -3.74165E-01 +9.46552E+00
 -2.43902E+00 +9.14584E+00 -4.38197E+00 +8.38170E+00 -6.10869E+00 +7.21097E+00 -7.53549E+00 +5.69126E+00
 -8.59343E+00 +3.89703E+00 -9.23163E+00 +1.91603E+00 -9.41970E+00 -1.55081E-01 -9.14918E+00 -2.21540E+00
 -8.43396E+00 -4.16470E+00 -7.30953E+00 -5.90832E+00 -5.83125E+00 -7.36175E+00 -4.07159E+00 -8.45474E+00
 -2.11659E+00 -9.13467E+00 -6.16936E-02 -9.36912E+00 +1.99298E+00 -9.14737E+00 +3.94747E+00 -8.48094E+00
 +5.70684E+00 -7.40293E+00 +7.18580E+00 -5.96646E+00 +8.31284E+00 -4.24196E+00 +9.03367E+00 -2.31378E+00
 +9.31386E+00 -2.76063E-01 +9.14048E+00 +1.77189E+00 +8.52267E+00 +3.73042E+00 +7.49118E+00 +5.50438E+00
 +6.09686E+00 +7.00776E+00 +4.40809E+00 +8.16784E+00 +2.50752E+00 +8.92872E+00 +4.87935E-01 +9.25401E+00
 -1.55222E+00 +9.12856E+00 -3.51365E+00 +8.55918E+00 -5.30106E+00 +7.57428E+00 -6.82776E+00 +6.22242E+00
 -8.01988E+00 +4.56995E+00 -8.81994E+00 +2.69774E+00 -9.18965E+00 +6.97217E-01 -9.11167E+00 -1.33409E+00
 -8.59052E+00 -3.29730E+00 -7.65225E+00 -5.09701E+00 -6.34315E+00 -6.64592E+00 -4.72749E+00 -7.86905E+00
 -2.88438E+00 -8.70743E+00 -9.03821E-01 -9.12086E+00 +1.11760E+00 -9.08989E+00 +3.08147E+00 -8.61672E+00
 +4.89234E+00 -7.72509E+00 +6.46235E+00 -6.45901E+00 +7.71549E+00 -4.88067E+00 +8.59128E+00 -3.06736E+00
 +9.04773E+00 -1.10766E+00 +9.06326E+00 +9.02850E-01 +8.63783E+00 +2.86628E+00 +7.79281E+00 +4.68718E+00
 +6.56999E+00 +6.27718E+00 +5.02945E+00 +7.55929E+00 +3.24663E+00 +8.47161E+00 +1.30865E+00 +8.97034E+00
 -6.89947E-01 +9.03187E+00 -2.65184E+00 +8.65388E+00 -4.48165E+00 +7.85545E+00 -6.09053E+00 +6.67610E+00
 -7.40058E+00 +5.17379E+00 -8.34852E+00 +3.42213E+00 -8.88880E+00 +1.50672E+00 -8.99578E+00 -4.78987E-01
 -8.66492E+00 -2.43827E+00 -7.91302E+00 -4.27586E+00 -6.77732E+00 -5.90253E+00 -5.31367E+00 -7.23948E+00
 -3.59380E+00 -8.22211E+00 -1.70178E+00 -8.80319E+00 +2.70066E-01 -8.95506E+00 +2.22568E+00 -8.67101E+00
 +4.06993E+00 -7.96554E+00 +5.71328E+00 -6.87365E+00 +7.07609E+00 -5.44905E+00 +8.09250E+00 -3.76158E+00
 +8.71360E+00 -1.89375E+00 +8.90978E+00 +6.32796E-02 +8.67218E+00 +2.01416E+00 +8.01304E+00 +3.86399E+00
 +6.96508E+00 +5.52292E+00 +5.57991E+00 +6.91055E+00 +3.92543E+00 +7.95978E+00 +2.08257E+00 +8.62012E+00
 +1.41281E-01 +8.86003E+00 -1.80383E+00 +8.66851E+00 -3.65813E+00 +8.05555E+00 -5.33155E+00 +7.05163E+00
 -6.74295E+00 +5.70622E+00 -7.82408E+00 +4.08529E+00 -8.52285E+00 +2.26816E+00 -8.80588E+00 +3.43526E-01
 -8.66003E+00 -1.59480E+00 -8.09309E+00 -3.45249E+00 -7.13330E+00 -5.13930E+00 -5.82796E+00 -6.57342E+00
 -4.24113E+00 -7.68549E+00 -2.45045E+00 -8.42189E+00 -5.43368E-01 -8.74740E+00 +1.38716E+00 -8.64682E+00
 +3.24717E+00 -8.12571E+00 +4.94628E+00 -7.21009E+00 +6.40208E+00 -5.94512E+00 +7.54412E+00 -4.39290E+00
 +8.31733E+00 -2.62939E+00 +8.68467E+00 -7.40721E-01 +8.62892E+00 +1.18102E+00 +8.15343E+00 +3.04228E+00
 +7.28201E+00 +4.75261E+00 +6.05768E+00 +6.22904E+00 +4.54055E+00 +7.40009E+00 +2.80490E+00 +8.20927E+00
