 Created: 19-Jan-2021
 $NMID
 ID='D:\BASISSIMULATI'
 FMTDAT='(8E13.5)'
 VOLUME=   1.00000E+00
 TRAMP=   1.00000E+00
 $END
 +1.01974E+02 +7.71311E-01 +9.89340E+01 +2.32449E+01 +9.04780E+01 +4.41884E+01 +7.72117E+01 +6.22532E+01
 +6.00782E+01 +7.63070E+01 +4.02849E+01 +8.55182E+01 +1.92101E+01 +8.94148E+01 -1.70254E+00 +8.79160E+01
 -2.10545E+01 +8.13328E+01 -3.75974E+01 +7.03379E+01 -5.03256E+01 +5.59078E+01 -5.85482E+01 +3.92417E+01
 -6.19352E+01 +2.16646E+01 -6.05351E+01 +4.52094E+00 -5.47609E+01 -1.09304E+01 -4.53489E+01 -2.36134E+01
 -3.32906E+01 -3.27154E+01 -1.97469E+01 -3.77448E+01 -5.94886E+00 -3.85617E+01 +6.90434E+00 -3.53796E+01
 +1.77436E+01 -2.87377E+01 +2.57153E+01 -1.94472E+01 +3.02468E+01 -8.51531E+00 +3.10881E+01 +2.94446E+00
 +2.83249E+01 +1.38107E+01 +2.23638E+01 +2.30507E+01 +1.38898E+01 +2.98083E+01 +3.80141E+00 +3.34753E+01
 -6.87241E+00 +3.37409E+01 -1.70648E+01 +3.06146E+01 -2.57665E+01 +2.44219E+01 -3.21150E+01 +1.57716E+01
 -3.54705E+01 +5.50027E+00 -3.54724E+01 -5.40426E+00 -3.20706E+01 -1.58911E+01 -2.55303E+01 -2.49403E+01
 -1.64091E+01 -3.16540E+01 -5.50885E+00 -3.53367E+01 +6.19417E+00 -3.55583E+01 +1.76339E+01 -3.21946E+01
 +2.77477E+01 -2.54405E+01 +3.55691E+01 -1.57971E+01 +4.03136E+01 -4.03104E+00 +4.14488E+01 +8.88836E+00
 +3.87437E+01 +2.18702E+01 +3.22925E+01 +3.37938E+01 +2.25113E+01 +4.36042E+01 +1.01070E+01 +5.04027E+01
 -3.97842E+00 +5.35246E+01 -1.86440E+01 +5.25987E+01 -3.27196E+01 +4.75819E+01 -4.50630E+01 +3.87673E+01
 -5.46547E+01 +2.67638E+01 -6.06838E+01 +1.24494E+01 -6.26174E+01 -3.09806E+00 -6.02470E+01 -1.86875E+01
 -5.37089E+01 -3.31112E+01 -4.34765E+01 -4.52432E+01 -3.03241E+01 -5.41321E+01 -1.52662E+01 -5.90800E+01
 +5.22751E-01 -5.97011E+01 +1.58033E+01 -5.59548E+01 +2.93708E+01 -4.81518E+01 +4.01535E+01 -3.69304E+01
 +4.72999E+01 -2.32065E+01 +5.02490E+01 -8.10150E+00 +4.87766E+01 +7.14842E+00 +4.30152E+01 +2.12910E+01
 +3.34444E+01 +3.31593E+01 +2.08537E+01 +4.17659E+01 +6.27981E+00 +4.63833E+01 -9.07620E+00 +4.66032E+01
 -2.39448E+01 +4.23700E+01 -3.70898E+01 +3.39864E+01 -4.74077E+01 +2.20895E+01 -5.40159E+01 +7.60070E+00
 -5.63237E+01 -8.34800E+00 -5.40794E+01 -2.45038E+01 -4.73904E+01 -3.95931E+01 -3.67144E+01 -5.24227E+01
 -2.28224E+01 -6.19743E+01 -6.73694E+00 -6.74847E+01 +1.03497E+01 -6.85055E+01 +2.71705E+01 -6.49372E+01
 +4.24841E+01 -5.70347E+01 +5.51726E+01 -4.53854E+01 +6.43293E+01 -3.08601E+01 +6.93275E+01 -1.45413E+01
 +6.98683E+01 +2.36401E+00 +6.59994E+01 +1.86215E+01 +5.81080E+01 +3.30678E+01 +4.68843E+01 +4.47019E+01
 +3.32629E+01 +5.27627E+01 +1.83434E+01 +5.67856E+01 +3.29950E+00 +5.66355E+01 -1.07169E+01 +5.25114E+01
 -2.26691E+01 +4.49240E+01 -3.17178E+01 +3.46484E+01 -3.72860E+01 +2.26553E+01 -3.91020E+01 +1.00265E+01
 -3.72157E+01 -2.13670E+00 -3.19884E+01 -1.28062E+01 -2.40561E+01 -2.11128E+01 -1.42711E+01 -2.64167E+01
 -3.62516E+00 -2.83584E+01 +6.83796E+00 -2.68856E+01 +1.61136E+01 -2.22527E+01 +2.33233E+01 -1.49951E+01
 +2.77898E+01 -5.87947E+00 +2.90952E+01 +4.16589E+00 +2.71161E+01 +1.41337E+01 +2.20327E+01 +2.30273E+01
 +1.43129E+01 +2.99484E+01 +4.67012E+00 +3.41771E+01 -5.99850E+00 +3.52357E+01 -1.66912E+01 +3.29324E+01
 -2.63889E+01 +2.73795E+01 -3.41453E+01 +1.89866E+01 -3.91699E+01 +8.42763E+00 -4.08993E+01 -3.41535E+00
 -3.90489E+01 -1.55257E+01 -3.36415E+01 -2.68385E+01 -2.50097E+01 -3.63312E+01 -1.37725E+01 -4.31117E+01
 -7.86829E-01 -4.64963E+01 +1.29206E+01 -4.60705E+01 +2.62368E+01 -4.17283E+01 +3.80543E+01 -3.36858E+01
 +4.73625E+01 -2.24683E+01 +5.33326E+01 -8.87129E+00 +5.53883E+01 +6.10035E+00 +5.32558E+01 +2.13119E+01
 +4.69896E+01 +3.55890E+01 +3.69726E+01 +4.78119E+01 +2.38878E+01 +5.70063E+01 +8.66710E+00 +6.24222E+01
 -7.58156E+00 +6.35958E+01 -2.36609E+01 +6.03882E+01 -3.83788E+01 +5.29983E+01 -5.06428E+01 +4.19478E+01
 -5.95467E+01 +2.80415E+01 -6.44419E+01 +1.23037E+01 -6.49892E+01 -4.10261E+00 -6.11845E+01 -1.99674E+01
 -5.33584E+01 -3.41295E+01 -4.21492E+01 -4.55678E+01 -2.84500E+01 -5.34814E+01 -1.33372E+01 -5.73516E+01
 +2.01645E+00 -5.69810E+01 +1.64360E+01 -5.25065E+01 +2.88379E+01 -4.43854E+01 +3.83156E+01 -3.33556E+01
 +4.42104E+01 -2.03739E+01 +4.61620E+01 -6.53611E+00 +4.41342E+01 +7.01254E+00 +3.84136E+01 +1.91711E+01
 +2.95833E+01 +2.89719E+01 +1.84711E+01 +3.56579E+01 +6.07917E+00 +3.87422E+01 -6.50026E+00 +3.80454E+01
 -1.81764E+01 +3.37063E+01 -2.79500E+01 +2.61678E+01 -3.49952E+01 +1.61363E+01 -3.87272E+01 +4.52073E+00
 -3.88483E+01 -7.64550E+00 -3.53705E+01 -1.92918E+01 -2.86124E+01 -2.94004E+01 -1.91699E+01 -3.70918E+01
 -7.86458E+00 -4.16975E+01 +4.32707E+00 -4.28151E+01 +1.63563E+01 -4.03411E+01 +2.71911E+01 -3.44781E+01
 +3.59030E+01 -2.57166E+01 +4.17449E+01 -1.47929E+01 +4.42140E+01 -2.62618E+00 +4.30933E+01 +9.75912E+00
 +3.84694E+01 +2.13199E+01 +3.07251E+01 +3.10821E+01 +2.05071E+01 +3.82230E+01 +8.67081E+00 +4.21397E+01
 -3.79065E+00 +4.25003E+01 -1.58304E+01 +3.92716E+01 -2.64355E+01 +3.27221E+01 -3.47117E+01 +2.33997E+01
 -3.99586E+01 +1.20858E+01 -4.17286E+01 -2.69281E-01 -3.98643E+01 -1.26263E+01 -3.45125E+01 -2.39431E+01
 -2.61119E+01 -3.32621E+01 -1.53575E+01 -3.97902E+01 -3.14288E+00 -4.29650E+01 +9.51396E+00 -4.25022E+01
 +2.15549E+01 -3.84199E+01 +3.19694E+01 -3.10374E+01 +3.98791E+01 -2.09496E+01 +4.46103E+01 -8.97794E+00
 +4.57505E+01 +3.89703E+00 +4.31834E+01 +1.66166E+01 +3.70984E+01 +2.81313E+01 +2.79763E+01 +3.74878E+01
 +1.65495E+01 +4.39075E+01 +3.74277E+00 +4.68514E+01 -9.40353E+00 +4.60647E+01 -2.18182E+01 +4.15985E+01
 -3.24878E+01 +3.38054E+01 -4.05395E+01 +2.33119E+01 -4.53134E+01 +1.09660E+01 -4.64168E+01 -2.23098E+00
 -4.37561E+01 -1.52074E+01 -3.75454E+01 -2.69086E+01 -2.82884E+01 -3.63833E+01 -1.67372E+01 -4.28619E+01
 -3.83101E+00 -4.58187E+01 +9.38094E+00 -4.50155E+01 +2.18254E+01 -4.05203E+01 +3.24928E+01 -3.27019E+01
 +4.05196E+01 -2.21988E+01 +4.52588E+01 -9.86699E+00 +4.63320E+01 +3.29043E+00 +4.36605E+01 +1.62058E+01
 +3.74703E+01 +2.78340E+01 +2.82730E+01 +3.72381E+01 +1.68234E+01 +4.36656E+01 +4.05676E+00 +4.66092E+01
 -8.98848E+00 +4.58477E+01 -2.12558E+01 +4.14630E+01 -3.17574E+01 +3.38324E+01 -3.96550E+01 +2.35959E+01
 -4.43279E+01 +1.16036E+01 -4.54228E+01 -1.15625E+00 -4.28821E+01 -1.36380E+01 -3.69470E+01 -2.48257E+01
 -2.81363E+01 -3.38161E+01 -1.72026E+01 -3.98931E+01 -5.06841E+00 -4.25855E+01 +7.25004E+00 -4.17053E+01
 +1.87279E+01 -3.73617E+01 +2.84163E+01 -2.99508E+01 +3.55209E+01 -2.01217E+01 +3.94674E+01 -8.72129E+00
 +3.99479E+01 +3.27648E+00 +3.69460E+01 +1.48524E+01 +3.07372E+01 +2.50269E+01 +2.18650E+01 +3.29415E+01
 +1.10947E+01 +3.79300E+01 -6.50601E-01 +3.95739E+01 -1.23674E+01 +3.77364E+01 -2.30558E+01 +3.25739E+01
 -3.18029E+01 +2.45222E+01 -3.78588E+01 +1.42598E+01 -4.06993E+01 +2.65183E+00 -4.00693E+01 -9.32293E+00
 -3.60043E+01 -2.06531E+01 -2.88275E+01 -3.03792E+01 -1.91228E+01 -3.76733E+01 -7.68690E+00 -4.19083E+01
 +4.53682E+00 -4.27098E+01 +1.65367E+01 -3.99877E+01 +2.73162E+01 -3.39443E+01 +3.59767E+01 -2.50571E+01
 +4.17919E+01 -1.40404E+01 +4.42679E+01 -1.78626E+00 +4.31843E+01 +1.07090E+01 +3.86124E+01 +2.24265E+01
 +3.09102E+01 +3.24090E+01 +2.06923E+01 +3.98394E+01 +8.78024E+00 +4.41083E+01 -3.86545E+00 +4.48634E+01
 -1.62237E+01 +4.20391E+01 -2.72965E+01 +3.58614E+01 -3.61913E+01 +2.68292E+01 -4.21931E+01 +1.56731E+01
 -4.48234E+01 +3.29588E+00 -4.38787E+01 -9.30245E+00 -3.94466E+01 -2.11061E+01 -3.18983E+01 -3.11669E+01
 -2.18569E+01 -3.86815E+01 -1.01465E+01 -4.30570E+01 +2.27678E+00 -4.39587E+01 +1.44028E+01 -4.13363E+01
 +2.52510E+01 -3.54279E+01 +3.39503E+01 -2.67383E+01 +3.98103E+01 -1.59973E+01 +4.23775E+01 -4.09821E+00
 +4.14711E+01 +7.97587E+00 +3.71972E+01 +1.92337E+01 +2.99382E+01 +2.87575E+01 +2.03206E+01 +3.57785E+01
 +9.16152E+00 +3.97394E+01 -2.59915E+00 +4.03400E+01 -1.39776E+01 +3.75606E+01 -2.40274E+01 +3.16626E+01
 -3.19184E+01 +2.31654E+01 -3.70049E+01 +1.28026E+01 -3.88785E+01 +1.45985E+00 -3.74018E+01 -9.89921E+00
 -3.27185E+01 -2.03136E+01 -2.52409E+01 -2.89050E+01 -1.56146E+01 -3.49509E+01 -4.66415E+00 -3.79447E+01
 +6.67604E+00 -3.76372E+01 +1.74401E+01 -3.40576E+01 +2.67115E+01 -2.75102E+01 +3.36991E+01 -1.85490E+01
 +3.78041E+01 -7.93127E+00 +3.86690E+01 +3.44566E+00 +3.62083E+01 +1.46195E+01 +3.06153E+01 +2.46432E+01
 +2.23464E+01 +3.26637E+01 +1.20832E+01 +3.79936E+01 +6.76087E-01 +4.01680E+01 -1.09261E+01 +3.89843E+01
 -2.17552E+01 +3.45184E+01 -3.09035E+01 +2.71198E+01 -3.75996E+01 +1.73828E+01 -4.12725E+01 +6.09724E+00
 -4.15986E+01 -5.81558E+00 -3.85299E+01 -1.73795E+01 -3.22974E+01 -2.76437E+01 -2.33933E+01 -3.57610E+01
 -1.25304E+01 -4.10582E+01 -5.84024E-01 -4.30910E+01 +1.14798E+01 -4.16813E+01 +2.26836E+01 -3.69320E+01
 +3.21184E+01 -2.92186E+01 +3.90185E+01 -1.91585E+01 +4.28239E+01 -7.56061E+00 +4.32264E+01 +4.64067E+00
 +4.01943E+01 +1.64623E+01 +3.39752E+01 +2.69526E+01 +2.50751E+01 +3.52695E+01 +1.42170E+01 +4.07484E+01
 +2.28140E+00 +4.29569E+01 -9.76604E+00 +4.17293E+01 -2.09535E+01 +3.71795E+01 -3.03823E+01 +2.96911E+01
 -3.73003E+01 +1.98851E+01 -4.11629E+01 +8.56871E+00 -4.16767E+01 -3.33161E+00 -3.88230E+01 -1.48462E+01
 -3.28577E+01 -2.50420E+01 -2.42900E+01 -3.30984E+01 -1.38387E+01 -3.83746E+01 -2.37314E+00 -4.04612E+01
 +9.15932E+00 -3.92126E+01 +1.98115E+01 -3.47581E+01 +2.87141E+01 -2.74899E+01 +3.51473E+01 -1.80296E+01
 +3.85991E+01 -7.17578E+00 +3.88067E+01 +4.16246E+00 +3.57771E+01 +1.50413E+01 +2.97855E+01 +2.45603E+01
 +2.13508E+01 +3.19368E+01 +1.11923E+01 +3.65698E+01 +1.68429E-01 +3.80898E+01 -1.07942E+01 +3.63878E+01
 -2.07786E+01 +3.16237E+01 -2.89532E+01 +2.42117E+01 -3.46410E+01 +1.47854E+01 -3.73749E+01 +4.14396E+00
 -3.69363E+01 -6.81469E+00 -3.33725E+01 -1.71691E+01 -2.69920E+01 -2.60509E+01 -1.83380E+01 -3.27173E+01
 -8.14264E+00 -3.66126E+01 +2.73418E+00 -3.74143E+01 +1.33771E+01 -3.50590E+01 +2.28916E+01 -2.97483E+01
 +3.04787E+01 -2.19307E+01 +3.55013E+01 -1.22644E+01 +3.75374E+01 -1.56199E+00 +3.64152E+01 +9.27722E+00
 +3.22273E+01 +1.93425E+01 +2.53227E+01 +2.77873E+01 +1.62780E+01 +3.39004E+01 +5.84936E+00 +3.71646E+01
