 Created: 19-Jan-2021
 $NMID
 ID='D:\BASISSIMULATI'
 FMTDAT='(8E13.5)'
 VOLUME=   1.00000E+00
 TRAMP=   1.00000E+00
 $END
 +6.49268E+01 +1.19491E+00 +6.03360E+01 +9.66359E+00 +4.63040E+01 +1.80781E+01 +2.66701E+01 +2.64077E+01
 +6.57151E+00 +3.36660E+01 -9.25772E+00 +3.80913E+01 -1.79311E+01 +3.78839E+01 -1.90798E+01 +3.21592E+01
 -1.45690E+01 +2.16437E+01 -7.47432E+00 +8.73507E+00 -8.01284E-01 -3.16722E+00 +3.51549E+00 -1.08240E+01
 +4.98428E+00 -1.23347E+01 +4.26382E+00 -7.83513E+00 +2.46714E+00 +5.81110E-01 +4.64969E-01 +9.68165E+00
 -1.47072E+00 +1.63047E+01 -3.56295E+00 +1.84566E+01 -6.10303E+00 +1.58668E+01 -9.00181E+00 +9.82620E+00
 -1.16116E+01 +2.45090E+00 -1.29439E+01 -4.25164E+00 -1.21753E+01 -9.09354E+00 -9.15940E+00 -1.19211E+01
 -4.64141E+00 -1.33223E+01 -1.70878E-02 -1.40579E+01 +3.28457E+00 -1.45545E+01 +4.50572E+00 -1.47240E+01
 +3.99214E+00 -1.41712E+01 +3.10721E+00 -1.26235E+01 +3.62602E+00 -1.02933E+01 +6.86899E+00 -7.92226E+00
 +1.29805E+01 -6.43735E+00 +2.07119E+01 -6.38281E+00 +2.78446E+01 -7.44092E+00 +3.20898E+01 -8.34736E+00
 +3.20674E+01 -7.32590E+00 +2.79165E+01 -2.90222E+00 +2.12451E+01 +5.26230E+00 +1.44304E+01 +1.59338E+01
 +9.57806E+00 +2.65362E+01 +7.61608E+00 +3.40260E+01 +7.93702E+00 +3.60817E+01 +8.75444E+00 +3.21036E+01
 +8.00668E+00 +2.35675E+01 +4.38695E+00 +1.35370E+01 -1.98150E+00 +5.50073E+00 -9.54169E+00 +2.00412E+00
 -1.59746E+01 +3.64823E+00 -1.92351E+01 +8.88160E+00 -1.84724E+01 +1.46763E+01 -1.44078E+01 +1.78014E+01
 -8.99819E+00 +1.61567E+01 -4.54365E+00 +9.60970E+00 -2.65654E+00 +5.39268E-03 -3.56827E+00 -9.62507E+00
 -6.09024E+00 -1.62930E+01 -8.23738E+00 -1.81899E+01 -8.21503E+00 -1.52754E+01 -5.30418E+00 -9.12348E+00
 -2.32108E-01 -2.16028E+00 +5.14086E+00 +3.32318E+00 +8.66998E+00 +5.94848E+00 +8.91647E+00 +5.52517E+00
 +5.82744E+00 +2.79544E+00 +8.02565E-01 -1.13254E+00 -3.87110E+00 -5.32687E+00 -5.95135E+00 -9.27729E+00
 -4.12351E+00 -1.27680E+01 +1.53902E+00 -1.55251E+01 +9.69766E+00 -1.69156E+01 +1.83452E+01 -1.59429E+01
 +2.55653E+01 -1.16137E+01 +3.01060E+01 -3.52241E+00 +3.15487E+01 +7.65043E+00 +3.00809E+01 +2.00320E+01
 +2.60845E+01 +3.09817E+01 +1.98251E+01 +3.79323E+01 +1.14418E+01 +3.93140E+01 +1.23855E+00 +3.51583E+01
 -9.92454E+00 +2.70975E+01 -2.04357E+01 +1.77354E+01 -2.81524E+01 +9.64769E+00 -3.10513E+01 +4.44198E+00
 -2.80729E+01 +2.28132E+00 -1.97749E+01 +2.06320E+00 -8.43741E+00 +2.14449E+00 +2.52799E+00 +1.25128E+00
 +9.70334E+00 -8.67362E-01 +1.09028E+01 -3.35372E+00 +6.01490E+00 -4.75774E+00 -2.92482E+00 -3.89379E+00
 -1.24919E+01 -6.05224E-01 -1.91737E+01 +3.95974E+00 -2.06885E+01 +7.72813E+00 -1.67867E+01 +8.59048E+00
 -9.21833E+00 +5.39716E+00 -9.05648E-01 -1.40543E+00 +5.30529E+00 -9.81586E+00 +7.77580E+00 -1.70097E+01
 +6.62121E+00 -2.04604E+01 +3.47903E+00 -1.89652E+01 +6.50646E-01 -1.31272E+01 +3.19914E-02 -5.08553E+00
 +2.31486E+00 +2.38461E+00 +6.78850E+00 +7.00454E+00 +1.17798E+01 +7.86873E+00 +1.54796E+01 +5.70252E+00
 +1.67460E+01 +2.42305E+00 +1.55166E+01 +2.32640E-01 +1.26763E+01 +6.66072E-01 +9.49264E+00 +4.00661E+00
 +6.93663E+00 +9.29261E+00 +5.23526E+00 +1.48554E+01 +3.86615E+00 +1.90937E+01 +1.96695E+00 +2.11087E+01
 -1.08033E+00 +2.09248E+01 -5.21325E+00 +1.92451E+01 -9.63837E+00 +1.69265E+01 -1.31967E+01 +1.44808E+01
 -1.49532E+01 +1.18708E+01 -1.46966E+01 +8.69431E+00 -1.30765E+01 +4.62602E+00 -1.12871E+01 -1.55972E-01
 -1.04466E+01 -4.83016E+00 -1.09834E+01 -8.19611E+00 -1.23561E+01 -9.23791E+00 -1.32751E+01 -7.70323E+00
 -1.23464E+01 -4.37812E+00 -8.83725E+00 -8.69230E-01 -3.18122E+00 +1.05498E+00 +3.05222E+00 +2.80877E-01
 +7.75225E+00 -3.06489E+00 +9.18000E+00 -7.56879E+00 +6.78767E+00 -1.10918E+01 +1.55288E+00 -1.17202E+01
 -4.35224E+00 -8.68556E+00 -8.43589E+00 -2.82363E+00 -8.92863E+00 +3.67131E+00 -5.52941E+00 +8.12498E+00
 +4.81998E-01 +8.53246E+00 +6.82039E+00 +4.47789E+00 +1.12008E+01 -2.58984E+00 +1.23216E+01 -9.86628E+00
 +1.03826E+01 -1.42842E+01 +6.90985E+00 -1.37330E+01 +3.97776E+00 -7.89364E+00 +3.19149E+00 +1.65602E+00
 +4.90287E+00 +1.20883E+01 +8.01953E+00 +2.04327E+01 +1.04934E+01 +2.46641E+01 +1.02628E+01 +2.43266E+01
 +6.21911E+00 +2.04747E+01 -1.23890E+00 +1.50205E+01 -1.03043E+01 +9.82914E+00 -1.84621E+01 +5.98435E+00
 -2.34702E+01 +3.52958E+00 -2.41907E+01 +1.74377E+00 -2.09273E+01 -2.48588E-01 -1.51615E+01 -2.87585E+00
 -8.85313E+00 -5.83703E+00 -3.64896E+00 -8.26631E+00 -3.55196E-01 -9.23391E+00 +1.13060E+00 -8.30117E+00
 +1.46756E+00 -5.82613E+00 +1.33908E+00 -2.85076E+00 +1.04446E+00 -6.22071E-01 +4.24599E-01 +8.57330E-03
 -8.67358E-01 -1.00343E+00 -2.93668E+00 -2.89142E+00 -5.33701E+00 -4.48956E+00 -7.09605E+00 -4.85572E+00
 -7.10906E+00 -3.78470E+00 -4.72186E+00 -1.93886E+00 -1.98161E-01 -5.12287E-01 +5.20443E+00 -5.82816E-01
 +9.64777E+00 -2.47526E+00 +1.14705E+01 -5.47050E+00 +9.95523E+00 -8.03786E+00 +5.73492E+00 -8.51420E+00
 +6.13685E-01 -5.92409E+00 -3.16132E+00 -5.46435E-01 -3.87684E+00 +6.06819E+00 -1.14627E+00 +1.16771E+01
 +3.85235E+00 +1.42874E+01 +8.82524E+00 +1.30435E+01 +1.13234E+01 +8.64790E+00 +9.80238E+00 +3.10426E+00
 +4.31485E+00 -1.12529E+00 -3.47517E+00 -2.18775E+00 -1.09684E+01 +3.40308E-01 -1.57031E+01 +5.24794E+00
 -1.63561E+01 +1.01981E+01 -1.32395E+01 +1.27294E+01 -8.08755E+00 +1.13133E+01 -3.24801E+00 +6.00622E+00
 -6.50204E-01 -1.57954E+00 -1.00962E+00 -8.95891E+00 -3.60855E+00 -1.37979E+01 -6.72141E+00 -1.48272E+01
 -8.46255E+00 -1.22616E+01 -7.65501E+00 -7.57453E+00 -4.32905E+00 -2.77188E+00 +3.52362E-01 +4.82147E-01
 +4.67188E+00 +1.49079E+00 +7.14436E+00 +6.49295E-01 +7.13873E+00 -9.35604E-01 +5.06322E+00 -2.10050E+00
 +2.06484E+00 -2.21335E+00 -5.72785E-01 -1.41434E+00 -2.01825E+00 -4.22096E-01 -2.18330E+00 -4.27553E-02
 -1.60014E+00 -6.63583E-01 -9.87634E-01 -2.00746E+00 -7.65544E-01 -3.27668E+00 -7.92079E-01 -3.60315E+00
 -4.71412E-01 -2.55685E+00 +8.28184E-01 -4.29973E-01 +3.28054E+00 +1.87055E+00 +6.32000E+00 +3.28313E+00
 +8.75986E+00 +3.17350E+00 +9.29300E+00 +1.72983E+00 +7.14920E+00 -5.66065E-02 +2.58010E+00 -8.50174E-01
 -3.09712E+00 +3.34162E-01 -7.96595E+00 +3.53922E+00 -1.03072E+01 +7.69050E+00 -9.37146E+00 +1.09654E+01
 -5.76053E+00 +1.15747E+01 -1.21532E+00 +8.61363E+00 +2.12356E+00 +2.58306E+00 +2.66632E+00 -4.68747E+00
 +1.08358E-01 -1.07184E+01 -4.39456E+00 -1.33863E+01 -8.70703E+00 -1.18220E+01 -1.06505E+01 -6.79856E+00
 -8.98334E+00 -4.26940E-01 -3.98552E+00 +4.72042E+00 +2.61876E+00 +6.67940E+00 +8.37247E+00 +4.89401E+00
 +1.11199E+01 +4.02102E-01 +9.90907E+00 -4.66326E+00 +5.37060E+00 -8.02516E+00 -5.83297E-01 -8.24086E+00
 -5.59201E+00 -5.28021E+00 -7.83500E+00 -4.68362E-01 -6.74205E+00 +4.15428E+00 -3.13192E+00 +6.74531E+00
 +1.24852E+00 +6.43118E+00 +4.54538E+00 +3.60440E+00 +5.59318E+00 -3.52505E-01 +4.33470E+00 -3.75208E+00
 +1.70871E+00 -5.35646E+00 -8.96427E-01 -4.85413E+00 -2.33239E+00 -2.86541E+00 -2.18790E+00 -5.18958E-01
 -8.75384E-01 +1.15764E+00 +6.95505E-01 +1.71879E+00 +1.65654E+00 +1.42549E+00 +1.63816E+00 +9.80840E-01
 +9.11534E-01 +1.04566E+00 +1.58443E-01 +1.81086E+00 +1.21418E-02 +2.86392E+00 +6.33709E-01 +3.42352E+00
 +1.56795E+00 +2.81515E+00 +1.97244E+00 +9.25219E-01 +1.10969E+00 -1.62675E+00 -1.15840E+00 -3.71724E+00
 -4.15301E+00 -4.25885E+00 -6.58778E+00 -2.78831E+00 -7.14025E+00 +2.05004E-01 -5.12530E+00 +3.40618E+00
 -9.36122E-01 +5.23492E+00 +3.99239E+00 +4.59589E+00 +7.72501E+00 +1.46391E+00 +8.65519E+00 -2.99505E+00
 +6.25113E+00 -6.86060E+00 +1.36457E+00 -8.28400E+00 -4.06591E+00 -6.34087E+00 -7.81244E+00 -1.51630E+00
 -8.31601E+00 +4.41919E+00 -5.37970E+00 +9.11401E+00 -2.79347E-01 +1.06252E+01 +4.77013E+00 +8.26020E+00
 +7.56553E+00 +2.89551E+00 +6.86706E+00 -3.37681E+00 +2.93148E+00 -8.12413E+00 -2.60642E+00 -9.58904E+00
 -7.44685E+00 -7.40389E+00 -9.61256E+00 -2.69928E+00 -8.27477E+00 +2.42676E+00 -4.06187E+00 +5.83031E+00
 +1.26648E+00 +6.22123E+00 +5.61353E+00 +3.65175E+00 +7.44052E+00 -5.97579E-01 +6.36697E+00 -4.65122E+00
 +3.23098E+00 -6.88169E+00 -3.81289E-01 -6.57679E+00 -2.89013E+00 -4.14843E+00 -3.40166E+00 -8.26647E-01
 -2.01218E+00 +1.97866E+00 +3.67808E-01 +3.32586E+00 +2.54289E+00 +3.09714E+00 +3.63127E+00 +1.92134E+00
 +3.43686E+00 +7.43425E-01 +2.43282E+00 +2.87673E-01 +1.39989E+00 +6.97528E-01 +9.36725E-01 +1.52743E+00
 +1.11439E+00 +2.06919E+00 +1.46000E+00 +1.81852E+00 +1.27244E+00 +8.15805E-01 +9.10903E-02 -3.34906E-01
 -1.94833E+00 -7.90344E-01 -4.08315E+00 +3.10673E-02 -5.26187E+00 +2.04366E+00 -4.69585E+00 +4.42024E+00
 -2.34325E+00 +5.92245E+00 +9.41821E-01 +5.49963E+00 +3.70833E+00 +2.86794E+00 +4.54734E+00 -1.23096E+00
 +2.78240E+00 -5.25425E+00 -1.12518E+00 -7.49892E+00 -5.67696E+00 -6.88278E+00 -8.93451E+00 -3.50206E+00
 -9.36558E+00 +1.31460E+00 -6.55995E+00 +5.51348E+00 -1.47720E+00 +7.18280E+00 +3.90915E+00 +5.40116E+00
 +7.43470E+00 +6.82851E-01 +7.67966E+00 -5.19400E+00 +4.60171E+00 -9.91657E+00 -4.21494E-01 -1.16120E+01
 -5.16738E+00 -9.64091E+00 -7.51316E+00 -4.86096E+00 -6.33697E+00 +7.55492E-01 -1.98290E+00 +4.97678E+00
 +3.90670E+00 +6.26187E+00 +9.10638E+00 +4.38879E+00 +1.17459E+01 +4.96403E-01 +1.10581E+01 -3.46071E+00
 +7.62104E+00 -5.58539E+00 +3.01406E+00 -4.84485E+00 -9.28137E-01 -1.46318E+00 -2.91162E+00 +3.24921E+00
 -2.67374E+00 +7.51962E+00 -9.72345E-01 +9.88563E+00 +8.82031E-01 +9.76444E+00 +1.69960E+00 +7.58407E+00
 +9.61131E-01 +4.45923E+00 -1.00424E+00 +1.60604E+00 -3.26746E+00 -2.04069E-01 -4.81923E+00 -8.96006E-01
 -5.08378E+00 -9.58471E-01 -4.16939E+00 -1.03719E+00 -2.74572E+00 -1.49674E+00 -1.63378E+00 -2.19593E+00
 -1.34000E+00 -2.59579E+00 -1.78754E+00 -2.13361E+00 -2.38842E+00 -6.47232E-01 -2.41492E+00 +1.40008E+00
 -1.46609E+00 +3.04415E+00 +2.32203E-01 +3.25953E+00 +1.87441E+00 +1.50545E+00 +2.47073E+00 -1.90467E+00
 +1.40340E+00 -5.82390E+00 -1.14388E+00 -8.71237E+00 -4.12754E+00 -9.31734E+00 -6.02913E+00 -7.27895E+00
 -5.53552E+00 -3.36268E+00 -2.20578E+00 +8.18995E-01 +3.20247E+00 +3.49608E+00 +8.93387E+00 +3.54117E+00
 +1.29115E+01 +1.01311E+00 +1.36095E+01 -2.81891E+00 +1.07359E+01 -6.00283E+00 +5.40912E+00 -6.76087E+00
