 Created: 19-Jan-2021
 $NMID
 ID='D:\BASISSIMULATI'
 FMTDAT='(8E13.5)'
 VOLUME=   1.00000E+00
 TRAMP=   1.00000E+00
 $END
 +5.92586E+01 +7.78352E-01 +5.43879E+01 +1.09694E+01 +3.95471E+01 +1.99515E+01 +1.86830E+01 +2.69007E+01
 -2.87692E+00 +3.08753E+01 -2.00823E+01 +3.09864E+01 -2.96215E+01 +2.67803E+01 -3.06970E+01 +1.86429E+01
 -2.49030E+01 +7.98054E+00 -1.53402E+01 -2.99448E+00 -5.37047E+00 -1.18663E+01 +2.49645E+00 -1.68049E+01
 +7.19853E+00 -1.72198E+01 +9.06801E+00 -1.39802E+01 +9.27132E+00 -9.06752E+00 +9.06887E+00 -4.76881E+00
 +9.24317E+00 -2.72978E+00 +9.91084E+00 -3.26613E+00 +1.07215E+01 -5.24049E+00 +1.12591E+01 -6.57846E+00
 +1.13855E+01 -5.22155E+00 +1.13271E+01 -1.16616E-01 +1.14674E+01 +8.18867E+00 +1.19822E+01 +1.76182E+01
 +1.25479E+01 +2.53022E+01 +1.23265E+01 +2.86845E+01 +1.02868E+01 +2.65473E+01 +5.74056E+00 +1.95244E+01
 -1.16146E+00 +9.88439E+00 -9.23674E+00 +6.67200E-01 -1.65249E+01 -5.47236E+00 -2.09295E+01 -7.24125E+00
 -2.10007E+01 -5.11284E+00 -1.65273E+01 -1.01013E+00 -8.67200E+00 +2.57999E+00 +4.28746E-01 +3.67865E+00
 +8.44435E+00 +1.62565E+00 +1.36859E+01 -2.69320E+00 +1.56451E+01 -7.26933E+00 +1.50139E+01 -9.83962E+00
 +1.31920E+01 -8.82112E+00 +1.15198E+01 -3.92799E+00 +1.05993E+01 +3.75671E+00 +1.00211E+01 +1.22402E+01
 +8.63278E+00 +1.93775E+01 +5.22428E+00 +2.35935E+01 -6.90392E-01 +2.42882E+01 -8.37890E+00 +2.18128E+01
 -1.59482E+01 +1.71069E+01 -2.09762E+01 +1.12264E+01 -2.14774E+01 +5.00446E+00 -1.67952E+01 -1.01420E+00
 -8.02579E+00 -6.39996E+00 +2.23995E+00 -1.05946E+01 +1.07861E+01 -1.28099E+01 +1.49236E+01 -1.21986E+01
 +1.34697E+01 -8.26386E+00 +7.16638E+00 -1.31699E+00 -1.62490E+00 +7.28232E+00 -9.82229E+00 +1.53036E+01
 -1.47513E+01 +2.02664E+01 -1.50588E+01 +2.03142E+01 -1.10743E+01 +1.50022E+01 -4.52173E+00 +5.64767E+00
 +2.25305E+00 -4.95788E+00 +7.18855E+00 -1.34241E+01 +9.17775E+00 -1.69264E+01 +8.26617E+00 -1.42206E+01
 +5.36625E+00 -6.11053E+00 +1.68557E+00 +4.82486E+00 -1.83221E+00 +1.51475E+01 -4.79895E+00 +2.17667E+01
 -7.31050E+00 +2.29739E+01 -9.60854E+00 +1.89197E+01 -1.17028E+01 +1.13824E+01 -1.31884E+01 +2.96207E+00
 -1.33788E+01 -3.94117E+00 -1.16959E+01 -7.94400E+00 -8.10914E+00 -8.98672E+00 -3.36983E+00 -8.06082E+00
 +1.12681E+00 -6.54109E+00 +3.84181E+00 -5.46168E+00 +3.75542E+00 -5.07218E+00 +8.90806E-01 -4.85458E+00
 -3.56783E+00 -3.95348E+00 -7.66301E+00 -1.77542E+00 -9.43166E+00 +1.55981E+00 -7.74362E+00 +5.15315E+00
 -2.84877E+00 +7.68996E+00 +3.62343E+00 +8.06439E+00 +9.24191E+00 +5.96270E+00 +1.17115E+01 +2.11366E+00
 +9.79048E+00 -1.93626E+00 +3.80615E+00 -4.44567E+00 -4.44886E+00 -4.23304E+00 -1.24011E+01 -1.22792E+00
 -1.76781E+01 +3.43491E+00 -1.89826E+01 +7.83333E+00 -1.65048E+01 +1.00176E+01 -1.17197E+01 +8.79145E+00
 -6.67972E+00 +4.18405E+00 -3.12298E+00 -2.57781E+00 -1.78408E+00 -9.57222E+00 -2.19287E+00 -1.49280E+01
 -3.02228E+00 -1.74881E+01 -2.80368E+00 -1.71168E+01 -6.72653E-01 -1.45493E+01 +3.19307E+00 -1.08963E+01
 +7.63205E+00 -7.06658E+00 +1.10131E+01 -3.39740E+00 +1.19594E+01 +3.35617E-01 +9.94933E+00 +4.55160E+00
 +5.52701E+00 +9.34911E+00 +4.02920E-02 +1.41332E+01 -4.95791E+00 +1.76155E+01 -8.35884E+00 +1.82410E+01
 -9.89746E+00 +1.48795E+01 -1.01279E+01 +7.47411E+00 -1.00050E+01 -2.67237E+00 -1.02897E+01 -1.31533E+01
 -1.10792E+01 -2.12036E+01 -1.16999E+01 -2.46619E+01 -1.10282E+01 -2.27661E+01 -8.09320E+00 -1.64488E+01
 -2.67501E+00 -7.99932E+00 +4.39930E+00 -2.16859E-01 +1.14271E+01 +4.61168E+00 +1.64230E+01 +5.50243E+00
 +1.78905E+01 +3.02951E+00 +1.54371E+01 -1.03558E+00 +9.95844E+00 -4.52530E+00 +3.30190E+00 -5.77006E+00
 -2.45583E+00 -4.21632E+00 -5.80891E+00 -5.36486E-01 -6.36082E+00 +3.77306E+00 -4.87722E+00 +7.09175E+00
 -2.84405E+00 +8.34581E+00 -1.73952E+00 +7.36238E+00 -2.35018E+00 +4.78308E+00 -4.43496E+00 +1.62426E+00
 -6.87784E+00 -1.27031E+00 -8.24669E+00 -3.60391E+00 -7.49215E+00 -5.64941E+00 -4.46116E+00 -7.92606E+00
 +1.11924E-02 -1.07159E+01 +4.47057E+00 -1.36904E+01 +7.49859E+00 -1.58703E+01 +8.34784E+00 -1.59765E+01
 +7.26013E+00 -1.30359E+01 +5.31834E+00 -6.96158E+00 +3.89921E+00 +1.18235E+00 +3.98166E+00 +9.39549E+00
 +5.63562E+00 +1.53900E+01 +7.93782E+00 +1.74259E+01 +9.36735E+00 +1.49889E+01 +8.51292E+00 +9.01745E+00
 +4.77629E+00 +1.56846E+00 -1.25008E+00 -4.95027E+00 -7.91424E+00 -8.67247E+00 -1.31047E+01 -8.92660E+00
 -1.50710E+01 -6.39051E+00 -1.31180E+01 -2.70184E+00 -7.87920E+00 +2.91432E-01 -1.05701E+00 +1.30981E+00
 +5.25312E+00 +1.20712E-01 +9.36176E+00 -2.46944E+00 +1.05714E+01 -5.07488E+00 +9.31537E+00 -6.41005E+00
 +6.82095E+00 -5.87049E+00 +4.47414E+00 -3.75622E+00 +3.18937E+00 -1.05416E+00 +3.06668E+00 +1.09561E+00
 +3.47407E+00 +1.98044E+00 +3.48785E+00 +1.65782E+00 +2.45675E+00 +8.95048E-01 +4.02867E-01 +7.37073E-01
 -1.94320E+00 +1.91559E+00 -3.49437E+00 +4.39286E+00 -3.37623E+00 +7.27537E+00 -1.43175E+00 +9.16033E+00
 +1.59753E+00 +8.77231E+00 +4.32589E+00 +5.60286E+00 +5.31965E+00 +2.51604E-01 +3.77402E+00 -5.70731E+00
 -4.23762E-02 -1.03002E+01 -4.79582E+00 -1.19363E+01 -8.57283E+00 -1.00638E+01 -9.65220E+00 -5.41292E+00
 -7.23899E+00 +2.85109E-01 -1.84221E+00 +4.98938E+00 +4.87442E+00 +7.15851E+00 +1.07151E+01 +6.33689E+00
 +1.37913E+01 +3.27611E+00 +1.32300E+01 -4.46522E-01 +9.46068E+00 -3.13329E+00 +3.97638E+00 -3.68166E+00
 -1.31287E+00 -2.00265E+00 -4.84541E+00 +1.02420E+00 -5.96558E+00 +4.01462E+00 -5.05202E+00 +5.73331E+00
 -3.19403E+00 +5.63294E+00 -1.59396E+00 +4.03884E+00 -9.87243E-01 +1.91184E+00 -1.34731E+00 +3.20881E-01
 -1.99733E+00 -1.10023E-01 -2.05254E+00 +4.90528E-01 -9.59824E-01 +1.32841E+00 +1.14193E+00 +1.38304E+00
 +3.42780E+00 -1.63294E-02 +4.76655E+00 -2.76289E+00 +4.29636E+00 -5.91431E+00 +1.91680E+00 -8.05463E+00
 -1.55375E+00 -7.92669E+00 -4.65561E+00 -5.05111E+00 -5.89838E+00 -4.08854E-02 -4.44098E+00 +5.55093E+00
 -5.32261E-01 +9.80754E+00 +4.50118E+00 +1.12131E+01 +8.73820E+00 +9.27992E+00 +1.04264E+01 +4.76376E+00
 +8.70607E+00 -6.30150E-01 +3.98477E+00 -4.93089E+00 -2.20020E+00 -6.68558E+00 -7.77702E+00 -5.51319E+00
 -1.09422E+01 -2.20060E+00 -1.08354E+01 +1.68631E+00 -7.81216E+00 +4.49453E+00 -3.21578E+00 +5.17176E+00
 +1.23052E+00 +3.65557E+00 +4.13580E+00 +8.11080E-01 +4.94853E+00 -2.03020E+00 +4.05511E+00 -3.70268E+00
 +2.45838E+00 -3.71517E+00 +1.21333E+00 -2.40925E+00 +8.99353E-01 -7.12132E-01 +1.37765E+00 +3.80602E-01
 +1.93692E+00 +3.32131E-01 +1.74060E+00 -6.57835E-01 +3.42683E-01 -1.76113E+00 -1.99323E+00 -1.96369E+00
 -4.34252E+00 -6.27471E-01 -5.52790E+00 +2.10601E+00 -4.70243E+00 +5.27962E+00 -1.82842E+00 +7.49123E+00
 +2.18911E+00 +7.51733E+00 +5.80344E+00 +4.90996E+00 +7.45142E+00 +2.86905E-01 +6.23704E+00 -4.83534E+00
 +2.36897E+00 -8.61458E+00 -2.85372E+00 -9.62677E+00 -7.52014E+00 -7.46269E+00 -9.85910E+00 -2.91686E+00
 -8.94986E+00 +2.31851E+00 -5.09195E+00 +6.32866E+00 +3.21369E-01 +7.73547E+00 +5.36903E+00 +6.22151E+00
 +8.36438E+00 +2.60442E+00 +8.49184E+00 -1.55629E+00 +6.05802E+00 -4.63685E+00 +2.27086E+00 -5.61152E+00
 -1.33375E+00 -4.41766E+00 -3.55082E+00 -1.88280E+00 -3.95974E+00 +7.27965E-01 -2.98734E+00 +2.31940E+00
 -1.58096E+00 +2.44428E+00 -6.70189E-01 +1.43970E+00 -6.85980E-01 +1.76193E-01 -1.36836E+00 -4.42379E-01
 -1.94826E+00 +2.50470E-02 -1.60531E+00 +1.31100E+00 +3.17209E-02 +2.56717E+00 +2.59876E+00 +2.80632E+00
 +5.08074E+00 +1.44451E+00 +6.24579E+00 -1.32477E+00 +5.23684E+00 -4.51992E+00 +2.04335E+00 -6.75195E+00
 -2.38095E+00 -6.83865E+00 -6.43408E+00 -4.37739E+00 -8.49896E+00 -8.21662E-03 -7.62739E+00 +4.77029E+00
 -3.97541E+00 +8.17269E+00 +1.20923E+00 +8.85088E+00 +6.05547E+00 +6.46130E+00 +8.80350E+00 +1.82803E+00
 +8.49867E+00 -3.37402E+00 +5.35459E+00 -7.28440E+00 +6.37531E-01 -8.59052E+00 -3.87041E+00 -7.02110E+00
 -6.59375E+00 -3.39906E+00 -6.76358E+00 +7.54172E-01 -4.64989E+00 +3.87847E+00 -1.34859E+00 +5.00680E+00
 +1.75762E+00 +4.10050E+00 +3.60899E+00 +1.96043E+00 +3.87513E+00 -2.20255E-01 +2.99039E+00 -1.43917E+00
 +1.82824E+00 -1.32952E+00 +1.19227E+00 -2.68243E-01 +1.38085E+00 +8.86305E-01 +2.03948E+00 +1.28480E+00
 +2.37047E+00 +5.57207E-01 +1.59383E+00 -9.72068E-01 -5.72081E-01 -2.43403E+00 -3.65591E+00 -2.86169E+00
 -6.54724E+00 -1.71821E+00 -7.94737E+00 +7.55026E-01 -6.96138E+00 +3.55462E+00 -3.55960E+00 +5.31234E+00
 +1.31517E+00 +4.90985E+00 +6.06476E+00 +2.03678E+00 +9.05631E+00 -2.56907E+00 +9.28540E+00 -7.32835E+00
 +6.79348E+00 -1.04073E+01 +2.65390E+00 -1.04484E+01 -1.47331E+00 -7.13802E+00 -4.02952E+00 -1.36871E+00
 -4.19362E+00 +5.07764E+00 -2.19466E+00 +1.01949E+01 +8.28073E-01 +1.24920E+01 +3.34899E+00 +1.15048E+01
 +4.12913E+00 +7.88330E+00 +2.74311E+00 +3.04185E+00 -2.64722E-01 -1.45541E+00 -3.65107E+00 -4.49824E+00
 -6.03799E+00 -5.77001E+00 -6.51110E+00 -5.70254E+00 -4.98503E+00 -5.10533E+00 -2.18252E+00 -4.67270E+00
 +7.46852E-01 -4.61677E+00 +2.77865E+00 -4.60003E+00 +3.47357E+00 -3.98753E+00 +3.13208E+00 -2.27853E+00
 +2.57808E+00 +5.12578E-01 +2.68280E+00 +3.73336E+00 +3.86373E+00 +6.31065E+00 +5.80627E+00 +7.22207E+00
 +7.55226E+00 +6.00403E+00 +7.92670E+00 +3.04756E+00 +6.11220E+00 -4.79756E-01 +2.10445E+00 -3.07977E+00
 -3.17137E+00 -3.55928E+00 -8.15492E+00 -1.57897E+00 -1.12427E+01 +2.13531E+00 -1.14274E+01 +6.03081E+00
 -8.70888E+00 +8.33340E+00 -4.09533E+00 +7.77490E+00 +8.07075E-01 +4.13744E+00 +4.44063E+00 -1.61705E+00
 +5.90146E+00 -7.69057E+00 +5.24804E+00 -1.21249E+01 +3.39075E+00 -1.35300E+01 +1.62551E+00 -1.15689E+01
 +1.02811E+00 -7.01105E+00 +1.98039E+00 -1.35595E+00 +4.03217E+00 +3.79336E+00 +6.14614E+00 +7.32787E+00
 +7.19947E+00 +8.95292E+00 +6.50433E+00 +9.11869E+00 +4.10928E+00 +8.62977E+00 +7.51862E-01 +8.14432E+00
 -2.50144E+00 +7.81339E+00 -4.74684E+00 +7.23269E+00 -5.62840E+00 +5.72232E+00 -5.43482E+00 +2.78776E+00
 -4.86845E+00 -1.47503E+00 -4.60791E+00 -6.24471E+00 -4.88848E+00 -1.01991E+01 -5.31955E+00 -1.20173E+01
 -5.04693E+00 -1.09428E+01 -3.20005E+00 -7.15214E+00 +5.80932E-01 -1.75256E+00 +5.79669E+00 +3.60570E+00
 +1.11104E+01 +7.34768E+00 +1.47702E+01 +8.56330E+00 +1.52809E+01 +7.32043E+00 +1.20470E+01 +4.57393E+00
