 Created: 19-Jan-2021
 $NMID
 ID='D:\BASISSIMULATI'
 FMTDAT='(8E13.5)'
 VOLUME=   1.00000E+00
 TRAMP=   1.00000E+00
 $END
 +2.28523E+01 -6.79848E-01 +1.94403E+01 +1.07477E+01 +9.99090E+00 +1.77277E+01 -1.44780E+00 +1.75142E+01
 -1.00065E+01 +1.04645E+01 -1.20968E+01 -1.25421E-01 -6.95531E+00 -9.45268E+00 +3.03558E+00 -1.32867E+01
 +1.33856E+01 -9.79535E+00 +1.94416E+01 -3.31638E-01 +1.83977E+01 +1.11567E+01 +1.05034E+01 +1.98353E+01
 -1.04966E+00 +2.20699E+01 -1.15099E+01 +1.69896E+01 -1.66169E+01 +6.85351E+00 -1.44348E+01 -3.93301E+00
 -6.17709E+00 -1.07252E+01 +4.32938E+00 -1.06429E+01 +1.23063E+01 -3.80676E+00 +1.40908E+01 +6.72416E+00
 +8.71484E+00 +1.62830E+01 -1.68423E+00 +2.06145E+01 -1.27931E+01 +1.77108E+01 -1.99880E+01 +8.67148E+00
 -2.03278E+01 -2.77881E+00 -1.38148E+01 -1.19036E+01 -3.38176E+00 -1.49977E+01 +6.38464E+00 -1.09788E+01
 +1.12283E+01 -1.84121E+00 +9.05815E+00 +8.21857E+00 +8.41744E-01 +1.46228E+01 -9.82454E+00 +1.43909E+01
 -1.82771E+01 +7.42077E+00 -2.08009E+01 -3.47578E+00 -1.62287E+01 -1.37949E+01 -6.43473E+00 -1.92865E+01
 +4.48385E+00 -1.77837E+01 +1.19810E+01 -1.01254E+01 +1.30213E+01 +2.19879E-01 +7.37912E+00 +8.66230E+00
 -2.27881E+00 +1.14756E+01 -1.15590E+01 +7.40041E+00 -1.62454E+01 -1.82365E+00 -1.41190E+01 -1.22216E+01
 -5.90712E+00 -1.93067E+01 +5.04137E+00 -2.00172E+01 +1.42093E+01 -1.40293E+01 +1.78610E+01 -3.88433E+00
 +1.46463E+01 +6.11975E+00 +6.16751E+00 +1.17878E+01 -3.72777E+00 +1.08331E+01 -1.06184E+01 +3.85154E+00
 -1.14196E+01 -5.95299E+00 -5.70645E+00 -1.41648E+01 +4.11617E+00 -1.70684E+01 +1.38644E+01 -1.32475E+01
 +1.93874E+01 -4.18561E+00 +1.83550E+01 +6.38713E+00 +1.12514E+01 +1.41110E+01 +1.15113E+00 +1.58759E+01
 -7.62036E+00 +1.11519E+01 -1.13562E+01 +2.19985E+00 -8.56031E+00 -6.92120E+00 -5.77757E-01 -1.21153E+01
 +9.00386E+00 -1.10163E+01 +1.59151E+01 -3.99822E+00 +1.70497E+01 +6.00149E+00 +1.17976E+01 +1.47619E+01
 +2.29365E+00 +1.86039E+01 -7.51706E+00 +1.59702E+01 -1.35875E+01 +8.08209E+00 -1.35103E+01 -1.60492E+00
 -7.54116E+00 -8.90396E+00 +1.53102E+00 -1.07046E+01 +9.60458E+00 -6.30448E+00 +1.30426E+01 +2.30531E+00
 +1.02376E+01 +1.13174E+01 +2.29157E+00 +1.67614E+01 -7.47596E+00 +1.62161E+01 -1.49717E+01 +9.84255E+00
 -1.70951E+01 +2.97563E-01 -1.30651E+01 -8.42608E+00 -4.73819E+00 -1.27267E+01 +4.21039E+00 -1.09395E+01
 +9.88341E+00 -4.03666E+00 +9.84112E+00 +4.81295E+00 +4.14041E+00 +1.16270E+01 -4.70927E+00 +1.33321E+01
 -1.28459E+01 +9.08194E+00 -1.67285E+01 +6.05422E-01 -1.46598E+01 -8.55604E+00 -7.50291E+00 -1.45858E+01
 +1.70966E+00 -1.50356E+01 +9.09748E+00 -9.86644E+00 +1.16078E+01 -1.44486E+00 +8.32073E+00 +6.49687E+00
 +8.25864E-01 +1.04791E+01 -7.48531E+00 +8.77072E+00 -1.28960E+01 +2.11936E+00 -1.29682E+01 -6.59178E+00
 -7.58214E+00 -1.36035E+01 +1.03082E+00 -1.59060E+01 +9.26787E+00 -1.25279E+01 +1.37155E+01 -4.93619E+00
 +1.26151E+01 +3.61611E+00 +6.60297E+00 +9.50503E+00 -1.58689E+00 +1.02971E+01 -8.31952E+00 +5.78403E+00
 -1.06324E+01 -1.95021E+00 -7.50408E+00 -9.44900E+00 -2.75622E-01 -1.33849E+01 +7.94913E+00 -1.19910E+01
 +1.36556E+01 -5.80723E+00 +1.44343E+01 +2.57337E+00 +1.00060E+01 +9.63901E+00 +2.32076E+00 +1.24773E+01
 -5.30301E+00 +1.00205E+01 -9.61927E+00 +3.48425E+00 -8.84889E+00 -4.17990E+00 -3.42856E+00 -9.57321E+00
 +4.20142E+00 -1.03171E+01 +1.06690E+01 -6.06589E+00 +1.31315E+01 +1.36579E+00 +1.04933E+01 +8.80624E+00
 +3.85911E+00 +1.31049E+01 -3.96464E+00 +1.24863E+01 -9.69371E+00 +7.29806E+00 -1.09824E+01 -1.62809E-01
 -7.42004E+00 -6.65922E+00 -6.84271E-01 -9.41631E+00 +6.20568E+00 -7.30862E+00 +1.02036E+01 -1.32400E+00
 +9.54707E+00 +5.88666E+00 +4.50048E+00 +1.11696E+01 -2.78229E+00 +1.22304E+01 -9.20602E+00 +8.61069E+00
 -1.20754E+01 +1.86352E+00 -1.02480E+01 -5.13829E+00 -4.60561E+00 -9.45212E+00 +2.35068E+00 -9.33003E+00
 +7.59576E+00 -4.95379E+00 +8.88734E+00 +1.66911E+00 +5.71914E+00 +7.59279E+00 -4.84612E-01 +1.02120E+01
 -7.00711E+00 +8.37811E+00 -1.10240E+01 +2.87352E+00 -1.08189E+01 -3.94951E+00 -6.50608E+00 -9.20036E+00
 +4.31535E-02 -1.06986E+01 +6.02787E+00 -7.90052E+00 +8.93318E+00 -2.10902E+00 +7.60571E+00 +4.11213E+00
 +2.72880E+00 +8.05805E+00 -3.49831E+00 +8.04666E+00 -8.32803E+00 +4.12634E+00 -9.65338E+00 -1.97048E+00
 -6.90406E+00 -7.59660E+00 -1.26896E+00 -1.03409E+01 +4.84045E+00 -9.06045E+00 +8.84377E+00 -4.35235E+00
 +9.10184E+00 +1.72923E+00 +5.60540E+00 +6.57734E+00 -4.70121E-02 +8.15984E+00 -5.36137E+00 +5.88226E+00
 -8.03371E+00 +8.19376E-01 -6.93644E+00 -4.77404E+00 -2.58322E+00 -8.45126E+00 +3.11881E+00 -8.62773E+00
 +7.71111E+00 -5.24748E+00 +9.24860E+00 +2.18292E-01 +7.12588E+00 +5.42829E+00 +2.31417E+00 +8.19063E+00
 -3.08283E+00 +7.40060E+00 -6.75156E+00 +3.49517E+00 -7.16496E+00 -1.76233E+00 -4.22335E+00 -6.06332E+00
 +7.29203E-01 -7.55492E+00 +5.50880E+00 -5.62698E+00 +8.04492E+00 -1.15084E+00 +7.26725E+00 +3.92235E+00
 +3.54628E+00 +7.41939E+00 -1.49292E+00 +7.88175E+00 -5.69199E+00 +5.17755E+00 -7.29538E+00 +5.32125E-01
 -5.69520E+00 -4.02449E+00 -1.66860E+00 -6.54451E+00 +2.98409E+00 -5.99618E+00 +6.23306E+00 -2.68727E+00
 +6.69480E+00 +1.89506E+00 +4.21215E+00 +5.74739E+00 -1.04280E-01 +7.22071E+00 -4.37970E+00 +5.72037E+00
 -6.79588E+00 +1.93846E+00 -6.36970E+00 -2.47115E+00 -3.35618E+00 -5.62328E+00 +8.88860E-01 -6.21491E+00
 +4.51536E+00 -4.07047E+00 +5.98381E+00 -1.90757E-01 +4.71810E+00 +3.70410E+00 +1.32955E+00 +5.92959E+00
 -2.67398E+00 +5.55859E+00 -5.55675E+00 +2.80058E+00 -6.10527E+00 -1.11608E+00 -4.13577E+00 -4.49625E+00
 -5.47127E-01 -5.91662E+00 +3.09207E+00 -4.82898E+00 +5.23336E+00 -1.77254E+00 +5.01161E+00 +1.88589E+00
 +2.59758E+00 +4.56006E+00 -9.03534E-01 +5.13033E+00 -3.95182E+00 +3.41090E+00 -5.24519E+00 +2.03357E-01
 -4.27115E+00 -3.07499E+00 -1.50400E+00 -5.01663E+00 +1.82712E+00 -4.82720E+00 +4.28742E+00 -2.64813E+00
 +4.85785E+00 +5.31840E-01 +3.35940E+00 +3.32623E+00 +5.03958E-01 +4.55755E+00 -2.43884E+00 +3.75559E+00
 -4.20390E+00 +1.33650E+00 -4.07306E+00 -1.60445E+00 -2.16517E+00 -3.78505E+00 +6.42843E-01 -4.29253E+00
 +3.11797E+00 -2.96264E+00 +4.21241E+00 -4.24429E-01 +3.50674E+00 +2.19740E+00 +1.36759E+00 +3.78270E+00
 -1.23812E+00 +3.69644E+00 -3.18023E+00 +2.04332E+00 -3.65655E+00 -4.04897E-01 -2.52475E+00 -2.56625E+00
 -3.37666E-01 -3.52530E+00 +1.92171E+00 -2.91972E+00 +3.28002E+00 -1.07362E+00 +3.19151E+00 +1.17000E+00
 +1.75470E+00 +2.83347E+00 -3.57459E-01 +3.23058E+00 -2.21207E+00 +2.24911E+00 -3.02927E+00 +3.73625E-01
 -2.51095E+00 -1.55018E+00 -9.46837E-01 -2.69636E+00 +9.38171E-01 -2.61370E+00 +2.31758E+00 -1.40202E+00
 +2.62485E+00 +3.58074E-01 +1.78484E+00 +1.88019E+00 +2.20877E-01 +2.52251E+00 -1.35464E+00 +2.05772E+00
 -2.26416E+00 +7.48961E-01 -2.15663E+00 -7.91238E-01 -1.14125E+00 -1.88639E+00 +2.86548E-01 -2.09353E+00
 +1.48348E+00 -1.38196E+00 +1.94753E+00 -1.21572E-01 +1.52817E+00 +1.10347E+00 +4.69716E-01 +1.76375E+00
 -7.21555E-01 +1.61297E+00 -1.51728E+00 +7.77062E-01 -1.60118E+00 -3.26801E-01 -9.93852E-01 -1.19498E+00
 -1.93450E-02 -1.46682E+00 +8.61378E-01 -1.07455E+00 +1.26673E+00 -2.51542E-01 +1.05972E+00 +5.95696E-01
 +3.90629E-01 +1.08456E+00 -3.94160E-01 +1.02823E+00 -9.26434E-01 +5.05256E-01 -9.87608E-01 -1.98334E-01
 -5.98006E-01 -7.39096E-01 +1.23753E-02 -8.82070E-01 +5.30123E-01 -6.03360E-01 +7.15560E-01 -8.46297E-02
 +5.13523E-01 +3.91256E-01 +6.68402E-02 +5.87188E-01 -3.68812E-01 +4.27215E-01 -5.61740E-01 +2.49937E-02
 -4.22263E-01 -3.85059E-01 -4.32493E-02 -5.75600E-01 +3.55056E-01 -4.46474E-01 +5.45542E-01 -7.57890E-02
 +4.17055E-01 +3.23438E-01 +3.58168E-02 +5.18151E-01 -3.86834E-01 +3.82151E-01 -6.04849E-01 -3.10941E-02
 -4.70054E-01 -5.09060E-01 -1.82898E-02 -7.86287E-01 +5.37609E-01 -6.83960E-01 +9.08555E-01 -2.11860E-01
 +8.76259E-01 +4.21992E-01 +4.13457E-01 +9.04083E-01 -2.85827E-01 +9.69168E-01 -8.86985E-01 +5.40658E-01
 -1.07293E+00 -2.14153E-01 -7.05426E-01 -9.47408E-01 +9.05563E-02 -1.28904E+00 +9.66534E-01 -1.02819E+00
 +1.50320E+00 -2.30091E-01 +1.40917E+00 +7.73359E-01 +6.72266E-01 +1.52312E+00 -4.13038E-01 +1.64405E+00
 -1.36333E+00 +1.03066E+00 -1.72237E+00 -8.29458E-02 -1.27898E+00 -1.20961E+00 -1.83559E-01 -1.82106E+00
 +1.09795E+00 -1.59299E+00 +1.98097E+00 -5.70022E-01 +2.02682E+00 +8.31280E-01 +1.15539E+00 +1.99240E+00
 -2.96010E-01 +2.36657E+00 -1.70336E+00 +1.73505E+00 -2.42625E+00 +3.26566E-01 -2.10056E+00 -1.26243E+00
 -8.20017E-01 -2.32051E+00 +8.82222E-01 -2.33973E+00 +2.25355E+00 -1.25748E+00 +2.65281E+00 +4.92550E-01
 +1.84660E+00 +2.15252E+00 +1.34669E-01 +2.96790E+00 -1.76040E+00 +2.52870E+00 -2.99980E+00 +9.70356E-01
 -3.00120E+00 -1.06276E+00 -1.71207E+00 -2.68490E+00 +3.44062E-01 -3.15661E+00 +2.27839E+00 -2.22270E+00
 +3.22026E+00 -2.46397E-01 +2.70770E+00 +1.92840E+00 +9.10083E-01 +3.33571E+00 -1.42322E+00 +3.31431E+00
 -3.27542E+00 +1.81440E+00 -3.80581E+00 -5.57597E-01 -2.73070E+00 -2.78540E+00 -4.69461E-01 -3.88071E+00
 +2.01753E+00 -3.32378E+00 +3.63735E+00 -1.31031E+00 +3.64543E+00 +1.31150E+00 +1.98743E+00 +3.39607E+00
 -6.54466E-01 +3.99886E+00 -3.14060E+00 +2.80136E+00 -4.36433E+00 +2.71568E-01 -3.74290E+00 -2.51911E+00
 -1.49084E+00 -4.35173E+00 +1.45136E+00 -4.39434E+00 +3.81188E+00 -2.58078E+00 +4.53992E+00 +3.38379E-01
 +3.27573E+00 +3.10445E+00 +5.28311E-01 +4.49214E+00 -2.52572E+00 +3.85088E+00 -4.54310E+00 +1.40687E+00
 -4.60141E+00 -1.81365E+00 -2.61622E+00 -4.41583E+00 +6.00606E-01 -5.24084E+00 +3.67579E+00 -3.88169E+00
 +5.26501E+00 -8.80638E-01 +4.64471E+00 +2.48650E+00 +2.04486E+00 +4.75385E+00 -1.42997E+00 +4.90536E+00
 -4.26590E+00 +2.83147E+00 -5.19539E+00 -6.02182E-01 -3.75937E+00 -3.91312E+00 -5.26518E-01 -5.63908E+00
 +3.13391E+00 -4.98000E+00 +5.63542E+00 -2.16306E+00 +5.86525E+00 +1.63534E+00 +3.68188E+00 +4.78555E+00
 -3.29477E-03 +5.90961E+00 -3.60421E+00 +4.49002E+00 -5.54174E+00 +1.11338E+00 -4.93555E+00 -2.76508E+00
 -2.00310E+00 -5.44209E+00 +2.01467E+00 -5.70739E+00 +5.37712E+00 -3.38273E+00 +6.59621E+00 +5.80917E-01
 +5.09193E+00 +4.49857E+00 +1.46220E+00 +6.67471E+00 -2.75759E+00 +6.14422E+00 -5.74950E+00 +3.10689E+00
