 Created: 19-Jan-2021
 $NMID
 ID='D:\BASISSIMULATI'
 FMTDAT='(8E13.5)'
 VOLUME=   1.00000E+00
 TRAMP=   1.00000E+00
 $END
 +3.03608E+01 +2.84977E-01 +2.94918E+01 +6.51178E+00 +2.73033E+01 +1.23631E+01 +2.39225E+01 +1.75552E+01
 +1.95375E+01 +2.18434E+01 +1.43862E+01 +2.50351E+01 +8.74207E+00 +2.69995E+01 +2.89822E+00 +2.76738E+01
 -2.84923E+00 +2.70646E+01 -8.21779E+00 +2.52468E+01 -1.29538E+01 +2.23565E+01 -1.68459E+01 +1.85825E+01
 -1.97352E+01 +1.41536E+01 -2.15226E+01 +9.32469E+00 -2.21718E+01 +4.36150E+00 -2.17094E+01 -4.74603E-01
 -2.02204E+01 -4.94104E+00 -1.78412E+01 -8.82681E+00 -1.47496E+01 -1.19629E+01 -1.11528E+01 -1.42297E+01
 -7.27443E+00 -1.55615E+01 -3.34118E+00 -1.59472E+01 +4.30151E-01 -1.54280E+01 +3.84424E+00 -1.40926E+01
 +6.73699E+00 -1.20691E+01 +8.98286E+00 -9.51587E+00 +1.04996E+01 -6.61052E+00 +1.12502E+01 -3.53910E+00
 +1.12418E+01 -4.85057E-01 +1.05229E+01 +2.38071E+00 +9.17718E+00 +4.90844E+00 +7.31720E+00 +6.97623E+00
 +5.07573E+00 +8.49469E+00 +2.59730E+00 +9.40938E+00 +2.95730E-02 +9.70110E+00 -2.48468E+00 +9.38413E+00
 -4.81461E+00 +8.50290E+00 -6.84703E+00 +7.12721E+00 -8.49063E+00 +5.34664E+00 -9.67857E+00 +3.26438E+00
 -1.03695E+01 +9.91148E-01 -1.05473E+01 -1.36072E+00 -1.02193E+01 -3.68248E+00 -9.41392E+00 -5.87337E+00
 -8.17732E+00 -7.84410E+00 -6.56991E+00 -9.51926E+00 -4.66266E+00 -1.08388E+01 -2.53356E+00 -1.17588E+01
 -2.64371E-01 -1.22512E+01 +2.06218E+00 -1.23033E+01 +4.36482E+00 -1.19169E+01 +6.56565E+00 -1.11070E+01
 +8.59176E+00 -9.90077E+00 +1.03765E+01 -8.33616E+00 +1.18606E+01 -6.46098E+00 +1.29933E+01 -4.33174E+00
 +1.37332E+01 -2.01261E+00 +1.40495E+01 +4.25734E-01 +1.39230E+01 +2.90737E+00 +1.33475E+01 +5.35270E+00
 +1.23302E+01 +7.68038E+00 +1.08933E+01 +9.80951E+00 +9.07377E+00 +1.16623E+01 +6.92372E+00 +1.31670E+01
 +4.50963E+00 +1.42610E+01 +1.91093E+00 +1.48942E+01 -7.82173E-01 +1.50315E+01 -3.47171E+00 +1.46563E+01
 -6.05566E+00 +1.37717E+01 -8.43227E+00 +1.24023E+01 -1.05048E+01 +1.05943E+01 -1.21864E+01 +8.41427E+00
 -1.34048E+01 +5.94764E+00 -1.41067E+01 +3.29501E+00 -1.42613E+01 +5.67996E-01 -1.38625E+01 -2.11599E+00
 -1.29309E+01 -4.63955E+00 -1.15126E+01 -6.89143E+00 -9.67847E+00 -8.77251E+00 -7.52053E+00 -1.02015E+01
 -5.14756E+00 -1.11196E+01 -2.67961E+00 -1.14944E+01 -2.41492E-01 -1.13217E+01 +2.04402E+00 -1.06264E+01
 +4.06313E+00 -9.46168E+00 +5.71750E+00 -7.90565E+00 +6.93002E+00 -6.05758E+00 +7.64930E+00 -4.03208E+00
 +7.85278E+00 -1.95252E+00 +7.54809E+00 +5.61060E-02 +6.77261E+00 +1.87459E+00 +5.59125E+00 +3.39656E+00
 +4.09258E+00 +4.53477E+00 +2.38340E+00 +5.22637E+00 +5.82337E-01 +5.43653E+00 -1.18741E+00 +5.16054E+00
 -2.80554E+00 +4.42397E+00 -4.16195E+00 +3.28100E+00 -5.16342E+00 +1.81102E+00 -5.73917E+00 +1.13713E-01
 -5.84517E+00 -1.69709E+00 -5.46663E+00 -3.50040E+00 -4.61879E+00 -5.17543E+00 -3.34591E+00 -6.60889E+00
 -1.71842E+00 -7.70179E+00 +1.71407E-01 -8.37527E+00 +2.21510E+00 -8.57522E+00 +4.29449E+00 -8.27531E+00
 +6.28878E+00 -7.47832E+00 +8.08158E+00 -6.21580E+00 +9.56763E+00 -4.54590E+00 +1.06588E+01 -2.54979E+00
 +1.12887E+01 -3.26742E-01 +1.14165E+01 +2.01175E+00 +1.10285E+01 +4.34842E+00 +1.01386E+01 +6.56681E+00
 +8.78689E+00 +8.55775E+00 +7.03705E+00 +1.02251E+01 +4.97216E+00 +1.14908E+01 +2.68982E+00 +1.22982E+01
 +2.96516E-01 +1.26152E+01 -2.09831E+00 +1.24344E+01 -4.38810E+00 +1.17731E+01 -6.47462E+00 +1.06714E+01
 -8.27272E+00 +9.18916E+00 -9.71417E+00 +7.40227E+00 -1.07504E+01 +5.39783E+00 -1.13538E+01 +3.26936E+00
 -1.15185E+01 +1.11168E+00 -1.12590E+01 -9.83825E-01 -1.06085E+01 -2.93360E+00 -9.61643E+00 -4.66556E+00
 -8.34436E+00 -6.12187E+00 -6.86282E+00 -7.26089E+00 -5.24698E+00 -8.05804E+00 -3.57278E+00 -8.50578E+00
 -1.91326E+00 -8.61273E+00 -3.35314E-01 -8.40202E+00 +1.10297E+00 -7.90910E+00 +2.35430E+00 -7.17908E+00
 +3.38348E+00 -6.26388E+00 +4.16801E+00 -5.21929E+00 +4.69800E+00 -4.10211E+00 +4.97559E+00 -2.96759E+00
 +5.01377E+00 -1.86709E+00 +4.83494E+00 -8.46203E-01 +4.46914E+00 +5.66720E-02 +3.95218E+00 +8.11349E-01
 +3.32371E+00 +1.39642E+00 +2.62534E+00 +1.79946E+00 +1.89887E+00 +2.01678E+00 +1.18469E+00 +2.05309E+00
 +5.20345E-01 +1.92068E+00 -6.06709E-02 +1.63863E+00 -5.29934E-01 +1.23177E+00 -8.64895E-01 +7.29601E-01
 -1.04950E+00 +1.65077E-01 -1.07463E+00 -4.26577E-01 -9.38345E-01 -1.00914E+00 -6.45940E-01 -1.54667E+00
 -2.09858E-01 -2.00482E+00 +3.50651E-01 -2.35209E+00 +1.01006E+00 -2.56113E+00 +1.73731E+00 -2.60989E+00
 +2.49680E+00 -2.48278E+00 +3.24962E+00 -2.17156E+00 +3.95496E+00 -1.67609E+00 +4.57174E+00 -1.00485E+00
 +5.06037E+00 -1.75033E-01 +5.38461E+00 +7.87578E-01 +5.51335E+00 +1.84926E+00 +5.42245E+00 +2.96933E+00
 +5.09625E+00 +4.10154E+00 +4.52887E+00 +5.19587E+00 +3.72517E+00 +6.20061E+00 +2.70114E+00 +7.06467E+00
 +1.48391E+00 +7.74005E+00 +1.11123E-01 +8.18427E+00 -1.37025E+00 +8.36277E+00 -2.90559E+00 +8.25093E+00
 -4.43483E+00 +7.83582E+00 -5.89502E+00 +7.11741E+00 -7.22321E+00 +6.10922E+00 -8.35939E+00 +4.83825E+00
 -9.24954E+00 +3.34430E+00 -9.84838E+00 +1.67862E+00 -1.01218E+01 -9.81330E-02 -1.00491E+01 -1.91844E+00
 -9.62394E+00 -3.71088E+00 -8.85551E+00 -5.40343E+00 -7.76823E+00 -6.92683E+00 -6.40101E+00 -8.21794E+00
 -4.80568E+00 -9.22282E+00 -3.04481E+00 -9.89947E+00 -1.18884E+00 -1.02200E+01 +6.87080E-01 -1.01719E+01
 +2.50668E+00 -9.75936E+00 +4.19611E+00 -9.00243E+00 +5.68754E+00 -7.93671E+00 +6.92230E+00 -6.61148E+00
 +7.85380E+00 -5.08739E+00 +8.44966E+00 -3.43357E+00 +8.69328E+00 -1.72426E+00 +8.58454E+00 -3.52144E-02
 +8.13973E+00 +1.55993E+00 +7.39062E+00 +2.99327E+00 +6.38283E+00 +4.20584E+00 +5.17340E+00 +5.15047E+00
 +3.82793E+00 +5.79396E+00 +2.41722E+00 +6.11858E+00 +1.01370E+00 +6.12279E+00 -3.12212E-01 +5.82113E+00
 -1.49564E+00 +5.24332E+00 -2.48043E+00 +4.43258E+00 -3.22196E+00 +3.44329E+00 -3.68925E+00 +2.33814E+00
 -3.86647E+00 +1.18478E+00 -3.75360E+00 +5.23473E-02 -3.36635E+00 -9.92163E-01 -2.73522E+00 -1.88734E+00
 -1.90386E+00 -2.58056E+00 -9.26751E-01 -3.03067E+00 +1.33673E-01 -3.21020E+00 +1.21030E+00 -3.10672E+00
 +2.23488E+00 -2.72360E+00 +3.14155E+00 -2.07985E+00 +3.87041E+00 -1.20922E+00 +4.37061E+00 -1.58491E-01
 +4.60318E+00 +1.01481E+00 +4.54314E+00 +2.24538E+00 +4.18098E+00 +3.46342E+00 +3.52335E+00 +4.59825E+00
 +2.59294E+00 +5.58198E+00 +1.42752E+00 +6.35301E+00 +7.82341E-02 +6.85938E+00 -1.39282E+00 +7.06154E+00
 -2.91559E+00 +6.93460E+00 -4.41552E+00 +6.46982E+00 -5.81724E+00 +5.67535E+00 -7.04836E+00 +4.57607E+00
 -8.04319E+00 +3.21264E+00 -8.74611E+00 +1.63967E+00 -9.11449E+00 -7.67354E-02 -9.12103E+00 -1.86215E+00
 -8.75532E+00 -3.63735E+00 -8.02456E+00 -5.32220E+00 -6.95343E+00 -6.83956E+00 -5.58305E+00 -8.11911E+00
 -3.96917E+00 -9.10087E+00 -2.17954E+00 -9.73823E+00 -2.90695E-01 -1.00003E+01 +1.61570E+00 -9.87351E+00
 +3.45682E+00 -9.36240E+00 +5.15270E+00 -8.48941E+00 +6.63012E+00 -7.29386E+00 +7.82619E+00 -5.83003E+00
 +8.69138E+00 -4.16454E+00 +9.19194E+00 -2.37305E+00 +9.31147E+00 -5.36586E-01 +9.05166E+00 +1.26246E+00
 +8.43213E+00 +2.94435E+00 +7.48932E+00 +4.43592E+00 +6.27463E+00 +5.67407E+00 +4.85173E+00 +6.60884E+00
 +3.29334E+00 +7.20572E+00 +1.67754E+00 +7.44725E+00 +8.38464E-02 +7.33369E+00 -1.41075E+00 +6.88283E+00
 -2.73561E+00 +6.12895E+00 -3.82991E+00 +5.12092E+00 -4.64558E+00 +3.91960E+00 -5.14964E+00 +2.59466E+00
 -5.32568E+00 +1.22098E+00 -5.17460E+00 -1.25149E-01 -4.71438E+00 -1.36997E+00 -3.97908E+00 -2.44594E+00
 -3.01704E+00 -3.29516E+00 -1.88831E+00 -3.87231E+00 -6.61574E-01 -4.14688E+00 +5.89371E-01 -4.10477E+00
 +1.78939E+00 -3.74901E+00 +2.86587E+00 -3.09963E+00 +3.75243E+00 -2.19273E+00 +4.39235E+00 -1.07873E+00
 +4.74159E+00 +1.80067E-01 +4.77115E+00 +1.51257E+00 +4.46874E+00 +2.84240E+00 +3.83964E+00 +4.09169E+00
 +2.90673E+00 +5.18504E+00 +1.70966E+00 +6.05335E+00 +3.03161E-01 +6.63753E+00 -1.24538E+00 +6.89159E+00
 -2.85904E+00 +6.78537E+00 -4.45497E+00 +6.30637E+00 -5.94842E+00 +5.46088E+00 -7.25693E+00 +4.27420E+00
 -8.30453E+00 +2.78983E+00 -9.02571E+00 +1.06791E+00 -9.36904E+00 -8.17322E-01 -9.30012E+00 -2.78082E+00
 -8.80385E+00 -4.73060E+00 -7.88577E+00 -6.57214E+00 -6.57244E+00 -8.21302E+00 -4.91076E+00 -9.56756E+00
 -2.96626E+00 -1.05613E+01 -8.20398E-01 -1.11352E+01 +1.43302E+00 -1.12488E+01 +3.69220E+00 -1.08831E+01
 +5.85220E+00 -1.00418E+01 +7.81016E+00 -8.75200E+00 +9.47048E+00 -7.06354E+00 +1.07499E+01 -5.04681E+00
 +1.15821E+01 -2.78988E+00 +1.19211E+01 -3.94439E-01 +1.17448E+01 +2.02911E+00 +1.10560E+01 +4.36707E+00
 +9.88272E+00 +6.50825E+00 +8.27794E+00 +8.34973E+00 +6.31664E+00 +9.80231E+00 +4.09254E+00 +1.07954E+01
 +1.71351E+00 +1.12811E+01 -7.03929E-01 +1.12366E+01 -3.04057E+00 +1.06665E+01 -5.18084E+00 +9.60196E+00
 -7.01891E+00 +8.10001E+00 -8.46443E+00 +6.24042E+00 -9.44750E+00 +4.12174E+00 -9.92254E+00 +1.85605E+00
 -9.87085E+00 -4.36939E-01 -9.30178E+00 -2.63635E+00 -8.25226E+00 -4.62670E+00 -6.78487E+00 -6.30418E+00
 -4.98444E+00 -7.58235E+00 -2.95339E+00 -8.39684E+00 -8.06087E-01 -8.70888E+00 +1.33745E+00 -8.50737E+00
 +3.35822E+00 -7.80938E+00 +5.14476E+00 -6.65909E+00 +6.59929E+00 -5.12523E+00 +7.64302E+00 -3.29711E+00
 +8.22034E+00 -1.27953E+00 +8.30175E+00 +8.13117E-01 +7.88520E+00 +2.86325E+00 +6.99591E+00 +4.75664E+00
 +5.68471E+00 +6.38858E+00 +4.02491E+00 +7.66957E+00 +2.10797E+00 +8.52999E+00 +3.82731E-02 +8.92353E+00
 -2.07278E+00 +8.82939E+00 -4.11287E+00 +8.25291E+00 -5.97483E+00 +7.22476E+00 -7.56221E+00 +5.79882E+00
 -8.79420E+00 +4.04877E+00 -9.60945E+00 +2.06375E+00 -9.96877E+00 -5.66970E-02 -9.85657E+00 -2.20805E+00
 -9.28089E+00 -4.28633E+00 -8.27230E+00 -6.19334E+00 -6.88155E+00 -7.84139E+00 -5.17636E+00 -9.15728E+00
 -3.23741E+00 -1.00853E+01 -1.15395E+00 -1.05892E+01 +9.80821E-01 -1.06531E+01 +3.07432E+00 -1.02813E+01
 +5.03880E+00 -9.49721E+00 +6.79506E+00 -8.34107E+00 +8.27553E+00 -6.86759E+00 +9.42657E+00 -5.14265E+00
 +1.02100E+01 -3.23991E+00 +1.06036E+01 -1.23735E+00 +1.06014E+01 +7.86165E-01 +1.02128E+01 +2.75395E+00
 +9.46103E+00 +4.59429E+00 +8.38200E+00 +6.24276E+00 +7.02194E+00 +7.64406E+00 +5.43541E+00 +8.75338E+00
