 Created: 19-Jan-2021
 $NMID
 ID='D:\BASISSIMULATI'
 FMTDAT='(8E13.5)'
 VOLUME=   1.00000E+00
 TRAMP=   1.00000E+00
 $END
 +3.57666E+01 +1.80072E-01 +3.21759E+01 +8.63590E+00 +2.13447E+01 +1.53798E+01 +6.41070E+00 +1.91839E+01
 -8.35520E+00 +1.92994E+01 -1.88453E+01 +1.56205E+01 -2.23350E+01 +8.79152E+00 -1.82438E+01 +1.95013E-01
 -8.21294E+00 -8.23849E+00 +4.49747E+00 -1.44159E+01 +1.60738E+01 -1.66032E+01 +2.33177E+01 -1.39509E+01
 +2.45476E+01 -6.84992E+00 +1.99709E+01 +3.03630E+00 +1.14504E+01 +1.31302E+01 +1.78915E+00 +2.06302E+01
 -6.19883E+00 +2.33468E+01 -1.05209E+01 +2.04204E+01 -1.04933E+01 +1.26725E+01 -6.77270E+00 +2.43679E+00
 -9.81039E-01 -7.11091E+00 +4.90370E+00 -1.29350E+01 +9.16732E+00 -1.31239E+01 +1.07979E+01 -7.54505E+00
 +9.64228E+00 +2.06336E+00 +6.28972E+00 +1.26163E+01 +1.77855E+00 +2.06669E+01 -2.74377E+00 +2.35346E+01
 -6.29629E+00 +2.02009E+01 -8.22176E+00 +1.16684E+01 -8.23253E+00 +6.54443E-01 -6.39125E+00 -9.28625E+00
 -3.07476E+00 -1.49201E+01 +1.05919E+00 -1.43913E+01 +5.12060E+00 -7.82475E+00 +8.09166E+00 +2.71979E+00
 +9.01664E+00 +1.39225E+01 +7.26483E+00 +2.22758E+01 +2.79881E+00 +2.51971E+01 -3.65843E+00 +2.18199E+01
 -1.06618E+01 +1.32171E+01 -1.63381E+01 +2.00656E+00 -1.88951E+01 -8.51051E+00 -1.72094E+01 -1.53805E+01
 -1.12969E+01 -1.68639E+01 -2.47624E+00 -1.28766E+01 +6.88034E+00 -4.89926E+00 +1.39822E+01 +4.57390E+00
 +1.64701E+01 +1.28358E+01 +1.32132E+01 +1.77490E+01 +4.77676E+00 +1.82762E+01 -6.62848E+00 +1.46329E+01
 -1.77385E+01 +8.07058E+00 -2.52101E+01 +4.10473E-01 -2.66757E+01 -6.49520E+00 -2.15319E+01 -1.12104E+01
 -1.11909E+01 -1.29696E+01 +1.30935E+00 -1.17221E+01 +1.22263E+01 -8.01547E+00 +1.82769E+01 -2.79934E+00
 +1.76684E+01 +2.78083E+00 +1.06605E+01 +7.56520E+00 -5.26259E-01 +1.05380E+01 -1.24235E+01 +1.09806E+01
 -2.14137E+01 +8.62338E+00 -2.48563E+01 +3.77007E+00 -2.18781E+01 -2.66177E+00 -1.35846E+01 -9.24605E+00
 -2.64334E+00 -1.43276E+01 +7.60469E+00 -1.64425E+01 +1.42007E+01 -1.47755E+01 +1.54497E+01 -9.50432E+00
 +1.13581E+01 -1.88738E+00 +3.51880E+00 +5.98557E+00 -5.48257E+00 +1.17496E+01 -1.29175E+01 +1.34828E+01
 -1.67347E+01 +1.03610E+01 -1.61005E+01 +3.01889E+00 -1.15211E+01 -6.53580E+00 -4.55609E+00 -1.54689E+01
 +2.74051E+00 -2.09794E+01 +8.44886E+00 -2.12055E+01 +1.12856E+01 -1.58763E+01 +1.08541E+01 -6.47366E+00
 +7.61631E+00 +4.17244E+00 +2.64854E+00 +1.27484E+01 -2.70469E+00 +1.65090E+01 -7.16539E+00 +1.41758E+01
 -9.76791E+00 +6.37922E+00 -9.99183E+00 -4.51003E+00 -7.79930E+00 -1.51153E+01 -3.60963E+00 -2.21195E+01
 +1.76639E+00 -2.33166E+01 +7.23317E+00 -1.83064E+01 +1.15741E+01 -8.61022E+00 +1.36815E+01 +2.82378E+00
 +1.28317E+01 +1.25578E+01 +8.94202E+00 +1.77354E+01 +2.71902E+00 +1.69420E+01 -4.39129E+00 +1.05905E+01
 -1.04910E+01 +7.29078E-01 -1.37190E+01 -9.64252E+00 -1.28185E+01 -1.75104E+01 -7.60592E+00 -2.07331E+01
 +8.34433E-01 -1.86101E+01 +1.03369E+01 -1.19829E+01 +1.82120E+01 -2.87733E+00 +2.20325E+01 +6.16246E+00
 +2.04117E+01 +1.28224E+01 +1.35150E+01 +1.56199E+01 +3.11403E+00 +1.42045E+01 -7.86950E+00 +9.31538E+00
 -1.62118E+01 +2.45836E+00 -1.93740E+01 -4.56142E+00 -1.63125E+01 -1.01022E+01 -7.84366E+00 -1.30281E+01
 +3.56944E+00 -1.28767E+01 +1.45535E+01 -9.85958E+00 +2.18575E+01 -4.74037E+00 +2.33528E+01 +1.35322E+00
 +1.86820E+01 +7.14333E+00 +9.34796E+00 +1.14204E+01 -1.77828E+00 +1.32567E+01 -1.13689E+01 +1.21993E+01
 -1.66708E+01 +8.40959E+00 -1.63280E+01 +2.70041E+00 -1.07423E+01 -3.57517E+00 -1.87370E+00 -8.79916E+00
 +7.43149E+00 -1.14907E+01 +1.43531E+01 -1.07396E+01 +1.69510E+01 -6.53900E+00 +1.46977E+01 +1.10523E-01
 +8.54469E+00 +7.39790E+00 +5.35041E-01 +1.31794E+01 -6.88500E+00 +1.56165E+01 -1.16195E+01 +1.37800E+01
 -1.25070E+01 +8.01644E+00 -9.57630E+00 -6.95530E-02 -3.93080E+00 -8.04388E+00 +2.66166E+00 -1.33729E+01
 +8.32008E+00 -1.42329E+01 +1.15668E+01 -1.01359E+01 +1.16710E+01 -2.15294E+00 +8.75327E+00 +7.35885E+00
 +3.66348E+00 +1.54584E+01 -2.29553E+00 +1.95385E+01 -7.70472E+00 +1.81665E+01 -1.13406E+01 +1.15710E+01
 -1.24073E+01 +1.60865E+00 -1.06676E+01 -8.78671E+00 -6.47355E+00 -1.65038E+01 -7.03117E-01 -1.92148E+01
 +5.38803E+00 -1.60935E+01 +1.03945E+01 -8.06344E+00 +1.30484E+01 +2.49796E+00 +1.25250E+01 +1.24961E+01
 +8.69731E+00 +1.90598E+01 +2.26063E+00 +2.03875E+01 -5.34143E+00 +1.62433E+01 -1.22117E+01 +7.96369E+00
 -1.64700E+01 -2.00141E+00 -1.67865E+01 -1.08520E+01 -1.28212E+01 -1.62570E+01 -5.41756E+00 -1.69827E+01
 +3.54140E+00 -1.31592E+01 +1.16093E+01 -6.13833E+00 +1.64663E+01 +1.97968E+00 +1.66222E+01 +8.98164E+00
 +1.19111E+01 +1.31428E+01 +3.60322E+00 +1.36309E+01 -5.92296E+00 +1.06281E+01 -1.38691E+01 +5.17522E+00
 -1.78611E+01 -1.17966E+00 -1.66874E+01 -6.81108E+00 -1.06910E+01 -1.04072E+01 -1.68378E+00 -1.12385E+01
 +7.60106E+00 -9.26667E+00 +1.43496E+01 -5.09830E+00 +1.65375E+01 +1.84416E-01 +1.35538E+01 +5.27206E+00
 +6.38118E+00 +8.91019E+00 -2.72178E+00 +1.01713E+01 -1.09324E+01 +8.67277E+00 -1.57399E+01 +4.69530E+00
 -1.57094E+01 -8.35043E-01 -1.08984E+01 -6.52218E+00 -2.80492E+00 -1.08168E+01 +6.12056E+00 -1.24164E+01
 +1.32360E+01 -1.06509E+01 +1.64979E+01 -5.73916E+00 +1.50410E+01 +1.17993E+00 +9.38478E+00 +8.28571E+00
 +1.22461E+00 +1.35449E+01 -7.10390E+00 +1.52957E+01 -1.33122E+01 +1.27766E+01 -1.57884E+01 +6.42889E+00
 -1.39973E+01 -2.14471E+00 -8.55723E+00 -1.05811E+01 -1.00331E+00 -1.64197E+01 +6.66960E+00 -1.78370E+01
 +1.25428E+01 -1.42267E+01 +1.52429E+01 -6.43513E+00 +1.42367E+01 +3.43717E+00 +9.90007E+00 +1.26237E+01
 +3.37311E+00 +1.84997E+01 -3.74437E+00 +1.93653E+01 -9.77450E+00 +1.49611E+01 -1.33365E+01 +6.55413E+00
 -1.36428E+01 -3.43460E+00 -1.06631E+01 -1.21493E+01 -5.12970E+00 -1.71427E+01 +1.62082E+00 -1.70869E+01
 +7.94262E+00 -1.21381E+01 +1.22600E+01 -3.85233E+00 +1.34526E+01 +5.31023E+00 +1.11568E+01 +1.27308E+01
 +5.89681E+00 +1.63961E+01 -1.00377E+00 +1.54524E+01 -7.73316E+00 +1.03968E+01 -1.24594E+01 +2.86637E+00
 -1.38393E+01 -4.88908E+00 -1.14229E+01 -1.06795E+01 -5.82807E+00 -1.29889E+01 +1.38905E+00 -1.13596E+01
 +8.14734E+00 -6.45422E+00 +1.24342E+01 +1.96541E-01 +1.29079E+01 +6.66693E+00 +9.32441E+00 +1.11816E+01
 +2.64907E+00 +1.25811E+01 -5.19678E+00 +1.05918E+01 -1.18894E+01 +5.84599E+00 -1.53967E+01 -3.28956E-01
 -1.46011E+01 -6.28272E+00 -9.65777E+00 -1.04705E+01 -1.97083E+00 -1.18330E+01 +6.21166E+00 -1.00429E+01
 +1.24642E+01 -5.56975E+00 +1.49101E+01 +4.43881E-01 +1.27854E+01 +6.46198E+00 +6.66914E+00 +1.09276E+01
 -1.68932E+00 +1.26452E+01 -9.89041E+00 +1.10863E+01 -1.55918E+01 +6.54336E+00 -1.71894E+01 +8.76305E-02
 -1.42695E+01 -6.67273E+00 -7.70594E+00 -1.19862E+01 +6.18651E-01 -1.44133E+01 +8.37200E+00 -1.32264E+01
 +1.34419E+01 -8.64253E+00 +1.45194E+01 -1.81015E+00 +1.14348E+01 +5.46348E+00 +5.16118E+00 +1.11855E+01
 -2.49601E+00 +1.37290E+01 -9.42381E+00 +1.23068E+01 -1.37843E+01 +7.22646E+00 -1.44946E+01 -1.61258E-01
 -1.14825E+01 -7.81938E+00 -5.66227E+00 -1.35939E+01 +1.34587E+00 -1.58345E+01 +7.66563E+00 -1.38842E+01
 +1.16608E+01 -8.28745E+00 +1.23495E+01 -6.48239E-01 +9.63755E+00 +6.82587E+00 +4.32088E+00 +1.19638E+01
 -2.13613E+00 +1.32661E+01 -7.98546E+00 +1.03459E+01 -1.16470E+01 +4.04469E+00 -1.21155E+01 -3.81290E+00
 -9.22309E+00 -1.09510E+01 -3.69120E+00 -1.53041E+01 +3.04518E+00 -1.56134E+01 +9.20116E+00 -1.17834E+01
 +1.31069E+01 -4.90046E+00 +1.36566E+01 +3.08809E+00 +1.06221E+01 +9.93501E+00 +4.74341E+00 +1.37298E+01
 -2.44081E+00 +1.34288E+01 -8.98598E+00 +9.13261E+00 -1.30617E+01 +2.04101E+00 -1.34599E+01 -5.89411E+00
 -9.94869E+00 -1.25122E+01 -3.36691E+00 -1.60312E+01 +4.57816E+00 -1.55183E+01 +1.17623E+01 -1.11227E+01
 +1.62252E+01 -4.01609E+00 +1.67193E+01 +3.93399E+00 +1.30690E+01 +1.06653E+01 +6.23418E+00 +1.44614E+01
 -1.94424E+00 +1.43912E+01 -9.25000E+00 +1.05380E+01 -1.37050E+01 +3.96276E+00 -1.41179E+01 -3.58249E+00
 -1.04108E+01 -1.01163E+01 -3.63377E+00 -1.39433E+01 +4.33702E+00 -1.40917E+01 +1.13274E+01 -1.05607E+01
 +1.54695E+01 -4.31357E+00 +1.57100E+01 +2.98123E+00 +1.20838E+01 +9.39575E+00 +5.67943E+00 +1.32569E+01
 -1.68514E+00 +1.35938E+01 -7.97983E+00 +1.03974E+01 -1.15251E+01 +4.61989E+00 -1.14437E+01 -2.08938E+00
 -7.87970E+00 -7.84010E+00 -1.93345E+00 -1.10263E+01 +4.66430E+00 -1.07742E+01 +1.00420E+01 -7.18576E+00
 +1.27042E+01 -1.30844E+00 +1.19361E+01 +5.16394E+00 +7.98740E+00 +1.03742E+01 +1.99145E+00 +1.28326E+01
 -4.35541E+00 +1.18430E+01 -9.26556E+00 +7.70216E+00 -1.13543E+01 +1.61436E+00 -1.00234E+01 -4.65392E+00
 -5.63103E+00 -9.28002E+00 +6.00032E-01 -1.09062E+01 +6.91219E+00 -9.02726E+00 +1.14943E+01 -4.13444E+00
 +1.29855E+01 +2.42261E+00 +1.08627E+01 +8.81526E+00 +5.60471E+00 +1.32474E+01 -1.41990E+00 +1.44551E+01
 -8.31472E+00 +1.20556E+01 -1.31732E+01 +6.65254E+00 -1.46109E+01 -3.29680E-01 -1.21641E+01 -7.03197E+00
 -6.43742E+00 -1.16613E+01 +1.04361E+00 -1.29702E+01 +8.24303E+00 -1.05880E+01 +1.31740E+01 -5.11920E+00
 +1.44528E+01 +2.01582E+00 +1.16893E+01 +8.95196E+00 +5.60225E+00 +1.38666E+01 -2.17695E+00 +1.54557E+01
 -9.55568E+00 +1.32759E+01 -1.45605E+01 +7.86471E+00 -1.58810E+01 +6.06837E-01 -1.32240E+01 -6.62232E+00
 -7.37980E+00 -1.19447E+01 +1.32697E-02 -1.39746E+01 +6.93537E+00 -1.21910E+01 +1.15460E+01 -7.08544E+00
 +1.26809E+01 -4.15022E-02 +1.01484E+01 +7.02828E+00 +4.75060E+00 +1.21962E+01 -1.96820E+00 +1.40468E+01
 -8.16402E+00 +1.20727E+01 -1.22002E+01 +6.82524E+00 -1.30777E+01 -2.29539E-01 -1.06775E+01 -7.11507E+00
 -5.75843E+00 -1.19006E+01 +2.76794E-01 -1.32526E+01 +5.77502E+00 -1.08215E+01 +9.27665E+00 -5.34886E+00
 +9.89318E+00 +1.54302E+00 +7.52491E+00 +7.82005E+00 +2.86960E+00 +1.16306E+01 -2.77348E+00 +1.18494E+01
 -7.85012E+00 +8.40996E+00 -1.09593E+01 +2.32451E+00 -1.12212E+01 -4.61513E+00 -8.51299E+00 -1.03673E+01
 -3.51266E+00 -1.32428E+01 +2.46410E+00 -1.24001E+01 +7.79822E+00 -8.08712E+00 +1.09931E+01 -1.56099E+00
 +1.10850E+01 +5.28712E+00 +7.92881E+00 +1.04861E+01 +2.27538E+00 +1.25528E+01 -4.39263E+00 +1.09075E+01
 -1.02371E+01 +6.02228E+00 -1.35614E+01 -7.32901E-01 -1.32961E+01 -7.49185E+00 -9.33405E+00 -1.24183E+01
