 Created: 19-Jan-2021
 $NMID
 ID='D:\BASISSIMULATI'
 FMTDAT='(8E13.5)'
 VOLUME=   1.00000E+00
 TRAMP=   1.00000E+00
 $END
 +5.10747E+01 -6.97449E-01 +4.63512E+01 +1.89665E+01 +3.30941E+01 +3.38968E+01 +1.47018E+01 +4.06506E+01
 -4.22817E+00 +3.78879E+01 -1.90806E+01 +2.66655E+01 -2.63857E+01 +1.01157E+01 -2.46642E+01 -7.39620E+00
 -1.47450E+01 -2.14057E+01 +5.11466E-01 -2.84797E+01 +1.69993E+01 -2.70513E+01 +3.04470E+01 -1.77564E+01
 +3.75058E+01 -3.19744E+00 +3.65673E+01 +1.27861E+01 +2.81097E+01 +2.61390E+01 +1.44981E+01 +3.36314E+01
 -6.91182E-01 +3.36519E+01 -1.36330E+01 +2.65565E+01 -2.12443E+01 +1.44992E+01 -2.19475E+01 +8.05973E-01
 -1.60167E+01 -1.09313E+01 -5.43230E+00 -1.77953E+01 +6.70162E+00 -1.82750E+01 +1.70110E+01 -1.26043E+01
 +2.27447E+01 -2.63545E+00 +2.24742E+01 +8.70684E+00 +1.64236E+01 +1.82320E+01 +6.35568E+00 +2.33336E+01
 -4.94118E+00 +2.26597E+01 -1.44198E+01 +1.64329E+01 -1.95865E+01 +6.34820E+00 -1.91458E+01 -4.91332E+00
 -1.33124E+01 -1.44166E+01 -3.71953E+00 -1.97531E+01 +7.04367E+00 -1.96642E+01 +1.61343E+01 -1.43478E+01
 +2.12096E+01 -5.37763E+00 +2.10334E+01 +4.73786E+00 +1.57810E+01 +1.32313E+01 +6.96958E+00 +1.78076E+01
 -2.96150E+00 +1.72381E+01 -1.13029E+01 +1.16665E+01 -1.57871E+01 +2.55143E+00 -1.51734E+01 -7.73133E+00
 -9.55683E+00 -1.65191E+01 -3.25905E-01 -2.15565E+01 +1.02144E+01 -2.15738E+01 +1.94505E+01 -1.66004E+01
 +2.51383E+01 -7.93839E+00 +2.59749E+01 +2.19268E+00 +2.19180E+01 +1.12415E+01 +1.41753E+01 +1.69865E+01
 +4.87091E+00 +1.81014E+01 -3.51755E+00 +1.44794E+01 -8.80396E+00 +7.23777E+00 -9.65127E+00 -1.59415E+00
 -5.89958E+00 -9.61599E+00 +1.41597E+00 -1.46833E+01 +1.03566E+01 -1.54561E+01 +1.85994E+01 -1.17285E+01
 +2.40458E+01 -4.45830E+00 +2.53593E+01 +4.50657E+00 +2.22941E+01 +1.29260E+01 +1.57332E+01 +1.87572E+01
 +7.43131E+00 +2.06803E+01 -4.63218E-01 +1.84224E+01 -5.97891E+00 +1.28015E+01 -7.83164E+00 +5.48322E+00
 -5.74259E+00 -1.47957E+00 -4.83774E-01 -6.19761E+00 +6.35486E+00 -7.43980E+00 +1.28093E+01 -4.94145E+00
 +1.70738E+01 +5.51465E-01 +1.79784E+01 +7.50831E+00 +1.52847E+01 +1.40437E+01 +9.72577E+00 +1.84323E+01
 +2.78362E+00 +1.95680E+01 -3.72918E+00 +1.72462E+01 -8.16788E+00 +1.21956E+01 -9.49705E+00 +5.85659E+00
 -7.55651E+00 -2.90494E-02 -3.08307E+00 -3.90121E+00 +2.51358E+00 -4.80529E+00 +7.55516E+00 -2.64115E+00
 +1.05653E+01 +1.82766E+00 +1.06763E+01 +7.20336E+00 +7.86025E+00 +1.18552E+01 +2.92463E+00 +1.43793E+01
 -2.72511E+00 +1.39901E+01 -7.48639E+00 +1.07339E+01 -1.00115E+01 +5.47010E+00 -9.58496E+00 -3.76235E-01
 -6.32163E+00 -5.21667E+00 -1.13219E+00 -7.74611E+00 +4.53363E+00 -7.30855E+00 +9.09362E+00 -4.08087E+00
 +1.12762E+01 +9.75785E-01 +1.04773E+01 +6.38315E+00 +6.93114E+00 +1.05571E+01 +1.64987E+00 +1.22495E+01
 -3.85395E+00 +1.08972E+01 -7.98350E+00 +6.78434E+00 -9.49888E+00 +9.69863E-01 -7.86197E+00 -4.99748E+00
 -3.39003E+00 -9.50015E+00 +2.82424E+00 -1.12932E+01 +9.20443E+00 -9.84572E+00 +1.41148E+01 -5.48848E+00
 +1.63014E+01 +6.71420E-01 +1.52308E+01 +7.04665E+00 +1.12337E+01 +1.19955E+01 +5.41517E+00 +1.42619E+01
 -6.42575E-01 +1.33109E+01 -5.30614E+00 +9.46867E+00 -7.32797E+00 +3.83084E+00 -6.17771E+00 -2.03593E+00
 -2.17865E+00 -6.51682E+00 +3.58628E+00 -8.38160E+00 +9.57195E+00 -7.11050E+00 +1.41902E+01 -3.02593E+00
 +1.62366E+01 +2.80399E+00 +1.52090E+01 +8.86189E+00 +1.14333E+01 +1.35960E+01 +5.96322E+00 +1.58393E+01
 +2.84040E-01 +1.51201E+01 -4.09792E+00 +1.17792E+01 -6.06698E+00 +6.86460E+00 -5.19853E+00 +1.83364E+00
 -1.86687E+00 -1.85446E+00 +2.86779E+00 -3.14296E+00 +7.56113E+00 -1.66801E+00 +1.07910E+01 +2.14451E+00
 +1.15562E+01 +7.20181E+00 +9.55732E+00 +1.20522E+01 +5.28203E+00 +1.52934E+01 -1.28932E-01 +1.59677E+01
 -5.19880E+00 +1.38349E+01 -8.52768E+00 +9.44679E+00 -9.18747E+00 +4.00059E+00 -6.98907E+00 -9.88841E-01
 -2.54681E+00 -4.10946E+00 +2.88004E+00 -4.44954E+00 +7.72743E+00 -1.86200E+00 +1.05568E+01 +2.97905E+00
 +1.04580E+01 +8.74831E+00 +7.31392E+00 +1.38221E+01 +1.85107E+00 +1.67201E+01 -4.53996E+00 +1.65164E+01
 -1.01700E+01 +1.31067E+01 -1.35053E+01 +7.25617E+00 -1.35883E+01 +4.11661E-01 -1.03099E+01 -5.67508E+00
 -4.45683E+00 -9.41391E+00 +2.48210E+00 -9.80760E+00 +8.70292E+00 -6.73078E+00 +1.25646E+01 -9.78704E-01
 +1.30312E+01 +5.93075E+00 +9.95815E+00 +1.21524E+01 +4.14380E+00 +1.60024E+01 -2.87164E+00 +1.64114E+01
 -9.20842E+00 +1.32176E+01 -1.31459E+01 +7.22196E+00 -1.35849E+01 -1.49974E-02 -1.03491E+01 -6.58185E+00
 -4.24237E+00 -1.07240E+01 +3.15517E+00 -1.13152E+01 +9.90230E+00 -8.16591E+00 +1.42129E+01 -2.08421E+00
 +1.49364E+01 +5.33043E+00 +1.18731E+01 +1.21078E+01 +5.83801E+00 +1.64318E+01 -1.54696E+00 +1.71298E+01
 -8.27965E+00 +1.39955E+01 -1.25114E+01 +7.85508E+00 -1.30457E+01 +3.58881E-01 -9.66867E+00 -6.45188E+00
 -3.21956E+00 -1.06877E+01 +4.61912E+00 -1.11195E+01 +1.17599E+01 -7.51799E+00 +1.62624E+01 -7.28928E-01
 +1.68524E+01 +7.53599E+00 +1.32710E+01 +1.51421E+01 +6.35706E+00 +2.00922E+01 -2.16019E+00 +2.10564E+01
 -1.01063E+01 +1.77319E+01 -1.54291E+01 +1.09337E+01 -1.67387E+01 +2.39229E+00 -1.36775E+01 -5.69207E+00
 -7.02144E+00 -1.12209E+01 +1.51572E+00 -1.27459E+01 +9.72501E+00 -9.84929E+00 +1.54755E+01 -3.25529E+00
 +1.72681E+01 +5.35703E+00 +1.46241E+01 +1.37902E+01 +8.20640E+00 +1.98998E+01 -3.57585E-01 +2.21499E+01
 -8.90455E+00 +2.00074E+01 -1.53011E+01 +1.40707E+01 -1.79970E+01 +5.90238E+00 -1.64212E+01 -2.39021E+00
 -1.11149E+01 -8.71210E+00 -3.57223E+00 -1.15283E+01 +4.16995E+00 -1.02560E+01 +1.00794E+01 -5.39951E+00
 +1.26665E+01 +1.60596E+00 +1.13695E+01 +8.79652E+00 +6.68497E+00 +1.42170E+01 +1.12249E-02 +1.64481E+01
 -6.74975E+00 +1.49805E+01 -1.17219E+01 +1.03362E+01 -1.35708E+01 +3.90699E+00 -1.18650E+01 -2.44504E+00
 -7.18476E+00 -6.91257E+00 -9.49210E-01 -8.24966E+00 +4.98897E+00 -6.11984E+00 +8.86986E+00 -1.18957E+00
 +9.52745E+00 +5.05925E+00 +6.72662E+00 +1.07469E+01 +1.24100E+00 +1.41292E+01 -5.35233E+00 +1.40985E+01
 -1.11073E+01 +1.05138E+01 -1.42553E+01 +4.26489E+00 -1.37128E+01 -2.95174E+00 -9.41043E+00 -9.08725E+00
 -2.34682E+00 -1.23054E+01 +5.65163E+00 -1.15039E+01 +1.24069E+01 -6.64827E+00 +1.59766E+01 +1.17725E+00
 +1.51941E+01 +1.00233E+01 +1.00159E+01 +1.75713E+01 +1.57505E+00 +2.17445E+01 -8.07853E+00 +2.12724E+01
 -1.64906E+01 +1.60564E+01 -2.14367E+01 +7.23505E+00 -2.15121E+01 -3.07601E+00 -1.65221E+01 -1.23065E+01
 -7.56452E+00 -1.80853E+01 +3.22145E+00 -1.88565E+01 +1.31816E+01 -1.42958E+01 +1.98142E+01 -5.41710E+00
 +2.14090E+01 +5.66366E+00 +1.74908E+01 +1.62499E+01 +8.95286E+00 +2.37391E+01 -2.15774E+00 +2.62795E+01
 -1.31492E+01 +2.32386E+01 -2.13594E+01 +1.53644E+01 -2.48225E+01 +4.59648E+00 -2.27596E+01 -6.42474E+00
 -1.57646E+01 -1.50237E+01 -5.64378E+00 -1.91602E+01 +5.05259E+00 -1.79339E+01 +1.36807E+01 -1.17932E+01
 +1.81700E+01 -2.40043E+00 +1.75342E+01 +7.81038E+00 +1.20979E+01 +1.62648E+01 +3.38466E+00 +2.09039E+01
 -6.30001E+00 +2.06957E+01 -1.44777E+01 +1.58719E+01 -1.91372E+01 +7.83451E+00 -1.92402E+01 -1.23811E+00
 -1.49615E+01 -8.97796E+00 -7.60860E+00 -1.34492E+01 +7.54180E-01 -1.36422E+01 +7.87094E+00 -9.71236E+00
 +1.18973E+01 -2.90570E+00 +1.18801E+01 +4.80325E+00 +7.99005E+00 +1.12597E+01 +1.44738E+00 +1.47138E+01
 -5.83178E+00 +1.42857E+01 -1.17714E+01 +1.01881E+01 -1.47062E+01 +3.64871E+00 -1.38331E+01 -3.44111E+00
 -9.42230E+00 -9.05485E+00 -2.73436E+00 -1.15913E+01 +4.33365E+00 -1.03151E+01 +9.77405E+00 -5.55805E+00
 +1.20237E+01 +1.37177E+00 +1.03974E+01 +8.54807E+00 +5.28179E+00 +1.39543E+01 -1.96215E+00 +1.60379E+01
 -9.36370E+00 +1.41417E+01 -1.48748E+01 +8.69345E+00 -1.69279E+01 +1.10336E+00 -1.48689E+01 -6.60591E+00
 -9.14776E+00 -1.23382E+01 -1.21332E+00 -1.44884E+01 +6.86050E+00 -1.23810E+01 +1.29203E+01 -6.46509E+00
 +1.53059E+01 +1.78870E+00 +1.32981E+01 +1.02639E+01 +7.32172E+00 +1.67491E+01 -1.15197E+00 +1.95195E+01
 -9.97923E+00 +1.77955E+01 -1.68982E+01 +1.19569E+01 -2.01183E+01 +3.45433E+00 -1.87907E+01 -5.55977E+00
 -1.32353E+01 -1.27862E+01 -4.86395E+00 -1.63747E+01 +4.18050E+00 -1.54054E+01 +1.15768E+01 -1.01298E+01
 +1.54253E+01 -1.90751E+00 +1.47386E+01 +7.14429E+00 +9.69634E+00 +1.46980E+01 +1.59634E+00 +1.88166E+01
 -7.48341E+00 +1.84528E+01 -1.52243E+01 +1.37151E+01 -1.96669E+01 +5.83373E+00 -1.97142E+01 -3.16388E+00
 -1.54090E+01 -1.09831E+01 -7.91272E+00 -1.56576E+01 +8.05379E-01 -1.60554E+01 +8.48742E+00 -1.21633E+01
 +1.31760E+01 -5.07816E+00 +1.37198E+01 +3.29171E+00 +1.00631E+01 +1.07337E+01 +3.24659E+00 +1.53122E+01
 -4.87987E+00 +1.58715E+01 -1.21529E+01 +1.23275E+01 -1.66681E+01 +5.67516E+00 -1.72776E+01 -2.28861E+00
 -1.38820E+01 -9.45042E+00 -7.44175E+00 -1.39433E+01 +2.92764E-01 -1.46380E+01 +7.25684E+00 -1.14316E+01
 +1.16254E+01 -5.26149E+00 +1.22967E+01 +2.16019E+00 +9.17668E+00 +8.81406E+00 +3.19145E+00 +1.29191E+01
 -3.97441E+00 +1.34079E+01 -1.03404E+01 +1.02061E+01 -1.41676E+01 +4.24109E+00 -1.44266E+01 -2.81844E+00
 -1.10696E+01 -9.02116E+00 -5.03593E+00 -1.26647E+01 +2.01047E+00 -1.27560E+01 +8.13709E+00 -9.27724E+00
 +1.16699E+01 -3.18556E+00 +1.16478E+01 +3.85098E+00 +8.08162E+00 +9.90950E+00 +1.94952E+00 +1.33360E+01
 -5.07083E+00 +1.31948E+01 -1.10586E+01 +9.52258E+00 -1.43716E+01 +3.31833E+00 -1.40924E+01 -3.72701E+00
 -1.02780E+01 -9.68825E+00 -3.94602E+00 -1.29269E+01 +3.19817E+00 -1.25348E+01 +9.22026E+00 -8.58125E+00
 +1.24776E+01 -2.09684E+00 +1.20616E+01 +5.20120E+00 +8.04341E+00 +1.13680E+01 +1.45718E+00 +1.47515E+01
 -5.97485E+00 +1.44339E+01 -1.23006E+01 +1.04778E+01 -1.58573E+01 +3.90956E+00 -1.57133E+01 -3.55350E+00
 -1.19140E+01 -9.95907E+00 -5.46775E+00 -1.36373E+01 +1.92330E+00 -1.36413E+01 +8.31557E+00 -9.99457E+00
 +1.20380E+01 -3.67991E+00 +1.21308E+01 +3.62502E+00 +8.59376E+00 +9.99438E+00 +2.37901E+00 +1.37632E+01
 -4.86797E+00 +1.39634E+01 -1.12479E+01 +1.05721E+01 -1.51105E+01 +4.50795E+00 -1.54862E+01 -2.62144E+00
 -1.23339E+01 -8.95157E+00 -6.53981E+00 -1.28562E+01 +3.29046E-01 -1.33739E+01 +6.44878E+00 -1.04533E+01
 +1.02259E+01 -4.95374E+00 +1.07172E+01 +1.59582E+00 +7.87197E+00 +7.41363E+00 +2.53253E+00 +1.09442E+01
