 Created: 19-Jan-2021
 $NMID
 ID='D:\BASISSIMULATI'
 FMTDAT='(8E13.5)'
 VOLUME=   1.00000E+00
 TRAMP=   1.00000E+00
 $END
 +4.05011E+01 +2.83940E+00 +3.73715E+01 -8.90873E+00 +2.63455E+01 -1.73938E+01 +1.04214E+01 -1.95789E+01
 -6.12620E+00 -1.43598E+01 -1.89646E+01 -2.90311E+00 -2.49263E+01 +1.16868E+01 -2.28824E+01 +2.52727E+01
 -1.40200E+01 +3.38958E+01 -1.44753E+00 +3.49374E+01 +1.07486E+01 +2.78929E+01 +1.87174E+01 +1.45326E+01
 +1.99704E+01 -1.59484E+00 +1.40951E+01 -1.61721E+01 +2.85180E+00 -2.53403E+01 -1.03697E+01 -2.67893E+01
 -2.15684E+01 -2.03964E+01 -2.73233E+01 -8.23385E+00 -2.58089E+01 +6.05281E+00 -1.73371E+01 +1.83089E+01
 -4.27173E+00 +2.50667E+01 +9.65787E+00 +2.45267E+01 +2.04398E+01 +1.70420E+01 +2.49429E+01 +4.97385E+00
 +2.18211E+01 -8.03431E+00 +1.18990E+01 -1.81438E+01 -2.07072E+00 -2.24500E+01 -1.62027E+01 -1.98238E+01
 -2.65934E+01 -1.12233E+01 -3.04309E+01 +6.08904E-01 -2.67789E+01 +1.19691E+01 -1.68138E+01 +1.92910E+01
 -3.45222E+00 +2.01966E+01 +9.51534E+00 +1.41938E+01 +1.85289E+01 +2.81957E+00 +2.12786E+01 -1.08073E+01
 +1.73455E+01 -2.28903E+01 +8.28433E+00 -3.00500E+01 -2.86886E+00 -3.02904E+01 -1.25131E+01 -2.35602E+01
 -1.75508E+01 -1.17485E+01 -1.62949E+01 +1.87515E+00 -8.95405E+00 +1.36103E+01 +2.44152E+00 +2.03852E+01
 +1.46453E+01 +2.06201E+01 +2.41485E+01 +1.46479E+01 +2.82024E+01 +4.57733E+00 +2.56117E+01 -6.35385E+00
 +1.70703E+01 -1.47403E+01 +4.94871E+00 -1.80030E+01 -7.40050E+00 -1.51273E+01 -1.66120E+01 -6.93434E+00
 -2.02691E+01 +4.18462E+00 -1.75792E+01 +1.49875E+01 -9.57345E+00 +2.23382E+01 +1.22118E+00 +2.41201E+01
 +1.15349E+01 +1.98420E+01 +1.83089E+01 +1.07653E+01 +1.95728E+01 -4.79649E-01 +1.49923E+01 -1.06678E+01
 +5.93584E+00 -1.69173E+01 -4.95260E+00 -1.75155E+01 -1.45421E+01 -1.23975E+01 -2.01312E+01 -3.14246E+00
 -2.02246E+01 +7.50321E+00 -1.49476E+01 +1.64317E+01 -5.98440E+00 +2.10714E+01 +3.93519E+00 +2.01156E+01
 +1.18441E+01 +1.38751E+01 +1.54035E+01 +4.15930E+00 +1.35737E+01 -6.27146E+00 +6.89931E+00 -1.45182E+01
 -2.66760E+00 -1.83801E+01 -1.23486E+01 -1.69738E+01 -1.93499E+01 -1.09610E+01 -2.16657E+01 -2.32479E+00
 -1.86422E+01 +6.23237E+00 -1.11436E+01 +1.20886E+01 -1.27937E+00 +1.34652E+01 +8.22170E+00 +9.93198E+00
 +1.48035E+01 +2.51335E+00 +1.68098E+01 -6.62843E+00 +1.39379E+01 -1.48351E+01 +7.29378E+00 -1.97277E+01
 -9.60573E-01 -1.98902E+01 -8.25705E+00 -1.52637E+01 -1.23759E+01 -7.14540E+00 -1.20841E+01 +2.20412E+00
 -7.47609E+00 +1.02224E+01 +7.74521E-02 +1.47819E+01 +8.34976E+00 +1.47876E+01 +1.49193E+01 +1.04671E+01
 +1.78770E+01 +3.27418E+00 +1.63727E+01 -4.55742E+00 +1.08479E+01 -1.06751E+01 +2.89055E+00 -1.32883E+01
 -5.23854E+00 -1.16730E+01 -1.12649E+01 -6.35638E+00 -1.35530E+01 +1.06377E+00 -1.15633E+01 +8.40589E+00
 -5.98671E+00 +1.35511E+01 +1.47692E+00 +1.50586E+01 +8.62561E+00 +1.25728E+01 +1.33955E+01 +6.90772E+00
 +1.44480E+01 -2.09136E-01 +1.15362E+01 -6.65380E+00 +5.54902E+00 -1.05289E+01 -1.77188E+00 -1.07112E+01
 -8.35451E+00 -7.16586E+00 -1.24020E+01 -9.42042E-01 -1.29043E+01 +6.14464E+00 -9.91098E+00 +1.20447E+01
 -4.48987E+00 +1.50654E+01 +1.60842E+00 +1.43483E+01 +6.47804E+00 +1.00988E+01 +8.62002E+00 +3.50592E+00
 +7.37552E+00 -3.61725E+00 +3.10682E+00 -9.36426E+00 -2.92199E+00 -1.22799E+01 -8.92460E+00 -1.17620E+01
 -1.31180E+01 -8.20845E+00 -1.42391E+01 -2.87142E+00 -1.19041E+01 +2.53092E+00 -6.70815E+00 +6.32837E+00
 -4.25221E-02 +7.38624E+00 +6.31327E+00 +5.42576E+00 +1.07033E+01 +1.08772E+00 +1.20613E+01 -4.27399E+00
 +1.01976E+01 -9.00347E+00 +5.82964E+00 -1.16353E+01 +3.50473E-01 -1.13238E+01 -4.58951E+00 -8.08482E+00
 -7.56488E+00 -2.78396E+00 -7.77976E+00 +3.12204E+00 -5.27981E+00 +8.01124E+00 -9.14600E-01 +1.05639E+01
 +3.93316E+00 +1.01357E+01 +7.76770E+00 +6.93015E+00 +9.42421E+00 +1.92534E+00 +8.40702E+00 -3.42068E+00
 +5.02532E+00 -7.59563E+00 +2.90802E-01 -9.46492E+00 -4.38892E+00 -8.58519E+00 -7.62806E+00 -5.31156E+00
 -8.46823E+00 -6.72145E-01 -6.65389E+00 +3.94861E+00 -2.69978E+00 +7.22188E+00 +2.26584E+00 +8.26002E+00
 +6.83331E+00 +6.86432E+00 +9.71966E+00 +3.56590E+00 +1.01336E+01 -5.48091E-01 +7.99249E+00 -4.16777E+00
 +3.93148E+00 -6.15296E+00 -8.94088E-01 -5.86911E+00 -5.15161E+00 -3.36935E+00 -7.71750E+00 +6.27887E-01
 -7.99411E+00 +4.95589E+00 -6.06683E+00 +8.34499E+00 -2.65911E+00 +9.79361E+00 +1.09718E+00 +8.85643E+00
 +4.00553E+00 +5.76734E+00 +5.16008E+00 +1.36381E+00 +4.20833E+00 -3.16201E+00 +1.44628E+00 -6.61050E+00
 -2.27890E+00 -8.11764E+00 -5.82703E+00 -7.39447E+00 -8.10559E+00 -4.79540E+00 -8.39190E+00 -1.19866E+00
 -6.54295E+00 +2.26286E+00 -3.03298E+00 +4.53906E+00 +1.18951E+00 +4.96887E+00 +4.98105E+00 +3.46628E+00
 +7.33535E+00 +5.34122E-01 +7.67060E+00 -2.89566E+00 +5.98907E+00 -5.74541E+00 +2.86446E+00 -7.11382E+00
 -7.36557E-01 -6.54181E+00 -3.74374E+00 -4.14482E+00 -5.29737E+00 -5.74898E-01 -4.99490E+00 +3.17409E+00
 -2.99906E+00 +6.05899E+00 +2.18836E-02 +7.29066E+00 +3.10169E+00 +6.55933E+00 +5.26826E+00 +4.11724E+00
 +5.83339E+00 +6.96514E-01 +4.59505E+00 -2.71129E+00 +1.89394E+00 -5.14751E+00 -1.49055E+00 -5.96396E+00
 -4.57241E+00 -5.00476E+00 -6.44959E+00 -2.64070E+00 -6.56730E+00 +3.51758E-01 -4.87722E+00 +3.02892E+00
 -1.84730E+00 +4.56394E+00 +1.67885E+00 +4.49227E+00 +4.72989E+00 +2.84657E+00 +6.48842E+00 +1.42651E-01
 +6.52331E+00 -2.77780E+00 +4.90586E+00 -4.99992E+00 +2.17729E+00 -5.80846E+00 -8.20438E-01 -4.90006E+00
 -3.19895E+00 -2.47336E+00 -4.28675E+00 +8.28684E-01 -3.82386E+00 +4.10606E+00 -2.03145E+00 +6.46250E+00
 +4.62734E-01 +7.26311E+00 +2.81917E+00 +6.31353E+00 +4.24282E+00 +3.90946E+00 +4.22425E+00 +7.43562E-01
 +2.69429E+00 -2.30102E+00 +4.72188E-02 -4.40890E+00 -2.97392E+00 -5.06600E+00 -5.49498E+00 -4.20058E+00
 -6.76705E+00 -2.19173E+00 -6.38580E+00 +2.55288E-01 -4.40993E+00 +2.32795E+00 -1.34460E+00 +3.35389E+00
 +2.00421E+00 +3.00298E+00 +4.76107E+00 +1.38476E+00 +6.23001E+00 -9.86933E-01 +6.08843E+00 -3.35053E+00
 +4.47030E+00 -4.92733E+00 +1.91605E+00 -5.15731E+00 -7.94501E-01 -3.87034E+00 -2.87546E+00 -1.34222E+00
 -3.76519E+00 +1.78049E+00 -3.28593E+00 +4.66462E+00 -1.68687E+00 +6.52919E+00 +4.40584E-01 +6.86894E+00
 +2.34871E+00 +5.59749E+00 +3.36413E+00 +3.06914E+00 +3.09447E+00 -2.61591E-02 +1.54956E+00 -2.86293E+00
 -8.58276E-01 -4.71635E+00 -3.43454E+00 -5.16545E+00 -5.40752E+00 -4.20490E+00 -6.15703E+00 -2.23391E+00
 -5.39952E+00 +7.24112E-02 -3.27519E+00 +1.97003E+00 -3.11639E-01 +2.86929E+00 +2.72490E+00 +2.50858E+00
 +5.04717E+00 +1.02781E+00 +6.06961E+00 -1.07908E+00 +5.57181E+00 -3.11709E+00 +3.75559E+00 -4.40253E+00
 +1.18034E+00 -4.47139E+00 -1.40334E+00 -3.22178E+00 -3.27236E+00 -9.48704E-01 -3.93796E+00 +1.73900E+00
 -3.28074E+00 +4.09475E+00 -1.57560E+00 +5.45144E+00 +5.99062E-01 +5.41593E+00 +2.53983E+00 +3.98408E+00
 +3.63065E+00 +1.54306E+00 +3.52643E+00 -1.23948E+00 +2.25387E+00 -3.60638E+00 +2.00850E-01 -4.92645E+00
 -2.00176E+00 -4.87182E+00 -3.66995E+00 -3.50621E+00 -4.27164E+00 -1.25968E+00 -3.58651E+00 +1.20169E+00
 -1.77348E+00 +3.17206E+00 +6.73391E-01 +4.11021E+00 +3.06753E+00 +3.79272E+00 +4.72864E+00 +2.37198E+00
 +5.17963E+00 +3.23518E-01 +4.28418E+00 -1.70045E+00 +2.28537E+00 -3.06726E+00 -2.65369E-01 -3.35162E+00
 -2.66761E+00 -2.46013E+00 -4.27275E+00 -6.56542E-01 -4.66804E+00 +1.51866E+00 -3.79069E+00 +3.40979E+00
 -1.93995E+00 +4.44059E+00 +3.15099E-01 +4.28452E+00 +2.30413E+00 +2.96108E+00 +3.45073E+00 +8.30311E-01
 +3.43729E+00 -1.51216E+00 +2.29228E+00 -3.40849E+00 +3.75620E-01 -4.32931E+00 -1.73209E+00 -4.02635E+00
 -3.40292E+00 -2.60278E+00 -4.14626E+00 -4.81679E-01 -3.75077E+00 +1.71764E+00 -2.34266E+00 +3.35874E+00
 -3.44544E-01 +3.97052E+00 +1.65222E+00 +3.38025E+00 +3.06323E+00 +1.75955E+00 +3.48304E+00 -4.29097E-01
 +2.80321E+00 -2.56841E+00 +1.24242E+00 -4.06485E+00 -7.19340E-01 -4.51744E+00 -2.48260E+00 -3.82851E+00
 -3.50429E+00 -2.22520E+00 -3.45629E+00 -1.87082E-01 -2.32085E+00 +1.69769E+00 -3.95569E-01 +2.90488E+00
 +1.79253E+00 +3.12487E+00 +3.63851E+00 +2.34798E+00 +4.63206E+00 +8.60876E-01 +4.50158E+00 -8.43726E-01
 +3.28845E+00 -2.21643E+00 +1.33133E+00 -2.81517E+00 -8.33857E-01 -2.43585E+00 -2.62834E+00 -1.17181E+00
 -3.59416E+00 +6.14572E-01 -3.52008E+00 +2.39885E+00 -2.49423E+00 +3.64843E+00 -8.69904E-01 +3.97812E+00
 +8.44063E-01 +3.26240E+00 +2.13510E+00 +1.67210E+00 +2.63619E+00 -3.74253E-01 +2.22946E+00 -2.32968E+00
 +1.07473E+00 -3.67363E+00 -4.43850E-01 -4.05772E+00 -1.83615E+00 -3.40073E+00 -2.65395E+00 -1.90664E+00
 -2.62461E+00 -1.63495E-03 -1.73176E+00 +1.79037E+00 -2.20039E-01 +2.99708E+00 +1.47674E+00 +3.32883E+00
 +2.86225E+00 +2.75416E+00 +3.52198E+00 +1.49956E+00 +3.24314E+00 -2.48203E-02 +2.07598E+00 -1.35042E+00
 +3.19212E-01 -2.08908E+00 -1.56513E+00 -2.04489E+00 -3.08243E+00 -1.26712E+00 -3.84358E+00 -2.99896E-02
 -3.67124E+00 +1.25349E+00 -2.64420E+00 +2.15731E+00 -1.06874E+00 +2.37046E+00 +6.13604E-01 +1.78978E+00
 +1.95397E+00 +5.50910E-01 +2.62259E+00 -1.01087E+00 +2.49736E+00 -2.45780E+00 +1.69026E+00 -3.37598E+00
 +5.05453E-01 -3.49404E+00 -6.57070E-01 -2.76001E+00 -1.42301E+00 -1.35492E+00 -1.55456E+00 +3.60050E-01
 -1.01845E+00 +1.94651E+00 +7.88384E-03 +3.01182E+00 +1.19247E+00 +3.31648E+00 +2.14987E+00 +2.83578E+00
 +2.55681E+00 +1.75897E+00 +2.24839E+00 +4.27855E-01 +1.26703E+00 -7.66226E-01 -1.49449E-01 -1.49625E+00
 -1.63631E+00 -1.59123E+00 -2.80632E+00 -1.07977E+00 -3.35944E+00 -1.74228E-01 -3.16607E+00 +7.98584E-01
 -2.30034E+00 +1.49847E+00 -1.01479E+00 +1.67456E+00 +3.35027E-01 +1.23949E+00 +1.39343E+00 +2.93903E-01
 +1.90468E+00 -9.04916E-01 +1.78157E+00 -2.02009E+00 +1.12351E+00 -2.73456E+00 +1.80224E-01 -2.84333E+00
 -7.26973E-01 -2.31192E+00 -1.30242E+00 -1.28443E+00 -1.36295E+00 -3.99089E-02 -8.89303E-01 +1.08937E+00
 -2.78355E-02 +1.81325E+00 +9.56743E-01 +1.96470E+00 +1.76267E+00 +1.54329E+00 +2.14181E+00 +7.09513E-01
 +1.97293E+00 -2.67340E-01 +1.29627E+00 -1.09125E+00 +3.00138E-01 -1.52679E+00 -7.35587E-01 -1.46602E+00
 -1.52173E+00 -9.55694E-01 -1.84310E+00 -1.77956E-01 -1.61854E+00 +6.08811E-01 -9.20635E-01 +1.15045E+00
