 Created: 19-Jan-2021
 $NMID
 ID='D:\BASISSIMULATI'
 FMTDAT='(8E13.5)'
 VOLUME=   1.00000E+00
 TRAMP=   1.00000E+00
 $END
 +7.39213E+01 +3.62010E-01 +7.13833E+01 +1.82553E+01 +6.41934E+01 +3.47778E+01 +5.29185E+01 +4.87075E+01
 +3.84423E+01 +5.90313E+01 +2.18936E+01 +6.50251E+01 +4.55496E+00 +6.63105E+01 -1.22415E+01 +6.28831E+01
 -2.72209E+01 +5.51106E+01 -3.92676E+01 +4.37001E+01 -4.75140E+01 +2.96389E+01 -5.14083E+01 +1.41122E+01
 -5.07560E+01 -1.59467E+00 -4.57323E+01 -1.62013E+01 -3.68642E+01 -2.85362E+01 -2.49835E+01 -3.76310E+01
 -1.11558E+01 -4.27979E+01 +3.40918E+00 -4.36822E+01 +1.74592E+01 -4.02882E+01 +2.98028E+01 -3.29750E+01
 +3.94069E+01 -2.24224E+01 +4.54811E+01 -9.57149E+00 +4.75404E+01 +4.45651E+00 +4.54424E+01 +1.84556E+01
 +3.93957E+01 +3.12366E+01 +2.99388E+01 +4.17262E+01 +1.78918E+01 +4.90564E+01 +4.28477E+00 +5.26349E+01
 -9.73112E+00 +5.21930E+01 -2.29816E+01 +4.78054E+01 -3.43691E+01 +3.98807E+01 -4.29648E+01 +2.91247E+01
 -4.80868E+01 +1.64777E+01 -4.93563E+01 +3.03367E+00 -4.67278E+01 -1.00547E+01 -4.04917E+01 -2.16744E+01
 -3.12474E+01 -3.08470E+01 -1.98512E+01 -3.68121E+01 -7.34173E+00 -3.90921E+01 +5.14961E+00 -3.75321E+01
 +1.64958E+01 -3.23131E+01 +2.56712E+01 -2.39363E+01 +3.18399E+01 -1.31800E+01 +3.44277E+01 -1.03329E+00
 +3.31722E+01 +1.13887E+01 +2.81463E+01 +2.29398E+01 +1.97534E+01 +3.25413E+01 +8.69462E+00 +3.92743E+01
 -4.08966E+00 +4.24596E+01 -1.74981E+01 +4.17166E+01 -3.03613E+01 +3.69983E+01 -4.15399E+01 +2.85975E+01
 -5.00219E+01 +1.71248E+01 -5.50083E+01 +3.45963E+00 -5.59823E+01 -1.13212E+01 -5.27549E+01 -2.60320E+01
 -4.54834E+01 -3.94767E+01 -3.46609E+01 -5.05477E+01 -2.10783E+01 -5.83183E+01 -5.76084E+00 -6.21214E+01
 +1.01144E+01 -6.16054E+01 +2.53145E+01 -5.67656E+01 +3.86514E+01 -4.79465E+01 +4.90794E+01 -3.58155E+01
 +5.57809E+01 -2.13100E+01 +5.82342E+01 -5.56200E+00 +5.62568E+01 +1.01935E+01 +5.00213E+01 +2.47182E+01
 +4.00420E+01 +3.68715E+01 +2.71335E+01 +4.57026E+01 +1.23452E+01 +5.05283E+01 -3.12380E+00 +5.09878E+01
 -1.80222E+01 +4.70725E+01 -3.11476E+01 +3.91256E+01 -4.14437E+01 +2.78142E+01 -4.80861E+01 +1.40744E+01
 -5.05480E+01 -9.65153E-01 -4.86420E+01 -1.60754E+01 -4.25345E+01 -3.00271E+01 -3.27301E+01 -4.16899E+01
 -2.00300E+01 -5.01244E+01 -5.46459E+00 -5.46570E+01 +9.79097E+00 -5.49336E+01 +2.45133E+01 -5.09460E+01
 +3.75308E+01 -4.30309E+01 +4.78186E+01 -3.18401E+01 +5.45811E+01 -1.82849E+01 +5.73156E+01 -3.45993E+00
 +5.58507E+01 +1.14477E+01 +5.03581E+01 +2.52568E+01 +4.13353E+01 +3.68884E+01 +2.95620E+01 +4.54542E+01
 +1.60335E+01 +5.03276E+01 +1.87630E+00 +5.11933E+01 -1.17459E+01 +4.80704E+01 -2.37296E+01 +4.13081E+01
 -3.31221E+01 +3.15534E+01 -3.92001E+01 +1.96944E+01 -4.15279E+01 +6.78430E+00 -3.99915E+01 -6.04852E+00
 -3.48056E+01 -1.76957E+01 -2.64930E+01 -2.71622E+01 -1.58381E+01 -3.36494E+01 -3.81928E+00 -3.66213E+01
 +8.47554E+00 -3.58483E+01 +1.99416E+01 -3.14251E+01 +2.95512E+01 -2.37615E+01 +3.64409E+01 -1.35458E+01
 +3.99843E+01 -1.68556E+00 +3.98453E+01 +1.07699E+01 +3.60057E+01 +2.27195E+01 +2.87665E+01 +3.31039E+01
 +1.87228E+01 +4.09959E+01 +6.71273E+00 +4.56790E+01 -6.25341E+00 +4.67090E+01 -1.90785E+01 +4.39518E+01
 -3.06716E+01 +3.75954E+01 -4.00404E+01 +2.81350E+01 -4.63751E+01 +1.63316E+01 -4.91177E+01 +3.14889E+00
 -4.80098E+01 -1.03274E+01 -4.31153E+01 -2.29804E+01 -3.48160E+01 -3.37562E+01 -2.37812E+01 -4.17521E+01
 -1.09125E+01 -4.62927E+01 +2.73093E+00 -4.69878E+01 +1.60199E+01 -4.37654E+01 +2.78492E+01 -3.68794E+01
 +3.72297E+01 -2.68894E+01 +4.33712E+01 -1.46152E+01 +4.57484E+01 -1.06970E+00 +4.41455E+01 +1.26243E+01
 +3.86751E+01 +2.53271E+01 +2.97698E+01 +3.59760E+01 +1.81473E+01 +4.36735E+01 +4.75187E+00 +4.77616E+01
 -9.32266E+00 +4.78767E+01 -2.29229E+01 +4.39805E+01 -3.49308E+01 +3.63628E+01 -4.43549E+01 +2.56193E+01
 -5.04127E+01 +1.26023E+01 -5.25943E+01 -1.64866E+00 -5.07048E+01 -1.59920E+01 -4.48800E+01 -2.92773E+01
 -3.55752E+01 -4.04398E+01 -2.35280E+01 -4.85871E+01 -9.69746E+00 -5.30721E+01 +4.81469E+00 -5.35454E+01
 +1.88541E+01 -4.99835E+01 +3.13085E+01 -4.26896E+01 +4.11985E+01 -3.22679E+01 +4.77569E+01 -1.95738E+01
 +5.04912E+01 -5.64213E+00 +4.92227E+01 +8.39752E+00 +4.40993E+01 +2.14142E+01 +3.55827E+01 +3.23683E+01
 +2.44083E+01 +4.03962E+01 +1.15236E+01 +4.48809E+01 -1.99081E+00 +4.55008E+01 -1.50113E+01 +4.22552E+01
 -2.64637E+01 +3.54624E+01 -3.54122E+01 +2.57314E+01 -4.11360E+01 +1.39102E+01 -4.31875E+01 +1.01404E+00
 -4.14282E+01 -1.18595E+01 -3.60386E+01 -2.36225E+01 -2.75015E+01 -3.32867E+01 -1.65600E+01 -4.00459E+01
 -4.15499E+00 -4.33415E+01 +8.65507E+00 -4.29086E+01 +2.07825E+01 -3.87967E+01 +3.12016E+01 -3.13642E+01
 +3.90342E+01 -2.12471E+01 +4.36226E+01 -9.30533E+00 +4.45840E+01 +3.45062E+00 +4.18415E+01 +1.59443E+01
 +3.56299E+01 +2.71239E+01 +2.64754E+01 +3.60503E+01 +1.51504E+01 +4.19752E+01 +2.60860E+00 +4.44041E+01
 -1.00952E+01 +4.31366E+01 -2.18939E+01 +3.82830E+01 -3.17972E+01 +3.02550E+01 -3.89747E+01 +1.97300E+01
 -4.28253E+01 +7.59519E+00 -4.30272E+01 -5.12788E+00 -3.95647E+01 -1.73683E+01 -3.27294E+01 -2.80955E+01
 -2.30955E+01 -3.64058E+01 -1.14724E+01 -4.15973E+01 +1.16404E+00 -4.32292E+01 +1.37520E+01 -4.11581E+01
 +2.52329E+01 -3.55502E+01 +3.46397E+01 -2.68675E+01 +4.11771E+01 -1.58293E+01 +4.42886E+01 -3.35230E+00
 +4.37021E+01 +9.52562E+00 +3.94535E+01 +2.17318E+01 +3.18829E+01 +3.22481E+01 +2.16071E+01 +4.01953E+01
 +9.46820E+00 +4.49065E+01 -3.53653E+00 +4.59820E+01 -1.63370E+01 +4.33233E+01 -2.78793E+01 +3.71403E+01
 -3.72129E+01 +2.79346E+01 -4.35695E+01 +1.64575E+01 -4.64264E+01 +3.64749E+00 -4.55497E+01 -9.44691E+00
 -4.10135E+01 -2.17546E+01 -3.31932E+01 -3.22703E+01 -2.27347E+01 -4.01375E+01 -1.05000E+01 -4.47195E+01
 +2.50429E+00 -4.56512E+01 +1.52099E+01 -4.28693E+01 +2.65761E+01 -3.66169E+01 +3.56752E+01 -2.74228E+01
 +4.17695E+01 -1.60569E+01 +4.43715E+01 -3.46632E+00 +4.32843E+01 +9.30349E+00 +3.86166E+01 +2.11958E+01
 +3.07735E+01 +3.12300E+01 +2.04218E+01 +3.85828E+01 +8.43444E+00 +4.26562E+01 -4.18287E+00 +4.31266E+01
 -1.63752E+01 +3.99707E+01 -2.71262E+01 +3.34671E+01 -3.55427E+01 +2.41725E+01 -4.09284E+01 +1.28743E+01
 -4.28415E+01 +5.24980E-01 -4.11309E+01 -1.18375E+01 -3.59484E+01 -2.31765E+01 -2.77353E+01 -3.25428E+01
 -1.71851E+01 -3.91534E+01 -5.18556E+00 -4.24569E+01 +7.25572E+00 -4.21788E+01 +1.90953E+01 -3.83439E+01
 +2.93409E+01 -3.12741E+01 +3.71341E+01 -2.15611E+01 +4.18214E+01 -1.00169E+01 +4.30089E+01 +2.39383E+00
 +4.05945E+01 +1.46345E+01 +3.47763E+01 +2.56826E+01 +2.60361E+01 +3.46152E+01 +1.50991E+01 +4.06851E+01
 +2.87335E+00 +4.33833E+01 -9.62563E+00 +4.24810E+01 -2.13594E+01 +3.80486E+01 -3.13526E+01 +3.04497E+01
 -3.87742E+01 +2.03107E+01 -4.30062E+01 +8.46898E+00 -4.36947E+01 -4.09703E+00 -4.07793E+01 -1.63486E+01
 -3.44979E+01 -2.72730E+01 -2.53665E+01 -3.59673E+01 -1.41368E+01 -4.17131E+01 -1.73358E+00 -4.40355E+01
 +1.08220E+01 -4.27427E+01 +2.24968E+01 -3.79410E+01 +3.23312E+01 -3.00260E+01 +3.95180E+01 -1.96496E+01
 +4.34691E+01 -7.66548E+00 +4.38639E+01 +4.94140E+00 +4.06746E+01 +1.71365E+01 +3.41688E+01 +2.79211E+01
 +2.48861E+01 +3.64147E+01 +1.35933E+01 +4.19273E+01 +1.22039E+00 +4.40162E+01 -1.12165E+01 +4.25212E+01
 -2.26992E+01 +3.75778E+01 -3.22919E+01 +2.96046E+01 -3.92175E+01 +1.92681E+01 -4.29221E+01 +7.42647E+00
 -4.31193E+01 -4.94155E+00 -3.98132E+01 -1.68185E+01 -3.32969E+01 -2.72321E+01 -2.41273E+01 -3.53360E+01
 -1.30775E+01 -4.04790E+01 -1.07214E+00 -4.22583E+01 +1.08900E+01 -4.05521E+01 +2.18194E+01 -3.55283E+01
 +3.08176E+01 -2.76294E+01 +3.71520E+01 -1.75344E+01 +4.03159E+01 -6.10149E+00 +4.00698E+01 +5.70425E+00
 +3.64603E+01 +1.68919E+01 +2.98150E+01 +2.65274E+01 +2.07143E+01 +3.38116E+01 +9.94168E+00 +3.81460E+01
 -1.58253E+00 +3.91831E+01 -1.28786E+01 +3.68539E+01 -2.29898E+01 +3.13731E+01 -3.10625E+01 +2.32203E+01
 -3.64178E+01 +1.30992E+01 -3.86079E+01 +1.87792E+00 -3.74534E+01 -9.48436E+00 -3.30581E+01 -2.00181E+01
 -2.57997E+01 -2.88248E+01 -1.62978E+01 -3.51527E+01 -5.36186E+00 -3.84599E+01 +6.07707E+00 -3.84597E+01
 +1.70446E+01 -3.51448E+01 +2.66049E+01 -2.87881E+01 +3.39393E+01 -1.99200E+01 +3.84152E+01 -9.28392E+00
 +3.96392E+01 +2.22563E+00 +3.74909E+01 +1.36380E+01 +3.21330E+01 +2.39873E+01 +2.39985E+01 +3.23938E+01
 +1.37548E+01 +3.81372E+01 +2.24871E+00 +4.07172E+01 -9.56375E+00 +3.98962E+01 -2.06971E+01 +3.57192E+01
 -3.02180E+01 +2.85112E+01 -3.73233E+01 +1.88506E+01 -4.14069E+01 +7.52185E+00 -4.21105E+01 -4.54892E+00
 -3.93540E+01 -1.63706E+01 -3.33425E+01 -2.69686E+01 -2.45504E+01 -3.54658E+01 -1.36821E+01 -4.11549E+01
 -1.61513E+00 -4.35570E+01 +1.06726E+01 -4.24614E+01 +2.21825E+01 -3.79435E+01 +3.19777E+01 -3.03585E+01
 +3.92602E+01 -2.03127E+01 +4.34355E+01 -8.61392E+00 +4.41625E+01 +3.79499E+00 +4.13805E+01 +1.59132E+01
 +3.53143E+01 +2.67638E+01 +2.64557E+01 +3.54741E+01 +1.55223E+01 +4.13462E+01 +3.39919E+00 +4.39144E+01
 -8.93427E+00 +4.29824E+01 -2.04846E+01 +3.86387E+01 -3.03256E+01 +3.12487E+01 -3.76734E+01 +2.14235E+01
 -4.19507E+01 +9.96959E+00 -4.28326E+01 -2.17842E+00 -4.02724E+01 -1.40346E+01 -3.45039E+01 -2.46429E+01
 -2.60210E+01 -3.31550E+01 -1.55357E+01 -3.88997E+01 -3.91813E+00 -4.14369E+01 +7.87534E+00 -4.05924E+01
 +1.88818E+01 -3.64704E+01 +2.82112E+01 -2.94435E+01 +3.51187E+01 -2.01198E+01 +3.90662E+01 -9.29138E+00
 +3.97646E+01 +2.13254E+00 +3.71965E+01 +1.32019E+01 +3.16156E+01 +2.30048E+01 +2.35238E+01 +3.07433E+01
 +1.36277E+01 +3.57986E+01 +2.77826E+00 +3.77820E+01 -8.10118E+00 +3.65656E+01 -1.80928E+01 +3.22914E+01
 -2.63612E+01 +2.53577E+01 -3.22229E+01 +1.63843E+01 -3.52032E+01 +6.15904E+00 -3.50750E+01 -4.42956E+00
 -3.18770E+01 -1.44675E+01 -2.59088E+01 -2.30925E+01 -1.77052E+01 -2.95672E+01 -7.98977E+00 -3.33407E+01
 +2.38694E+00 -3.40948E+01 +1.25195E+01 -3.17704E+01 +2.15247E+01 -2.65726E+01 +2.86164E+01 -1.89522E+01
 +3.31720E+01 -9.56803E+00 +3.47855E+01 +7.69440E-01 +3.33017E+01 +1.11663E+01 +2.88300E+01 +2.07212E+01
 +2.17355E+01 +2.86014E+01 +1.26080E+01 +3.41135E+01 +2.21376E+00 +3.67626E+01 -8.56967E+00 +3.62944E+01
