 Created: 19-Jan-2021
 $NMID
 ID='D:\BASISSIMULATI'
 FMTDAT='(8E13.5)'
 VOLUME=   1.00000E+00
 TRAMP=   1.00000E+00
 $END
 +4.07138E+01 +1.15650E+00 +3.88821E+01 +3.17465E+00 +3.28037E+01 +5.50590E+00 +2.34702E+01 +8.52513E+00
 +1.23768E+01 +1.22799E+01 +1.21999E+00 +1.64269E+01 -8.43321E+00 +2.02894E+01 -1.54283E+01 +2.30225E+01
 -1.91985E+01 +2.38420E+01 -1.97995E+01 +2.22553E+01 -1.78077E+01 +1.82293E+01 -1.41191E+01 +1.22479E+01
 -9.70696E+00 +5.23884E+00 -5.40445E+00 -1.61296E+00 -1.76271E+00 -7.12206E+00 +9.86965E-01 -1.03637E+01
 +2.87175E+00 -1.08751E+01 +4.04883E+00 -8.74701E+00 +4.65993E+00 -4.58569E+00 +4.72063E+00 +6.42064E-01
 +4.08278E+00 +5.83786E+00 +2.48339E+00 +1.00146E+01 -3.35572E-01 +1.24921E+01 -4.47587E+00 +1.29997E+01
 -9.75219E+00 +1.16675E+01 -1.56301E+01 +8.91874E+00 -2.12631E+01 +5.30237E+00 -2.56309E+01 +1.32017E+00
 -2.77510E+01 -2.70003E+00 -2.69122E+01 -6.64874E+00 -2.28682E+01 -1.05878E+01 -1.59391E+01 -1.46321E+01
 -6.98502E+00 -1.88023E+01 +2.74505E+00 -2.29030E+01 +1.18595E+01 -2.64705E+01 +1.91063E+01 -2.88201E+01
 +2.36248E+01 -2.91876E+01 +2.51044E+01 -2.69336E+01 +2.38152E+01 -2.17565E+01 +2.05033E+01 -1.38527E+01
 +1.61824E+01 -3.97129E+00 +1.18762E+01 +6.66106E+00 +8.37805E+00 +1.65410E+01 +6.09000E+00 +2.41735E+01
 +4.97694E+00 +2.83772E+01 +4.64333E+00 +2.85390E+01 +4.50472E+00 +2.47548E+01 +4.00184E+00 +1.78216E+01
 +2.79476E+00 +9.07979E+00 +8.81347E-01 +1.42422E-01 -1.39327E+00 -7.42641E+00 -3.43840E+00 -1.24108E+01
 -4.60105E+00 -1.41534E+01 -4.37792E+00 -1.26339E+01 -2.59488E+00 -8.40716E+00 +4.98961E-01 -2.42624E+00
 +4.25224E+00 +4.19842E+00 +7.74533E+00 +1.04396E+01 +1.00045E+01 +1.55355E+01 +1.02413E+01 +1.90762E+01
 +8.05380E+00 +2.09843E+01 +3.53822E+00 +2.14130E+01 -2.71931E+00 +2.06029E+01 -9.76799E+00 +1.87492E+01
 -1.65017E+01 +1.59246E+01 -2.18985E+01 +1.20804E+01 -2.52290E+01 +7.12407E+00 -2.61832E+01 +1.04319E+00
 -2.48883E+01 -5.96906E+00 -2.18200E+01 -1.34353E+01 -1.76378E+01 -2.05986E+01 -1.29966E+01 -2.65227E+01
 -8.38675E+00 -3.02706E+01 -4.04881E+00 -3.11211E+01 +1.87002E-02 -2.87642E+01 +3.96576E+00 -2.34230E+01
 +7.94672E+00 -1.58600E+01 +1.19754E+01 -7.25892E+00 +1.58300E+01 +9.97591E-01 +1.90449E+01 +7.60454E+00
 +2.09981E+01 +1.16010E+01 +2.10774E+01 +1.25623E+01 +1.88793E+01 +1.06712E+01 +1.43835E+01 +6.65245E+00
 +8.04847E+00 +1.58767E+00 +7.91919E-01 -3.34203E+00 -6.15152E+00 -7.12103E+00 -1.14685E+01 -9.10707E+00
 -1.40480E+01 -9.13358E+00 -1.32389E+01 -7.48682E+00 -9.01822E+00 -4.77130E+00 -2.02748E+00 -1.70595E+00
 +6.53639E+00 +1.08992E+00 +1.51527E+01 +3.26139E+00 +2.22786E+01 +4.78970E+00 +2.66520E+01 +5.95476E+00
 +2.75265E+01 +7.20346E+00 +2.47888E+01 +8.96547E+00 +1.89368E+01 +1.14726E+01 +1.09327E+01 +1.46366E+01
 +1.97317E+00 +1.80235E+01 -6.76275E+00 +2.09347E+01 -1.43266E+01 +2.25749E+01 -2.01285E+01 +2.22628E+01
 -2.39598E+01 +1.96256E+01 -2.59197E+01 +1.47251E+01 -2.62813E+01 +8.07735E+00 -2.53453E+01 +5.60425E-01
 -2.33304E+01 -6.76895E+00 -2.03313E+01 -1.29024E+01 -1.63549E+01 -1.70927E+01 -1.14152E+01 -1.89986E+01
 -5.65046E+00 -1.87270E+01 +5.85440E-01 -1.67653E+01 +6.69605E+00 -1.38272E+01 +1.19023E+01 -1.06555E+01
 +1.53834E+01 -7.83923E+00 +1.64672E+01 -5.69256E+00 +1.48207E+01 -4.22614E+00 +1.05851E+01 -3.21379E+00
 +4.41280E+00 -2.32888E+00 -2.61577E+00 -1.30522E+00 -9.18292E+00 -7.01230E-02 -1.39943E+01 +1.19418E+00
 -1.60487E+01 +2.08320E+00 -1.48535E+01 +2.09113E+00 -1.05319E+01 +7.86944E-01 -3.79597E+00 -2.00586E+00
 +4.20881E+00 -6.08142E+00 +1.21510E+01 -1.08192E+01 +1.87915E+01 -1.52665E+01 +2.32283E+01 -1.83237E+01
 +2.50486E+01 -1.89911E+01 +2.43596E+01 -1.66180E+01 +2.16960E+01 -1.10898E+01 +1.78363E+01 -2.90328E+00
 +1.35806E+01 +6.89407E+00 +9.55142E+00 +1.68903E+01 +6.06793E+00 +2.55810E+01 +3.12276E+00 +3.16638E+01
 +4.60595E-01 +3.42881E+01 -2.27121E+00 +3.32048E+01 -5.34894E+00 +2.87836E+01 -8.82994E+00 +2.19010E+01
 -1.24854E+01 +1.37310E+01 -1.58303E+01 +5.49411E+00 -1.82421E+01 -1.77531E+00 -1.91374E+01 -7.38963E+00
 -1.81524E+01 -1.10672E+01 -1.52777E+01 -1.28883E+01 -1.09042E+01 -1.31749E+01 -5.76424E+00 -1.23365E+01
 -7.80813E-01 -1.07343E+01 +3.13922E+00 -8.60091E+00 +5.31280E+00 -6.03621E+00 +5.43600E+00 -3.07177E+00
 +3.64641E+00 +2.25136E-01 +4.77094E-01 +3.65078E+00 -3.28435E+00 +6.80995E+00 -6.79299E+00 +9.13533E+00
 -9.34685E+00 +9.98679E+00 -1.05377E+01 +8.81000E+00 -1.03141E+01 +5.31280E+00 -8.94374E+00 -3.92403E-01
 -6.89106E+00 -7.72669E+00 -4.64803E+00 -1.56914E+01 -2.57085E+00 -2.30243E+01 -7.71161E-01 -2.84352E+01
 +9.05392E-01 -3.08702E+01 +2.80623E+00 -2.97414E+01 +5.32582E+00 -2.50654E+01 +8.73013E+00 -1.74745E+01
 +1.30054E+01 -8.09692E+00 +1.77800E+01 +1.67078E+00 +2.23491E+01 +1.04428E+01 +2.58042E+01 +1.71121E+01
 +2.72384E+01 +2.10446E+01 +2.59783E+01 +2.21590E+01 +2.17818E+01 +2.08780E+01 +1.49462E+01 +1.79724E+01
 +6.29703E+00 +1.43422E+01 -2.94933E+00 +1.07938E+01 -1.14172E+01 +7.87065E+00 -1.78464E+01 +5.77551E+00
 -2.13451E+01 +4.39659E+00 -2.15624E+01 +3.42135E+00 -1.87410E+01 +2.49699E+00 -1.36421E+01 +1.38629E+00
 -7.36378E+00 +7.08349E-02 -1.10012E+00 -1.22919E+00 +4.09930E+00 -2.12372E+00 +7.51387E+00 -2.18835E+00
 +8.84227E+00 -1.12493E+00 +8.18711E+00 +1.10297E+00 +5.95028E+00 +4.20301E+00 +2.67797E+00 +7.58001E+00
 -1.09606E+00 +1.04530E+01 -4.96431E+00 +1.20349E+01 -8.68830E+00 +1.17286E+01 -1.21666E+01 +9.28618E+00
 -1.53479E+01 +4.88783E+00 -1.81275E+01 -8.82902E-01 -2.02687E+01 -7.16245E+00 -2.13848E+01 -1.29984E+01
 -2.09965E+01 -1.75595E+01 -1.86553E+01 -2.03097E+01 -1.41001E+01 -2.11031E+01 -7.40142E+00 -2.01772E+01
 +9.55546E-01 -1.80493E+01 +1.00822E+01 -1.53488E+01 +1.88033E+01 -1.26327E+01 +2.58616E+01 -1.02379E+01
 +3.01656E+01 -8.21031E+00 +3.10252E+01 -6.33027E+00 +2.83139E+01 -4.22432E+00 +2.25180E+01 -1.52960E+00
 +1.46546E+01 +1.93940E+00 +6.07440E+00 +6.07309E+00 -1.80644E+00 +1.04365E+01 -7.78404E+00 +1.43405E+01
 -1.10916E+01 +1.70005E+01 -1.15206E+01 +1.77422E+01 -9.41572E+00 +1.61997E+01 -5.54963E+00 +1.24516E+01
 -9.16160E-01 +7.05396E+00 +3.50514E+00 +9.56120E-01 +6.95326E+00 -4.68430E+00 +9.01186E+00 -8.74543E+00
 +9.63325E+00 -1.03855E+01 +9.06477E+00 -9.22824E+00 +7.70801E+00 -5.44566E+00 +5.95776E+00 +2.82106E-01
 +4.07009E+00 +6.91695E+00 +2.09773E+00 +1.32854E+01 -9.11314E-02 +1.83183E+01 -2.72038E+00 +2.12514E+01
 -5.97220E+00 +2.17418E+01 -9.85686E+00 +1.98803E+01 -1.41305E+01 +1.61068E+01 -1.82916E+01 +1.10599E+01
 -2.16628E+01 +5.40801E+00 -2.35410E+01 -2.92022E-01 -2.33764E+01 -5.67180E+00 -2.09304E+01 -1.05514E+01
 -1.63685E+01 -1.48729E+01 -1.02570E+01 -1.85978E+01 -3.46203E+00 -2.16114E+01 +3.02866E+00 -2.36709E+01
 +8.31573E+00 -2.44222E+01 +1.17782E+01 -2.34862E+01 +1.31948E+01 -2.05919E+01 +1.27661E+01 -1.57170E+01
 +1.10345E+01 -9.18918E+00 +8.72362E+00 -1.70878E+00 +6.54291E+00 +5.72555E+00 +5.00875E+00 +1.19822E+01
 +4.33050E+00 +1.60198E+01 +4.38980E+00 +1.71163E+01 +4.81588E+00 +1.50485E+01 +5.13260E+00 +1.01720E+01
 +4.93312E+00 +3.37854E+00 +4.03029E+00 -4.06492E+00 +2.53786E+00 -1.07635E+01 +8.57265E-01 -1.54707E+01
 -4.28838E-01 -1.73322E+01 -7.28061E-01 -1.60416E+01 +3.72421E-01 -1.18753E+01 +2.95242E+00 -5.60273E+00
 +6.68640E+00 +1.70232E+00 +1.08766E+01 +8.89925E+00 +1.45883E+01 +1.50097E+01 +1.68554E+01 +1.93846E+01
 +1.69076E+01 +2.17751E+01 +1.43601E+01 +2.23012E+01 +9.32007E+00 +2.13364E+01 +2.38046E+00 +1.93501E+01
 -5.49562E+00 +1.67564E+01 -1.31726E+01 +1.38113E+01 -1.95728E+01 +1.05867E+01 -2.38844E+01 +7.01883E+00
 -2.56988E+01 +3.01336E+00 -2.50491E+01 -1.43478E+00 -2.23476E+01 -6.14825E+00 -1.82473E+01 -1.07365E+01
 -1.34683E+01 -1.46425E+01 -8.63759E+00 -1.72603E+01 -4.18382E+00 -1.80906E+01 -3.08058E-01 -1.68931E+01
 +2.97012E+00 -1.37885E+01 +5.71548E+00 -9.27662E+00 +7.96732E+00 -4.16008E+00 +9.65775E+00 +6.13910E-01
 +1.05890E+01 +4.15569E+00 +1.04809E+01 +5.82980E+00 +9.07613E+00 +5.39595E+00 +6.27167E+00 +3.05778E+00
 +2.23191E+00 -5.93409E-01 -2.55690E+00 -4.72564E+00 -7.31853E+00 -8.46617E+00 -1.11088E+01 -1.11028E+01
 -1.30053E+01 -1.22352E+01 -1.23219E+01 -1.18398E+01 -8.79463E+00 -1.02330E+01 -2.68751E+00 -7.94760E+00
 +5.21205E+00 -5.55992E+00 +1.37164E+01 -3.51528E+00 +2.14553E+01 -2.00317E+00 +2.71411E+01 -9.15724E-01
 +2.98211E+01 +9.94240E-02 +2.90612E+01 +1.50753E+00 +2.50178E+01 +3.71490E+00 +1.83850E+01 +6.90669E+00
 +1.02328E+01 +1.09425E+01 +1.77767E+00 +1.53420E+01 -5.85957E+00 +1.93695E+01 -1.18515E+01 +2.21968E+01
 -1.57764E+01 +2.31054E+01 -1.76267E+01 +2.16736E+01 -1.77234E+01 +1.79007E+01 -1.65686E+01 +1.22334E+01
 -1.46826E+01 +5.48709E+00 -1.24720E+01 -1.32052E+00 -1.01620E+01 -7.18118E+00 -7.80501E+00 -1.13024E+01
 -5.35344E+00 -1.32578E+01 -2.76695E+00 -1.30478E+01 -1.12065E-01 -1.10601E+01 +2.38245E+00 -7.94637E+00
 +4.33768E+00 -4.45066E+00 +5.30552E+00 -1.23792E+00 +4.89758E+00 +1.23427E+00 +2.92431E+00 +2.77084E+00
 -4.98786E-01 +3.41408E+00 -4.91456E+00 +3.35462E+00 -9.57568E+00 +2.81242E+00 -1.35788E+01 +1.92932E+00
 -1.60524E+01 +7.09247E-01 -1.63532E+01 -9.73844E-01 -1.42207E+01 -3.30221E+00 -9.84960E+00 -6.39857E+00
 -3.85890E+00 -1.02071E+01 +2.83672E+00 -1.44131E+01 +9.22288E+00 -1.84349E+01 +1.44006E+01 -2.15014E+01
 +1.77678E+01 -2.28034E+01 +1.91235E+01 -2.16867E+01 +1.86710E+01 -1.78363E+01 +1.69237E+01 -1.14031E+01
 +1.45407E+01 -3.03486E+00 +1.21399E+01 +6.20633E+00 +1.01388E+01 +1.50252E+01 +8.66363E+00 +2.21372E+01
 +7.55129E+00 +2.65199E+01 +6.43843E+00 +2.76140E+01 +4.91002E+00 +2.54283E+01 +2.66295E+00 +2.05248E+01
 -3.63975E-01 +1.38883E+01 -3.93239E+00 +6.71555E+00 -7.53759E+00 +1.71405E-01 -1.05254E+01 -4.82865E+00
 -1.22622E+01 -7.76364E+00 -1.23115E+01 -8.55216E+00 -1.05691E+01 -7.49661E+00 -7.31817E+00 -5.15078E+00
 -3.18750E+00 -2.15270E+00 +9.78912E-01 +9.30488E-01 +4.30808E+00 +3.70601E+00 +6.09390E+00 +5.98608E+00
 +5.95304E+00 +7.74715E+00 +3.90275E+00 +9.04067E+00 +3.43035E-01 +9.89166E+00 -4.04925E+00 +1.02234E+01
 -8.48418E+00 +9.83709E+00 -1.22364E+01 +8.45654E+00 -1.47906E+01 +5.82642E+00 -1.59206E+01 +1.83411E+00
