 Created: 19-Jan-2021
 $NMID
 ID='D:\BASISSIMULATI'
 FMTDAT='(8E13.5)'
 VOLUME=   1.00000E+00
 TRAMP=   1.00000E+00
 $END
 +2.20036E+01 +1.97399E-01 +2.14092E+01 +4.79630E+00 +1.97516E+01 +9.10196E+00 +1.71474E+01 +1.28539E+01
 +1.37783E+01 +1.58339E+01 +9.87660E+00 +1.78822E+01 +5.70695E+00 +1.89089E+01 +1.54537E+00 +1.88997E+01
 -2.34207E+00 +1.79155E+01 -5.71962E+00 +1.60861E+01 -8.39952E+00 +1.35983E+01 -1.02556E+01 +1.06802E+01
 -1.12315E+01 +7.58154E+00 -1.13436E+01 +4.55296E+00 -1.06770E+01 +1.82589E+00 -9.37727E+00 -4.06169E-01
 -7.63592E+00 -2.00269E+00 -5.67342E+00 -2.88655E+00 -3.71939E+00 -3.04904E+00 -1.99259E+00 -2.54901E+00
 -6.81938E-01 -1.50635E+00 +6.95822E-02 -9.03899E-02 +1.77054E-01 +1.49585E+00 -3.79348E-01 +3.03406E+00
 -1.55294E+00 +4.31034E+00 -3.23477E+00 +5.13428E+00 -5.26325E+00 +5.35611E+00 -7.43815E+00 +4.88024E+00
 -9.53800E+00 +3.67428E+00 -1.13392E+01 +1.77260E+00 -1.26355E+01 -7.25696E-01 -1.32559E+01 -3.66421E+00
 -1.30799E+01 -6.84163E+00 -1.20484E+01 -1.00278E+01 -1.01694E+01 -1.29824E+01 -7.51898E+00 -1.54744E+01
 -4.23558E+00 -1.73006E+01 -5.10111E-01 -1.83029E+01 +3.42871E+00 -1.83807E+01 +7.33192E+00 -1.74994E+01
 +1.09495E+01 -1.56939E+01 +1.40498E+01 -1.30656E+01 +1.64371E+01 -9.77512E+00 +1.79666E+01 -6.02954E+00
 +1.85553E+01 -2.06661E+00 +1.81875E+01 +1.86373E+00 +1.69153E+01 +5.51839E+00 +1.48540E+01 +8.67963E+00
 +1.21716E+01 +1.11712E+01 +9.07524E+00 +1.28709E+01 +5.79429E+00 +1.37191E+01 +2.56193E+00 +1.37214E+01
 -4.03171E-01 +1.29468E+01 -2.91372E+00 +1.15202E+01 -4.82782E+00 +9.61081E+00 -6.05906E+00 +7.41730E+00
 -6.58179E+00 +5.15044E+00 -6.43143E+00 +3.01545E+00 -5.69964E+00 +1.19495E+00 -4.52495E+00 -1.65824E-01
 -3.07960E+00 -9.70451E-01 -1.55386E+00 -1.17845E+00 -1.39001E-01 -8.07582E-01 +9.89559E-01 +6.87921E-02
 +1.68751E+00 +1.32906E+00 +1.85411E+00 +2.81472E+00 +1.44081E+00 +4.34475E+00 +4.55365E-01 +5.73178E+00
 -1.03890E+00 +6.79875E+00 -2.92851E+00 +7.39452E+00 -5.05953E+00 +7.40727E+00 -7.25060E+00 +6.77453E+00
 -9.30834E+00 +5.48906E+00 -1.10436E+01 +3.60001E+00 -1.22877E+01 +1.20948E+00 -1.29062E+01 -1.53541E+00
 -1.28111E+01 -4.45410E+00 -1.19678E+01 -7.34696E+00 -1.03987E+01 -1.00112E+01 -8.18193E+00 -1.22570E+01
 -5.44511E+00 -1.39226E+01 -2.35592E+00 -1.48870E+01 +8.91145E-01 -1.50794E+01 +4.08977E+00 -1.44847E+01
 +7.03776E+00 -1.31443E+01 +9.55249E+00 -1.11523E+01 +1.14847E+01 -8.64833E+00 +1.27293E+01 -5.80567E+00
 +1.32329E+01 -2.81787E+00 +1.29969E+01 +1.16576E-01 +1.20760E+01 +2.80957E+00 +1.05730E+01 +5.09762E+00
 +8.62940E+00 +6.85392E+00 +6.41346E+00 +7.99722E+00 +4.10594E+00 +8.49683E+00 +1.88555E+00 +8.37353E+00
 -8.53791E-02 +7.69627E+00 -1.67344E+00 +6.57498E+00 -2.78416E+00 +5.15026E+00 -3.36850E+00 +3.58078E+00
 -3.42555E+00 +2.02944E+00 -3.00109E+00 +6.49502E-01 -2.18238E+00 -4.28185E-01 -1.08951E+00 -1.10583E+00
 +1.35727E-01 -1.32636E+00 +1.34272E+00 -1.07752E+00 +2.38536E+00 -3.92130E-01 +3.13475E+00 +6.55522E-01
 +3.49037E+00 +1.95666E+00 +3.38864E+00 +3.37791E+00 +2.80820E+00 +4.77309E+00 +1.77168E+00 +5.99600E+00
 +3.43676E-01 +6.91310E+00 -1.37478E+00 +7.41496E+00 -3.25475E+00 +7.42567E+00 -5.15019E+00 +6.90933E+00
 -6.91012E+00 +5.87322E+00 -8.39108E+00 +4.36733E+00 -9.46896E+00 +2.48042E+00 -1.00491E+01 +3.32892E-01
 -1.00739E+01 -1.93287E+00 -9.52748E+00 -4.16384E+00 -8.43684E+00 -6.20848E+00 -6.86952E+00 -7.92866E+00
 -4.92807E+00 -9.21034E+00 -2.74187E+00 -9.97221E+00 -4.56735E-01 -1.01717E+01 +1.77649E+00 -9.80748E+00
 +3.81364E+00 -8.91940E+00 +5.52821E+00 -7.58417E+00 +6.82070E+00 -5.90895E+00 +7.62569E+00 -4.02232E+00
 +7.91599E+00 -2.06381E+00 +7.70374E+00 -1.72735E-01 +7.03830E+00 +1.52260E+00 +6.00120E+00 +2.91469E+00
 +4.69866E+00 +3.92458E+00 +3.25234E+00 +4.50722E+00 +1.78903E+00 +4.65387E+00 +4.30216E-01 +4.39158E+00
 -7.17591E-01 +3.77964E+00 -1.57112E+00 +2.90367E+00 -2.07641E+00 +1.86751E+00 -2.21235E+00 +7.84029E-01
 -1.99138E+00 -2.34756E-01 -1.45738E+00 -1.08709E+00 -6.81030E-01 -1.68989E+00 +2.46970E-01 -1.98532E+00
 +1.22420E+00 -1.94518E+00 +2.14562E+00 -1.57263E+00 +2.91265E+00 -9.01296E-01 +3.44157E+00 +8.18371E-03
 +3.67048E+00 +1.07379E+00 +3.56430E+00 +2.19944E+00 +3.11742E+00 +3.28340E+00 +2.35390E+00 +4.22693E+00
 +1.32509E+00 +4.94259E+00 +1.05136E-01 +5.36149E+00 -1.21539E+00 +5.43883E+00 -2.53711E+00 +5.15739E+00
 -3.76006E+00 +4.52870E+00 -4.79181E+00 +3.59183E+00 -5.55481E+00 +2.40996E+00 -5.99247E+00 +1.06502E+00
 -6.07337E+00 -3.49047E-01 -5.79338E+00 -1.73391E+00 -5.17553E+00 -2.99465E+00 -4.26774E+00 -4.04712E+00
 -3.13855E+00 -4.82433E+00 -1.87132E+00 -5.28125E+00 -5.57448E-01 -5.39781E+00 +7.11009E-01 -5.17976E+00
 +1.84845E+00 -4.65754E+00 +2.78221E+00 -3.88313E+00 +3.45779E+00 -2.92533E+00 +3.84246E+00 -1.86381E+00
 +3.92709E+00 -7.82503E-01 +3.72597E+00 +2.37155E-01 +3.27475E+00 +1.12254E+00 +2.62678E+00 +1.81524E+00
 +1.84815E+00 +2.27515E+00 +1.01186E+00 +2.48285E+00 +1.91633E-01 +2.44039E+00 -5.44062E-01 +2.17012E+00
 -1.13737E+00 +1.71204E+00 -1.54534E+00 +1.11976E+00 -1.74280E+00 +4.55509E-01 -1.72372E+00 -2.15370E-01
 -1.50090E+00 -8.29983E-01 -1.10413E+00 -1.33302E+00 -5.77061E-01 -1.68109E+00 +2.70399E-02 -1.84588E+00
 +6.50088E-01 -1.81596E+00 +1.23424E+00 -1.59714E+00 +1.72676E+00 -1.21133E+00 +2.08422E+00 -6.94187E-01
 +2.27586E+00 -9.16316E-02 +2.28571E+00 +5.44321E-01 +2.11342E+00 +1.16008E+00 +1.77381E+00 +1.70499E+00
 +1.29512E+00 +2.13539E+00 +7.16289E-01 +2.41799E+00 +8.33805E-02 +2.53226E+00 -5.54379E-01 +2.47163E+00
 -1.14870E+00 +2.24360E+00 -1.65609E+00 +1.86861E+00 -2.04116E+00 +1.37794E+00 -2.27915E+00 +8.10805E-01
 -2.35749E+00 +2.10932E-01 -2.27627E+00 -3.77082E-01 -2.04775E+00 -9.11317E-01 -1.69481E+00 -1.35571E+00
 -1.24871E+00 -1.68262E+00 -7.46210E-01 -1.87455E+00 -2.26484E-01 -1.92504E+00 +2.72101E-01 -1.83857E+00
 +7.14891E-01 -1.62961E+00 +1.07342E+00 -1.32099E+00 +1.32726E+00 -9.41540E-01 +1.46508E+00 -5.23592E-01
 +1.48497E+00 -1.00201E-01 +1.39394E+00 +2.97433E-01 +1.20677E+00 +6.42247E-01 +9.44311E-01 +9.13102E-01
 +6.31429E-01 +1.09597E+00 +2.94775E-01 +1.18448E+00 -3.94117E-02 +1.17975E+00 -3.47288E-01 +1.08972E+00
 -6.09034E-01 +9.27926E-01 -8.10015E-01 +7.11948E-01 -9.41414E-01 +4.61682E-01 -1.00034E+00 +1.97582E-01
 -9.89427E-01 -6.09681E-02 -9.16065E-01 -2.97025E-01 -7.91268E-01 -4.97111E-01 -6.28419E-01 -6.51829E-01
 -4.41947E-01 -7.56076E-01 -2.46094E-01 -8.08865E-01 -5.38603E-02 -8.12822E-01 +1.23798E-01 -7.73459E-01
 +2.78469E-01 -6.98296E-01 +4.04483E-01 -5.95964E-01 +4.98834E-01 -4.75356E-01 +5.60872E-01 -3.44923E-01
 +5.91842E-01 -2.12155E-01 +5.94339E-01 -8.32748E-02 +5.71771E-01 +3.68563E-02 +5.27879E-01 +1.44655E-01
 +4.66392E-01 +2.37601E-01 +3.90812E-01 +3.13944E-01 +3.04365E-01 +3.72419E-01 +2.10083E-01 +4.11994E-01
 +1.10977E-01 +4.31738E-01 +1.02527E-02 +4.30799E-01 -8.84833E-02 +4.08524E-01 -1.81099E-01 +3.64696E-01
 -2.62929E-01 +2.99841E-01 -3.28913E-01 +2.15566E-01 -3.73893E-01 +1.14860E-01 -3.93058E-01 +2.28903E-03
 -3.82480E-01 -1.15961E-01 -3.39700E-01 -2.32243E-01 -2.64288E-01 -3.37816E-01 -1.58288E-01 -4.23424E-01
 -2.64952E-02 -4.80043E-01 +1.23520E-01 -4.99743E-01 +2.81655E-01 -4.76574E-01 +4.35821E-01 -4.07398E-01
 +5.72756E-01 -2.92553E-01 +6.79061E-01 -1.36275E-01 +7.42376E-01 +5.32034E-02 +7.52605E-01 +2.63920E-01
 +7.03053E-01 +4.80832E-01 +5.91376E-01 +6.86809E-01 +4.20223E-01 +8.63933E-01 +1.97488E-01 +9.94976E-01
 -6.38925E-02 +1.06497E+00 -3.46614E-01 +1.06268E+00 -6.30119E-01 +9.81927E-01 -8.92096E-01 +8.22475E-01
 -1.11024E+00 +5.90559E-01 -1.26416E+00 +2.98821E-01 -1.33723E+00 -3.42928E-02 -1.31825E+00 -3.85689E-01
 -1.20276E+00 -7.29257E-01 -9.93828E-01 -1.03786E+00 -7.02276E-01 -1.28555E+00 -3.46210E-01 -1.44978E+00
 +5.00562E-02 -1.51348E+00 +4.57687E-01 -1.46678E+00 +8.45473E-01 -1.30817E+00 +1.18229E+00 -1.04507E+00
 +1.43967E+00 -6.93645E-01 +1.59425E+00 -2.77842E-01 +1.62996E+00 +1.72196E-01 +1.53961E+00 +6.22365E-01
 +1.32583E+00 +1.03723E+00 +1.00128E+00 +1.38290E+00 +5.87970E-01 +1.62982E+00 +1.15753E-01 +1.75539E+00
 -3.79811E-01 +1.74604E+00 -8.60200E-01 +1.59862E+00 -1.28699E+00 +1.32101E+00 -1.62502E+00 +9.31775E-01
 -1.84535E+00 +4.58974E-01 -1.92780E+00 -6.19041E-02 -1.86288E+00 -5.90650E-01 -1.65279E+00 -1.08553E+00
 -1.31153E+00 -1.50666E+00 -8.64042E-01 -1.81938E+00 -3.44365E-01 -1.99720E+00 +2.06974E-01 -2.02415E+00
 +7.46190E-01 -1.89636E+00 +1.22980E+00 -1.62259E+00 +1.61827E+00 -1.22375E+00 +1.87934E+00 -7.31408E-01
 +1.99090E+00 -1.85304E-01 +1.94299E+00 +3.69785E-01 +1.73888E+00 +8.87734E-01 +1.39502E+00 +1.32491E+00
 +9.39888E-01 +1.64392E+00 +4.11799E-01 +1.81685E+00 -1.44133E-01 +1.82779E+00 -6.79705E-01 +1.67445E+00
 -1.14765E+00 +1.36859E+00 -1.50565E+00 +9.35272E-01 -1.72004E+00 +4.11027E-01 -1.76885E+00 -1.59015E-01
 -1.64387E+00 -7.24781E-01 -1.35170E+00 -1.23538E+00 -9.13463E-01 -1.64341E+00 -3.63358E-01 -1.90902E+00
 +2.53914E-01 -2.00343E+00 +8.86682E-01 -1.91165E+00 +1.48047E+00 -1.63397E+00 +1.98250E+00 -1.18637E+00
 +2.34609E+00 -5.99482E-01 +2.53470E+00 +8.35963E-02 +2.52514E+00 +8.10595E-01 +2.30978E+00 +1.52418E+00
 +1.89749E+00 +2.16653E+00 +1.31325E+00 +2.68408E+00 +5.96415E-01 +3.03193E+00 -2.02227E-01 +3.17766E+00
 -1.02436E+00 +3.10415E+00 -1.80874E+00 +2.81116E+00 -2.49607E+00 +2.31566E+00 -3.03377E+00 +1.65060E+00
 -3.38030E+00 +8.62486E-01 -3.50856E+00 +7.79088E-03 -3.40819E+00 -8.51516E-01 -3.08651E+00 -1.65288E+00
 -2.56799E+00 -2.33818E+00 -1.89239E+00 -2.85839E+00 -1.11160E+00 -3.17760E+00 -2.85400E-01 -3.27585E+00
 +5.23305E-01 -3.15083E+00 +1.25364E+00 -2.81798E+00 +1.85173E+00 -2.30926E+00 +2.27509E+00 -1.67046E+00
 +2.49609E+00 -9.57386E-01 +2.50424E+00 -2.31239E-01 +2.30702E+00 +4.46526E-01 +1.92917E+00 +1.01934E+00
 +1.41064E+00 +1.44028E+00 +8.03169E-01 +1.67603E+00 +1.65900E-01 +1.70972E+00 -4.39656E-01 +1.54241E+00
 -9.54879E-01 +1.19303E+00 -1.32908E+00 +6.96872E-01 -1.52392E+00 +1.02632E-01 -1.51679E+00 -5.31656E-01
 -1.30292E+00 -1.14352E+00 -8.95982E-01 -1.67138E+00 -3.27158E-01 -2.05979E+00 +3.57285E-01 -2.26431E+00
