 Created: 19-Jan-2021
 $NMID
 ID='D:\BASISSIMULATI'
 FMTDAT='(8E13.5)'
 VOLUME=   1.00000E+00
 TRAMP=   1.00000E+00
 $END
 +3.49403E+01 +9.78671E-02 +3.36884E+01 +9.16566E+00 +3.01263E+01 +1.75901E+01 +2.45020E+01 +2.47941E+01
 +1.72049E+01 +3.02850E+01 +8.73836E+00 +3.36887E+01 -3.14649E-01 +3.47748E+01 -9.33185E+00 +3.34724E+01
 -1.76944E+01 +2.98747E+01 -2.48294E+01 +2.42322E+01 -3.02490E+01 +1.69354E+01 -3.35840E+01 +8.48764E+00
 -3.46087E+01 -5.29378E-01 -3.32564E+01 -9.49592E+00 -2.96237E+01 -1.77966E+01 -2.39634E+01 -2.48628E+01
 -1.66674E+01 -3.02115E+01 -8.23877E+00 -3.34782E+01 +7.42061E-01 -3.44420E+01 +9.65786E+00 -3.30403E+01
 +1.78968E+01 -2.93732E+01 +2.48945E+01 -2.36957E+01 +3.01725E+01 -1.64008E+01 +3.33714E+01 -7.99172E+00
 +3.42748E+01 +9.52704E-01 +3.28243E+01 +9.81770E+00 +2.91232E+01 +1.79949E+01 +2.34291E+01 +2.49243E+01
 +1.61358E+01 +3.01320E+01 +7.74650E+00 +3.32635E+01 -1.16131E+00 +3.41071E+01 -9.97544E+00 +3.26083E+01
 -1.80911E+01 +2.88739E+01 -2.49523E+01 +2.31635E+01 -3.00901E+01 +1.58723E+01 -3.31547E+01 +7.50312E+00
 -3.39388E+01 -1.36789E+00 -3.23924E+01 -1.01311E+01 -2.86251E+01 -1.81852E+01 -2.28990E+01 -2.49785E+01
 -1.56103E+01 -3.00468E+01 -7.26156E+00 -3.30448E+01 +1.57245E+00 -3.37701E+01 +1.02847E+01 -3.21765E+01
 +1.82773E+01 -2.83769E+01 +2.50030E+01 -2.26356E+01 +3.00020E+01 -1.53498E+01 +3.29340E+01 -7.02182E+00
 +3.36009E+01 +1.77500E+00 +3.19606E+01 +1.04362E+01 +2.81293E+01 +1.83675E+01 +2.23733E+01 +2.50257E+01
 +1.50908E+01 +2.99558E+01 +6.78390E+00 +3.28221E+01 -1.97553E+00 +3.34312E+01 -1.05856E+01 +3.17448E+01
 -1.84557E+01 +2.78823E+01 -2.50466E+01 +2.21121E+01 -2.99082E+01 +1.48333E+01 -3.27094E+01 +6.54780E+00
 -3.32611E+01 -2.17407E+00 -3.15292E+01 -1.07330E+01 -2.76359E+01 -1.85419E+01 -2.18520E+01 -2.50659E+01
 -1.45773E+01 -2.98592E+01 -6.31352E+00 -3.25957E+01 +2.37061E+00 -3.30906E+01 +1.08784E+01 -3.13136E+01
 +1.86262E+01 -2.73902E+01 +2.50834E+01 -2.15930E+01 +2.98089E+01 -1.43228E+01 +3.24811E+01 -6.08105E+00
 +3.29197E+01 +2.56516E+00 +3.10981E+01 +1.10217E+01 +2.71450E+01 +1.87086E+01 +2.13351E+01 +2.50993E+01
 +1.40699E+01 +2.97572E+01 +5.85039E+00 +3.23655E+01 -2.75773E+00 +3.27483E+01 -1.11631E+01 +3.08828E+01
 -1.87890E+01 +2.69006E+01 -2.51134E+01 +2.10783E+01 -2.97043E+01 +1.38184E+01 -3.22491E+01 +5.62153E+00
 -3.25766E+01 -2.94833E+00 -3.06676E+01 -1.13024E+01 -2.66568E+01 -1.88676E+01 -2.08226E+01 -2.51259E+01
 -1.35685E+01 -2.96499E+01 -5.39448E+00 -3.21318E+01 +3.13696E+00 -3.24044E+01 +1.14397E+01 -3.04526E+01
 +1.89443E+01 -2.64136E+01 +2.51368E+01 -2.05681E+01 +2.95943E+01 -1.33201E+01 +3.20137E+01 -5.16924E+00
 +3.22320E+01 +3.32363E+00 +3.02377E+01 +1.15750E+01 +2.61711E+01 +1.90191E+01 +2.03147E+01 +2.51460E+01
 +1.30732E+01 +2.95375E+01 +4.94579E+00 +3.18947E+01 -3.50834E+00 +3.20591E+01 -1.17084E+01 +3.00230E+01
 -1.90920E+01 +2.59293E+01 -2.51536E+01 +2.00625E+01 -2.94793E+01 +1.28279E+01 -3.17749E+01 +4.72413E+00
 -3.18860E+01 -3.69111E+00 -2.98084E+01 -1.18398E+01 -2.56882E+01 -1.91631E+01 -1.98114E+01 -2.51596E+01
 -1.25840E+01 -2.94199E+01 -4.50427E+00 -3.16543E+01 +3.87194E+00 -3.17125E+01 +1.19692E+01 -2.95941E+01
 +1.92323E+01 -2.54478E+01 +2.51640E+01 -1.95614E+01 +2.93593E+01 -1.23417E+01 +3.15328E+01 -4.28619E+00
 +3.15387E+01 +4.05084E+00 +2.93800E+01 +1.20967E+01 +2.52081E+01 +1.92998E+01 +1.93126E+01 +2.51668E+01
 +1.21009E+01 +2.92974E+01 +4.06990E+00 +3.14106E+01 -4.22781E+00 +3.13647E+01 -1.22223E+01 +2.91661E+01
 -1.93654E+01 +2.49691E+01 -2.51681E+01 +1.90650E+01 -2.92343E+01 +1.18616E+01 -3.12876E+01 +3.85539E+00
 -3.11903E+01 -4.40286E+00 -2.89524E+01 -1.23460E+01 -2.47308E+01 -1.94292E+01 -1.88185E+01 -2.51678E+01
 -1.16238E+01 -2.91701E+01 -3.64266E+00 -3.11639E+01 +4.57600E+00 -3.10157E+01 +1.24677E+01 -2.87390E+01
 +1.94913E+01 -2.44933E+01 +2.51660E+01 -1.85732E+01 +2.91046E+01 -1.13876E+01 +3.10394E+01 -3.43170E+00
 +3.08408E+01 +4.74724E+00 +2.85258E+01 +1.25875E+01 +2.42565E+01 +1.95515E+01 +1.83290E+01 +2.51627E+01
 +1.11529E+01 +2.90380E+01 +3.22251E+00 +3.09143E+01 -4.91659E+00 +3.06657E+01 -1.27055E+01 +2.83128E+01
 -1.96101E+01 +2.40204E+01 -2.51579E+01 +1.80860E+01 -2.89703E+01 +1.09197E+01 -3.07884E+01 +3.01508E+00
 -3.04904E+01 -5.08405E+00 -2.81002E+01 -1.28215E+01 -2.37851E+01 -1.96668E+01 -1.78442E+01 -2.51516E+01
 -1.06880E+01 -2.89014E+01 -2.80942E+00 -3.06618E+01 +5.24962E+00 -3.03148E+01 +1.29357E+01 -2.78878E+01
 +1.97219E+01 -2.35505E+01 +2.51438E+01 -1.76036E+01 +2.88315E+01 -1.04578E+01 +3.05345E+01 -2.60551E+00
 +3.01391E+01 +5.41332E+00 +2.76757E+01 +1.30480E+01 +2.33167E+01 +1.97752E+01 +1.73642E+01 +2.51346E+01
 +1.02292E+01 +2.87604E+01 +2.40336E+00 +3.04065E+01 -5.57516E+00 +2.99632E+01 -1.31585E+01 +2.74640E+01
 -1.98268E+01 +2.30837E+01 -2.51239E+01 +1.71259E+01 -2.86882E+01 +1.00021E+01 -3.02779E+01 +2.20296E+00
 -2.97870E+01 -5.73514E+00 -2.72525E+01 -1.32672E+01 -2.28514E+01 -1.98768E+01 -1.68889E+01 -2.51117E+01
 -9.77652E+00 -2.86150E+01 -2.00431E+00 -3.01487E+01 +5.89327E+00 -2.96108E+01 +1.33740E+01 -2.70414E+01
 +1.99250E+01 -2.26200E+01 +2.50982E+01 -1.66530E+01 +2.85407E+01 -9.55245E+00 +3.00188E+01 -1.80740E+00
 +2.94343E+01 +6.04956E+00 +2.68305E+01 +1.34790E+01 +2.23893E+01 +1.99716E+01 +1.64184E+01 +2.50833E+01
 +9.32991E+00 +2.84653E+01 +1.61222E+00 +2.98884E+01 -6.20401E+00 +2.92578E+01 -1.35822E+01 +2.66201E+01
 -2.00165E+01 +2.21594E+01 -2.50669E+01 +1.61849E+01 -2.83890E+01 +9.10888E+00 -2.97573E+01 +1.41878E+00
 -2.90811E+01 -6.35663E+00 -2.64100E+01 -1.36836E+01 -2.19304E+01 -2.00598E+01 -1.59526E+01 -2.50492E+01
 -8.88937E+00 -2.83116E+01 -1.22706E+00 -2.96256E+01 +6.50744E+00 -2.89043E+01 +1.37832E+01 -2.62002E+01
 +2.01015E+01 -2.17021E+01 +2.50302E+01 -1.57216E+01 +2.82332E+01 -8.67137E+00 +2.94934E+01 -1.03707E+00
 +2.87274E+01 +6.65643E+00 +2.59908E+01 +1.38810E+01 +2.14747E+01 +2.01415E+01 +1.54917E+01 +2.50098E+01
 +8.45489E+00 +2.81538E+01 +8.48794E-01 +2.93606E+01 -6.80363E+00 +2.85504E+01 -1.39771E+01 +2.57818E+01
 -2.01799E+01 +2.12481E+01 -2.49880E+01 +1.52631E+01 -2.80735E+01 +8.23993E+00 -2.92273E+01 +6.62235E-01
 -2.83733E+01 -6.94902E+00 -2.55732E+01 -1.40714E+01 -2.10223E+01 -2.02168E+01 -1.50357E+01 -2.49650E+01
 -8.02649E+00 -2.79922E+01 -4.77386E-01 -2.90934E+01 +7.09263E+00 -2.81961E+01 +1.41640E+01 -2.53650E+01
 +2.02521E+01 -2.07974E+01 +2.49406E+01 -1.48095E+01 +2.79100E+01 -7.81455E+00 +2.89591E+01 -2.94242E-01
 +2.80189E+01 +7.23446E+00 +2.51572E+01 +1.42548E+01 +2.05733E+01 +2.02858E+01 +1.45845E+01 +2.49149E+01
 +7.60413E+00 +2.78268E+01 +1.12797E-01 +2.88242E+01 -7.37452E+00 +2.78417E+01 -1.43439E+01 +2.49498E+01
 -2.03179E+01 +2.03500E+01 -2.48880E+01 +1.43607E+01 -2.77427E+01 +7.39522E+00 -2.86888E+01 -6.69517E-02
 -2.76644E+01 -7.51281E+00 -2.47428E+01 -1.44313E+01 -2.01276E+01 -2.03485E+01 -1.41382E+01 -2.48598E+01
 -7.18781E+00 -2.76577E+01 +2.45011E-01 -2.85530E+01 +7.64935E+00 -2.74871E+01 +1.45171E+01 -2.45363E+01
 +2.03776E+01 -1.99061E+01 +2.48303E+01 -1.39169E+01 +2.75719E+01 -6.98192E+00 +2.84167E+01 +4.21384E-01
 +2.73098E+01 +7.78414E+00 +2.43302E+01 +1.46011E+01 +1.96854E+01 +2.04052E+01 +1.36968E+01 +2.47997E+01
 +6.77753E+00 +2.74851E+01 -5.96078E-01 +2.82799E+01 -7.91720E+00 +2.71325E+01 -1.46834E+01 +2.41246E+01
 -2.04312E+01 +1.94656E+01 -2.47677E+01 +1.34780E+01 -2.73975E+01 +6.57464E+00 -2.81427E+01 -7.69096E-01
 -2.69551E+01 -8.04852E+00 -2.39194E+01 -1.47641E+01 -1.92467E+01 -2.04558E+01 -1.32603E+01 -2.47346E+01
 -6.37326E+00 -2.73090E+01 +9.40445E-01 -2.80051E+01 +8.17812E+00 -2.67779E+01 +1.48431E+01 -2.37147E+01
 +2.04789E+01 -1.90287E+01 +2.47003E+01 -1.30440E+01 +2.72197E+01 -6.17338E+00 +2.78670E+01 +1.11013E+00
 +2.66006E+01 +8.30601E+00 +2.35104E+01 +1.49205E+01 +1.88115E+01 +2.05006E+01 +1.28288E+01 +2.46648E+01
 +5.97499E+00 +2.71296E+01 -1.27815E+00 +2.77285E+01 -8.43219E+00 +2.64234E+01 -1.49963E+01 +2.33067E+01
 -2.05207E+01 +1.85952E+01 -2.46281E+01 +1.26149E+01 -2.70387E+01 +5.77811E+00 -2.75897E+01 -1.44452E+00
 -2.62462E+01 -8.55667E+00 -2.31034E+01 -1.50704E+01 -1.83799E+01 -2.05395E+01 -1.24022E+01 -2.45903E+01
 -5.58271E+00 -2.69470E+01 +1.60925E+00 -2.74505E+01 +8.67947E+00 -2.60691E+01 +1.51429E+01 -2.29007E+01
 +2.05568E+01 -1.81654E+01 +2.45513E+01 -1.21908E+01 +2.68545E+01 -5.38882E+00 +2.73109E+01 +1.77232E+00
 +2.58921E+01 +8.80058E+00 +2.26984E+01 +1.52138E+01 +1.79518E+01 +2.05727E+01 +1.19806E+01 +2.45112E+01
 +5.19641E+00 +2.67612E+01 -1.93376E+00 +2.71709E+01 -8.92002E+00 +2.57151E+01 -1.52831E+01 +2.24967E+01
 -2.05872E+01 +1.77392E+01 -2.44700E+01 +1.17716E+01 -2.66672E+01 +5.00549E+00 -2.70306E+01 -2.09357E+00
 -2.55383E+01 -9.03780E+00 -2.22954E+01 -1.53508E+01 -1.75274E+01 -2.06003E+01 -1.15639E+01 -2.44277E+01
 -4.81605E+00 -2.65724E+01 +2.25176E+00 -2.68900E+01 +9.15392E+00 -2.53615E+01 +1.54170E+01 -2.20947E+01
 +2.06120E+01 -1.73166E+01 +2.43843E+01 -1.13574E+01 +2.64769E+01 -4.62810E+00 +2.67491E+01 +2.40832E+00
 +2.51849E+01 +9.26839E+00 +2.18946E+01 +1.54816E+01 +1.71067E+01 +2.06224E+01 +1.11522E+01 +2.43398E+01
 +4.44163E+00 +2.63807E+01 -2.56326E+00 +2.66078E+01 -9.38123E+00 +2.50084E+01 -1.55446E+01 +2.16950E+01
 -2.06314E+01 +1.68977E+01 -2.42942E+01 +1.09482E+01 -2.62838E+01 +4.25664E+00 -2.64663E+01 -2.71660E+00
 -2.48320E+01 -9.49243E+00 -2.14959E+01 -1.56061E+01 -1.66897E+01 -2.06391E+01 -1.07455E+01 -2.42476E+01
 -4.07312E+00 -2.61862E+01 +2.86833E+00 -2.63245E+01 +9.60202E+00 -2.46557E+01 +1.56661E+01 -2.12974E+01
 +2.06454E+01 -1.64826E+01 +2.41999E+01 -1.05440E+01 +2.60879E+01 -3.89108E+00 +2.61824E+01 +3.01846E+00
 +2.44796E+01 +9.70999E+00 +2.10994E+01 +1.57246E+01 +1.62764E+01 +2.06504E+01 +1.03438E+01 +2.41512E+01
 +3.71051E+00 +2.59889E+01 -3.16700E+00 +2.60400E+01 -9.81635E+00 +2.43037E+01 -1.57815E+01 +2.09021E+01
 -2.06542E+01 +1.60711E+01 -2.41016E+01 +1.01448E+01 -2.58893E+01 +3.53140E+00 -2.58974E+01 -3.31396E+00
 -2.41279E+01 -9.92112E+00 -2.07053E+01 -1.58370E+01 -1.58669E+01 -2.06566E+01 -9.94702E+00 -2.40509E+01
