 Created: 19-Jan-2021
 $NMID
 ID='D:\BASISSIMULATI'
 FMTDAT='(8E13.5)'
 VOLUME=   1.00000E+00
 TRAMP=   1.00000E+00
 $END
 +1.96546E+01 +5.18233E-02 +1.88423E+01 +5.15055E+00 +1.67336E+01 +9.82759E+00 +1.34929E+01 +1.37607E+01
 +9.36279E+00 +1.66844E+01 +4.64529E+00 +1.84085E+01 -3.20353E-01 +1.88305E+01 -5.18254E+00 +1.79413E+01
 -9.60263E+00 +1.58252E+01 -1.32789E+01 +1.26514E+01 -1.59677E+01 +8.66119E+00 -1.74993E+01 +4.14926E+00
 -1.77895E+01 -5.58509E-01 -1.68433E+01 -5.12879E+00 -1.47531E+01 -9.24481E+00 -1.16902E+01 -1.26287E+01
 -7.89107E+00 -1.50605E+01 -3.63878E+00 -1.63926E+01 +7.58245E-01 -1.65587E+01 +4.98886E+00 -1.55767E+01
 +8.76157E+00 -1.35452E+01 +1.18249E+01 -1.06346E+01 +1.39843E+01 -7.07291E+00 +1.51148E+01 -3.12788E+00
 +1.51677E+01 +9.13195E-01 +1.41722E+01 +4.76471E+00 +1.22310E+01 +8.16319E+00 +9.51036E+00 +1.08855E+01
 +6.22680E+00 +1.27637E+01 +2.62942E+00 +1.36953E+01 -1.01882E+00 +1.36485E+01 -4.46059E+00 +1.26621E+01
 -7.46252E+00 +1.08404E+01 -9.83116E+00 +8.34308E+00 -1.14255E+01 +5.37202E+00 -1.21653E+01 +2.15483E+00
 -1.20342E+01 -1.07248E+00 -1.10791E+01 -4.08290E+00 -9.40342E+00 -6.67457E+00 -7.15770E+00 -8.68438E+00
 -4.52658E+00 -9.99817E+00 -1.71381E+00 -1.05570E+01 +1.07346E+00 -1.03587E+01 +3.63997E+00 -9.45597E+00
 +5.81610E+00 -7.94933E+00 +7.46910E+00 -5.97784E+00 +8.51101E+00 -3.70679E+00 +8.90292E+00 -1.31422E+00
 +8.65524E+00 +1.02290E+00 +7.82435E+00 +3.14178E+00 +6.50586E+00 +4.90514E+00 +4.82531E+00 +6.21001E+00
 +2.92697E+00 +6.99350E+00 +9.61953E-01 +7.23517E+00 -9.23678E-01 +6.95601E+00 -2.59966E+00 +6.21429E+00
 -3.96048E+00 +5.09871E+00 -4.93186E+00 +3.71967E+00 -5.47444E+00 +2.19923E+00 -5.58440E+00 +6.60893E-01
 -5.29134E+00 -7.80226E-01 -4.65348E+00 -2.02584E+00 -3.75098E+00 -3.00111E+00 -2.67786E+00 -3.65886E+00
 -1.53326E+00 -3.98133E+00 -4.12972E-01 -3.97930E+00 +5.98303E-01 -3.68893E+00 +1.43314E+00 -3.16667E+00
 +2.04571E+00 -2.48275E+00 +2.41399E+00 -1.71394E+00 +2.53963E+00 -9.36277E-01 +2.44583E+00 -2.18264E-01
 +2.17334E+00 +3.84717E-01 +1.77523E+00 +8.34459E-01 +1.31071E+00 +1.11213E+00 +8.38917E-01 +1.21848E+00
 +4.13000E-01 +1.17223E+00 +7.51480E-02 +1.00674E+00 -1.47022E-01 +7.65498E-01 -2.42452E-01 +4.96757E-01
 -2.16862E-01 +2.48001E-01 -9.12571E-02 +6.06791E-02 +1.01097E-01 -3.42366E-02 +3.18879E-01 -1.94786E-02
 +5.17661E-01 +1.06795E-01 +6.55112E-01 +3.30928E-01 +6.95920E-01 +6.25319E-01 +6.15969E-01 +9.51444E-01
 +4.05355E-01 +1.26402E+00 +6.99503E-02 +1.51593E+00 -3.68643E-01 +1.66337E+00 -8.74753E-01 +1.67082E+00
 -1.40176E+00 +1.51526E+00 -1.89642E+00 +1.18918E+00 -2.30395E+00 +7.02309E-01 -2.57343E+00 +8.15544E-02
 -2.66310E+00 -6.30630E-01 -2.54486E+00 -1.37944E+00 -2.20773E+00 -2.10220E+00 -1.65985E+00 -2.73371E+00
 -9.28820E-01 -3.21213E+00 -6.02390E-02 -3.48461E+00 +8.85352E-01 -3.51254E+00 +1.83699E+00 -3.27558E+00
 +2.71891E+00 -2.77435E+00 +3.45669E+00 -2.03135E+00 +3.98367E+00 -1.09007E+00 +4.24673E+00 -1.23199E-02
 +4.21131E+00 +1.12614E+00 +3.86495E+00 +2.24119E+00 +3.21910E+00 +3.24683E+00 +2.30915E+00 +4.06205E+00
 +1.19239E+00 +4.61740E+00 -5.58011E-02 +4.86093E+00 -1.34728E+00 +4.76278E+00 -2.58769E+00 +4.31818E+00
 -3.68358E+00 +3.54855E+00 -4.54968E+00 +2.50049E+00 -5.11566E+00 +1.24288E+00 -5.33186E+00 -1.37896E-01
 -5.17356E+00 -1.54415E+00 -4.64333E+00 -2.87406E+00 -3.77142E+00 -4.02929E+00 -2.61395E+00 -4.92247E+00
 -1.24915E+00 -5.48396E+00 +2.28140E-01 -5.66732E+00 +1.71335E+00 -5.45312E+00 +3.09978E+00 -4.85075E+00
 +4.28653E+00 -3.89810E+00 +5.18602E+00 -2.65903E+00 +5.73060E+00 -1.21895E+00 +5.87771E+00 +3.21302E-01
 +5.61322E+00 +1.85272E+00 +4.95265E+00 +3.26611E+00 +3.94023E+00 +4.46002E+00 +2.64582E+00 +5.34825E+00
 +1.15991E+00 +5.86621E+00 -4.12890E-01 +5.97561E+00 -1.96141E+00 +5.66743E+00 -3.37597E+00 +4.96252E+00
 -4.55636E+00 +3.91018E+00 -5.41906E+00 +2.58455E+00 -5.90324E+00 +1.07929E+00 -5.97516E+00 -4.99262E-01
 -5.63051E+00 -2.03973E+00 -4.89464E+00 -3.43375E+00 -3.82062E+00 -4.58373E+00 -2.48532E+00 -5.40981E+00
 -9.83785E-01 -5.85549E+00 +5.77676E-01 -5.89154E+00 +2.08916E+00 -5.51792E+00 +3.44504E+00 -4.76357E+00
 +4.55145E+00 -3.68413E+00 +5.33293E+00 -2.35775E+00 +5.73754E+00 -8.79348E-01 +5.74043E+00 +6.46310E-01
 +5.34526E+00 +2.11214E+00 +4.58369E+00 +3.41638E+00 +3.51280E+00 +4.46970E+00 +2.21076E+00 +5.20143E+00
 +7.71086E-01 +5.56429E+00 -7.04228E-01 +5.53750E+00 -2.11196E+00 +5.12782E+00 -3.35499E+00 +4.36879E+00
 -4.34904E+00 +3.31793E+00 -5.02843E+00 +2.05238E+00 -5.35042E+00 +6.63185E-01 -5.29789E+00 -7.51317E-01
 -4.88011E+00 -2.09251E+00 -4.13169E+00 -3.26842E+00 -3.10975E+00 -4.20006E+00 -1.88955E+00 -4.82672E+00
 -5.58892E-01 -5.10994E+00 +7.88180E-01 -5.03580E+00 +2.05810E+00 -4.61544E+00 +3.16427E+00 -3.88391E+00
 +4.03300E+00 -2.89720E+00 +4.60836E+00 -1.72805E+00 +4.85578E+00 -4.60527E-01 +4.76405E+00 +8.16009E-01
 +4.34565E+00 +2.01321E+00 +3.63543E+00 +3.04987E+00 +2.68777E+00 +3.85737E+00 +1.57247E+00 +4.38425E+00
 +3.69545E-01 +4.59940E+00 -8.36423E-01 +4.49380E+00 -1.96227E+00 +4.08075E+00 -2.93195E+00 +3.39449E+00
 -3.68163E+00 +2.48742E+00 -4.16385E+00 +1.42616E+00 -4.35047E+00 +2.86625E-01 -4.23422E+00 -8.51305E-01
 -3.82879E+00 -1.90941E+00 -3.16748E+00 -2.81645E+00 -2.30052E+00 -3.51291E+00 -1.29131E+00 -3.95486E+00
 -2.11789E-01 -4.11665E+00 +8.62615E-01 -3.99235E+00 +1.85824E+00 -3.59570E+00 +2.70818E+00 -2.95887E+00
 +3.35675E+00 -2.12989E+00 +3.76303E+00 -1.16903E+00 +3.90343E+00 -1.44544E-01 +3.77297E+00 +8.72219E-01
 +3.38526E+00 +1.81167E+00 +2.77126E+00 +2.61073E+00 +1.97686E+00 +3.21698E+00 +1.05949E+00 +3.59206E+00
 +8.40391E-02 +3.71403E+00 -8.81720E-01 +3.57862E+00 -1.77176E+00 +3.19916E+00 -2.52626E+00 +2.60545E+00
 -3.09560E+00 +1.84144E+00 -3.44353E+00 +9.62046E-01 -3.54947E+00 +2.92269E-02 -3.40964E+00 -8.92316E-01
 -3.03710E+00 -1.73958E+00 -2.46062E+00 -2.45551E+00 -1.72248E+00 -2.99281E+00 -8.75448E-01 -3.31701E+00
 +2.09810E-02 -3.40865E+00 +9.04685E-01 -3.26439E+00 +1.71519E+00 -2.89706E+00 +2.39777E+00 -2.33459E+00
 +2.90709E+00 -1.61791E+00 +3.21019E+00 -7.98032E-01 +3.28862E+00 +6.75680E-02 +3.13948E+00 +9.18906E-01
 +2.77552E+00 +1.69763E+00 +2.22405E+00 +2.35098E+00 +1.52498E+00 +2.83534E+00 +7.27915E-01 +3.11913E+00
 -1.11290E-01 +3.18485E+00 -9.34435E-01 +3.03015E+00 -1.68498E+00 +2.66785E+00 -2.31192E+00 +2.12492E+00
 -2.77320E+00 +1.44052E+00 -3.03860E+00 +6.63183E-01 -3.09163E+00 -1.52581E-01 -2.93062E+00 -9.50112E-01
 -2.56868E+00 -1.67451E+00 -2.03266E+00 -2.27640E+00 -1.36123E+00 -2.71533E+00 -6.02067E-01 -2.96245E+00
 +1.91499E-01 -3.00247E+00 +9.64227E-01 -2.83455E+00 +1.66282E+00 -2.47229E+00 +2.23959E+00 -1.94264E+00
 +2.65577E+00 -1.28393E+00 +2.88408E+00 -5.43079E-01 +2.91057E+00 +2.27698E-01 +2.73547E+00 +9.74624E-01
 +2.37305E+00 +1.64610E+00 +1.85045E+00 +2.19632E+00 +1.20575E+00 +2.58838E+00 +4.85127E-01 +2.79683E+00
 -2.60455E-01 +2.80929E+00 -9.78841E-01 +2.62723E+00 -1.62039E+00 +2.26572E+00 -2.14141E+00 +1.75219E+00
 -2.50723E+00 +1.12438E+00 -2.69445E+00 +4.27574E-01 -2.69254E+00 -2.88716E-01 -2.50438E+00 -9.74279E-01
 -2.14588E+00 -1.58178E+00 -1.64470E+00 -2.07005E+00 -1.03813E+00 -2.40695E+00 -3.70265E-01 -2.57150E+00
 +3.11190E-01 -2.55522E+00 +9.58387E-01 -2.36249E+00 +1.52674E+00 -2.01010E+00 +1.97806E+00 -1.52577E+00
 +2.28313E+00 -9.46060E-01 +2.42369E+00 -3.13511E-01 +2.39348E+00 +3.26450E-01 +2.19847E+00 +9.28847E-01
 +1.85620E+00 +1.45236E+00 +1.39423E+00 +1.86223E+00 +8.48000E-01 +2.13259E+00 +2.58033E-01 +2.24815E+00
 -3.33068E-01 +2.20501E+00 -8.83759E-01 +2.01071E+00 -1.35653E+00 +1.68334E+00 -1.72053E+00 +1.25000E+00
 -1.95359E+00 +7.44518E-01 -2.04362E+00 +2.04876E-01 -1.98915E+00 -3.29738E-01 -1.79917E+00 -8.21800E-01
 -1.49208E+00 -1.23815E+00 -1.09405E+00 -1.55226E+00 -6.36851E-01 -1.74598E+00 -1.55302E-01 -1.81056E+00
 +3.15413E-01 -1.74697E+00 +7.42358E-01 -1.56542E+00 +1.09720E+00 -1.28428E+00 +1.35814E+00 -9.28360E-01
 +1.51125E+00 -5.26797E-01 +1.55118E+00 -1.10669E-01 +1.48120E+00 +2.89420E-01 +1.31252E+00 +6.45636E-01
 +1.06306E+00 +9.34893E-01 +7.55760E-01 +1.14038E+00 +4.16579E-01 +1.25252E+00 +7.23022E-02 +1.26933E+00
 -2.51563E-01 +1.19618E+00 -5.32712E-01 +1.04491E+00 -7.53609E-01 +8.32583E-01 -9.02592E-01 +5.79762E-01
 -9.74441E-01 +3.08689E-01 -9.70392E-01 +4.13701E-02 -8.97612E-01 -2.02203E-01 -7.68212E-01 -4.05564E-01
 -5.97894E-01 -5.56901E-01 -4.04377E-01 -6.49726E-01 -2.05729E-01 -6.83050E-01 -1.87735E-02 -6.61065E-01
 +1.42308E-01 -5.92386E-01 +2.67053E-01 -4.88946E-01 +3.49393E-01 -3.64645E-01 +3.87895E-01 -2.33907E-01
 +3.85543E-01 -1.10252E-01 +3.49126E-01 -5.04813E-03 +2.88280E-01 +7.34793E-02 +2.14305E-01 +1.20872E-01
 +1.38870E-01 +1.36663E-01 +7.27345E-02 +1.24194E-01 +2.46132E-02 +9.00429E-02 +2.88587E-04 +4.31420E-02
 +2.05450E-03 -6.32835E-03 +2.85405E-02 -4.81525E-02 +7.49272E-02 -7.32770E-02 +1.33528E-01 -7.48739E-02
 +1.94676E-01 -4.91614E-02 +2.47827E-01 +4.09707E-03 +2.82763E-01 +8.14684E-02 +2.90784E-01 +1.76114E-01
 +2.65762E-01 +2.78417E-01 +2.04955E-01 +3.76922E-01 +1.09484E-01 +4.59486E-01 -1.55567E-02 +5.14545E-01
 -1.61402E-01 +5.32362E-01 -3.16290E-01 +5.06144E-01 -4.66463E-01 +4.32909E-01 -5.97406E-01 +3.14014E-01
 -6.95204E-01 +1.55294E-01 -7.47912E-01 -3.32312E-02 -7.46783E-01 -2.38045E-01 -6.87257E-01 -4.43188E-01
 -5.69607E-01 -6.31569E-01 -3.99167E-01 -7.86442E-01 -1.86113E-01 -8.92902E-01 +5.51902E-02 -9.39277E-01
 +3.07245E-01 -9.18288E-01 +5.50784E-01 -8.27859E-01 +7.66328E-01 -6.71505E-01 +9.35827E-01 -4.58254E-01
 +1.04421E+00 -2.02085E-01 +1.08074E+00 +7.90600E-02 +1.04002E+00 +3.64638E-01 +9.22628E-01 +6.33111E-01
 +7.35170E-01 +8.63674E-01 +4.89929E-01 +1.03797E+00 +2.03978E-01 +1.14160E+00 -1.02097E-01 +1.16541E+00
 -4.05794E-01 +1.10626E+00 -6.84467E-01 +9.67381E-01 -9.17131E-01 +7.58219E-01 -1.08616E+00 +4.93713E-01
 -1.17869E+00 +1.93162E-01 -1.18771E+00 -1.21284E-01 -1.11261E+00 -4.26380E-01 -9.59237E-01 -6.99628E-01
 -7.39418E-01 -9.21065E-01 -4.70022E-01 -1.07484E+00 -1.71566E-01 -1.15046E+00 +1.33444E-01 -1.14357E+00
