 Created: 19-Jan-2021
 $NMID
 ID='D:\BASISSIMULATI'
 FMTDAT='(8E13.5)'
 VOLUME=   1.00000E+00
 TRAMP=   1.00000E+00
 $END
 +2.71132E+01 -5.93679E-01 +2.38075E+01 +1.14567E+01 +1.44210E+01 +1.92452E+01 +2.82832E+00 +2.00400E+01
 -6.26524E+00 +1.40823E+01 -9.34021E+00 +4.45082E+00 -5.55653E+00 -4.29078E+00 +2.91471E+00 -8.07620E+00
 +1.18587E+01 -5.09218E+00 +1.68607E+01 +3.44712E+00 +1.52281E+01 +1.38364E+01 +7.16229E+00 +2.14893E+01
 -4.32173E+00 +2.29249E+01 -1.46879E+01 +1.72727E+01 -1.98237E+01 +6.65199E+00 -1.77973E+01 -4.73559E+00
 -9.67238E+00 -1.24025E+01 +9.64547E-01 -1.34862E+01 +9.55570E+00 -7.95210E+00 +1.25294E+01 +1.42432E+00
 +8.82009E+00 +1.02818E+01 +2.99208E-01 +1.45707E+01 -9.06139E+00 +1.23033E+01 -1.49272E+01 +4.40402E+00
 -1.44866E+01 -5.70094E+00 -7.67138E+00 -1.35727E+01 +2.81016E+00 -1.56802E+01 +1.26358E+01 -1.09243E+01
 +1.77230E+01 -1.11101E+00 +1.59729E+01 +9.82415E+00 +8.15490E+00 +1.75019E+01 -2.44175E+00 +1.89653E+01
 -1.14347E+01 +1.39233E+01 -1.52322E+01 +4.84285E+00 -1.25631E+01 -4.14453E+00 -4.99575E+00 -9.04261E+00
 +3.76872E+00 -7.71842E+00 +9.51852E+00 -8.15329E-01 +9.36421E+00 +8.53698E+00 +2.99262E+00 +1.60840E+01
 -7.19504E+00 +1.82872E+01 -1.71143E+01 +1.38504E+01 -2.27479E+01 +4.27548E+00 -2.18601E+01 -6.78434E+00
 -1.49372E+01 -1.50901E+01 -4.95672E+00 -1.76228E+01 +3.90872E+00 -1.38526E+01 +8.08841E+00 -5.93059E+00
 +6.13608E+00 +2.27231E+00 -6.74355E-01 +6.85644E+00 -8.92932E+00 +5.58330E+00 -1.45742E+01 -1.16345E+00
 -1.46789E+01 -1.05541E+01 -8.70941E+00 -1.85432E+01 +1.23963E+00 -2.16178E+01 +1.13440E+01 -1.83090E+01
 +1.76879E+01 -9.81826E+00 +1.79314E+01 +5.04820E-01 +1.22931E+01 +8.60098E+00 +3.42898E+00 +1.14324E+01
 -4.73016E+00 +8.26108E+00 -8.67695E+00 +9.29530E-01 -6.82672E+00 -6.96875E+00 -1.75866E-01 -1.16633E+01
 +8.15701E+00 -1.08428E+01 +1.43009E+01 -4.64883E+00 +1.53172E+01 +4.39493E+00 +1.04721E+01 +1.24798E+01
 +1.55249E+00 +1.61568E+01 -7.90285E+00 +1.38173E+01 -1.41205E+01 +6.37583E+00 -1.46993E+01 -3.13323E+00
 -9.61797E+00 -1.08628E+01 -1.21524E+00 -1.37967E+01 +6.83947E+00 -1.10205E+01 +1.11346E+01 -4.07963E+00
 +9.97703E+00 +3.72299E+00 +4.09857E+00 +8.77622E+00 -3.68820E+00 +8.72862E+00 -9.72760E+00 +3.49955E+00
 -1.11120E+01 -4.69648E+00 -6.93981E+00 -1.23144E+01 +1.29818E+00 -1.60095E+01 +1.03625E+01 -1.40726E+01
 +1.66546E+01 -7.15397E+00 +1.77491E+01 +2.02892E+00 +1.34108E+01 +9.86492E+00 +5.66514E+00 +1.33931E+01
 -2.09961E+00 +1.15511E+01 -6.60237E+00 +5.59595E+00 -6.07605E+00 -1.47514E+00 -1.00713E+00 -6.24463E+00
 +6.10230E+00 -6.36107E+00 +1.18385E+01 -1.55152E+00 +1.33632E+01 +6.27032E+00 +9.64094E+00 +1.38385E+01
 +1.88214E+00 +1.79447E+01 -6.98111E+00 +1.68124E+01 -1.35531E+01 +1.08473E+01 -1.54194E+01 +2.44656E+00
 -1.21573E+01 -5.04052E+00 -5.48427E+00 -8.74666E+00 +1.51114E+00 -7.49682E+00 +5.71433E+00 -2.27806E+00
 +5.32350E+00 +4.22393E+00 +6.07130E-01 +8.81195E+00 -6.23813E+00 +9.17023E+00 -1.20584E+01 +4.86281E+00
 -1.41161E+01 -2.48753E+00 -1.12722E+01 -9.90764E+00 -4.47161E+00 -1.43567E+01 +3.66995E+00 -1.40267E+01
 +9.98972E+00 -9.10276E+00 +1.21241E+01 -1.66421E+00 +9.49769E+00 +5.22279E+00 +3.53567E+00 +8.82153E+00
 -2.98132E+00 +7.88201E+00 -7.13304E+00 +3.14506E+00 -7.11748E+00 -3.01424E+00 -3.01080E+00 -7.63992E+00
 +3.29056E+00 -8.48438E+00 +8.91032E+00 -4.97718E+00 +1.12453E+01 +1.53848E+00 +9.08832E+00 +8.39456E+00
 +3.14021E+00 +1.27499E+01 -4.30030E+00 +1.28043E+01 -1.03271E+01 +8.55431E+00 -1.26643E+01 +1.77258E+00
 -1.06186E+01 -4.77045E+00 -5.34178E+00 -8.49879E+00 +6.98096E-01 -8.12147E+00 +4.80029E+00 -4.15579E+00
 +5.19679E+00 +1.33275E+00 +1.79924E+00 +5.65078E+00 -3.78713E+00 +6.65393E+00 -8.97814E+00 +3.67161E+00
 -1.13375E+01 -2.21356E+00 -9.62709E+00 -8.64269E+00 -4.33089E+00 -1.29996E+01 +2.56374E+00 -1.35277E+01
 +8.42467E+00 -1.00658E+01 +1.10963E+01 -4.09272E+00 +9.80061E+00 +1.92742E+00 +5.43559E+00 +5.60881E+00
 +1.53701E-01 +5.65539E+00 -3.58835E+00 +2.38794E+00 -4.09272E+00 -2.43066E+00 -1.13949E+00 -6.38587E+00
 +3.94112E+00 -7.46890E+00 +8.86392E+00 -4.94367E+00 +1.13860E+01 +3.45361E-01 +1.02723E+01 +6.34793E+00
 +5.81689E+00 +1.06941E+01 -2.97016E-01 +1.17050E+01 -5.72698E+00 +9.09345E+00 -8.47045E+00 +4.06051E+00
 -7.70123E+00 -1.24283E+00 -4.08900E+00 -4.64844E+00 +5.25219E-01 -4.89208E+00 +3.94720E+00 -2.12939E+00
 +4.58203E+00 +2.16626E+00 +2.11095E+00 +5.86899E+00 -2.39225E+00 +7.13338E+00 -6.94497E+00 +5.19096E+00
 -9.52185E+00 +6.71360E-01 -8.92561E+00 -4.68075E+00 -5.29001E+00 -8.76129E+00 -6.70219E-03 -1.00034E+01
 +4.88247E+00 -8.02974E+00 +7.55792E+00 -3.78606E+00 +7.18224E+00 +8.89797E-01 +4.22554E+00 +4.06906E+00
 +2.26546E-01 +4.55310E+00 -2.89663E+00 +2.36365E+00 -3.68182E+00 -1.30023E+00 -1.74404E+00 -4.60852E+00
 +2.07848E+00 -5.90576E+00 +6.10609E+00 -4.42549E+00 +8.55298E+00 -6.10071E-01 +8.29437E+00 +4.09284E+00
 +5.33708E+00 +7.85929E+00 +7.99014E-01 +9.26602E+00 -3.58330E+00 +7.88096E+00 -6.19836E+00 +4.41960E+00
 -6.23223E+00 +4.10796E-01 -3.98485E+00 -2.47403E+00 -7.04362E-01 -3.13401E+00 +1.97808E+00 -1.48936E+00
 +2.76176E+00 +1.51644E+00 +1.22975E+00 +4.35239E+00 -1.99013E+00 +5.57665E+00 -5.51591E+00 +4.45904E+00
 -7.81828E+00 +1.28484E+00 -7.87689E+00 -2.78194E+00 -5.60500E+00 -6.20666E+00 -1.86730E+00 -7.73751E+00
 +1.90590E+00 -6.92247E+00 +4.33340E+00 -4.27364E+00 +4.65880E+00 -1.01862E+00 +3.04370E+00 +1.44318E+00
 +4.61850E-01 +2.13963E+00 -1.74863E+00 +9.23546E-01 -2.47396E+00 -1.49421E+00 -1.29911E+00 -3.87940E+00
 +1.33095E+00 -5.02296E+00 +4.32243E+00 -4.26304E+00 +6.41528E+00 -1.75888E+00 +6.72316E+00 +1.59278E+00
 +5.09961E+00 +4.55207E+00 +2.17989E+00 +6.06412E+00 -9.08605E-01 +5.69206E+00 -3.03354E+00 +3.77464E+00
 -3.52908E+00 +1.25098E+00 -2.45202E+00 -7.61309E-01 -5.22064E-01 -1.44663E+00 +1.21684E+00 -6.24263E-01
 +1.85946E+00 +1.20221E+00 +1.02509E+00 +3.08921E+00 -9.95102E-01 +4.07609E+00 -3.38268E+00 +3.59994E+00
 -5.15596E+00 +1.72634E+00 -5.59027E+00 -8.95051E-01 -4.51407E+00 -3.32017E+00 -2.36033E+00 -4.71305E+00
 +3.81210E-02 -4.68601E+00 +1.81178E+00 -3.43648E+00 +2.41555E+00 -1.63183E+00 +1.83515E+00 -1.02668E-01
 +5.59194E-01 +5.16449E-01 -6.59786E-01 +4.43622E-02 -1.14354E+00 -1.19524E+00 -5.77118E-01 -2.53960E+00
 +8.71284E-01 -3.28851E+00 +2.64179E+00 -3.00682E+00 +4.03575E+00 -1.69978E+00 +4.51455E+00 +2.06406E-01
 +3.91553E+00 +2.05968E+00 +2.49873E+00 +3.26080E+00 +8.14845E-01 +3.50324E+00 -5.39084E-01 +2.87592E+00
 -1.16618E+00 +1.79442E+00 -1.01480E+00 +8.01298E-01 -3.68129E-01 +3.28620E-01 +3.05891E-01 +5.25534E-01
 +5.70681E-01 +1.21875E+00 +2.06842E-01 +2.01245E+00 -7.08476E-01 +2.47456E+00 -1.85364E+00 +2.32367E+00
 -2.81325E+00 +1.53788E+00 -3.25552E+00 +3.46129E-01 -3.05944E+00 -8.83554E-01 -2.34311E+00 -1.80246E+00
 -1.39126E+00 -2.21519E+00 -5.23102E-01 -2.13572E+00 +3.73825E-02 -1.75110E+00 +2.34574E-01 -1.31910E+00
 +1.74337E-01 -1.05153E+00 +5.09937E-02 -1.03451E+00 +4.88569E-02 -1.21433E+00 +2.64401E-01 -1.44471E+00
 +6.79259E-01 -1.56521E+00 +1.18691E+00 -1.47116E+00 +1.65126E+00 -1.14615E+00 +1.96463E+00 -6.50309E-01
 +2.07901E+00 -7.95873E-02 +2.00291E+00 +4.77546E-01 +1.77493E+00 +9.64231E-01 +1.43552E+00 +1.35330E+00
 +1.01459E+00 +1.62927E+00 +5.39407E-01 +1.77264E+00 +5.16821E-02 +1.76113E+00 -3.83904E-01 +1.58888E+00
 -6.92822E-01 +1.29018E+00 -8.23845E-01 +9.47850E-01 -7.85180E-01 +6.72575E-01 -6.59723E-01 +5.56213E-01
 -5.82715E-01 +6.19625E-01 -6.83933E-01 +7.84302E-01 -1.01771E+00 +8.90006E-01 -1.51601E+00 +7.59634E-01
 -1.99433E+00 +2.87139E-01 -2.21774E+00 -4.92351E-01 -2.00468E+00 -1.38897E+00 -1.32330E+00 -2.11738E+00
 -3.32016E-01 -2.41133E+00 +6.63450E-01 -2.14632E+00 +1.32715E+00 -1.41279E+00 +1.43831E+00 -4.99403E-01
 +1.00002E+00 +2.16575E-01 +2.56782E-01 +4.30539E-01 -3.96772E-01 +5.41466E-02 -5.84141E-01 -7.26926E-01
 -1.21909E-01 -1.51557E+00 +8.78491E-01 -1.86813E+00 +2.03511E+00 -1.49468E+00 +2.84520E+00 -4.06173E-01
 +2.90216E+00 +1.06299E+00 +2.08629E+00 +2.37669E+00 +6.41053E-01 +3.01890E+00 -9.07733E-01 +2.72244E+00
 -1.96418E+00 +1.60229E+00 -2.11938E+00 +1.27299E-01 -1.34075E+00 -1.06715E+00 -4.92388E-03 -1.45128E+00
 +1.24963E+00 -8.41048E-01 +1.79458E+00 +5.02794E-01 +1.29359E+00 +1.96869E+00 -1.31223E-01 +2.84965E+00
 -1.92834E+00 +2.65452E+00 -3.33871E+00 +1.33945E+00 -3.72109E+00 -6.47639E-01 -2.84159E+00 -2.53829E+00
 -9.96971E-01 -3.56490E+00 +1.09050E+00 -3.29673E+00 +2.57041E+00 -1.84233E+00 +2.83064E+00 +1.76739E-01
 +1.77390E+00 +1.87918E+00 -1.21551E-01 +2.50148E+00 -1.99229E+00 +1.73810E+00 -2.95718E+00 -1.07396E-01
 -2.50629E+00 -2.23407E+00 -7.40734E-01 -3.67890E+00 +1.64806E+00 -3.73603E+00 +3.65986E+00 -2.27816E+00
 +4.41336E+00 +1.64915E-01 +3.53693E+00 +2.61378E+00 +1.34923E+00 +4.05152E+00 -1.25680E+00 +3.86620E+00
 -3.18531E+00 +2.13025E+00 -3.60959E+00 -4.10969E-01 -2.34056E+00 -2.64579E+00 +7.29843E-02 -3.57235E+00
 +2.56450E+00 -2.74053E+00 +4.00311E+00 -4.64872E-01 +3.68825E+00 +2.29158E+00 +1.66970E+00 +4.32106E+00
 -1.25194E+00 +4.69347E+00 -3.85380E+00 +3.17196E+00 -5.01312E+00 +3.36485E-01 -4.20013E+00 -2.64648E+00
 -1.72489E+00 -4.51677E+00 +1.37640E+00 -4.46713E+00 +3.77513E+00 -2.50582E+00 +4.42228E+00 +5.27887E-01
 +3.01228E+00 +3.31064E+00 +1.33214E-01 +4.60156E+00 -2.96968E+00 +3.78606E+00 -4.92297E+00 +1.15868E+00
 -4.82210E+00 -2.18446E+00 -2.63732E+00 -4.80575E+00 +7.53059E-01 -5.54552E+00 +3.92492E+00 -4.03406E+00
 +5.51668E+00 -8.70221E-01 +4.82340E+00 +2.61841E+00 +2.11729E+00 +4.93816E+00 -1.45102E+00 +5.07594E+00
 -4.33599E+00 +2.94971E+00 -5.26254E+00 -5.37741E-01 -3.78659E+00 -3.87295E+00 -5.04665E-01 -5.57942E+00
 +3.18590E+00 -4.86159E+00 +5.68007E+00 -1.96455E+00 +5.85996E+00 +1.91267E+00 +3.59043E+00 +5.12078E+00
 -2.03929E-01 +6.26917E+00 -3.92169E+00 +4.83503E+00 -5.96882E+00 +1.40573E+00 -5.45162E+00 -2.55771E+00
 -2.57688E+00 -5.34130E+00 +1.41994E+00 -5.71935E+00 +4.79539E+00 -3.49587E+00 +6.04836E+00 +3.93118E-01
 +4.57745E+00 +4.26798E+00 +9.57833E-01 +6.42371E+00 -3.28907E+00 +5.87095E+00 -6.34096E+00 +2.77777E+00
