 Created: 19-Jan-2021
 $NMID
 ID='D:\BASISSIMULATI'
 FMTDAT='(8E13.5)'
 VOLUME=   1.00000E+00
 TRAMP=   1.00000E+00
 $END
 +3.93136E+01 +2.86504E+00 +3.62374E+01 -9.37259E+00 +2.53910E+01 -1.81165E+01 +9.91743E+00 -2.02022E+01
 -5.77181E+00 -1.45980E+01 -1.73509E+01 -2.71659E+00 -2.18828E+01 +1.20428E+01 -1.86666E+01 +2.53683E+01
 -9.37249E+00 +3.33752E+01 +2.55758E+00 +3.37872E+01 +1.30372E+01 +2.65940E+01 +1.86209E+01 +1.39940E+01
 +1.75412E+01 -3.36906E-01 +1.01843E+01 -1.23991E+01 -1.12185E+00 -1.90722E+01 -1.29088E+01 -1.89929E+01
 -2.16812E+01 -1.28540E+01 -2.49809E+01 -3.06242E+00 -2.20749E+01 +7.09782E+00 -1.40767E+01 +1.45116E+01
 -3.50032E+00 +1.71493E+01 +6.57657E+00 +1.45833E+01 +1.34548E+01 +7.97666E+00 +1.55649E+01 -4.09008E-01
 +1.28148E+01 -7.99118E+00 +6.46589E+00 -1.26654E+01 -1.37632E+00 -1.33781E+01 -8.46172E+00 -1.03219E+01
 -1.30499E+01 -4.73765E+00 -1.43273E+01 +1.56905E+00 -1.24939E+01 +6.81178E+00 -8.54095E+00 +9.71649E+00
 -3.83749E+00 +9.78866E+00 +3.15694E-01 +7.31177E+00 +3.02280E+00 +3.12743E+00 +3.93982E+00 -1.69172E+00
 +3.22991E+00 -6.15249E+00 +1.39024E+00 -9.54439E+00 -9.57512E-01 -1.15040E+01 -3.23248E+00 -1.19675E+01
 -4.97621E+00 -1.10737E+01 -5.85982E+00 -9.07908E+00 -5.65981E+00 -6.32089E+00 -4.25130E+00 -3.22016E+00
 -1.64464E+00 -2.87341E-01 +1.94629E+00 +1.91520E+00 +6.04876E+00 +2.87793E+00 +9.94416E+00 +2.30101E+00
 +1.27848E+01 +2.48612E-01 +1.38073E+01 -2.77228E+00 +1.25854E+01 -5.86845E+00 +9.23310E+00 -7.96795E+00
 +4.46810E+00 -8.13487E+00 -5.16744E-01 -5.89592E+00 -4.36090E+00 -1.46290E+00 -5.94139E+00 +4.24369E+00
 -4.74789E+00 +9.80448E+00 -1.09576E+00 +1.36991E+01 +3.91130E+00 +1.47758E+01 +8.67788E+00 +1.26409E+01
 +1.15933E+01 +7.83149E+00 +1.15416E+01 +1.70007E+00 +8.27830E+00 -3.96781E+00 +2.54499E+00 -7.49087E+00
 -4.12779E+00 -7.81546E+00 -9.87454E+00 -4.85520E+00 -1.30664E+01 +4.67673E-01 -1.28187E+01 +6.49813E+00
 -9.27060E+00 +1.13572E+01 -3.54569E+00 +1.35230E+01 +2.59410E+00 +1.22991E+01 +7.29138E+00 +8.02202E+00
 +9.15912E+00 +1.94476E+00 +7.69127E+00 -4.16176E+00 +3.39266E+00 -8.55926E+00 -2.40510E+00 -1.00677E+01
 -7.97431E+00 -8.40301E+00 -1.17256E+01 -4.22917E+00 -1.26763E+01 +1.08048E+00 -1.07110E+01 +5.88443E+00
 -6.56654E+00 +8.77117E+00 -1.56138E+00 +8.95858E+00 +2.83060E+00 +6.47985E+00 +5.42140E+00 +2.11528E+00
 +5.63134E+00 -2.88930E+00 +3.60593E+00 -7.21453E+00 +1.11875E-01 -9.84326E+00 -3.73478E+00 -1.03109E+01
 -6.81045E+00 -8.77181E+00 -8.28859E+00 -5.88454E+00 -7.82532E+00 -2.57396E+00 -5.59123E+00 +2.45683E-01
 -2.16480E+00 +1.90360E+00 +1.66005E+00 +2.10587E+00 +5.08601E+00 +9.53357E-01 +7.48714E+00 -1.13656E+00
 +8.51371E+00 -3.56386E+00 +8.12213E+00 -5.69226E+00 +6.54457E+00 -6.97599E+00 +4.22029E+00 -7.05212E+00
 +1.70711E+00 -5.79645E+00 -4.17184E-01 -3.34588E+00 -1.65850E+00 -8.70233E-02 -1.70840E+00 +3.39435E+00
 -5.28951E-01 +6.40890E+00 +1.60416E+00 +8.30148E+00 +4.12640E+00 +8.61120E+00 +6.29215E+00 +7.21576E+00
 +7.35667E+00 +4.41179E+00 +6.79349E+00 +8.89981E-01 +4.48515E+00 -2.41109E+00 +8.19000E-01 -4.54938E+00
 -3.36116E+00 -4.85975E+00 -6.95577E+00 -3.18399E+00 -8.91893E+00 +3.29558E-02 -8.58875E+00 +3.82977E+00
 -5.93139E+00 +6.99168E+00 -1.60794E+00 +8.42096E+00 +3.17650E+00 +7.50212E+00 +7.01184E+00 +4.33917E+00
 +8.71385E+00 -2.25435E-01 +7.71129E+00 -4.83380E+00 +4.25769E+00 -8.02097E+00 -6.13615E-01 -8.68502E+00
 -5.39131E+00 -6.46585E+00 -8.55825E+00 -1.90151E+00 -9.08546E+00 +3.70196E+00 -6.78446E+00 +8.65770E+00
 -2.39499E+00 +1.14252E+01 +2.63109E+00 +1.11081E+01 +6.58837E+00 +7.75772E+00 +8.07386E+00 +2.37484E+00
 +6.45824E+00 -3.39791E+00 +2.11352E+00 -7.79913E+00 -3.68434E+00 -9.51815E+00 -9.15207E+00 -8.12348E+00
 -1.25690E+01 -4.20616E+00 -1.28344E+01 +8.12776E-01 -9.82706E+00 +5.14990E+00 -4.44844E+00 +7.24910E+00
 +1.66885E+00 +6.29827E+00 +6.69008E+00 +2.50117E+00 +9.17152E+00 -2.98591E+00 +8.52137E+00 -8.43191E+00
 +5.17730E+00 -1.20972E+01 +4.44023E-01 -1.28005E+01 -3.95202E+00 -1.02982E+01 -6.44029E+00 -5.35468E+00
 -6.12326E+00 +5.19068E-01 -3.06251E+00 +5.56458E+00 +1.75686E+00 +8.34673E+00 +6.76623E+00 +8.20583E+00
 +1.03391E+01 +5.44504E+00 +1.13248E+01 +1.19771E+00 +9.41344E+00 -2.97313E+00 +5.21635E+00 -5.60349E+00
 +4.29338E-02 -5.80671E+00 -4.54317E+00 -3.54500E+00 -7.23532E+00 +3.88604E-01 -7.39182E+00 +4.66173E+00
 -5.21024E+00 +7.86097E+00 -1.62025E+00 +8.95889E+00 +2.05779E+00 +7.63511E+00 +4.56501E+00 +4.35138E+00
 +5.11258E+00 +1.67130E-01 +3.61371E+00 -3.63142E+00 +6.71448E-01 -5.95659E+00 -2.66023E+00 -6.25599E+00
 -5.25037E+00 -4.65420E+00 -6.26778E+00 -1.86446E+00 -5.43552E+00 +1.08638E+00 -3.08615E+00 +3.21618E+00
 -1.25633E-02 +3.90454E+00 +2.82181E+00 +3.06599E+00 +4.60702E+00 +1.13237E+00 +4.93407E+00 -1.13527E+00
 +3.88936E+00 -2.92845E+00 +1.97719E+00 -3.66425E+00 -8.87458E-02 -3.15830E+00 -1.64252E+00 -1.64805E+00
 -2.28010E+00 +3.27777E-01 -1.96160E+00 +2.13864E+00 -9.77999E-01 +3.27983E+00 +1.91893E-01 +3.52253E+00
 +1.07224E+00 +2.95150E+00 +1.35620E+00 +1.88994E+00 +9.90861E-01 +7.51394E-01 +1.59891E-01 -1.19056E-01
 -8.17318E-01 -5.55133E-01 -1.62245E+00 -5.96089E-01 -2.05480E+00 -4.30313E-01 -2.08493E+00 -2.88141E-01
 -1.83204E+00 -3.32929E-01 -1.48298E+00 -5.95438E-01 -1.19348E+00 -9.74972E-01 -1.01592E+00 -1.30110E+00
 -8.83939E-01 -1.42444E+00 -6.58125E-01 -1.29413E+00 -2.09714E-01 -9.86679E-01 +4.96779E-01 -6.73004E-01
 +1.36103E+00 -5.37690E-01 +2.16640E+00 -6.85670E-01 +2.65691E+00 -1.07818E+00 +2.64200E+00 -1.52877E+00
 +2.08598E+00 -1.76593E+00 +1.14288E+00 -1.54108E+00 +1.17699E-01 -7.40452E-01 -6.36386E-01 +5.44910E-01
 -8.48823E-01 +2.02299E+00 -4.41506E-01 +3.28332E+00 +4.26355E-01 +3.93269E+00 +1.39975E+00 +3.73666E+00
 +2.04573E+00 +2.71457E+00 +2.00839E+00 +1.15021E+00 +1.14622E+00 -4.90215E-01 -3.99041E-01 -1.70831E+00
 -2.23028E+00 -2.14137E+00 -3.81415E+00 -1.68962E+00 -4.65348E+00 -5.56927E-01 -4.45498E+00 +8.11804E-01
 -3.23453E+00 +1.87749E+00 -1.32224E+00 +2.18962E+00 +7.36478E-01 +1.54308E+00 +2.35245E+00 +5.54558E-02
 +3.08060E+00 -1.86243E+00 +2.76206E+00 -3.63415E+00 +1.57346E+00 -4.70190E+00 -3.26049E-02 -4.70675E+00
 -1.47605E+00 -3.60597E+00 -2.23772E+00 -1.68948E+00 -2.02641E+00 +5.09397E-01 -8.70979E-01 +2.37918E+00
 +8.90815E-01 +3.41794E+00 +2.72120E+00 +3.38389E+00 +4.05259E+00 +2.36249E+00 +4.46413E+00 +7.31393E-01
 +3.80950E+00 -9.62751E-01 +2.25781E+00 -2.17498E+00 +2.37903E-01 -2.52617E+00 -1.69366E+00 -1.91134E+00
 -3.01830E+00 -5.21758E-01 -3.40421E+00 +1.22174E+00 -2.79517E+00 +2.80026E+00 -1.41644E+00 +3.75153E+00
 +2.99757E-01 +3.80160E+00 +1.84361E+00 +2.93718E+00 +2.77267E+00 +1.40118E+00 +2.83116E+00 -3.82918E-01
 +2.01258E+00 -1.93319E+00 +5.51953E-01 -2.84212E+00 -1.14616E+00 -2.88407E+00 -2.62135E+00 -2.07051E+00
 -3.48105E+00 -6.41149E-01 -3.50228E+00 +1.00375E+00 -2.68648E+00 +2.41039E+00 -1.25571E+00 +3.18987E+00
 +4.07353E-01 +3.11839E+00 +1.85959E+00 +2.19496E+00 +2.71275E+00 +6.42829E-01 +2.73543E+00 -1.14573E+00
 +1.91616E+00 -2.70848E+00 +4.71061E-01 -3.63218E+00 -1.20777E+00 -3.66215E+00 -2.65206E+00 -2.77408E+00
 -3.44163E+00 -1.18773E+00 -3.32132E+00 +6.83950E-01 -2.27877E+00 +2.34002E+00 -5.59406E-01 +3.32558E+00
 +1.38942E+00 +3.35922E+00 +3.03380E+00 +2.41792E+00 +3.89930E+00 +7.52870E-01 +3.70783E+00 -1.17210E+00
 +2.46539E+00 -2.80609E+00 +4.72738E-01 -3.66742E+00 -1.74820E+00 -3.48651E+00 -3.59486E+00 -2.29258E+00
 -4.55312E+00 -4.15863E-01 -4.34653E+00 +1.59885E+00 -3.02078E+00 +3.14531E+00 -9.36560E-01 +3.73228E+00
 +1.32993E+00 +3.13170E+00 +3.15130E+00 +1.45357E+00 +4.03084E+00 -8.76586E-01 +3.74813E+00 -3.23313E+00
 +2.42467E+00 -4.96609E+00 +4.89281E-01 -5.58625E+00 -1.44723E+00 -4.90533E+00 -2.77128E+00 -3.08988E+00
 -3.04685E+00 -6.13456E-01 -2.14398E+00 +1.87874E+00 -2.78056E-01 +3.75249E+00 +2.05069E+00 +4.56132E+00
 +4.19881E+00 +4.16672E+00 +5.56067E+00 +2.76863E+00 +5.73655E+00 +8.39992E-01 +4.64089E+00 -1.01360E+00
 +2.52211E+00 -2.22736E+00 -1.09010E-01 -2.43444E+00 -2.61947E+00 -1.56391E+00 -4.42274E+00 +1.45032E-01
 -5.12954E+00 +2.21338E+00 -4.64202E+00 +4.05516E+00 -3.16896E+00 +5.13544E+00 -1.16169E+00 +5.11151E+00
 +8.09702E-01 +3.92172E+00 +2.20637E+00 +1.80129E+00 +2.65872E+00 -7.76684E-01 +2.05882E+00 -3.21873E+00
 +5.85897E-01 -4.95745E+00 -1.34036E+00 -5.59152E+00 -3.16675E+00 -4.98583E+00 -4.34852E+00 -3.30780E+00
 -4.49226E+00 -9.90181E-01 -3.46510E+00 +1.37256E+00 -1.44179E+00 +3.17138E+00 +1.12512E+00 +3.93888E+00
 +3.60912E+00 +3.47577E+00 +5.36564E+00 +1.91345E+00 +5.90318E+00 -3.08182E-01 +5.02483E+00 -2.54751E+00
 +2.89988E+00 -4.13020E+00 +3.96145E-02 -4.53826E+00 -2.82347E+00 -3.56762E+00 -4.92685E+00 -1.40672E+00
 -5.69036E+00 +1.39304E+00 -4.88994E+00 +4.05479E+00 -2.73891E+00 +5.78956E+00 +1.53818E-01 +6.02772E+00
 +2.94463E+00 +4.60051E+00 +4.79478E+00 +1.81353E+00 +5.12115E+00 -1.61738E+00 +3.78256E+00 -4.75693E+00
 +1.14103E+00 -6.71737E+00 -2.02759E+00 -6.92414E+00 -4.75379E+00 -5.29849E+00 -6.16345E+00 -2.29714E+00
 -5.74934E+00 +1.20978E+00 -3.53995E+00 +4.19116E+00 -1.09003E-01 +5.76415E+00 +3.58272E+00 +5.46617E+00
 +6.46958E+00 +3.40368E+00 +7.70270E+00 +2.28146E-01 +6.91168E+00 -3.05735E+00 +4.32350E+00 -5.40393E+00
 +6.98868E-01 -6.04129E+00 -2.89677E+00 -4.71926E+00 -5.41764E+00 -1.78991E+00 -6.15694E+00 +1.89696E+00
 -4.96096E+00 +5.25322E+00 -2.27105E+00 +7.28584E+00 +1.01938E+00 +7.39989E+00 +3.84696E+00 +5.57648E+00
 +5.31002E+00 +2.37103E+00 +4.94530E+00 -1.26564E+00 +2.86385E+00 -4.28458E+00 -2.93857E-01 -5.85961E+00
 -3.56591E+00 -5.63092E+00 -5.97091E+00 -3.79758E+00 -6.80728E+00 -1.03444E+00 -5.85657E+00 +1.73466E+00
 -3.43125E+00 +3.63134E+00 -2.58107E-01 +4.09039E+00 +2.75901E+00 +3.01841E+00 +4.81792E+00 +7.99347E-01
 +5.44973E+00 -1.84686E+00 +4.63471E+00 -4.10045E+00 +2.77395E+00 -5.29406E+00 +5.35733E-01 -5.10220E+00
 -1.36687E+00 -3.61416E+00 -2.39311E+00 -1.27721E+00 -2.32012E+00 +1.26183E+00 -1.27893E+00 +3.35895E+00
 +3.19506E-01 +4.55382E+00 +1.93382E+00 +4.67669E+00 +3.06361E+00 +3.85811E+00 +3.38810E+00 +2.45107E+00
