 Created: 19-Jan-2021
 $NMID
 ID='D:\BASISSIMULATI'
 FMTDAT='(8E13.5)'
 VOLUME=   1.00000E+00
 TRAMP=   1.00000E+00
 $END
 +3.66016E+01 +1.92020E+00 +3.44783E+01 -3.43898E+00 +2.70637E+01 -7.35956E+00 +1.58414E+01 -8.41776E+00
 +3.01630E+00 -5.94924E+00 -8.96764E+00 -2.26025E-01 -1.79507E+01 +7.59665E+00 -2.25042E+01 +1.57503E+01
 -2.22022E+01 +2.22747E+01 -1.76603E+01 +2.54889E+01 -1.03420E+01 +2.44010E+01 -2.18344E+00 +1.89569E+01
 +4.86980E+00 +1.00721E+01 +9.30416E+00 -5.61231E-01 +1.03562E+01 -1.08461E+01 +8.13844E+00 -1.87422E+01
 +3.55219E+00 -2.27123E+01 -1.98293E+00 -2.20493E+01 -6.90971E+00 -1.70138E+01 -9.92850E+00 -8.75485E+00
 -1.03106E+01 +9.62185E-01 -8.05756E+00 +1.01526E+01 -3.87302E+00 +1.70403E+01 +1.03815E+00 +2.04196E+01
 +5.28900E+00 +1.98721E+01 +7.66547E+00 +1.57986E+01 +7.42942E+00 +9.26853E+00 +4.49779E+00 +1.73375E+00
 -5.41942E-01 -5.31927E+00 -6.57822E+00 -1.06944E+01 -1.22434E+01 -1.37139E+01 -1.62351E+01 -1.43049E+01
 -1.76116E+01 -1.29341E+01 -1.59944E+01 -1.04219E+01 -1.16325E+01 -7.69007E+00 -5.32127E+00 -5.51217E+00
 +1.79637E+00 -4.32989E+00 +8.49449E+00 -4.17565E+00 +1.37266E+01 -4.71334E+00 +1.68255E+01 -5.37663E+00
 +1.75990E+01 -5.56063E+00 +1.63080E+01 -4.81128E+00 +1.35436E+01 -2.96092E+00 +1.00449E+01 -1.75973E-01
 +6.50774E+00 +3.09177E+00 +3.43577E+00 +6.23223E+00 +1.06616E+00 +8.64387E+00 -6.18809E-01 +9.89265E+00
 -1.80871E+00 +9.81962E+00 -2.74347E+00 +8.56979E+00 -3.59517E+00 +6.53747E+00 -4.39090E+00 +4.24706E+00
 -4.99976E+00 +2.20535E+00 -5.18610E+00 +7.68206E-01 -4.71004E+00 +5.91332E-02 -3.44141E+00 -3.87827E-02
 -1.44820E+00 +1.82156E-01 +9.72275E-01 +3.70751E-01 +3.33461E+00 +2.48249E-01 +5.07275E+00 -2.86410E-01
 +5.68671E+00 -1.11080E+00 +4.88822E+00 -1.90870E+00 +2.70298E+00 -2.26889E+00 -5.03453E-01 -1.82567E+00
 -4.08931E+00 -3.99930E-01 -7.27883E+00 +1.90278E+00 -9.34979E+00 +4.67057E+00 -9.81904E+00 +7.25354E+00
 -8.57631E+00 +8.91049E+00 -5.92841E+00 +8.99989E+00 -2.53738E+00 +7.16585E+00 +7.36218E-01 +3.46808E+00
 +3.04852E+00 -1.58364E+00 +3.79258E+00 -7.10732E+00 +2.76683E+00 -1.20270E+01 +2.45892E-01 -1.53129E+01
 -3.06876E+00 -1.62268E+01 -6.21063E+00 -1.45119E+01 -8.18589E+00 -1.04767E+01 -8.22958E+00 -4.94745E+00
 -6.01594E+00 +9.04288E-01 -1.76822E+00 +5.82356E+00 +3.76393E+00 +8.76152E+00 +9.45865E+00 +9.12432E+00
 +1.40746E+01 +6.92013E+00 +1.65431E+01 +2.76620E+00 +1.62305E+01 -2.24895E+00 +1.31038E+01 -6.81803E+00
 +7.75999E+00 -9.72401E+00 +1.30456E+00 -1.01325E+01 -4.89161E+00 -7.79742E+00 -9.50393E+00 -3.12945E+00
 -1.15602E+01 +2.89062E+00 -1.06688E+01 +8.93486E+00 -7.11345E+00 +1.36358E+01 -1.79096E+00 +1.59066E+01
 +3.99447E+00 +1.51973E+01 +8.83379E+00 +1.16277E+01 +1.15409E+01 +5.96344E+00 +1.14292E+01 -5.57884E-01
 +8.47168E+00 -6.51110E+00 +3.30730E+00 -1.06103E+01 -2.90833E+00 -1.20019E+01 -8.77179E+00 -1.04562E+01
 -1.29574E+01 -6.41215E+00 -1.45231E+01 -8.67300E-01 -1.31256E+01 +4.85985E+00 -9.09505E+00 +9.43846E+00
 -3.35460E+00 +1.18316E+01 +2.79628E+00 +1.15284E+01 +7.98149E+00 +8.65049E+00 +1.10611E+01 +3.90816E+00
 +1.13848E+01 -1.57837E+00 +8.92910E+00 -6.54944E+00 +4.28856E+00 -9.90237E+00 -1.47214E+00 -1.09440E+01
 -7.06896E+00 -9.54169E+00 -1.12911E+01 -6.13897E+00 -1.32671E+01 -1.63714E+00 -1.26451E+01 +2.82756E+00
 -9.64834E+00 +6.15561E+00 -4.99867E+00 +7.54021E+00 +2.69186E-01 +6.64865E+00 +5.05509E+00 +3.68895E+00
 +8.44288E+00 -6.50017E-01 +9.89406E+00 -5.36721E+00 +9.34374E+00 -9.38421E+00 +7.18160E+00 -1.17900E+01
 +4.12836E+00 -1.20393E+01 +1.04251E+00 -1.00610E+01 -1.29352E+00 -6.25630E+00 -2.35602E+00 -1.39180E+00
 -1.98979E+00 +3.58288E+00 -4.22980E-01 +7.74739E+00 +1.81144E+00 +1.04035E+01 +4.02388E+00 +1.12061E+01
 +5.54665E+00 +1.02070E+01 +5.89867E+00 +7.80797E+00 +4.89748E+00 +4.64088E+00 +2.69458E+00 +1.40760E+00
 -2.70342E-01 -1.27921E+00 -3.38108E+00 -3.01844E+00 -5.99273E+00 -3.68056E+00 -7.57878E+00 -3.39740E+00
 -7.84319E+00 -2.49124E+00 -6.77372E+00 -1.36656E+00 -4.62815E+00 -3.95039E-01 -1.86139E+00 +1.76797E-01
 +9.84906E-01 +2.76111E-01 +3.40199E+00 +2.87895E-04 +5.01445E+00 -4.32688E-01 +5.64048E+00 -7.62732E-01
 +5.30248E+00 -7.71591E-01 +4.19141E+00 -3.49142E-01 +2.59927E+00 +4.74659E-01 +8.40274E-01 +1.53864E+00
 -8.18457E-01 +2.59530E+00 -2.20074E+00 +3.37762E+00 -3.23254E+00 +3.66884E+00 -3.92307E+00 +3.35669E+00
 -4.32648E+00 +2.45858E+00 -4.49897E+00 +1.11321E+00 -4.46610E+00 -4.57262E-01 -4.21028E+00 -2.00233E+00
 -3.68150E+00 -3.30018E+00 -2.82640E+00 -4.20142E+00 -1.62510E+00 -4.64954E+00 -1.22540E-01 -4.67492E+00
 +1.55714E+00 -4.36697E+00 +3.21979E+00 -3.83502E+00 +4.63354E+00 -3.17072E+00 +5.57665E+00 -2.42363E+00
 +5.88871E+00 -1.59699E+00 +5.51125E+00 -6.63816E-01 +4.50629E+00 +4.02738E-01 +3.04729E+00 +1.59558E+00
 +1.38358E+00 +2.84854E+00 -2.12992E-01 +4.02961E+00 -1.50613E+00 +4.95708E+00 -2.34344E+00 +5.43624E+00
 -2.68312E+00 +5.30806E+00 -2.59265E+00 +4.49696E+00 -2.22075E+00 +3.04443E+00 -1.75032E+00 +1.11774E+00
 -1.34553E+00 -1.01055E+00 -1.10698E+00 -3.00961E+00 -1.04691E+00 -4.55404E+00 -1.09083E+00 -5.38995E+00
 -1.10473E+00 -5.38804E+00 -9.40276E-01 -4.57095E+00 -4.85567E-01 -3.10825E+00 +2.92678E-01 -1.28008E+00
 +1.32730E+00 +5.82404E-01 +2.45591E+00 +2.16583E+00 +3.45274E+00 +3.23701E+00 +4.07980E+00 +3.68496E+00
 +4.14500E+00 +3.53381E+00 +3.55263E+00 +2.92475E+00 +2.33374E+00 +2.07286E+00 +6.48193E-01 +1.21001E+00
 -1.24263E+00 +5.28282E-01 -3.02664E+00 +1.37347E-01 -4.40390E+00 +4.53087E-02 -5.14735E+00 +1.66529E-01
 -5.14771E+00 +3.53073E-01 -4.43292E+00 +4.40807E-01 -3.15837E+00 +2.97946E-01 -1.57084E+00 -1.36315E-01
 +4.48638E-02 -8.32539E-01 +1.42437E+00 -1.67551E+00 +2.37416E+00 -2.49082E+00 +2.80364E+00 -3.08668E+00
 +2.73286E+00 -3.30048E+00 +2.27603E+00 -3.03882E+00 +1.60625E+00 -2.30174E+00 +9.10602E-01 -1.18568E+00
 +3.46716E-01 +1.35018E-01 +1.01822E-02 +1.44348E+00 -8.04520E-02 +2.52410E+00 +2.08164E-02 +3.20504E+00
 +2.08870E-01 +3.39031E+00 +3.59569E-01 +3.07507E+00 +3.64300E-01 +2.34184E+00 +1.58784E-01 +1.33958E+00
 -2.60159E-01 +2.50807E-01 -8.33060E-01 -7.45327E-01 -1.45104E+00 -1.50652E+00 -1.98023E+00 -1.95064E+00
 -2.29148E+00 -2.06501E+00 -2.28893E+00 -1.90094E+00 -1.93130E+00 -1.55584E+00 -1.24195E+00 -1.14741E+00
 -3.05971E-01 -7.85853E-01 +7.44672E-01 -5.49786E-01 +1.75478E+00 -4.70525E-01 +2.57368E+00 -5.27492E-01
 +3.08179E+00 -6.55212E-01 +3.21132E+00 -7.60149E-01 +2.95728E+00 -7.43852E-01 +2.37709E+00 -5.27736E-01
 +1.57874E+00 -7.45095E-02 +6.99948E-01 +5.98207E-01 -1.18217E-01 +1.41520E+00 -7.58071E-01 +2.25313E+00
 -1.14741E+00 +2.96115E+00 -1.27239E+00 +3.38934E+00 -1.17832E+00 +3.41983E+00 -9.57526E-01 +2.99454E+00
 -7.26471E-01 +2.13343E+00 -5.96315E-01 +9.38478E-01 -6.43365E-01 -4.18693E-01 -8.86204E-01 -1.72469E+00
 -1.27556E+00 -2.76315E+00 -1.70059E+00 -3.35716E+00 -2.01173E+00 -3.40659E+00 -2.05636E+00 -2.91167E+00
 -1.71985E+00 -1.97671E+00 -9.62631E-01 -7.91573E-01 +1.56513E-01 +4.06337E-01 +1.47832E+00 +1.38230E+00
 +2.76515E+00 +1.95588E+00 +3.74506E+00 +2.04202E+00 +4.16968E+00 +1.67128E+00 +3.87377E+00 +9.83223E-01
 +2.82255E+00 +1.93040E-01 +1.13428E+00 -4.61957E-01 -9.29591E-01 -7.83940E-01 -3.00740E+00 -6.69306E-01
 -4.70642E+00 -1.42240E-01 -5.68434E+00 +6.42897E-01 -5.72517E+00 +1.43333E+00 -4.79199E+00 +1.93827E+00
 -3.04266E+00 +1.90494E+00 -8.03004E-01 +1.19195E+00 +1.49877E+00 -1.78605E-01 +3.42301E+00 -2.00564E+00
 +4.61499E+00 -3.93702E+00 +4.88437E+00 -5.53813E+00 +4.24857E+00 -6.38737E+00 +2.92842E+00 -6.17789E+00
 +1.29565E+00 -4.80120E+00 -2.16740E-01 -2.39147E+00 -1.22069E+00 +6.83109E-01 -1.47057E+00 +3.88341E+00
 -9.27748E-01 +6.60566E+00 +2.24987E-01 +8.30882E+00 +1.62440E+00 +8.63488E+00 +2.81536E+00 +7.49371E+00
 +3.36671E+00 +5.09185E+00 +2.98696E+00 +1.89601E+00 +1.61073E+00 -1.46225E+00 -5.66883E-01 -4.32090E+00
 -3.11922E+00 -6.13091E+00 -5.47632E+00 -6.57613E+00 -7.05409E+00 -5.64159E+00 -7.39488E+00 -3.61370E+00
 -6.28620E+00 -1.01136E+00 -3.82787E+00 +1.53646E+00 -4.29421E-01 +3.43844E+00 +3.26500E+00 +4.27926E+00
 +6.50925E+00 +3.91573E+00 +8.61677E+00 +2.50739E+00 +9.11453E+00 +4.74005E-01 +7.85365E+00 -1.61035E+00
 +5.05016E+00 -3.16141E+00 +1.24519E+00 -3.73237E+00 -2.80791E+00 -3.12894E+00 -6.30459E+00 -1.46351E+00
 -8.56217E+00 +8.65895E-01 -9.16584E+00 +3.26777E+00 -8.05422E+00 +5.09912E+00 -5.52554E+00 +5.82364E+00
 -2.16340E+00 +5.14802E+00 +1.29984E+00 +3.10306E+00 +4.14996E+00 +4.91025E-02 +5.84901E+00 -3.39681E+00
 +6.14841E+00 -6.49596E+00 +5.13152E+00 -8.55420E+00 +3.17767E+00 -9.08075E+00 +8.57906E-01 -7.90253E+00
 -1.21083E+00 -5.20717E+00 -2.51728E+00 -1.50475E+00 -2.77660E+00 +2.48272E+00 -1.99178E+00 +5.97848E+00
 -4.42499E-01 +8.31836E+00 +1.39436E+00 +9.09030E+00 +2.97124E+00 +8.21473E+00 +3.81154E+00 +5.94933E+00
 +3.63109E+00 +2.81920E+00 +2.40984E+00 -5.08875E-01 +3.96947E-01 -3.37734E+00 -1.95078E+00 -5.27822E+00
 -4.08112E+00 -5.95131E+00 -5.48084E+00 -5.41980E+00 -5.79932E+00 -3.95882E+00 -4.93141E+00 -2.00858E+00
 -3.04053E+00 -5.64573E-02 -5.17761E-01 +1.48142E+00 +2.11145E+00 +2.35025E+00 +4.30917E+00 +2.49827E+00
 +5.64531E+00 +2.06332E+00 +5.88795E+00 +1.31204E+00 +5.04372E+00 +5.51035E-01 +3.34110E+00 +3.55929E-02
 +1.16421E+00 -9.92705E-02 -1.04392E+00 +1.31878E-01 -2.88307E+00 +5.81058E-01 -4.07739E+00 +1.02157E+00
 -4.51853E+00 +1.22393E+00 -4.26336E+00 +1.03041E+00 -3.49138E+00 +4.06745E-01 -2.43757E+00 -5.43561E-01
 -1.32177E+00 -1.60590E+00 -2.94761E-01 -2.51417E+00 +5.84586E-01 -3.02587E+00 +1.33741E+00 -2.99114E+00
 +2.02498E+00 -2.39590E+00 +2.69632E+00 -1.36672E+00 +3.34260E+00 -1.35927E-01 +3.87509E+00 +1.02296E+00
 +4.13644E+00 +1.87109E+00 +3.94410E+00 +2.26947E+00 +3.15431E+00 +2.21437E+00 +1.72728E+00 +1.83235E+00
 -2.27637E-01 +1.33583E+00 -2.44428E+00 +9.51679E-01 -4.53698E+00 +8.43859E-01 -6.07794E+00 +1.05351E+00
 -6.69797E+00 +1.47585E+00 -6.18505E+00 +1.88328E+00 -4.55413E+00 +1.99103E+00 -2.06667E+00 +1.54877E+00
 +8.09778E-01 +4.32914E-01 +3.49636E+00 -1.28800E+00 +5.43184E+00 -3.33680E+00 +6.20536E+00 -5.27033E+00
