 Created: 19-Jan-2021
 $NMID
 ID='D:\BASISSIMULATI'
 FMTDAT='(8E13.5)'
 VOLUME=   1.00000E+00
 TRAMP=   1.00000E+00
 $END
 +4.53275E+01 -1.38599E+00 +3.66490E+01 +2.54662E+01 +1.32420E+01 +4.04166E+01 -1.35019E+01 +3.69499E+01
 -3.08341E+01 +1.76767E+01 -3.10205E+01 -7.11748E+00 -1.51066E+01 -2.47724E+01 +7.80694E+00 -2.66749E+01
 +2.53612E+01 -1.25265E+01 +2.83158E+01 +9.69114E+00 +1.52301E+01 +2.79845E+01 -6.93088E+00 +3.26144E+01
 -2.65333E+01 +2.11179E+01 -3.33871E+01 -4.88805E-01 -2.40600E+01 -2.09189E+01 -3.64754E+00 -2.95475E+01
 +1.69043E+01 -2.19850E+01 +2.65259E+01 -2.40192E+00 +1.98321E+01 +1.85990E+01 +4.09114E-03 +2.94678E+01
 -2.27539E+01 +2.37224E+01 -3.64027E+01 +3.39278E+00 -3.32443E+01 -2.18902E+01 -1.39222E+01 -3.97075E+01
 +1.28077E+01 -4.11173E+01 +3.44242E+01 -2.51797E+01 +4.08950E+01 +5.59397E-01 +2.96611E+01 +2.38606E+01
 +6.83224E+00 +3.39204E+01 -1.59842E+01 +2.67196E+01 -2.75776E+01 +6.89319E+00 -2.27392E+01 -1.47867E+01
 -4.73986E+00 -2.69841E+01 +1.65338E+01 -2.35570E+01 +2.97744E+01 -6.56677E+00 +2.80812E+01 +1.49563E+01
 +1.24291E+01 +2.98007E+01 -8.96933E+00 +3.04107E+01 -2.50313E+01 +1.67572E+01 -2.76104E+01 -3.73202E+00
 -1.57293E+01 -2.01123E+01 +3.93706E+00 -2.36688E+01 +2.05621E+01 -1.24875E+01 +2.48258E+01 +7.51164E+00
 +1.38045E+01 +2.56065E+01 -7.43267E+00 +3.18047E+01 -2.83442E+01 +2.20270E+01 -3.82611E+01 +2.80478E-01
 -3.18212E+01 -2.32943E+01 -1.17180E+01 -3.75010E+01 +1.26307E+01 -3.57019E+01 +2.98020E+01 -1.91150E+01
 +3.20673E+01 +3.86186E+00 +1.91797E+01 +2.19268E+01 -1.64455E+00 +2.65532E+01 -1.94948E+01 +1.61843E+01
 -2.53279E+01 -3.15621E+00 -1.64782E+01 -2.10924E+01 +2.15258E+00 -2.82632E+01 +2.07772E+01 -2.10628E+01
 +2.98412E+01 -3.35040E+00 +2.49237E+01 +1.56946E+01 +8.91279E+00 +2.64114E+01 -9.62034E+00 +2.36657E+01
 -2.09616E+01 +9.44845E+00 -1.93333E+01 -8.24694E+00 -5.88632E+00 -1.96515E+01 +1.19234E+01 -1.83442E+01
 +2.42287E+01 -4.62114E+00 +2.38915E+01 +1.46194E+01 +1.02363E+01 +2.94044E+01 -1.05369E+01 +3.18016E+01
 -2.84626E+01 +1.99989E+01 -3.48425E+01 -7.37100E-01 -2.66283E+01 -2.06958E+01 -7.93068E+00 -3.05940E+01
 +1.20883E+01 -2.61973E+01 +2.38405E+01 -1.03568E+01 +2.20882E+01 +8.53878E+00 +8.45939E+00 +2.08657E+01
 -9.53434E+00 +2.06079E+01 -2.24212E+01 +8.28368E+00 -2.35956E+01 -9.48830E+00 -1.25851E+01 -2.35000E+01
 +4.87013E+00 -2.66982E+01 +1.99027E+01 -1.77239E+01 +2.51319E+01 -1.46469E+00 +1.84182E+01 +1.36054E+01
 +3.85034E+00 +1.98767E+01 -1.04958E+01 +1.45318E+01 -1.68250E+01 +9.35843E-01 -1.16924E+01 -1.31899E+01
 +2.22065E+00 -1.98349E+01 +1.75139E+01 -1.48877E+01 +2.59102E+01 -2.89518E-01 +2.25363E+01 +1.69383E+01
 +8.44768E+00 +2.82727E+01 -9.88482E+00 +2.80249E+01 -2.38400E+01 +1.62183E+01 -2.69811E+01 -1.44468E+00
 -1.82506E+01 -1.64801E+01 -2.42209E+00 -2.18855E+01 +1.23829E+01 -1.55976E+01 +1.88147E+01 -1.41032E+00
 +1.39464E+01 +1.30639E+01 +6.22784E-01 +2.03071E+01 -1.41260E+01 +1.66692E+01 -2.27414E+01 +4.09851E+00
 -2.09677E+01 -1.09999E+01 -9.91076E+00 -2.11338E+01 +4.67943E+00 -2.15578E+01 +1.54732E+01 -1.26097E+01
 +1.73565E+01 +6.08724E-01 +1.00009E+01 +1.09853E+01 -2.08299E+00 +1.31246E+01 -1.19871E+01 +6.11847E+00
 -1.40454E+01 -6.04676E+00 -6.78172E+00 -1.66178E+01 +6.33919E+00 -1.96071E+01 +1.87130E+01 -1.28993E+01
 +2.39969E+01 +6.55318E-01 +1.93514E+01 +1.46962E+01 +6.87206E+00 +2.25843E+01 -7.49473E+00 +2.07447E+01
 -1.69694E+01 +1.04221E+01 -1.73330E+01 -3.01455E+00 -8.97757E+00 -1.28290E+01 +3.39698E+00 -1.43059E+01
 +1.32401E+01 -7.05239E+00 +1.54773E+01 +4.92375E+00 +9.01187E+00 +1.53474E+01 -2.84114E+00 +1.88911E+01
 -1.41520E+01 +1.38233E+01 -1.94400E+01 +2.76696E+00 -1.64187E+01 -8.76353E+00 -7.04165E+00 -1.52447E+01
 +3.63616E+00 -1.39441E+01 +1.01420E+01 -6.21514E+00 +9.40558E+00 +3.33148E+00 +2.27290E+00 +9.30455E+00
 -7.03002E+00 +8.34923E+00 -1.31611E+01 +8.54828E-01 -1.24583E+01 -9.29765E+00 -4.82596E+00 -1.67802E+01
 +6.23758E+00 -1.75755E+01 +1.54505E+01 -1.10261E+01 +1.84423E+01 -1.44526E-01 +1.39464E+01 +9.94413E+00
 +4.38831E+00 +1.46008E+01 -5.39649E+00 +1.19784E+01 -1.06292E+01 +3.87698E+00 -8.96871E+00 -5.25072E+00
 -1.61013E+00 -1.05984E+01 +7.41762E+00 -9.41964E+00 +1.33548E+01 -2.34063E+00 +1.31165E+01 +7.05784E+00
 +6.78299E+00 +1.41262E+01 -2.54665E+00 +1.55067E+01 -1.04121E+01 +1.07647E+01 -1.32751E+01 +2.49291E+00
 -1.02560E+01 -5.11392E+00 -3.46328E+00 -8.44138E+00 +3.20350E+00 -6.26438E+00 +6.11964E+00 -2.76801E-01
 +3.79149E+00 +5.88629E+00 -2.43533E+00 +8.58928E+00 -9.14283E+00 +6.08182E+00 -1.26498E+01 -6.30054E-01
 -1.09127E+01 -8.34375E+00 -4.54896E+00 -1.33285E+01 +3.51596E+00 -1.32257E+01 +9.56175E+00 -8.21142E+00
 +1.09520E+01 -8.52710E-01 +7.41924E+00 +5.23553E+00 +1.12628E+00 +7.22181E+00 -4.49231E+00 +4.44274E+00
 -6.48831E+00 -1.34087E+00 -3.85704E+00 -6.90888E+00 +2.02693E+00 -9.24331E+00 +8.17838E+00 -7.03017E+00
 +1.15463E+01 -1.25524E+00 +1.05326E+01 +5.37046E+00 +5.72570E+00 +9.82293E+00 -4.87558E-01 +1.02744E+01
 -5.19046E+00 +6.93978E+00 -6.41299E+00 +1.86248E+00 -4.06523E+00 -2.20620E+00 +1.18500E-01 -3.23276E+00
 +3.55473E+00 -8.99856E-01 +4.17387E+00 +3.30868E+00 +1.46631E+00 +6.94149E+00 -3.30519E+00 +7.87335E+00
 -7.80147E+00 +5.38634E+00 -9.82479E+00 +4.99908E-01 -8.42366E+00 -4.58833E+00 -4.33225E+00 -7.63579E+00
 +4.51574E-01 -7.47014E+00 +3.70421E+00 -4.52752E+00 +4.08595E+00 -5.66900E-01 +1.76431E+00 +2.26279E+00
 -1.73965E+00 +2.50996E+00 -4.37203E+00 +1.12990E-01 -4.59539E+00 -3.62914E+00 -2.13419E+00 -6.76089E+00
 +1.93971E+00 -7.66743E+00 +5.79221E+00 -5.85605E+00 +7.75914E+00 -2.14522E+00 +7.14617E+00 +1.80177E+00
 +4.50740E+00 +4.33277E+00 +1.29387E+00 +4.60711E+00 -9.18286E-01 +2.94748E+00 -1.21295E+00 +5.95007E-01
 +2.57718E-01 -9.75564E-01 +2.42243E+00 -8.14185E-01 +3.88977E+00 +1.05428E+00 +3.67232E+00 +3.69372E+00
 +1.66817E+00 +5.77254E+00 -1.32559E+00 +6.24838E+00 -4.04673E+00 +4.87221E+00 -5.40783E+00 +2.27228E+00
 -5.01381E+00 -3.98290E-01 -3.30927E+00 -2.05041E+00 -1.30602E+00 -2.17984E+00 -5.12162E-02 -1.06891E+00
 -1.13262E-01 +4.09276E-01 -1.33573E+00 +1.26197E+00 -2.96130E+00 +8.75134E-01 -4.04013E+00 -7.05434E-01
 -3.90490E+00 -2.83151E+00 -2.47799E+00 -4.59650E+00 -2.75359E-01 -5.27962E+00 +1.87182E+00 -4.66970E+00
 +3.22273E+00 -3.12372E+00 +3.45648E+00 -1.35402E+00 +2.77622E+00 -6.81827E-02 +1.75879E+00 +3.55045E-01
 +1.04423E+00 +4.76818E-03 +1.02634E+00 -6.56063E-01 +1.68926E+00 -1.05093E+00 +2.65221E+00 -7.78223E-01
 +3.38096E+00 +2.09196E-01 +3.45134E+00 +1.60585E+00 +2.73834E+00 +2.91771E+00 +1.45198E+00 +3.69722E+00
 +1.95513E-02 +3.73571E+00 -1.11712E+00 +3.13150E+00 -1.69055E+00 +2.21682E+00 -1.70143E+00 +1.39048E+00
 -1.38677E+00 +9.39137E-01 -1.08946E+00 +9.24921E-01 -1.09467E+00 +1.18046E+00 -1.50511E+00 +1.40296E+00
 -2.20370E+00 +1.29918E+00 -2.91176E+00 +7.17715E-01 -3.31250E+00 -2.84599E-01 -3.18630E+00 -1.46492E+00
 -2.50298E+00 -2.49263E+00 -1.43581E+00 -3.08193E+00 -2.92881E-01 -3.10556E+00 +6.06314E-01 -2.64379E+00
 +1.05943E+00 -1.94854E+00 +1.06205E+00 -1.33551E+00 +8.05236E-01 -1.04762E+00 +5.87759E-01 -1.14743E+00
 +6.77460E-01 -1.48698E+00 +1.18137E+00 -1.77298E+00 +1.98460E+00 -1.70299E+00 +2.79084E+00 -1.11373E+00
 +3.25211E+00 -7.19995E-02 +3.13158E+00 +1.13897E+00 +2.42302E+00 +2.13834E+00 +1.36569E+00 +2.62040E+00
 +3.41055E-01 +2.49964E+00 -3.04569E-01 +1.95485E+00 -4.26871E-01 +1.34450E+00 -1.55494E-01 +1.02950E+00
 +1.70165E-01 +1.18844E+00 +1.75095E-01 +1.71948E+00 -3.51510E-01 +2.28341E+00 -1.33282E+00 +2.47247E+00
 -2.42503E+00 +2.02341E+00 -3.17818E+00 +9.66116E-01 -3.26006E+00 -3.72357E-01 -2.62970E+00 -1.51683E+00
 -1.56814E+00 -2.07507E+00 -5.45280E-01 -1.93411E+00 +1.37683E-02 -1.31846E+00 -5.55167E-02 -6.75997E-01
 -5.72176E-01 -4.45697E-01 -1.10356E+00 -8.25840E-01 -1.19312E+00 -1.66399E+00 -6.05674E-01 -2.52964E+00
 +5.38630E-01 -2.93549E+00 +1.81495E+00 -2.59393E+00 +2.70620E+00 -1.57409E+00 +2.86825E+00 -2.74173E-01
 +2.30854E+00 +7.79530E-01 +1.38180E+00 +1.20357E+00 +6.02424E-01 +9.55194E-01 +3.70608E-01 +3.50647E-01
 +7.57659E-01 -1.08367E-01 +1.46633E+00 -9.82362E-03 +1.99029E+00 +7.38411E-01 +1.89000E+00 +1.84818E+00
 +1.03802E+00 +2.79598E+00 -2.99264E-01 +3.09881E+00 -1.59059E+00 +2.57422E+00 -2.31363E+00 +1.44416E+00
 -2.22849E+00 +2.24102E-01 -1.50348E+00 -5.46180E-01 -6.23459E-01 -5.86933E-01 -1.27603E-01 -2.46854E-02
 -3.16684E-01 +6.80272E-01 -1.08828E+00 +9.88160E-01 -1.99111E+00 +5.79349E-01 -2.47139E+00 -4.63707E-01
 -2.17887E+00 -1.69339E+00 -1.16546E+00 -2.53557E+00 +1.34540E-01 -2.60188E+00 +1.13525E+00 -1.90486E+00
 +1.41758E+00 -8.55431E-01 +9.60714E-01 -3.98503E-02 +1.56581E-01 +1.04663E-01 -4.05536E-01 -4.62061E-01
 -2.70206E-01 -1.35147E+00 +6.18571E-01 -1.95446E+00 +1.86736E+00 -1.78036E+00 +2.83352E+00 -7.42122E-01
 +2.97257E+00 +7.73043E-01 +2.14459E+00 +2.09383E+00 +7.08500E-01 +2.61955E+00 -6.55185E-01 +2.14849E+00
 -1.30421E+00 +9.97750E-01 -9.84213E-01 -1.58386E-01 +2.50813E-02 -6.51228E-01 +1.05437E+00 -1.87528E-01
 +1.40913E+00 +9.77899E-01 +7.59236E-01 +2.16873E+00 -6.61375E-01 +2.65266E+00 -2.16242E+00 +2.05140E+00
 -2.96372E+00 +5.68892E-01 -2.62665E+00 -1.09582E+00 -1.31322E+00 -2.11529E+00 +2.77999E-01 -1.98748E+00
 +1.27734E+00 -8.28457E-01 +1.12111E+00 +6.65529E-01 -1.19207E-01 +1.58034E+00 -1.74483E+00 +1.28491E+00
 -2.78610E+00 -1.99743E-01 -2.52733E+00 -2.17340E+00 -9.19212E-01 -3.60300E+00 +1.35330E+00 -3.67018E+00
 +3.20142E+00 -2.22974E+00 +3.69946E+00 +7.57143E-02 +2.59047E+00 +2.12330E+00 +4.52553E-01 +2.89140E+00
 -1.57905E+00 +2.01138E+00 -2.40236E+00 -1.09607E-02 -1.54452E+00 -2.03794E+00 +5.59591E-01 -2.89401E+00
 +2.76972E+00 -2.00353E+00 +3.83319E+00 +2.71603E-01 +3.06288E+00 +2.78952E+00 +7.36082E-01 +4.21588E+00
 -2.01331E+00 +3.74038E+00 -3.77172E+00 +1.53949E+00 -3.59910E+00 -1.27579E+00 -1.55822E+00 -3.22047E+00
 +1.27574E+00 -3.22282E+00 +3.35252E+00 -1.22255E+00 +3.46433E+00 +1.75084E+00 +1.41515E+00 +4.08428E+00
 -1.82517E+00 +4.42427E+00 -4.58666E+00 +2.41829E+00 -5.36137E+00 -1.04784E+00 -3.61653E+00 -4.26484E+00
