 Created: 16-Jan-2021
 $NMID
 ID='D:\BASISSIMULATI'
 FMTDAT='(8E13.5)'
 VOLUME=   1.00000E+00
 TRAMP=   1.00000E+00
 $END
 +3.47071E+01 +7.74427E+00 +2.20893E+01 +2.54257E+01 +1.62184E+00 +2.95023E+01 -1.47621E+01 +1.87919E+01
 -1.80977E+01 +9.32289E-01 -7.70709E+00 -1.25775E+01 +8.76102E+00 -1.35095E+01 +2.03736E+01 -1.71709E+00
 +1.96869E+01 +1.52222E+01 +7.00193E+00 +2.70189E+01 -1.03329E+01 +2.69829E+01 -2.27918E+01 +1.57023E+01
 -2.44335E+01 +7.70203E-02 -1.60040E+01 -1.13014E+01 -3.77678E+00 -1.32963E+01 +4.72250E+00 -6.76639E+00
 +5.20262E+00 +2.70869E+00 -1.38211E+00 +8.68349E+00 -1.01462E+01 +7.65541E+00 -1.56511E+01 +5.94852E-01
 -1.50413E+01 -8.33538E+00 -9.15598E+00 -1.46411E+01 -1.35078E+00 -1.59851E+01 +4.82232E+00 -1.29471E+01
 +7.49291E+00 -8.00722E+00 +6.94761E+00 -3.77225E+00 +4.81916E+00 -1.65873E+00 +2.84472E+00 -1.63679E+00
 +2.04780E+00 -2.80755E+00 +2.63843E+00 -4.14515E+00 +4.34154E+00 -4.88765E+00 +6.68428E+00 -4.54009E+00
 +9.03448E+00 -2.80072E+00 +1.05594E+01 +3.24054E-01 +1.04007E+01 +4.27762E+00 +8.13400E+00 +7.90834E+00
 +4.22427E+00 +9.87487E+00 +4.53710E-02 +9.38674E+00 -2.72520E+00 +6.80932E+00 -3.06017E+00 +3.63933E+00
 -1.27769E+00 +1.73636E+00 +1.04019E+00 +2.22316E+00 +1.93998E+00 +4.75277E+00 +2.80786E-01 +7.65328E+00
 -3.53756E+00 +8.90465E+00 -7.77992E+00 +7.35309E+00 -1.03966E+01 +3.40341E+00 -1.02200E+01 -1.23658E+00
 -7.59895E+00 -4.57911E+00 -4.10795E+00 -5.49287E+00 -1.56132E+00 -4.26182E+00 -9.73394E-01 -2.27551E+00
 -2.08660E+00 -1.11376E+00 -3.68542E+00 -1.63006E+00 -4.41561E+00 -3.57143E+00 -3.56105E+00 -5.88169E+00
 -1.33451E+00 -7.40532E+00 +1.39923E+00 -7.51593E+00 +3.69669E+00 -6.32474E+00 +5.01219E+00 -4.44478E+00
 +5.33187E+00 -2.55879E+00 +4.98983E+00 -1.09459E+00 +4.38120E+00 -1.58226E-01 +3.78444E+00 +3.39343E-01
 +3.35407E+00 +5.37032E-01 +3.18909E+00 +5.82411E-01 +3.34548E+00 +6.75063E-01 +3.75511E+00 +1.07752E+00
 +4.14112E+00 +2.00654E+00 +4.06223E+00 +3.44421E+00 +3.13040E+00 +5.01959E+00 +1.29425E+00 +6.10300E+00
 -1.01256E+00 +6.11886E+00 -3.00686E+00 +4.91129E+00 -3.94760E+00 +2.92098E+00 -3.57072E+00 +1.02001E+00
 -2.29358E+00 +5.91531E-02 -1.03154E+00 +3.76826E-01 -7.00718E-01 +1.56868E+00 -1.68260E+00 +2.67928E+00
 -3.56824E+00 +2.73015E+00 -5.34951E+00 +1.29099E+00 -5.96671E+00 -1.23819E+00 -4.90938E+00 -3.80902E+00
 -2.52711E+00 -5.28166E+00 +1.34397E-01 -5.04950E+00 +1.88932E+00 -3.38037E+00 +2.05437E+00 -1.27805E+00
 +8.20295E-01 +6.44995E-02 -8.56738E-01 -8.01485E-02 -1.78689E+00 -1.57344E+00 -1.20939E+00 -3.48771E+00
 +7.79605E-01 -4.61975E+00 +3.27125E+00 -4.15905E+00 +5.03733E+00 -2.14202E+00 +5.20160E+00 +5.58711E-01
 +3.71919E+00 +2.70502E+00 +1.39975E+00 +3.36468E+00 -5.38349E-01 +2.41333E+00 -1.13598E+00 +5.90351E-01
 -2.13920E-01 -9.21159E-01 +1.54162E+00 -1.15598E+00 +2.97400E+00 +9.82223E-02 +3.10933E+00 +2.18938E+00
 +1.70222E+00 +3.97232E+00 -6.29789E-01 +4.45206E+00 -2.75469E+00 +3.33722E+00 -3.65749E+00 +1.19475E+00
 -2.99771E+00 -8.75859E-01 -1.28140E+00 -1.85942E+00 +4.42094E-01 -1.38198E+00 +1.17906E+00 +1.03654E-01
 +5.42470E-01 +1.59917E+00 -1.05274E+00 +2.13827E+00 -2.64908E+00 +1.32753E+00 -3.29981E+00 -4.51388E-01
 -2.59590E+00 -2.27846E+00 -8.74142E-01 -3.22102E+00 +9.94622E-01 -2.84375E+00 +2.09915E+00 -1.42257E+00
 +1.97773E+00 +2.38217E-01 +8.38795E-01 +1.26242E+00 -5.88437E-01 +1.16915E+00 -1.46843E+00 +1.02285E-01
 -1.30278E+00 -1.28049E+00 -1.72008E-01 -2.17662E+00 +1.33192E+00 -2.05923E+00 +2.42639E+00 -9.36303E-01
 +2.53834E+00 +6.67668E-01 +1.58716E+00 +1.98233E+00 +2.14766E-02 +2.37508E+00 -1.40033E+00 +1.66450E+00
 -1.98155E+00 +2.17473E-01 -1.43775E+00 -1.21963E+00 -5.71838E-02 -1.88539E+00 +1.41954E+00 -1.39618E+00
 +2.16222E+00 +2.88845E-02 +1.69016E+00 +1.64347E+00 +1.61044E-01 +2.54017E+00 -1.66376E+00 +2.13826E+00
 -2.79277E+00 +5.34921E-01 -2.54140E+00 -1.49265E+00 -9.42198E-01 -2.87030E+00 +1.21950E+00 -2.81070E+00
 +2.79713E+00 -1.27788E+00 +2.90802E+00 +9.45466E-01 +1.44674E+00 +2.65407E+00 -8.16066E-01 +2.87888E+00
 -2.62762E+00 +1.44395E+00 -2.93659E+00 -9.00974E-01 -1.48946E+00 -2.86330E+00 +9.98282E-01 -3.30634E+00
 +3.20241E+00 -1.88285E+00 +3.89400E+00 +7.47211E-01 +2.60993E+00 +3.24051E+00 -7.16622E-02 +4.27028E+00
 -2.80396E+00 +3.23610E+00 -4.15921E+00 +6.10165E-01 -3.38275E+00 -2.26954E+00 -8.24073E-01 -3.86934E+00
 +2.19131E+00 -3.26531E+00 +4.01194E+00 -6.73490E-01 +3.52665E+00 +2.58904E+00 +8.07887E-01 +4.73487E+00
 -2.83021E+00 +4.44453E+00 -5.44699E+00 +1.63525E+00 -5.49714E+00 -2.37950E+00 -2.73461E+00 -5.49624E+00
 +1.52660E+00 -5.93769E+00 +5.01830E+00 -3.29698E+00 +5.73738E+00 +1.10498E+00 +3.13063E+00 +4.83534E+00
 -1.46076E+00 +5.67761E+00 -5.43805E+00 +2.95206E+00 -6.38471E+00 -1.96569E+00 -3.51233E+00 -6.31323E+00
 +1.76286E+00 -7.49060E+00 +6.52910E+00 -4.61610E+00 +8.03016E+00 +8.57495E-01 +5.31002E+00 +5.89843E+00
 -1.50709E-01 +7.63496E+00 -5.23867E+00 +5.06307E+00 -7.01501E+00 -3.16630E-01 -4.45642E+00 -5.34899E+00
 +9.26055E-01 -7.07454E+00 +5.97597E+00 -4.47208E+00 +7.75467E+00 +9.56513E-01 +5.25256E+00 +6.10114E+00
 -7.18830E-02 +8.08508E+00 -5.21390E+00 +5.91244E+00 -7.40429E+00 +9.54181E-01 -5.66192E+00 -3.95575E+00
 -1.22513E+00 -6.20223E+00 +3.30477E+00 -4.81854E+00 +5.50456E+00 -8.67176E-01 +4.41260E+00 +3.33568E+00
 +8.69633E-01 +5.58157E+00 -3.13959E+00 +4.89026E+00 -5.63210E+00 +1.82731E+00 -5.57425E+00 -1.99899E+00
 -3.19898E+00 -4.83631E+00 +3.03898E-01 -5.56054E+00 +3.41375E+00 -4.02009E+00 +4.88137E+00 -9.55779E-01
 +4.13112E+00 +2.33476E+00 +1.44249E+00 +4.44240E+00 -2.08629E+00 +4.33911E+00 -4.84704E+00 +1.84735E+00
 -5.33764E+00 -2.09791E+00 -2.93802E+00 -5.64832E+00 +1.53964E+00 -6.81266E+00 +5.97180E+00 -4.54996E+00
 +7.87608E+00 +4.11485E-01 +5.82232E+00 +5.65093E+00 +4.92670E-01 +8.21124E+00 -5.38600E+00 +6.31834E+00
 -8.41578E+00 +6.47446E-01 -6.53537E+00 -5.76913E+00 -4.52036E-01 -9.13839E+00 +6.50585E+00 -7.17289E+00
 +1.02035E+01 -6.44232E-01 +8.18669E+00 +6.84458E+00 +1.31149E+00 +1.08783E+01 -6.58123E+00 +8.89176E+00
 -1.08659E+01 +1.83329E+00 -8.92045E+00 -6.26949E+00 -1.78217E+00 -1.06575E+01 +6.39504E+00 -8.70118E+00
 +1.07963E+01 -1.51465E+00 +8.82624E+00 +6.68830E+00 +1.65279E+00 +1.11110E+01 -6.52081E+00 +9.22265E+00
 -1.09843E+01 +2.21136E+00 -9.29073E+00 -5.80326E+00 -2.60605E+00 -1.02590E+01 +5.10613E+00 -8.80115E+00
 +9.48428E+00 -2.52631E+00 +8.26437E+00 +4.82632E+00 +2.42284E+00 +9.13745E+00 -4.58774E+00 +8.22257E+00
 -8.92113E+00 +2.88550E+00 -8.45405E+00 -3.76285E+00 -3.76754E+00 -8.17072E+00 +2.41454E+00 -8.25459E+00
 +6.84689E+00 -4.32924E+00 +7.46262E+00 +1.30079E+00 +4.27528E+00 +5.69735E+00 -8.48530E-01 +6.78447E+00
 -5.26778E+00 +4.24608E+00 -6.86959E+00 -4.97747E-01 -4.98525E+00 -5.08773E+00 -5.85542E-01 -7.34927E+00
 +4.23722E+00 -6.24654E+00 +7.23134E+00 -2.30503E+00 +6.99323E+00 +2.63652E+00 +3.61822E+00 +6.24409E+00
 -1.29197E+00 +6.76001E+00 -5.32034E+00 +3.87620E+00 -6.37616E+00 -1.02090E+00 -3.77901E+00 -5.43062E+00
 +1.27897E+00 -6.95002E+00 +6.21588E+00 -4.55291E+00 +8.33803E+00 +7.51424E-01 +6.29472E+00 +6.31324E+00
 +9.13164E-01 +9.17757E+00 -5.11512E+00 +7.69299E+00 -8.61428E+00 +2.50342E+00 -7.66379E+00 -3.68742E+00
 -2.72950E+00 -7.52573E+00 +3.49475E+00 -6.85556E+00 +7.51076E+00 -1.97357E+00 +6.95114E+00 +4.45071E+00
 +1.94532E+00 +8.79704E+00 -4.87888E+00 +8.49805E+00 -9.80105E+00 +3.50646E+00 -1.00636E+01 -3.61863E+00
 -5.43159E+00 -9.08763E+00 +1.63341E+00 -9.97321E+00 +7.30802E+00 -5.85435E+00 +8.52473E+00 +9.20550E-01
 +4.69247E+00 +6.51974E+00 -1.95263E+00 +7.76066E+00 -7.58018E+00 +3.89897E+00 -8.90496E+00 -2.93703E+00
 -5.03530E+00 -8.92435E+00 +2.01490E+00 -1.06840E+01 +8.44878E+00 -7.17795E+00 +1.08161E+01 -2.90453E-01
 +7.94589E+00 +6.24024E+00 +1.58494E+00 +8.93278E+00 -4.61704E+00 +6.51476E+00 -7.18963E+00 +6.05421E-01
 -4.79504E+00 -5.24886E+00 +1.05982E+00 -7.61595E+00 +6.93874E+00 -5.11359E+00 +9.46339E+00 +8.63026E-01
 +7.21175E+00 +7.00664E+00 +1.44889E+00 +1.00153E+01 -4.68477E+00 +8.43401E+00 -8.00387E+00 +3.37777E+00
 -7.04314E+00 -2.22078E+00 -2.76415E+00 -5.33701E+00 +2.13104E+00 -4.52490E+00 +4.80373E+00 -6.01257E-01
 +3.84045E+00 +3.96636E+00 -8.78479E-02 +6.52660E+00 -4.75359E+00 +5.68729E+00 -7.68969E+00 +1.95134E+00
 -7.50737E+00 -2.71611E+00 -4.51314E+00 -6.04405E+00 -3.81114E-01 -6.64535E+00 +2.83503E+00 -4.62042E+00
 +3.76411E+00 -1.34282E+00 +2.31413E+00 +1.35752E+00 -4.23715E-01 +2.13303E+00 -2.82262E+00 +7.15226E-01
 -3.54351E+00 -2.06078E+00 -2.13906E+00 -4.74040E+00 +8.01576E-01 -5.96768E+00 +3.98191E+00 -5.10269E+00
 +6.02104E+00 -2.48325E+00 +6.08779E+00 +7.59584E-01 +4.27246E+00 +3.23851E+00 +1.53443E+00 +3.96051E+00
 -7.56826E-01 +2.79798E+00 -1.48572E+00 +5.54586E-01 -3.48023E-01 -1.42301E+00 +1.97900E+00 -1.91740E+00
 +4.15920E+00 -4.70856E-01 +4.87136E+00 +2.35204E+00 +3.49979E+00 +5.22324E+00 +4.80488E-01 +6.71757E+00
 -2.89169E+00 +6.05110E+00 -5.11087E+00 +3.50510E+00 -5.23466E+00 +3.03936E-01 -3.38227E+00 -2.00240E+00
 -6.89348E-01 -2.33938E+00 +1.26891E+00 -6.79010E-01 +1.29944E+00 +1.92150E+00 -7.62144E-01 +3.84859E+00
 -3.92174E+00 +3.77322E+00 -6.50238E+00 +1.37888E+00 -7.00681E+00 -2.40914E+00 -4.93561E+00 -5.84343E+00
 -1.12320E+00 -7.24395E+00 +2.62592E+00 -5.91523E+00 +4.46132E+00 -2.59360E+00 +3.51089E+00 +8.65233E-01
 +4.39683E-01 +2.45546E+00 -2.82102E+00 +1.15961E+00 -4.10133E+00 -2.38474E+00 -2.25169E+00 -6.12841E+00
 +2.08979E+00 -7.71133E+00 +6.72982E+00 -5.84606E+00 +9.10766E+00 -1.17490E+00 +7.80287E+00 +3.96986E+00
 +3.46668E+00 +6.85198E+00 -1.44505E+00 +5.95726E+00 -4.06456E+00 +1.97806E+00 -2.84476E+00 -2.50246E+00
 +1.42840E+00 -4.51543E+00 +6.02221E+00 -2.52919E+00 +7.87633E+00 +2.53817E+00 +5.49571E+00 +7.79502E+00
 -6.53667E-02 +1.01054E+01 -5.78420E+00 +8.02638E+00 -8.49814E+00 +2.73496E+00 -6.85547E+00 -2.66798E+00
 -2.15601E+00 -5.06733E+00 +2.46534E+00 -3.26316E+00 +4.00616E+00 +1.30239E+00 +1.46799E+00 +5.48263E+00
 -3.55450E+00 +6.42374E+00 -7.92550E+00 +3.34246E+00 -8.96329E+00 -2.04040E+00 -6.08926E+00 -6.65203E+00
