 Created: 16-Jan-2021
 $NMID
 ID='D:\BASISSIMULATI'
 FMTDAT='(8E13.5)'
 VOLUME=   1.00000E+00
 TRAMP=   1.00000E+00
 $END
 +3.64944E+01 +5.21282E+00 +1.89947E+01 +2.99038E+01 -1.03855E+01 +2.99758E+01 -2.61861E+01 +6.82613E+00
 -1.56195E+01 -1.77657E+01 +1.02837E+01 -2.13466E+01 +2.68984E+01 -8.26134E-01 +1.82096E+01 +2.50173E+01
 -8.94195E+00 +3.25659E+01 -3.11661E+01 +1.45031E+01 -2.94994E+01 -1.38211E+01 -6.17912E+00 -2.82792E+01
 +1.76642E+01 -1.74700E+01 +2.10745E+01 +7.40783E+00 +1.88647E+00 +2.29340E+01 -2.16738E+01 +1.45572E+01
 -2.75729E+01 -1.05335E+01 -9.70569E+00 -3.00937E+01 +1.68325E+01 -2.68238E+01 +2.94144E+01 -3.68619E+00
 +1.80417E+01 +1.90169E+01 -6.03389E+00 +2.19214E+01 -2.07080E+01 +3.73434E+00 -1.28797E+01 -1.79915E+01
 +1.00509E+01 -2.28531E+01 +2.71230E+01 -5.85089E+00 +2.27059E+01 +1.83682E+01 +3.40255E-01 +2.88124E+01
 -2.06880E+01 +1.68640E+01 -2.26927E+01 -6.31363E+00 -5.19166E+00 -2.00561E+01 +1.50565E+01 -1.27064E+01
 +1.93180E+01 +8.24386E+00 +3.59587E+00 +2.32237E+01 -1.80816E+01 +1.82450E+01 -2.64528E+01 -2.73458E+00
 -1.42186E+01 -2.16234E+01 +7.71035E+00 -2.24741E+01 +2.02377E+01 -5.53057E+00 +1.31425E+01 +1.33730E+01
 -6.10556E+00 +1.72130E+01 -1.94145E+01 +2.90073E+00 -1.43968E+01 -1.62984E+01 +4.73298E+00 -2.29104E+01
 +2.12308E+01 -1.08619E+01 +2.09142E+01 +9.36472E+00 +4.64084E+00 +2.03592E+01 -1.28207E+01 +1.33140E+01
 -1.61981E+01 -4.44201E+00 -3.22243E+00 -1.63790E+01 +1.37287E+01 -1.16630E+01 +1.89991E+01 +5.38233E+00
 +7.63043E+00 +1.94845E+01 -1.04946E+01 +1.82160E+01 -1.97478E+01 +2.91293E+00 -1.26879E+01 -1.28663E+01
 +3.62708E+00 -1.56348E+01 +1.43122E+01 -3.85126E+00 +1.00393E+01 +1.11086E+01 -4.89475E+00 +1.54202E+01
 -1.67843E+01 +5.12336E+00 -1.49184E+01 -1.06555E+01 -9.62186E-01 -1.81375E+01 +1.28735E+01 -1.11734E+01
 +1.49035E+01 +3.59167E+00 +4.21270E+00 +1.29966E+01 -8.93645E+00 +9.16712E+00 -1.25558E+01 -3.75274E+00
 -3.56641E+00 -1.36990E+01 +9.79949E+00 -1.16181E+01 +1.56494E+01 +6.47780E-01 +9.02832E+00 +1.23564E+01
 -3.97875E+00 +1.36178E+01 -1.20042E+01 +4.02647E+00 -8.56683E+00 -7.37826E+00 +2.46564E+00 -1.04416E+01
 +1.07301E+01 -2.85126E+00 +8.75938E+00 +8.17492E+00 -1.57552E+00 +1.26419E+01 -1.11001E+01 +6.67408E+00
 -1.16873E+01 -4.34864E+00 -3.31149E+00 -1.09058E+01 +6.31744E+00 -7.83424E+00 +8.86598E+00 +1.39813E+00
 +2.67337E+00 +8.17754E+00 -6.16200E+00 +6.54383E+00 -9.53305E+00 -1.74286E+00 -4.51870E+00 -9.15227E+00
 +4.34247E+00 -9.26388E+00 +9.40994E+00 -2.29355E+00 +6.74726E+00 +5.47747E+00 -7.02006E-01 +7.51186E+00
 -6.11179E+00 +2.68281E+00 -4.94357E+00 -4.12426E+00 +1.28462E+00 -6.66463E+00 +6.74122E+00 -2.84211E+00
 +6.63630E+00 +3.76875E+00 +1.28408E+00 +7.41740E+00 -4.54924E+00 +5.28663E+00 -6.08190E+00 -3.28470E-01
 -2.59890E+00 -4.41701E+00 +2.31105E+00 -3.77006E+00 +4.22727E+00 +4.59248E-01 +1.74782E+00 +4.17307E+00
 -2.62354E+00 +4.12046E+00 -5.01318E+00 +5.71920E-01 -3.60185E+00 -3.29165E+00 +8.49767E-02 -4.38564E+00
 +2.86616E+00 -2.27945E+00 +2.76287E+00 +8.09890E-01 +4.47807E-01 +2.23657E+00 -1.73330E+00 +1.16379E+00
 -1.96555E+00 -1.06535E+00 -3.39295E-01 -2.41947E+00 +1.60076E+00 -1.94538E+00 +2.38998E+00 -2.84442E-01
 +1.74983E+00 +1.21111E+00 +4.59555E-01 +1.68420E+00 -5.50934E-01 +1.21728E+00 -8.83198E-01 +3.99425E-01
 -6.46333E-01 -2.80654E-01 -8.28123E-02 -6.06064E-01 +5.82094E-01 -4.55913E-01 +1.00219E+00 +2.29563E-01
 +7.19997E-01 +1.18830E+00 -4.10366E-01 +1.70589E+00 -1.77550E+00 +1.06590E+00 -2.21452E+00 -6.46670E-01
 -1.00356E+00 -2.24786E+00 +1.21813E+00 -2.25912E+00 +2.65619E+00 -3.16647E-01 +1.83804E+00 +2.15793E+00
 -8.55419E-01 +2.93766E+00 -3.17387E+00 +1.00381E+00 -2.83689E+00 -2.23250E+00 +2.58673E-01 -3.87741E+00
 +3.58784E+00 -2.11049E+00 +4.02853E+00 +1.90355E+00 +7.62433E-01 +4.70800E+00 -3.64470E+00 +3.54018E+00
 -5.25842E+00 -9.70803E-01 -2.32740E+00 -5.01462E+00 +2.84344E+00 -4.84526E+00 +5.65615E+00 -2.99398E-01
 +3.31373E+00 +4.71719E+00 -2.39975E+00 +5.52253E+00 -6.39048E+00 +9.71131E-01 -4.73311E+00 -5.17813E+00
 +1.57794E+00 -7.36471E+00 +7.17065E+00 -3.25026E+00 +6.94962E+00 +3.88120E+00 +8.22531E-01 +7.77267E+00
 -5.89223E+00 +4.77829E+00 -7.04246E+00 -2.60969E+00 -1.27634E+00 -7.69444E+00 +6.42154E+00 -5.51411E+00
 +8.95913E+00 +2.47077E+00 +3.55463E+00 +9.34859E+00 -5.46111E+00 +8.80673E+00 -1.02383E+01 +9.54735E-01
 -6.42085E+00 -7.45645E+00 +2.70422E+00 -8.90366E+00 +8.87703E+00 -1.94760E+00 +6.22227E+00 +7.17908E+00
 -3.24904E+00 +9.95304E+00 -1.11278E+01 +3.28297E+00 -1.00259E+01 -7.40889E+00 -3.77699E-01 -1.27695E+01
 +9.63220E+00 -7.88224E+00 +1.12243E+01 +3.08861E+00 +2.99418E+00 +1.03681E+01 -7.55997E+00 +7.29006E+00
 -1.05836E+01 -3.51061E+00 -2.79605E+00 -1.21818E+01 +9.26823E+00 -1.04016E+01 +1.48630E+01 +9.65073E-01
 +8.66513E+00 +1.23240E+01 -4.21158E+00 +1.37738E+01 -1.25399E+01 +4.07238E+00 -8.99226E+00 -8.00215E+00
 +3.10303E+00 -1.13639E+01 +1.25086E+01 -2.65145E+00 +1.01022E+01 +1.04860E+01 -2.73773E+00 +1.60304E+01
 -1.50596E+01 +8.40054E+00 -1.59921E+01 -6.28884E+00 -4.58436E+00 -1.54439E+01 +9.09987E+00 -1.12179E+01
 +1.28493E+01 +2.29577E+00 +3.32606E+00 +1.25313E+01 -1.07114E+01 +9.68786E+00 -1.60942E+01 -4.28198E+00
 -7.11534E+00 -1.71434E+01 +9.08718E+00 -1.72160E+01 +1.86657E+01 -3.96056E+00 +1.34105E+01 +1.12873E+01
 -1.74706E+00 +1.53120E+01 -1.29713E+01 +4.90942E+00 -9.89868E+00 -1.00576E+01 +4.89771E+00 -1.53819E+01
 +1.79849E+01 -5.33990E+00 +1.70299E+01 +1.19144E+01 +2.00298E+00 +2.14162E+01 -1.45310E+01 +1.47554E+01
 -1.84962E+01 -2.23398E+00 -6.94273E+00 -1.45163E+01 +9.16294E+00 -1.12857E+01 +1.46787E+01 +4.21972E+00
 +3.95432E+00 +1.74514E+01 -1.38700E+01 +1.55635E+01 -2.28597E+01 -8.97167E-01 -1.45606E+01 -1.82127E+01
 +4.24875E+00 -2.16133E+01 +1.74267E+01 -8.52958E+00 +1.38601E+01 +8.97104E+00 -2.49497E+00 +1.49139E+01
 -1.60473E+01 +3.80451E+00 -1.35564E+01 -1.42684E+01 +3.81819E+00 -2.25443E+01 +2.13088E+01 -1.26569E+01
 +2.36296E+01 +7.66221E+00 +8.71119E+00 +2.12908E+01 -1.02969E+01 +1.69636E+01 -1.67035E+01 -5.85282E-01
 -5.25761E+00 -1.47864E+01 +1.30345E+01 -1.21072E+01 +2.07120E+01 +5.66317E+00 +9.59793E+00 +2.28233E+01
 -1.16528E+01 +2.37426E+01 -2.50921E+01 +6.94793E+00 -1.94689E+01 -1.33797E+01 -3.54362E-01 -1.99730E+01
 +1.47731E+01 -7.92845E+00 +1.21906E+01 +1.08490E+01 -5.66928E+00 +1.83038E+01 -2.22817E+01 +6.52013E+00
 -2.18202E+01 -1.49825E+01 -3.46558E+00 -2.75998E+01 +1.76580E+01 -2.02567E+01 +2.38758E+01 +5.99505E-01
 +1.07483E+01 +1.66715E+01 -8.93185E+00 +1.41634E+01 -1.66098E+01 -3.82472E+00 -4.68648E+00 -2.00359E+01
 +1.65238E+01 -1.85651E+01 +2.79253E+01 +7.33910E-01 +1.87558E+01 +2.19168E+01 -3.65783E+00 +2.70868E+01
 -2.03239E+01 +1.23849E+01 -1.75129E+01 -8.52909E+00 +9.66173E-01 -1.67023E+01 +1.71978E+01 -4.91128E+00
 +1.52896E+01 +1.57969E+01 -4.24185E+00 +2.59773E+01 -2.47723E+01 +1.52791E+01 -2.83653E+01 -8.13185E+00
 -1.18378E+01 -2.47275E+01 +1.03311E+01 -2.10034E+01 +1.89156E+01 -1.52530E+00 +7.14358E+00 +1.52002E+01
 -1.32480E+01 +1.33736E+01 -2.25778E+01 -5.84358E+00 -1.09657E+01 -2.52836E+01 +1.26599E+01 -2.71290E+01
 +2.84149E+01 -8.92862E+00 +2.31797E+01 +1.41073E+01 +2.31236E+00 +2.26347E+01 -1.51698E+01 +1.04284E+01
 -1.36506E+01 -1.01109E+01 +5.07185E+00 -1.91563E+01 +2.34005E+01 -7.33206E+00 +2.37585E+01 +1.57663E+01
 +4.43751E+00 +3.00775E+01 -1.87484E+01 +2.30053E+01 -2.65152E+01 +7.04462E-01 -1.32873E+01 -1.74086E+01
 +7.89562E+00 -1.60137E+01 +1.71472E+01 +2.44250E+00 +5.62524E+00 +2.00217E+01 -1.64987E+01 +1.94728E+01
 -2.91437E+01 -1.94944E-01 -2.03363E+01 -2.27156E+01 +3.01268E+00 -2.90470E+01 +2.12342E+01 -1.43523E+01
 +1.94397E+01 +7.73364E+00 +7.51157E-01 +1.73672E+01 -1.66227E+01 +6.28223E+00 -1.58211E+01 -1.48452E+01
 +3.47261E+00 -2.60375E+01 +2.46936E+01 -1.59995E+01 +2.92036E+01 +7.68308E+00 +1.29599E+01 +2.52626E+01
 -9.88651E+00 +2.24258E+01 -1.96651E+01 +2.99519E+00 -8.74828E+00 -1.46236E+01 +1.17314E+01 -1.40243E+01
 +2.19926E+01 +4.47480E+00 +1.14398E+01 +2.41442E+01 -1.17743E+01 +2.68750E+01 -2.80025E+01 +9.42926E+00
 -2.36374E+01 -1.36446E+01 -3.20404E+00 -2.30041E+01 +1.47899E+01 -1.17372E+01 +1.44730E+01 +8.60460E+00
 -3.22213E+00 +1.85138E+01 -2.15069E+01 +8.10050E+00 -2.28879E+01 -1.40260E+01 -4.90087E+00 -2.84824E+01
 +1.76556E+01 -2.24640E+01 +2.59318E+01 -1.16195E+00 +1.38032E+01 +1.69397E+01 -6.80469E+00 +1.66060E+01
 -1.67404E+01 -6.18166E-01 -6.83098E+00 -1.79669E+01 +1.39532E+01 -1.86183E+01 +2.66243E+01 -8.26046E-01
 +1.92348E+01 +2.05167E+01 -2.43467E+00 +2.72061E+01 -2.00767E+01 +1.39522E+01 -1.92071E+01 -7.01606E+00
 -1.98648E+00 -1.70045E+01 +1.49147E+01 -7.58472E+00 +1.53915E+01 +1.19849E+01 -1.64470E+00 +2.32103E+01
 -2.13500E+01 +1.50175E+01 -2.62892E+01 -6.32950E+00 -1.20158E+01 -2.28638E+01 +9.04141E+00 -2.09606E+01
 +1.87687E+01 -3.38778E+00 +9.52415E+00 +1.33626E+01 -9.20225E+00 +1.39538E+01 -1.94856E+01 -2.09434E+00
 -1.11193E+01 -2.01056E+01 +9.26596E+00 -2.34988E+01 +2.41989E+01 -8.64098E+00 +2.09983E+01 +1.19709E+01
 +3.00278E+00 +2.09386E+01 -1.35777E+01 +1.14499E+01 -1.42408E+01 -6.82771E+00 +9.18114E-01 -1.66078E+01
 +1.74842E+01 -8.53996E+00 +1.97831E+01 +1.04873E+01 +4.93718E+00 +2.36291E+01 -1.46329E+01 +1.91962E+01
 -2.23737E+01 +1.02853E+00 -1.23318E+01 -1.50721E+01 +5.71636E+00 -1.55149E+01 +1.51999E+01 -9.47246E-01
 +7.62128E+00 +1.45558E+01 -9.96525E+00 +1.62611E+01 -2.14411E+01 +1.97570E+00 -1.61229E+01 -1.60951E+01
 +1.74587E+00 -2.23506E+01 +1.69090E+01 -1.16971E+01 +1.67632E+01 +6.07121E+00 +2.48087E+00 +1.51893E+01
 -1.22804E+01 +8.01972E+00 -1.37587E+01 -8.29314E+00 -3.78707E-01 -1.84325E+01 +1.59917E+01 -1.27083E+01
 +2.07823E+01 +4.34379E+00 +9.72745E+00 +1.81473E+01 -7.47309E+00 +1.71470E+01 -1.59599E+01 +2.99601E+00
 -8.96614E+00 -1.11527E+01 +6.34203E+00 -1.25437E+01 +1.55114E+01 -1.61576E-01 +9.82069E+00 +1.45632E+01
 -6.01323E+00 +1.81391E+01 -1.82110E+01 +7.07099E+00 -1.62997E+01 -9.16077E+00 -2.34584E+00 -1.66997E+01
 +1.11020E+01 -9.65161E+00 +1.23363E+01 +4.86724E+00 +8.51899E-01 +1.33268E+01 -1.24419E+01 +7.94915E+00
