 Created: 16-Jan-2021
 $NMID
 ID='D:\BASISSIMULATI'
 FMTDAT='(8E13.5)'
 VOLUME=   1.00000E+00
 TRAMP=   1.00000E+00
 $END
 +4.46894E+01 +6.42099E+00 +4.22749E+01 +1.51556E+01 +3.77877E+01 +2.29806E+01 +3.15494E+01 +2.93850E+01
 +2.40062E+01 +3.39662E+01 +1.56943E+01 +3.64587E+01 +7.19814E+00 +3.67535E+01 -8.94186E-01 +3.49036E+01
 -8.03567E+00 +3.11187E+01 -1.37612E+01 +2.57460E+01 -1.77215E+01 +1.92421E+01 -1.97074E+01 +1.21355E+01
 -1.96631E+01 +4.98547E+00 -1.76869E+01 -1.66177E+00 -1.40202E+01 -7.31456E+00 -9.02521E+00 -1.15723E+01
 -3.15414E+00 -1.41540E+01 +3.08854E+00 -1.49168E+01 +9.18671E+00 -1.38635E+01 +1.46533E+01 -1.11376E+01
 +1.90677E+01 -7.00821E+00 +2.21068E+01 -1.84485E+00 +2.35676E+01 +3.91503E+00 +2.33794E+01 +9.80308E+00
 +2.16052E+01 +1.53585E+01 +1.84322E+01 +2.01650E+01 +1.41522E+01 +2.38827E+01 +9.13468E+00 +2.62734E+01
 +3.79370E+00 +2.72168E+01 -1.44778E+00 +2.67157E+01 -6.19308E+00 +2.48924E+01 -1.01041E+01 +2.19737E+01
 -1.29276E+01 +1.82691E+01 -1.45139E+01 +1.41412E+01 -1.48262E+01 +9.97403E+00 -1.39404E+01 +6.13909E+00
 -1.20350E+01 +2.96399E+00 -9.37306E+00 +7.05402E-01 -6.27701E+00 -4.71262E-01 -3.09931E+00 -5.04024E-01
 -1.90931E-01 +5.62617E-01 +2.12926E+00 +2.58377E+00 +3.60180E+00 +5.32872E+00 +4.04831E+00 +8.50246E+00
 +3.38594E+00 +1.17725E+01 +1.63338E+00 +1.47983E+01 -1.09188E+00 +1.72610E+01 -4.58461E+00 +1.88908E+01
 -8.57026E+00 +1.94898E+01 -1.27290E+01 +1.89489E+01 -1.67232E+01 +1.72561E+01 -2.02264E+01 +1.44973E+01
 -2.29505E+01 +1.08487E+01 -2.46700E+01 +6.56147E+00 -2.52402E+01 +1.94053E+00 -2.46094E+01 -2.68076E+00
 -2.28221E+01 -6.96832E+00 -2.00152E+01 -1.06146E+01 -1.64064E+01 -1.33635E+01 -1.22758E+01 -1.50308E+01
 -7.94306E+00 -1.55181E+01 -3.74143E+00 -1.48207E+01 +8.90833E-03 -1.30265E+01 +3.02621E+00 -1.03085E+01
 +5.08904E+00 -6.90969E+00 +6.05303E+00 -3.12370E+00 +5.86118E+00 +7.29457E-01 +4.54714E+00 +4.32864E+00
 +2.23121E+00 +7.37671E+00 -8.90464E-01 +9.62330E+00 -4.56246E+00 +1.08835E+01 -8.49095E+00 +1.10508E+01
 -1.23672E+01 +1.01042E+01 -1.58918E+01 +8.10741E+00 -1.87973E+01 +5.20257E+00 -2.08681E+01 +1.59719E+00
 -2.19561E+01 -2.45335E+00 -2.19895E+01 -6.66669E+00 -2.09767E+01 -1.07559E+01 -1.90030E+01 -1.44517E+01
 -1.62220E+01 -1.75222E+01 -1.28409E+01 -1.97899E+01 -9.10334E+00 -2.11430E+01 -5.26908E+00 -2.15420E+01
 -1.59333E+00 -2.10196E+01 +1.69270E+00 -1.96754E+01 +4.39876E+00 -1.76657E+01 +6.38862E+00 -1.51885E+01
 +7.58833E+00 -1.24665E+01 +7.98919E+00 -9.72829E+00 +7.64544E+00 -7.19008E+00 +6.66693E+00 -5.03922E+00
 +5.20768E+00 -3.42058E+00 +3.45139E+00 -2.42700E+00 +1.59512E+00 -2.09437E+00 -1.67349E-01 -2.40158E+00
 -1.66115E+00 -3.27507E+00 -2.74371E+00 -4.59747E+00 -3.31492E+00 -6.21949E+00 -3.32322E+00 -7.97388E+00
 -2.76749E+00 -9.69013E+00 -1.69465E+00 -1.12089E+01 -1.93324E-01 -1.23949E+01 +1.61565E+00 -1.31466E+01
 +3.59093E+00 -1.34036E+01 +5.58358E+00 -1.31493E+01 +7.45001E+00 -1.24104E+01 +9.06378E+00 -1.12522E+01
 +1.03254E+01 -9.77134E+00 +1.11695E+01 -8.08592E+00 +1.15683E+01 -6.32456E+00 +1.15326E+01 -4.61486E+00
 +1.11081E+01 -3.07266E+00 +1.03704E+01 -1.79278E+00 +9.41639E+00 -8.42113E-01 +8.35538E+00 -2.55424E-01
 +7.29868E+00 -3.41167E-02 +6.35019E+00 -1.47960E-01 +5.59792E+00 -5.39429E-01 +5.10736E+00 -1.13015E+00
 +4.91715E+00 -1.82877E+00 +5.03740E+00 -2.53953E+00 +5.45046E+00 -3.17063E+00 +6.11415E+00 -3.64180E+00
 +6.96682E+00 -3.89039E+00 +7.93379E+00 -3.87551E+00 +8.93453E+00 -3.57999E+00 +9.88979E+00 -3.01020E+00
 +1.07281E+01 -2.19377E+00 +1.13911E+01 -1.17564E+00 +1.18373E+01 -1.29035E-02 +1.20439E+01 +1.23095E+00
 +1.20071E+01 +2.49191E+00 +1.17403E+01 +3.71077E+00 +1.12712E+01 +4.83749E+00 +1.06374E+01 +5.83429E+00
 +9.88237E+00 +6.67713E+00 +9.05068E+00 +7.35584E+00 +8.18383E+00 +7.87274E+00 +7.31715E+00 +8.24021E+00
 +6.47764E+00 +8.47752E+00 +5.68313E+00 +8.60733E+00 +4.94265E+00 +8.65239E+00 +4.25788E+00 +8.63269E+00
 +3.62536E+00 +8.56347E+00 +3.03921E+00 +8.45432E+00 +2.49380E+00 +8.30926E+00 +1.98613E+00 +8.12791E+00
 +1.51753E+00 +7.90752E+00 +1.09438E+00 +7.64536E+00 +7.27802E-01 +7.34138E+00 +4.32342E-01 +7.00055E+00
 +2.23696E-01 +6.63458E+00 +1.15846E-01 +6.26268E+00 +1.17911E-01 +5.91128E+00 +2.31146E-01 +5.61246E+00
 +4.46496E-01 +5.40132E+00 +7.43105E-01 +5.31245E+00 +1.08805E+00 +5.37586E+00 +1.43750E+00 +5.61277E+00
 +1.73928E+00 +6.03179E+00 +1.93676E+00 +6.62589E+00 +1.97372E+00 +7.37071E+00 +1.79984E+00 +8.22436E+00
 +1.37620E+00 +9.12901E+00 +6.80344E-01 +1.00143E+01 -2.89764E-01 +1.08020E+01 -1.51327E+00 +1.14127E+01
 -2.94593E+00 +1.17721E+01 -4.52166E+00 +1.18184E+01 -6.15630E+00 +1.15088E+01 -7.75327E+00 +1.08247E+01
 -9.21082E+00 +9.77512E+00 -1.04303E+01 +8.39845E+00 -1.13245E+01 +6.76095E+00 -1.18261E+01 +4.95322E+00
 -1.18944E+01 +3.08409E+00 -1.15200E+01 +1.27266E+00 -1.07281E+01 -3.61113E-01 -9.57722E+00 -1.70635E+00
 -8.15692E+00 -2.67098E+00 -6.58118E+00 -3.19030E+00 -4.98021E+00 -3.23359E+00 -3.49016E+00 -2.80818E+00
 -2.24200E+00 -1.96034E+00 -1.35026E+00 -7.72947E-01 -9.02804E-01 +6.40169E-01 -9.52467E-01 +2.14267E+00
 -1.51134E+00 +3.58643E+00 -2.54840E+00 +4.82373E+00 -3.99070E+00 +5.71969E+00 -5.72823E+00 +6.16418E+00
 -7.62210E+00 +6.08191E+00 -9.51544E+00 +5.43989E+00 -1.12463E+01 +4.25146E+00 -1.26610E+01 +2.57645E+00
 -1.36279E+01 +5.17441E-01 -1.40487E+01 -1.78788E+00 -1.38680E+01 -4.17749E+00 -1.30789E+01 -6.47826E+00
 -1.17248E+01 -8.52042E+00 -9.89726E+00 -1.01522E+01 -7.72851E+00 -1.12530E+01 -5.38168E+00 -1.17448E+01
 -3.03718E+00 -1.15995E+01 -8.77623E-01 -1.08422E+01 +9.27874E-01 -9.55066E+00 +2.23858E+00 -7.84928E+00
 +2.95492E+00 -5.89939E+00 +3.02794E+00 -3.88609E+00 +2.46466E+00 -2.00256E+00 +1.32863E+00 -4.33466E-01
 -2.64381E-01 +6.61331E-01 -2.15530E+00 +1.16132E+00 -4.15469E+00 +9.96730E-01 -6.05855E+00 +1.55880E-01
 -7.66580E+00 -1.31244E+00 -8.79589E+00 -3.30167E+00 -9.30508E+00 -5.65534E+00 -9.09992E+00 -8.17932E+00
 -8.14665E+00 -1.06577E+01 -6.47581E+00 -1.28708E+01 -4.18131E+00 -1.46144E+01 -1.41413E+00 -1.57170E+01
 +1.62908E+00 -1.60563E+01 +4.72149E+00 -1.55704E+01 +7.62465E+00 -1.42649E+01 +1.01083E+01 -1.22145E+01
 +1.19703E+01 -9.55819E+00 +1.30540E+01 -6.48950E+00 +1.32630E+01 -3.24164E+00 +1.25705E+01 -6.89941E-02
 +1.10238E+01 +2.77354E+00 +8.74144E+00 +5.05176E+00 +5.90583E+00 +6.57206E+00 +2.74942E+00 +7.19843E+00
 -4.63209E-01 +6.86501E+00 -3.45635E+00 +5.58318E+00 -5.96547E+00 +3.44229E+00 -7.75905E+00 +6.04195E-01
 -8.65815E+00 -2.70843E+00 -8.55202E+00 -6.22886E+00 -7.40843E+00 -9.66695E+00 -5.27777E+00 -1.27321E+01
 -2.29062E+00 -1.51567E+01 +1.35135E+00 -1.67177E+01 +5.39021E+00 -1.72553E+01 +9.53144E+00 -1.66870E+01
 +1.34667E+01 -1.50146E+01 +1.68982E+01 -1.23259E+01 +1.95619E+01 -8.78865E+00 +2.12494E+01 -4.63800E+00
 +2.18242E+01 -1.59079E-01 +2.12335E+01 +4.33509E+00 +1.95127E+01 +8.52787E+00 +1.67836E+01 +1.21238E+01
 +1.32449E+01 +1.48717E+01 +9.15718E+00 +1.65847E+01 +4.82266E+00 +1.71548E+01 +5.61661E-01 +1.65615E+01
 -3.31250E+00 +1.48736E+01 -6.51804E+00 +1.22435E+01 -8.82677E+00 +8.89518E+00 -1.00818E+01 +5.10643E+00
 -1.02098E+01 +1.18677E+00 -9.22615E+00 -2.54716E+00 -7.23331E+00 -5.79663E+00 -4.41226E+00 -8.30437E+00
 -1.00748E+00 -9.87476E+00 +2.69298E+00 -1.03889E+01 +6.38087E+00 -9.81346E+00 +9.75259E+00 -8.20272E+00
 +1.25335E+01 -5.69328E+00 +1.44999E+01 -2.49237E+00 +1.54963E+01 +1.13960E+00 +1.54478E+01 +4.91070E+00
 +1.43650E+01 +8.52150E+00 +1.23424E+01 +1.16896E+01 +9.54976E+00 +1.41726E+01 +6.21746E+00 +1.57875E+01
 +2.61679E+00 +1.64253E+01 -9.62797E-01 +1.60592E+01 -4.23796E+00 +1.47461E+01 -6.95499E+00 +1.26211E+01
 -8.91074E+00 +9.88540E+00 -9.96932E+00 +6.78897E+00 -1.00730E+01 +3.60925E+00 -9.24659E+00 +6.27414E-01
 -7.59492E+00 -1.89539E+00 -5.29359E+00 -3.74013E+00 -2.57380E+00 -4.74842E+00 +2.97475E-01 -4.83588E+00
 +3.04022E+00 -3.99927E+00 +5.38532E+00 -2.31689E+00 +7.09758E+00 +5.79685E-02 +7.99586E+00 +2.90982E+00
 +7.96886E+00 +5.97907E+00 +6.98494E+00 +8.98384E+00 +5.09547E+00 +1.16438E+01 +2.43113E+00 +1.37037E+01
 -8.08415E-01 +1.49557E+01 -4.37055E+00 +1.52567E+01 -7.97040E+00 +1.45416E+01 -1.13142E+01 +1.28291E+01
 -1.41237E+01 +1.02218E+01 -1.61593E+01 +6.89806E+00 -1.72405E+01 +3.09865E+00 -1.72611E+01 -8.92403E-01
 -1.61992E+01 -4.77050E+00 -1.41197E+01 -8.23501E+00 -1.11703E+01 -1.10137E+01 -7.57030E+00 -1.28850E+01
 -3.59389E+00 -1.36966E+01 +4.51252E-01 -1.33779E+01 +4.24820E+00 -1.19473E+01 +7.49594E+00 -9.51051E+00
 +9.93340E+00 -6.25401E+00 +1.13604E+01 -2.43024E+00 +1.16539E+01 +1.66150E+00 +1.07783E+01 +5.69835E+00
 +8.78861E+00 +9.35905E+00 +5.82680E+00 +1.23491E+01 +2.11098E+00 +1.44239E+01 -2.08122E+00 +1.54080E+01
 -6.43416E+00 +1.52087E+01 -1.06185E+01 +1.38240E+01 -1.43169E+01 +1.13422E+01 -1.72483E+01 +7.93530E+00
 -1.91899E+01 +3.84588E+00 -1.99942E+01 -6.32139E-01 -1.95998E+01 -5.17615E+00 -1.80365E+01 -9.45991E+00
 -1.54219E+01 -1.31787E+01 -1.19520E+01 -1.60728E+01 -7.88563E+00 -1.79471E+01 -3.52377E+00 -1.86857E+01
 +8.14016E-01 -1.82603E+01 +4.81459E+00 -1.67311E+01 +8.19547E+00 -1.42418E+01 +1.07264E+01 -1.10067E+01
 +1.22468E+01 -7.29375E+00 +1.26770E+01 -3.40232E+00 +1.20239E+01 +3.60271E-01 +1.03787E+01 +3.70329E+00
 +7.90874E+00 +6.37522E+00 +4.84273E+00 +8.18301E+00 +1.45195E+00 +9.00658E+00 -1.97225E+00 +8.80712E+00
 -5.14203E+00 +7.62895E+00 -7.79612E+00 +5.59456E+00 -9.72044E+00 +2.89350E+00 -1.07646E+01 -2.34052E-01
 -1.08532E+01 -3.51755E+00 -9.99057E+00 -6.67856E+00 -8.25938E+00 -9.45363E+00 -5.81260E+00 -1.16156E+01
 -2.85997E+00 -1.29916E+01 +3.50079E-01 -1.34768E+01 +3.55143E+00 -1.30418E+01 +6.48249E+00 -1.17342E+01
 +8.90776E+00 -9.67370E+00 +1.06371E+01 -7.04129E+00 +1.15409E+01 -4.06358E+00 +1.15604E+01 -9.93470E-01
 +1.07117E+01 +1.91121E+00 +9.08383E+00 +4.40916E+00 +6.83057E+00 +6.29561E+00 +4.15740E+00 +7.41910E+00
 +1.30376E+00 +7.69373E+00 -1.47698E+00 +7.10593E+00 -3.93875E+00 +5.71515E+00 -5.86322E+00 +3.64860E+00
 -7.07781E+00 +1.09037E+00 -7.46987E+00 -1.73403E+00 -6.99582E+00 -4.57649E+00 -5.68457E+00 -7.18684E+00
