 Created: 16-Jan-2021
 $NMID
 ID='D:\BASISSIMULATI'
 FMTDAT='(8E13.5)'
 VOLUME=   1.00000E+00
 TRAMP=   1.00000E+00
 $END
 +2.40367E+01 +4.99543E+00 +1.85385E+01 +1.48482E+01 +9.10937E+00 +2.02940E+01 -1.18411E+00 +2.00718E+01
 -9.17098E+00 +1.48418E+01 -1.26651E+01 +6.87244E+00 -1.11677E+01 -8.21562E-01 -5.94953E+00 -5.56767E+00
 +4.93919E-01 -5.95474E+00 +5.39392E+00 -2.26498E+00 +6.71303E+00 +3.71398E+00 +3.84326E+00 +9.40270E+00
 -2.23601E+00 +1.23920E+01 -9.37076E+00 +1.13001E+01 -1.50420E+01 +6.22664E+00 -1.72655E+01 -1.33778E+00
 -1.52599E+01 -9.08519E+00 -9.65929E+00 -1.47191E+01 -2.22327E+00 -1.67327E+01 +4.82497E+00 -1.48660E+01
 +9.57574E+00 -1.01034E+01 +1.10465E+01 -4.24313E+00 +9.42873E+00 +7.81277E-01 +5.90912E+00 +3.57007E+00
 +2.16051E+00 +3.68494E+00 -2.92481E-01 +1.70356E+00 -5.99960E-01 -1.08750E+00 +1.17139E+00 -3.22322E+00
 +4.14238E+00 -3.60813E+00 +7.00549E+00 -1.88657E+00 +8.52948E+00 +1.48037E+00 +7.99621E+00 +5.43329E+00
 +5.42167E+00 +8.72609E+00 +1.50259E+00 +1.03693E+01 -2.66837E+00 +9.94741E+00 -5.99856E+00 +7.71150E+00
 -7.75490E+00 +4.43568E+00 -7.76641E+00 +1.11018E+00 -6.41561E+00 -1.40736E+00 -4.44326E+00 -2.65835E+00
 -2.65283E+00 -2.68453E+00 -1.62646E+00 -1.94666E+00 -1.54870E+00 -1.10781E+00 -2.18724E+00 -7.69393E-01
 -3.02124E+00 -1.25540E+00 -3.45901E+00 -2.51363E+00 -3.06256E+00 -4.15664E+00 -1.70256E+00 -5.61628E+00
 +4.02424E-01 -6.35045E+00 +2.76635E+00 -6.02970E+00 +4.80096E+00 -4.64413E+00 +6.00690E+00 -2.50137E+00
 +6.12827E+00 -1.22967E-01 +5.22421E+00 +1.92256E+00 +3.63922E+00 +3.19510E+00 +1.88566E+00 +3.51212E+00
 +4.77722E-01 +2.99355E+00 -2.30971E-01 +2.01069E+00 -1.55726E-01 +1.05637E+00 +4.98202E-01 +5.77481E-01
 +1.30913E+00 +8.22177E-01 +1.78502E+00 +1.75100E+00 +1.53692E+00 +3.04217E+00 +4.23864E-01 +4.19285E+00
 -1.37990E+00 +4.68719E+00 -3.42217E+00 +4.17842E+00 -5.10780E+00 +2.62430E+00 -5.89200E+00 +3.27004E-01
 -5.46917E+00 -2.14240E+00 -3.89259E+00 -4.11650E+00 -1.57890E+00 -5.04775E+00 +8.11162E-01 -4.69657E+00
 +2.58187E+00 -3.22417E+00 +3.23368E+00 -1.15267E+00 +2.63711E+00 +8.00699E-01 +1.08554E+00 +1.96314E+00
 -7.96968E-01 +1.93899E+00 -2.26618E+00 +7.53086E-01 -2.71668E+00 -1.14903E+00 -1.89905E+00 -3.04907E+00
 -1.70762E-02 -4.20398E+00 +2.33287E+00 -4.10861E+00 +4.36233E+00 -2.68006E+00 +5.36272E+00 -2.96746E-01
 +4.95347E+00 +2.32390E+00 +3.21830E+00 +4.36771E+00 +6.80798E-01 +5.20139E+00 -1.87253E+00 +4.58781E+00
 -3.65903E+00 +2.76378E+00 -4.16260E+00 +3.54187E-01 -3.30085E+00 -1.84516E+00 -1.44039E+00 -3.13797E+00
 +7.40723E-01 -3.15603E+00 +2.49129E+00 -1.96840E+00 +3.23972E+00 -3.83806E-02 +2.77398E+00 +1.95018E+00
 +1.29116E+00 +3.33073E+00 -6.92598E-01 +3.67124E+00 -2.53152E+00 +2.89856E+00 -3.66755E+00 +1.29501E+00
 -3.80041E+00 -6.20583E-01 -2.95814E+00 -2.27690E+00 -1.45563E+00 -3.23133E+00 +2.32199E-01 -3.28964E+00
 +1.63014E+00 -2.53343E+00 +2.39970E+00 -1.26047E+00 +2.41434E+00 +1.29214E-01 +1.76134E+00 +1.25628E+00
 +6.85427E-01 +1.85593E+00 -4.95886E-01 +1.82282E+00 -1.47467E+00 +1.20861E+00 -2.01327E+00 +1.88018E-01
 -1.97890E+00 -9.87965E-01 -1.35790E+00 -2.03923E+00 -2.57422E-01 -2.70168E+00 +1.10385E+00 -2.77346E+00
 +2.42192E+00 -2.16311E+00 +3.35880E+00 -9.31453E-01 +3.62057E+00 +6.90278E-01 +3.04886E+00 +2.32627E+00
 +1.69751E+00 +3.53607E+00 -1.40552E-01 +3.93850E+00 -1.98247E+00 +3.34596E+00 -3.28250E+00 +1.86019E+00
 -3.60690E+00 -1.16297E-01 -2.79945E+00 -1.97546E+00 -1.07293E+00 -3.08898E+00 +1.02095E+00 -3.02807E+00
 +2.75003E+00 -1.73957E+00 +3.44606E+00 +3.94615E-01 +2.75322E+00 +2.65169E+00 +7.87475E-01 +4.19782E+00
 -1.86263E+00 +4.38134E+00 -4.30929E+00 +2.98516E+00 -5.66337E+00 +3.40335E-01 -5.35553E+00 -2.75313E+00
 -3.36262E+00 -5.28280E+00 -2.48662E-01 -6.37430E+00 +3.00627E+00 -5.61133E+00 +5.33740E+00 -3.20482E+00
 +5.97219E+00 +5.88362E-02 +4.71547E+00 +3.08107E+00 +2.03375E+00 +4.83691E+00 -1.09931E+00 +4.74501E+00
 -3.54619E+00 +2.88456E+00 -4.41587E+00 -2.46381E-02 -3.39087E+00 -2.87702E+00 -8.48875E-01 -4.58106E+00
 +2.26908E+00 -4.45858E+00 +4.79826E+00 -2.49621E+00 +5.77419E+00 +6.45149E-01 +4.78502E+00 +3.86774E+00
 +2.12229E+00 +6.03436E+00 -1.32532E+00 +6.37956E+00 -4.39529E+00 +4.78314E+00 -6.07141E+00 +1.80647E+00
 -5.84536E+00 -1.51940E+00 -3.88781E+00 -4.07283E+00 -9.69197E-01 -5.04577E+00 +1.83557E+00 -4.22425E+00
 +3.54538E+00 -2.04484E+00 +3.62481E+00 +5.88003E-01 +2.16165E+00 +2.64966E+00 -1.90101E-01 +3.37503E+00
 -2.47293E+00 +2.52910E+00 -3.79001E+00 +4.72669E-01 -3.63280E+00 -1.99357E+00 -2.05272E+00 -3.94003E+00
 +3.79857E-01 -4.65327E+00 +2.80467E+00 -3.88648E+00 +4.39548E+00 -1.92777E+00 +4.65524E+00 +5.29673E-01
 +3.57566E+00 +2.65733E+00 +1.61052E+00 +3.79430E+00 -5.16267E-01 +3.67059E+00 -2.08710E+00 +2.47430E+00
 -2.64503E+00 +7.48828E-01 -2.13476E+00 -8.30270E-01 -8.87511E-01 -1.70819E+00 +5.32265E-01 -1.63916E+00
 +1.55094E+00 -7.46908E-01 +1.79298E+00 +5.53270E-01 +1.19779E+00 +1.72991E+00 +1.28700E-02 +2.33541E+00
 -1.32167E+00 +2.15622E+00 -2.34414E+00 +1.26512E+00 -2.73084E+00 -3.17414E-02 -2.38951E+00 -1.32135E+00
 -1.46318E+00 -2.23014E+00 -2.56035E-01 -2.53716E+00 +8.81426E-01 -2.22127E+00 +1.66292E+00 -1.43821E+00
 +1.93782E+00 -4.48345E-01 +1.70944E+00 +4.71772E-01 +1.10750E+00 +1.10375E+00 +3.34520E-01 +1.33033E+00
 -3.91967E-01 +1.14523E+00 -8.87193E-01 +6.38817E-01 -1.03234E+00 -2.93128E-02 -7.94890E-01 -6.63960E-01
 -2.37918E-01 -1.07267E+00 +4.84397E-01 -1.10910E+00 +1.15149E+00 -7.17304E-01 +1.52603E+00 +3.47080E-02
 +1.42411E+00 +9.49347E-01 +7.88191E-01 +1.73599E+00 -2.64581E-01 +2.09117E+00 -1.44649E+00 +1.80449E+00
 -2.36889E+00 +8.54583E-01 -2.66587E+00 -5.46139E-01 -2.13419E+00 -1.98792E+00 -8.36150E-01 -2.98306E+00
 +8.82861E-01 -3.13574E+00 +2.48355E+00 -2.30254E+00 +3.40960E+00 -6.78137E-01 +3.29404E+00 +1.23867E+00
 +2.11693E+00 +2.80062E+00 +2.45823E-01 +3.44228E+00 -1.66992E+00 +2.90179E+00 -2.92448E+00 +1.34554E+00
 -3.02275E+00 -6.63157E-01 -1.88753E+00 -2.35302E+00 +8.05689E-02 -3.03032E+00 +2.12603E+00 -2.35566E+00
 +3.40976E+00 -5.01922E-01 +3.33239E+00 +1.87781E+00 +1.78557E+00 +3.87302E+00 -7.72845E-01 +4.65392E+00
 -3.46030E+00 +3.79910E+00 -5.28516E+00 +1.48315E+00 -5.52214E+00 -1.55751E+00 -4.00339E+00 -4.27874E+00
 -1.20701E+00 -5.71415E+00 +1.90110E+00 -5.34687E+00 +4.22079E+00 -3.32149E+00 +4.93582E+00 -4.06706E-01
 +3.83530E+00 +2.28619E+00 +1.40873E+00 +3.72711E+00 -1.33040E+00 +3.37154E+00 -3.23186E+00 +1.38589E+00
 -3.46077E+00 -1.40088E+00 -1.83839E+00 -3.80849E+00 +1.06653E+00 -4.76462E+00 +4.13925E+00 -3.73524E+00
 +6.14230E+00 -9.55081E-01 +6.19981E+00 +2.63847E+00 +4.15336E+00 +5.75016E+00 +6.45463E-01 +7.22197E+00
 -3.10925E+00 +6.48694E+00 -5.78256E+00 +3.80216E+00 -6.44580E+00 +1.63635E-01 -4.93647E+00 -3.07038E+00
 -1.93072E+00 -4.70537E+00 +1.31303E+00 -4.18161E+00 +3.44492E+00 -1.80308E+00 +3.55981E+00 +1.37105E+00
 +1.56773E+00 +3.93645E+00 -1.75121E+00 +4.69954E+00 -5.03598E+00 +3.16252E+00 -6.87129E+00 -2.55411E-01
 -6.34924E+00 -4.35395E+00 -3.44553E+00 -7.59897E+00 +9.41421E-01 -8.71260E+00 +5.31146E+00 -7.17763E+00
 +8.12539E+00 -3.45743E+00 +8.39497E+00 +1.16014E+00 +6.07077E+00 +5.04108E+00 +2.07389E+00 +6.82559E+00
 -2.04673E+00 +5.95204E+00 -4.70423E+00 +2.88000E+00 -4.88619E+00 -1.07814E+00 -2.55291E+00 -4.25725E+00
 +1.33477E+00 -5.28246E+00 +5.17372E+00 -3.60876E+00 +7.32934E+00 +2.51628E-01 +6.76738E+00 +4.90509E+00
 +3.46483E+00 +8.59272E+00 -1.55923E+00 +9.85279E+00 -6.60800E+00 +8.07879E+00 -9.93112E+00 +3.76022E+00
 -1.03739E+01 -1.68655E+00 -7.80697E+00 -6.43521E+00 -3.17430E+00 -8.92030E+00 +1.85822E+00 -8.41015E+00
 +5.52084E+00 -5.26762E+00 +6.59239E+00 -8.02797E-01 +4.84337E+00 +3.22476E+00 +1.10605E+00 +5.26541E+00
 -3.05053E+00 +4.55346E+00 -5.91542E+00 +1.38300E+00 -6.27585E+00 -3.01289E+00 -3.86458E+00 -6.92934E+00
 +5.48118E-01 -8.82490E+00 +5.44573E+00 -7.88739E+00 +9.12563E+00 -4.32334E+00 +1.03168E+01 +7.29557E-01
 +8.62762E+00 +5.62619E+00 +4.66496E+00 +8.81083E+00 -2.10248E-01 +9.36471E+00 -4.39009E+00 +7.30702E+00
 -6.59714E+00 +3.54846E+00 -6.32035E+00 -4.73051E-01 -3.95714E+00 -3.33031E+00 -6.22557E-01 -4.11632E+00
 +2.29089E+00 -2.74250E+00 +3.63207E+00 +7.27875E-02 +2.89742E+00 +3.10638E+00 +3.83131E-01 +5.09971E+00
 -2.95857E+00 +5.21747E+00 -5.89192E+00 +3.33086E+00 -7.35237E+00 +3.29295E-02 -6.81585E+00 -3.60430E+00
 -4.45547E+00 -6.42897E+00 -1.04277E+00 -7.61271E+00 +2.35481E+00 -6.91439E+00 +4.75911E+00 -4.72026E+00
 +5.60668E+00 -1.86210E+00 +4.90386E+00 +7.05616E-01 +3.17000E+00 +2.24447E+00 +1.20604E+00 +2.46567E+00
 -2.15080E-01 +1.58463E+00 -6.19784E-01 +1.92670E-01 +2.56468E-02 -9.92731E-01 +1.34370E+00 -1.39981E+00
 +2.71797E+00 -7.98278E-01 +3.53526E+00 +6.43364E-01 +3.40579E+00 +2.44651E+00 +2.28606E+00 +4.01249E+00
 +4.70789E-01 +4.83818E+00 -1.53098E+00 +4.67990E+00 -3.18156E+00 +3.61421E+00 -4.09252E+00 +1.98514E+00
 -4.13523E+00 +2.67363E-01 -3.45399E+00 -1.09981E+00 -2.38774E+00 -1.84903E+00 -1.33629E+00 -1.94990E+00
 -6.21281E-01 -1.58883E+00 -3.87979E-01 -1.07946E+00 -5.75657E-01 -7.40205E-01 -9.59180E-01 -7.81856E-01
 -1.24176E+00 -1.24036E+00 -1.16498E+00 -1.97226E+00 -6.00247E-01 -2.70956E+00 +4.05783E-01 -3.15308E+00
 +1.64322E+00 -3.07383E+00 +2.80289E+00 -2.39106E+00 +3.57177E+00 -1.20414E+00 +3.73104E+00 +2.31263E-01
 +3.22734E+00 +1.57594E+00 +2.19510E+00 +2.50808E+00 +9.21233E-01 +2.82262E+00 -2.39508E-01 +2.49818E+00
 -9.74808E-01 +1.70866E+00 -1.11705E+00 +7.72237E-01 -7.03534E-01 +4.96878E-02 +2.87404E-02 -1.77729E-01
 +7.17191E-01 +1.88707E-01 +9.97097E-01 +1.01857E+00 +6.35420E-01 +1.98335E+00 -3.71432E-01 +2.66105E+00
 -1.77412E+00 +2.68387E+00 -3.13636E+00 +1.87948E+00 -3.97475E+00 +3.54555E-01 -3.92828E+00 -1.51493E+00
 -2.89888E+00 -3.19121E+00 -1.10969E+00 -4.14929E+00 +9.46576E-01 -4.06084E+00 +2.65871E+00 -2.92190E+00
 +3.50025E+00 -1.07440E+00 +3.21530E+00 +8.93006E-01 +1.91915E+00 +2.33671E+00 +7.31331E-02 +2.77868E+00
 -1.66380E+00 +2.07855E+00 -2.65912E+00 +4.93382E-01 -2.52970E+00 -1.40079E+00 -1.28402E+00 -2.90278E+00
