 Created: 16-Jan-2021
 $NMID
 ID='D:\BASISSIMULATI'
 FMTDAT='(8E13.5)'
 VOLUME=   1.00000E+00
 TRAMP=   1.00000E+00
 $END
 +6.24778E+01 +9.88852E+00 +3.30041E+01 +5.04066E+01 -1.50030E+01 +5.04606E+01 -4.05266E+01 +1.42137E+01
 -2.60885E+01 -2.28386E+01 +8.28115E+00 -2.92191E+01 +2.79458E+01 -6.25549E+00 +1.85974E+01 +1.75610E+01
 -2.44423E+00 +1.86032E+01 -8.40838E+00 +2.11017E+00 +6.39827E+00 -6.34425E+00 +2.06321E+01 +8.57676E+00
 +1.05625E+01 +3.30268E+01 -2.15361E+01 +3.76254E+01 -4.64360E+01 +9.73024E+00 -3.68479E+01 -3.00244E+01
 +3.24114E+00 -4.55889E+01 +3.96573E+01 -2.07857E+01 +3.97549E+01 +2.35880E+01 +3.58872E+00 +4.86312E+01
 -3.64190E+01 +3.38094E+01 -4.67078E+01 -4.90280E+00 -2.34334E+01 -3.23633E+01 +7.03464E+00 -2.86218E+01
 +1.66553E+01 -5.72252E+00 +3.09888E+00 +8.43949E+00 -1.14632E+01 +6.01175E-01 -6.98161E+00 -1.53239E+01
 +1.18234E+01 -1.58519E+01 +2.09984E+01 +4.25520E+00 +4.80467E+00 +2.44229E+01 -2.47191E+01 +1.96140E+01
 -3.77987E+01 -1.17150E+01 -1.71418E+01 -4.29749E+01 +2.27521E+01 -4.42218E+01 +4.77603E+01 -1.18690E+01
 +3.63767E+01 +2.67972E+01 +6.18691E-02 +3.92080E+01 -2.83466E+01 +1.78772E+01 -2.61607E+01 -1.42410E+01
 -8.45172E-01 -2.76487E+01 +2.03872E+01 -1.45797E+01 +1.91767E+01 +6.42307E+00 +3.01637E+00 +1.24927E+01
 -5.78563E+00 +7.86339E-01 +4.01699E+00 -1.02160E+01 +2.00178E+01 -2.78449E+00 +2.01400E+01 +1.90010E+01
 -2.04235E+00 +3.21916E+01 -2.80585E+01 +1.92409E+01 -3.19958E+01 -1.19081E+01 -7.17375E+00 -3.35553E+01
 +2.55362E+01 -2.48489E+01 +3.68785E+01 +7.39907E+00 +1.70400E+01 +3.47815E+01 -1.54795E+01 +3.42643E+01
 -3.23484E+01 +9.24181E+00 -2.22895E+01 -1.56505E+01 +2.37707E-01 -1.96083E+01 +1.19150E+01 -4.82812E+00
 +4.48703E+00 +8.77296E+00 -8.84735E+00 +6.17553E+00 -9.92336E+00 -7.18753E+00 +3.59959E+00 -1.28508E+01
 +1.55342E+01 -9.29021E-01 +9.23478E+00 +1.77028E+01 -1.30648E+01 +2.20253E+01 -3.06055E+01 +3.37819E+00
 -2.44978E+01 -2.38519E+01 +2.58005E+00 -3.50794E+01 +2.77644E+01 -1.93744E+01 +2.94898E+01 +9.63637E+00
 +7.75548E+00 +2.67401E+01 -1.67259E+01 +1.89129E+01 -2.30033E+01 -3.59533E+00 -9.16303E+00 -1.90019E+01
 +8.25979E+00 -1.56868E+01 +1.26650E+01 -1.82482E+00 +3.84021E+00 +5.64691E+00 -4.05008E+00 -1.15080E-01
 +4.50401E-01 -9.29991E+00 +1.28631E+01 -7.49179E+00 +1.75984E+01 +7.23728E+00 +5.50556E+00 +2.08816E+01
 -1.47774E+01 +1.77337E+01 -2.41640E+01 -2.49560E+00 -1.20871E+01 -2.27552E+01 +1.22310E+01 -2.44774E+01
 +2.78678E+01 -5.48056E+00 +2.17567E+01 +1.78785E+01 +4.31322E-01 +2.62512E+01 -1.71599E+01 +1.49643E+01
 -1.79081E+01 -3.25953E+00 -5.59252E+00 -1.20922E+01 +5.31167E+00 -7.18882E+00 +5.34797E+00 +1.82895E+00
 -1.31528E+00 +3.60227E+00 -3.52208E+00 -2.40099E+00 +3.19055E+00 -6.26272E+00 +1.10570E+01 +1.46932E-01
 +8.65330E+00 +1.28042E+01 -5.75644E+00 +1.85800E+01 -2.06286E+01 +8.84564E+00 -2.16653E+01 -1.05559E+01
 -6.05070E+00 -2.36487E+01 +1.40360E+01 -1.90596E+01 +2.23251E+01 -6.72604E-01 +1.31200E+01 +1.61362E+01
 -4.36981E+00 +1.86667E+01 -1.55276E+01 +7.56507E+00 -1.36656E+01 -5.69339E+00 -4.31448E+00 -1.07754E+01
 +2.47101E+00 -7.41433E+00 +2.70782E+00 -3.07562E+00 +9.93835E-01 -3.26627E+00 +3.34334E+00 -5.51049E+00
 +9.07445E+00 -3.19939E+00 +1.09631E+01 +5.51286E+00 +3.52773E+00 +1.39915E+01 -9.66297E+00 +1.31000E+01
 -1.79034E+01 +8.90615E-01 -1.31170E+01 -1.41521E+01 +2.13437E+00 -2.00571E+01 +1.64036E+01 -1.19796E+01
 +1.92457E+01 +3.65211E+00 +9.82672E+00 +1.51172E+01 -3.47076E+00 +1.54355E+01 -1.11917E+01 +7.08647E+00
 -1.04222E+01 -2.05081E+00 -5.17564E+00 -6.42299E+00 -6.51124E-01 -6.43528E+00 +1.84518E+00 -5.47217E+00
 +4.36281E+00 -4.80384E+00 +7.85806E+00 -2.36428E+00 +9.62960E+00 +3.61506E+00 +5.87827E+00 +1.07753E+01
 -3.38659E+00 +1.34673E+01 -1.27058E+01 +7.91901E+00 -1.51082E+01 -3.46499E+00 -8.13593E+00 -1.32440E+01
 +3.76709E+00 -1.47521E+01 +1.27245E+01 -7.30829E+00 +1.34855E+01 +3.68123E+00 +6.76723E+00 +1.13202E+01
 -2.39401E+00 +1.21025E+01 -8.93772E+00 +7.20427E+00 -1.07068E+01 +1.96093E-01 -8.28382E+00 -5.82753E+00
 -3.25230E+00 -9.25109E+00 +2.78796E+00 -9.32720E+00 +7.96649E+00 -5.78304E+00 +1.00316E+01 +5.33071E-01
 +7.45548E+00 +7.06201E+00 +9.65639E-01 +1.04234E+01 -6.26965E+00 +8.56201E+00 -1.04269E+01 +2.32415E+00
 -9.42918E+00 -5.01269E+00 -4.02475E+00 -9.83175E+00 +3.04278E+00 -1.01168E+01 +8.68273E+00 -6.00654E+00
 +1.06210E+01 +7.43002E-01 +7.89067E+00 +7.43773E+00 +1.23310E+00 +1.10560E+01 -6.58354E+00 +9.35630E+00
 -1.14575E+01 +2.49739E+00 -1.01980E+01 -6.15294E+00 -3.07956E+00 -1.15137E+01 +5.69079E+00 -1.02043E+01
 +1.06807E+01 -3.23571E+00 +9.23612E+00 +4.63250E+00 +3.29950E+00 +8.62299E+00 -2.64948E+00 +7.49223E+00
 -5.52226E+00 +3.68882E+00 -5.59558E+00 +2.69441E-01 -4.83820E+00 -2.00211E+00 -3.85001E+00 -4.31609E+00
 -1.15833E+00 -6.93424E+00 +4.15868E+00 -7.52406E+00 +9.66557E+00 -3.26847E+00 +1.04767E+01 +5.13128E+00
 +3.89557E+00 +1.22514E+01 -6.75987E+00 +1.18932E+01 -1.37447E+01 +3.03172E+00 -1.13259E+01 -8.23623E+00
 -1.20162E+00 -1.34000E+01 +8.63707E+00 -8.94114E+00 +1.09434E+01 +6.35206E-01 +5.50653E+00 +7.22557E+00
 -1.41233E+00 +6.70837E+00 -3.77291E+00 +2.15622E+00 -1.61239E+00 -3.65732E-01 -3.81238E-02 +1.25840E+00
 -2.65373E+00 +3.06568E+00 -6.78369E+00 +6.75782E-02 -6.07773E+00 -7.06688E+00 +1.94968E+00 -1.14029E+01
 +1.16907E+01 -6.63359E+00 +1.38436E+01 +5.43102E+00 +4.70757E+00 +1.50857E+01 -9.10571E+00 +1.34043E+01
 -1.60203E+01 +1.11493E+00 -1.02356E+01 -1.14632E+01 +2.70060E+00 -1.38899E+01 +1.12472E+01 -5.33210E+00
 +8.96513E+00 +5.14068E+00 +2.44695E-01 +7.94288E+00 -5.01246E+00 +2.41267E+00 -2.05393E+00 -3.35952E+00
 +3.97104E+00 -1.92967E+00 +4.18468E+00 +5.01131E+00 -3.56363E+00 +8.33121E+00 -1.14134E+01 +1.78275E+00
 -9.44805E+00 -1.00885E+01 +3.13941E+00 -1.54459E+01 +1.57091E+01 -7.18109E+00 +1.59677E+01 +8.85424E+00
 +2.43666E+00 +1.84803E+01 -1.32649E+01 +1.27276E+01 -1.72252E+01 -3.18041E+00 -6.62909E+00 -1.47108E+01
 +7.73388E+00 -1.21308E+01 +1.24320E+01 +3.08270E-01 +4.67681E+00 +9.35257E+00 -5.61027E+00 +6.62159E+00
 -6.87811E+00 -3.04999E+00 +1.58975E+00 -7.42943E+00 +9.05244E+00 -6.01947E-01 +5.28358E+00 +1.01150E+01
 -7.58674E+00 +1.17354E+01 -1.63054E+01 -4.88026E-02 -1.01450E+01 -1.50389E+01 +7.07341E+00 -1.80501E+01
 +1.95708E+01 -4.53677E+00 +1.49373E+01 +1.38453E+01 -3.14771E+00 +2.00595E+01 -1.80239E+01 +8.39870E+00
 -1.62584E+01 -9.81460E+00 -7.09785E-01 -1.74964E+01 +1.27903E+01 -8.69802E+00 +1.16820E+01 +6.02910E+00
 -8.65339E-01 +1.11272E+01 -1.00313E+01 +2.31508E+00 -5.49559E+00 -9.32759E+00 +7.41987E+00 -9.67771E+00
 +1.34810E+01 +2.78336E+00 +4.23079E+00 +1.47381E+01 -1.20713E+01 +1.19789E+01 -1.82320E+01 -4.91204E+00
 -6.05674E+00 -1.99139E+01 +1.42002E+01 -1.73567E+01 +2.32342E+01 +1.75507E+00 +1.19021E+01 +1.99088E+01
 -9.28555E+00 +2.01200E+01 -2.03553E+01 +2.78054E+00 -1.16353E+01 -1.48531E+01 +6.94714E+00 -1.60851E+01
 +1.64386E+01 -1.34141E+00 +8.31720E+00 +1.30097E+01 -7.24946E+00 +1.21260E+01 -1.27401E+01 -1.84620E+00
 -2.17520E+00 -1.24505E+01 +1.23804E+01 -6.86434E+00 +1.37014E+01 +9.87106E+00 -1.77326E+00 +1.96061E+01
 -1.91721E+01 +1.02282E+01 -2.00410E+01 -1.07734E+01 -1.76493E+00 -2.29443E+01 +1.87399E+01 -1.34649E+01
 +2.14675E+01 +9.32587E+00 +3.44924E+00 +2.36950E+01 -1.80370E+01 +1.60401E+01 -2.26669E+01 -5.63888E+00
 -7.25190E+00 -2.00643E+01 +1.16345E+01 -1.42499E+01 +1.50864E+01 +3.80280E+00 +1.22286E+00 +1.41615E+01
 -1.35213E+01 +6.11396E+00 -1.22953E+01 -1.07349E+01 +3.98844E+00 -1.70008E+01 +1.74200E+01 -4.57589E+00
 +1.21902E+01 +1.40774E+01 -7.98289E+00 +1.85314E+01 -2.26983E+01 +2.06189E+00 -1.56107E+01 -2.03113E+01
 +8.19566E+00 -2.63252E+01 +2.64465E+01 -9.06099E+00 +2.16988E+01 +1.55662E+01 -1.14880E+00 +2.43930E+01
 -1.97828E+01 +1.00002E+01 -1.68731E+01 -1.22552E+01 +2.90771E+00 -2.02140E+01 +1.84901E+01 -7.36133E+00
 +1.45326E+01 +1.12977E+01 -2.99112E+00 +1.56794E+01 -1.38132E+01 +1.96243E+00 -5.40394E+00 -1.35696E+01
 +1.32897E+01 -1.21932E+01 +2.10529E+01 +6.70671E+00 +7.12164E+00 +2.40589E+01 -1.64566E+01 +2.06444E+01
 -2.62404E+01 -2.34160E+00 -1.13206E+01 -2.33281E+01 +1.48494E+01 -2.15881E+01 +2.72612E+01 +1.77804E+00
 +1.41030E+01 +2.46147E+01 -1.16364E+01 +2.56487E+01 -2.54615E+01 +5.35568E+00 -1.58855E+01 -1.53343E+01
 +4.84652E+00 -1.68056E+01 +1.44268E+01 -4.05123E-01 +3.94895E+00 +1.41150E+01 -1.33332E+01 +1.02115E+01
 -1.68600E+01 -7.70469E+00 -1.35049E+00 -1.91062E+01 +1.69033E+01 -9.68225E+00 +1.69949E+01 +1.24552E+01
 -3.94664E+00 +2.41675E+01 -2.63456E+01 +1.11540E+01 -2.72912E+01 -1.63548E+01 -3.96212E+00 -3.27536E+01
 +2.27435E+01 -2.22853E+01 +2.84717E+01 +5.16945E+00 +9.24131E+00 +2.38425E+01 -1.51909E+01 +1.75015E+01
 -2.15612E+01 -5.19530E+00 -6.07629E+00 -2.06391E+01 +1.31523E+01 -1.47477E+01 +1.60398E+01 +3.40575E+00
 +1.61194E+00 +1.25040E+01 -1.17654E+01 +2.42537E+00 -6.91177E+00 -1.47309E+01 +1.28520E+01 -1.77468E+01
 +2.63433E+01 +2.97407E-01 +1.67857E+01 +2.32245E+01 -9.49700E+00 +2.74801E+01 -2.79492E+01 +6.59771E+00
 -1.99786E+01 -2.09535E+01 +7.97874E+00 -2.92119E+01 +3.01664E+01 -1.01996E+01 +2.65239E+01 +1.82682E+01
 +1.89032E+00 +3.02917E+01 -1.97299E+01 +1.71065E+01 -1.95306E+01 -5.54969E+00 -1.87787E+00 -1.47241E+01
 +1.20099E+01 -3.79450E+00 +7.26214E+00 +1.20190E+01 -9.19116E+00 +1.32388E+01 -1.69440E+01 -2.28480E+00
 -5.03530E+00 -1.68265E+01 +1.51382E+01 -1.20635E+01 +2.10397E+01 +1.02351E+01 +2.99942E+00 +2.83542E+01
 -2.41659E+01 +2.22640E+01 -3.47067E+01 -5.25722E+00 -1.74714E+01 -3.00459E+01 +1.24790E+01 -2.97170E+01
 +2.82061E+01 -5.45386E+00 +1.69115E+01 +1.94619E+01 -8.40759E+00 +2.27127E+01 -2.29409E+01 +4.20502E+00
 -1.49281E+01 -1.55808E+01 +3.94699E+00 -1.75654E+01 +1.25036E+01 -3.22181E+00 +2.98381E+00 +8.62236E+00
 -1.12682E+01 +3.18037E+00 -1.11211E+01 -1.37869E+01 +6.64222E+00 -2.20008E+01 +2.46114E+01 -8.91558E+00
 +2.25273E+01 +1.54699E+01 -7.78081E-01 +2.74273E+01 -2.44617E+01 +1.35063E+01 -2.55804E+01 -1.48748E+01
 -1.98928E+00 -3.16615E+01 +2.50611E+01 -2.13513E+01 +3.14571E+01 +6.08889E+00 +1.33022E+01 +2.54410E+01
