 Created: 16-Jan-2021
 $NMID
 ID='D:\BASISSIMULATI'
 FMTDAT='(8E13.5)'
 VOLUME=   1.00000E+00
 TRAMP=   1.00000E+00
 $END
 +1.41834E+02 +2.17120E+01 +1.20362E+02 +7.67270E+01 +7.80163E+01 +1.17459E+02 +2.29558E+01 +1.36453E+02
 -3.42793E+01 +1.30517E+02 -8.28547E+01 +1.01312E+02 -1.13772E+02 +5.49904E+01 -1.21618E+02 +9.32396E-01
 -1.05593E+02 -5.01374E+01 -6.96129E+01 -8.82884E+01 -2.14652E+01 -1.06344E+02 +2.87875E+01 -1.01272E+02
 +7.08506E+01 -7.47354E+01 +9.62629E+01 -3.26966E+01 +1.00074E+02 +1.58373E+01 +8.17997E+01 +6.06674E+01
 +4.54669E+01 +9.24776E+01 -1.24948E+00 +1.04712E+02 -4.86198E+01 +9.48767E+01 -8.68542E+01 +6.50087E+01
 -1.08093E+02 +2.12234E+01 -1.07987E+02 -2.75608E+01 -8.65587E+01 -7.14572E+01 -4.81649E+01 -1.01629E+02
 -5.79923E-01 -1.12077E+02 +4.66083E+01 -1.00846E+02 +8.39621E+01 -7.03878E+01 +1.04114E+02 -2.70408E+01
 +1.03258E+02 +2.02933E+01 +8.18957E+01 +6.19791E+01 +4.47164E+01 +8.96214E+01 -3.93304E-01 +9.77746E+01
 -4.39792E+01 +8.50427E+01 -7.69672E+01 +5.43471E+01 -9.25254E+01 +1.23097E+01 -8.74633E+01 -3.21196E+01
 -6.28813E+01 -6.95096E+01 -2.39413E+01 -9.18901E+01 +2.11949E+01 -9.43942E+01 +6.30414E+01 -7.62645E+01
 +9.27358E+01 -4.10195E+01 +1.03862E+02 +4.25541E+00 +9.37747E+01 +5.03455E+01 +6.41598E+01 +8.77829E+01
 +2.07099E+01 +1.08778E+02 -2.80141E+01 +1.08815E+02 -7.23083E+01 +8.75844E+01 -1.03287E+02 +4.90654E+01
 -1.14682E+02 +7.40269E-01 -1.04119E+02 -4.79037E+01 -7.36035E+01 -8.72787E+01 -2.91301E+01 -1.09624E+02
 +2.05178E+01 -1.10567E+02 +6.55281E+01 -9.00042E+01 +9.70287E+01 -5.21176E+01 +1.08865E+02 -4.53571E+00
 +9.88316E+01 +4.32031E+01 +6.91025E+01 +8.15677E+01 +2.57876E+01 +1.02946E+02 -2.23079E+01 +1.03169E+02
 -6.54604E+01 +8.23356E+01 -9.49859E+01 +4.47782E+01 -1.04983E+02 -1.82254E+00 -9.35120E+01 -4.79965E+01
 -6.29686E+01 -8.43980E+01 -1.95880E+01 -1.03688E+02 +2.78265E+01 -1.02007E+02 +6.96877E+01 -7.97394E+01
 +9.75606E+01 -4.14225E+01 +1.05860E+02 +5.18378E+00 +9.29655E+01 +5.06741E+01 +6.15380E+01 +8.59005E+01
 +1.79631E+01 +1.03818E+02 -2.89487E+01 +1.00897E+02 -6.97504E+01 +7.78263E+01 -9.62679E+01 +3.93523E+01
 -1.03246E+02 -6.69104E+00 -8.93996E+01 -5.09789E+01 -5.76549E+01 -8.45865E+01 -1.45438E+01 -1.00792E+02
 +3.11337E+01 -9.64276E+01 +7.00995E+01 -7.25088E+01 +9.44792E+01 -3.40115E+01 +9.93930E+01 +1.11499E+01
 +8.39362E+01 +5.37373E+01 +5.13510E+01 +8.50679E+01 +8.35700E+00 +9.87756E+01 -3.62209E+01 +9.20986E+01
 -7.32495E+01 +6.64341E+01 -9.51431E+01 +2.70480E+01 -9.74027E+01 -1.79982E+01 -7.95276E+01 -5.94871E+01
 -4.51161E+01 -8.89159E+01 -1.13514E+00 -1.00222E+02 +4.34904E+01 -9.10108E+01 +7.96843E+01 -6.30446E+01
 +1.00055E+02 -2.18861E+01 +1.00388E+02 +2.42227E+01 +8.05016E+01 +6.60220E+01 +4.42786E+01 +9.51009E+01
 -1.11094E+00 +1.05589E+02 -4.66550E+01 +9.53366E+01 -8.33104E+01 +6.63410E+01 -1.03817E+02 +2.43411E+01
 -1.04150E+02 -2.23420E+01 -8.43171E+01 -6.44789E+01 -4.83424E+01 -9.37837E+01 -3.44588E+00 -1.04570E+02
 +4.14184E+01 -9.48770E+01 +7.73657E+01 -6.68453E+01 +9.73622E+01 -2.62624E+01 +9.76248E+01 +1.86198E+01
 +7.83614E+01 +5.87589E+01 +4.37020E+01 +8.61455E+01 +8.41286E-01 +9.54093E+01 -4.14321E+01 +8.48837E+01
 -7.45202E+01 +5.69178E+01 -9.17514E+01 +1.73754E+01 -8.97174E+01 -2.55726E+01 -6.89435E+01 -6.31163E+01
 -3.37586E+01 -8.75951E+01 +8.60281E+00 -9.40430E+01 +4.94833E+01 -8.11816E+01 +8.05657E+01 -5.16596E+01
 +9.55587E+01 -1.14957E+01 +9.14630E+01 +3.11595E+01 +6.91641E+01 +6.76882E+01 +3.32332E+01 +9.07577E+01
 -9.01955E+00 +9.58030E+01 -4.90438E+01 +8.19414E+01 -7.87944E+01 +5.21337E+01 -9.23663E+01 +1.25634E+01
 -8.71884E+01 -2.86386E+01 -6.45327E+01 -6.30610E+01 -2.92398E+01 -8.37310E+01 +1.12839E+01 -8.65358E+01
 +4.85903E+01 -7.10559E+01 +7.49230E+01 -4.06430E+01 +8.48077E+01 -1.72782E+00 +7.61751E+01 +3.75018E+01
 +5.07873E+01 +6.87807E+01 +1.38817E+01 +8.54634E+01 -2.68949E+01 +8.38914E+01 -6.30466E+01 +6.41533E+01
 -8.69638E+01 +3.00814E+01 -9.34833E+01 -1.15139E+01 -8.09538E+01 -5.22184E+01 -5.15906E+01 -8.37184E+01
 -1.10471E+01 -9.94892E+01 +3.27127E+01 -9.61273E+01 +7.10122E+01 -7.40533E+01 +9.62090E+01 -3.74448E+01
 +1.03237E+02 +6.58936E+00 +9.06332E+01 +4.94275E+01 +6.08401E+01 +8.26609E+01 +1.97241E+01 +9.97787E+01
 -2.45956E+01 +9.74738E+01 -6.33700E+01 +7.63050E+01 -8.89704E+01 +4.05850E+01 -9.64131E+01 -2.48578E+00
 -8.43518E+01 -4.42627E+01 -5.53411E+01 -7.63885E+01 -1.53172E+01 -9.24646E+01 +2.75982E+01 -8.93266E+01
 +6.47283E+01 -6.76692E+01 +8.85788E+01 -3.18965E+01 +9.43345E+01 +1.07694E+01 +8.08136E+01 +5.17424E+01
 +5.06924E+01 +8.27935E+01 +9.95592E+00 +9.76941E+01 -3.33105E+01 +9.34521E+01 -7.05451E+01 +7.08949E+01
 -9.44203E+01 +3.44847E+01 -1.00298E+02 -8.59218E+00 -8.71353E+01 -4.98762E+01 -5.76698E+01 -8.13307E+01
 -1.78402E+01 -9.69425E+01 +2.44259E+01 -9.39045E+01 +6.08161E+01 -7.31464E+01 +8.43011E+01 -3.91108E+01
 +9.05302E+01 +1.17504E+00 +7.86767E+01 +3.95405E+01 +5.15647E+01 +6.83299E+01 +1.50572E+01 +8.19432E+01
 -2.31643E+01 +7.79475E+01 -5.51792E+01 +5.75370E+01 -7.44427E+01 +2.52535E+01 -7.71089E+01 -1.19715E+01
 -6.27942E+01 -4.62549E+01 -3.46308E+01 -7.03837E+01 +1.39870E+00 -7.92910E+01 +3.77045E+01 -7.10856E+01
 +6.66567E+01 -4.74271E+01 +8.21533E+01 -1.31734E+01 +8.08709E+01 +2.46248E+01 +6.29434E+01 +5.81758E+01
 +3.19317E+01 +8.05472E+01 -5.90847E+00 +8.70878E+01 -4.29078E+01 +7.63805E+01 -7.15537E+01 +5.05346E+01
 -8.60274E+01 +1.47553E+01 -8.33949E+01 -2.37176E+01 -6.42091E+01 -5.70874E+01 -3.24002E+01 -7.85928E+01
 +5.52291E+00 -8.38888E+01 +4.17976E+01 -7.19376E+01 +6.89901E+01 -4.52250E+01 +8.15126E+01 -9.25989E+00
 +7.67671E+01 +2.85428E+01 +5.56829E+01 +6.03692E+01 +2.25374E+01 +7.95974E+01 -1.59032E+01 +8.21503E+01
 -5.17516E+01 +6.73338E+01 -7.75967E+01 +3.79919E+01 -8.80096E+01 -5.52508E-02 -8.06516E+01 -3.91773E+01
 -5.67601E+01 -7.14683E+01 -2.09146E+01 -9.03404E+01 +1.98728E+01 -9.18556E+01 +5.75582E+01 -7.55266E+01
 +8.46758E+01 -4.44237E+01 +9.58342E+01 -4.56888E+00 +8.87970E+01 +3.62647E+01 +6.49312E+01 +7.01029E+01
 +2.89330E+01 +9.03617E+01 -1.21122E+01 +9.31568E+01 -5.01463E+01 +7.80726E+01 -7.77473E+01 +4.82338E+01
 -8.96055E+01 +9.66981E+00 -8.35725E+01 -2.99010E+01 -6.10741E+01 -6.26193E+01 -2.68049E+01 -8.20558E+01
 +1.22294E+01 -8.44876E+01 +4.81288E+01 -6.96263E+01 +7.36880E+01 -4.06538E+01 +8.38369E+01 -3.56071E+00
 +7.66447E+01 +3.40744E+01 +5.36874E+01 +6.46193E+01 +1.97079E+01 +8.19237E+01 -1.83590E+01 +8.25476E+01
 -5.27978E+01 +6.64374E+01 -7.66720E+01 +3.69154E+01 -8.52181E+01 -1.17352E-02 -7.67931E+01 -3.68807E+01
 -5.31865E+01 -6.62875E+01 -1.92374E+01 -8.23818E+01 +1.81624E+01 -8.20394E+01 +5.14744E+01 -6.54759E+01
 +7.40429E+01 -3.61823E+01 +8.14367E+01 -1.97005E-01 +7.23329E+01 +3.51336E+01 +4.87664E+01 +6.26538E+01
 +1.56963E+01 +7.68502E+01 -2.00191E+01 +7.49634E+01 -5.10278E+01 +5.75345E+01 -7.09846E+01 +2.82786E+01
 -7.58402E+01 -6.68655E+00 -6.46584E+01 -4.00986E+01 -3.97977E+01 -6.50368E+01 -6.41976E+00 -7.63352E+01
 +2.85698E+01 -7.16339E+01 +5.79353E+01 -5.18576E+01 +7.55886E+01 -2.10234E+01 +7.78318E+01 +1.45797E+01
 +6.41114E+01 +4.76740E+01 +3.71326E+01 +7.14759E+01 +2.31070E+00 +8.10774E+01 -3.33280E+01 +7.44459E+01
 -6.25726E+01 +5.28406E+01 -7.94909E+01 +2.05591E+01 -8.06333E+01 -1.59309E+01 -6.57333E+01 -4.93000E+01
 -3.77631E+01 -7.28402E+01 -2.33362E+00 -8.18215E+01 +3.34392E+01 -7.44479E+01 +6.23720E+01 -5.22189E+01
 +7.86639E+01 -1.96260E+01 +7.90663E+01 +1.67563E+01 +6.35355E+01 +4.95989E+01 +3.52378E+01 +7.22971E+01
 -9.36148E-02 +8.03018E+01 -3.53188E+01 +7.20334E+01 -6.33333E+01 +4.91954E+01 -7.85008E+01 +1.64244E+01
 -7.77863E+01 -1.96502E+01 -6.13632E+01 -5.17476E+01 -3.25703E+01 -7.34051E+01 +2.76818E+00 -8.02789E+01
 +3.75233E+01 -7.10147E+01 +6.47020E+01 -4.75135E+01 +7.88569E+01 -1.45388E+01 +7.71799E+01 +2.12514E+01
 +6.00607E+01 +5.26533E+01 +3.09982E+01 +7.33708E+01 -4.11511E+00 +7.92834E+01 -3.81900E+01 +6.92690E+01
 -6.43747E+01 +4.54207E+01 -7.74371E+01 +1.26123E+01 -7.48152E+01 -2.24956E+01 -5.71241E+01 -5.28070E+01
 -2.80204E+01 -7.22266E+01 +6.54832E+00 -7.68873E+01 +3.95547E+01 -6.59244E+01 +6.43174E+01 -4.16398E+01
 +7.58517E+01 -9.02468E+00 +7.18737E+01 +2.52599E+01 +5.32541E+01 +5.42378E+01 +2.38321E+01 +7.20326E+01
 -1.03708E+01 +7.50551E+01 -4.23777E+01 +6.27259E+01 -6.56726E+01 +3.75848E+01 -7.55215E+01 +4.77034E+00
 -6.99285E+01 -2.90282E+01 -5.00359E+01 -5.69291E+01 -1.98884E+01 -7.32534E+01 +1.43909E+01 -7.46746E+01
 +4.58429E+01 -6.08896E+01 +6.80829E+01 -3.46769E+01 +7.65919E+01 -1.33116E+00 +6.96292E+01 +3.24098E+01
 +4.85818E+01 +5.97292E+01 +1.76807E+01 +7.51080E+01 -1.68561E+01 +7.54389E+01 -4.80816E+01 +6.06498E+01
 -6.97215E+01 +3.37145E+01 -7.74390E+01 +4.86840E-02 -6.97045E+01 -3.35866E+01 -4.80992E+01 -6.04492E+01
 -1.69885E+01 -7.51742E+01 +1.73628E+01 -7.48504E+01 +4.80582E+01 -5.96002E+01 +6.89592E+01 -3.25458E+01
 +7.59192E+01 +8.29217E-01 +6.76115E+01 +3.37918E+01 +4.57864E+01 +5.97203E+01 +1.49069E+01 +7.34377E+01
 -1.87608E+01 +7.22488E+01 -4.84179E+01 +5.64738E+01 -6.81056E+01 +2.93708E+01 -7.39032E+01 -3.53336E+00
 -6.47101E+01 -3.55681E+01 -4.24555E+01 -6.02699E+01 -1.16956E+01 -7.26860E+01 +2.13182E+01 -7.03679E+01
 +4.99096E+01 -5.38541E+01 +6.83283E+01 -2.65479E+01 +7.29080E+01 +5.98359E+00 +6.27980E+01 +3.71455E+01
 +4.01222E+01 +6.06535E+01 +9.53545E+00 +7.18047E+01 -2.27305E+01 +6.84222E+01 -5.01371E+01 +5.12846E+01
 -6.71654E+01 +2.39548E+01 -7.04310E+01 -7.95465E+00 -5.93623E+01 -3.79299E+01 -3.63044E+01 -5.98819E+01
 -6.03174E+00 -6.93825E+01 +2.52314E+01 -6.45585E+01 +5.10821E+01 -4.64648E+01 +6.62426E+01 -1.88608E+01
 +6.76323E+01 +1.25619E+01 +5.49899E+01 +4.13430E+01 +3.09223E+01 +6.15711E+01 +3.69320E-01 +6.90869E+01
 -3.04050E+01 +6.23293E+01 -5.50885E+01 +4.26514E+01 -6.86065E+01 +1.40447E+01 -6.81543E+01 -1.76734E+01
 -5.37683E+01 -4.60419E+01 -2.83204E+01 -6.52690E+01 +3.06366E+00 -7.14091E+01 +3.40426E+01 -6.31647E+01
 +5.83445E+01 -4.21518E+01 +7.10373E+01 -1.25749E+01 +6.95287E+01 +1.96223E+01 +5.40920E+01 +4.79577E+01
