 Created: 16-Jan-2021
 $NMID
 ID='D:\BASISSIMULATI'
 FMTDAT='(8E13.5)'
 VOLUME=   1.00000E+00
 TRAMP=   1.00000E+00
 $END
 +2.49234E+01 +3.81618E+00 +2.33834E+01 +9.34648E+00 +2.06352E+01 +1.43784E+01 +1.68242E+01 +1.86523E+01
 +1.21506E+01 +2.19486E+01 +6.85884E+00 +2.40989E+01 +1.22484E+00 +2.49944E+01 -4.45852E+00 +2.45921E+01
 -9.89648E+00 +2.29160E+01 -1.48078E+01 +2.00561E+01 -1.89391E+01 +1.61638E+01 -2.20784E+01 +1.14433E+01
 -2.40652E+01 +6.14144E+00 -2.47995E+01 +5.34548E-01 -2.42464E+01 -5.08599E+00 -2.24379E+01 -1.04288E+01
 -1.94707E+01 -1.52175E+01 -1.55016E+01 -1.92054E+01 -1.07389E+01 -2.21877E+01 -5.43151E+00 -2.40123E+01
 +1.44145E-01 -2.45876E+01 +5.69833E+00 -2.38869E+01 +1.09432E+01 -2.19496E+01 +1.56076E+01 -1.88794E+01
 +1.94512E+01 -1.48383E+01 +2.22769E+01 -1.00380E+01 +2.39407E+01 -4.72950E+00 +2.43592E+01 +8.10884E-01
 +2.35140E+01 +6.29532E+00 +2.14519E+01 +1.14397E+01 +1.82830E+01 +1.59781E+01 +1.41743E+01 +1.96768E+01
 +9.34111E+00 +2.23462E+01 +4.03584E+00 +2.38506E+01 -1.46533E+00 +2.41148E+01 -6.87673E+00 +2.31282E+01
 -1.19181E+01 +2.09452E+01 -1.63289E+01 +1.76819E+01 -1.98823E+01 +1.35102E+01 -2.23960E+01 +8.64867E+00
 -2.37425E+01 +3.35096E+00 -2.38548E+01 -2.10716E+00 -2.27302E+01 -7.44234E+00 -2.04302E+01 -1.23783E+01
 -1.70768E+01 -1.66603E+01 -1.28467E+01 -2.00678E+01 -7.96119E+00 -2.24265E+01 -2.67527E+00 -2.36167E+01
 +2.73606E+00 -2.35797E+01 +7.99198E+00 -2.23205E+01 +1.28204E+01 -1.99073E+01 +1.69721E+01 -1.64683E+01
 +2.02336E+01 -1.21841E+01 +2.24381E+01 -7.27917E+00 +2.34738E+01 -2.00917E+00 +2.32901E+01 +3.35175E+00
 +2.18995E+01 +8.52547E+00 +1.93772E+01 +1.32442E+01 +1.58568E+01 +1.72646E+01 +1.15231E+01 +2.03799E+01
 +6.60306E+00 +2.24310E+01 +1.35303E+00 +2.33141E+01 -3.95395E+00 +2.29864E+01 -9.04264E+00 +2.14679E+01
 -1.36498E+01 +1.88404E+01 -1.75378E+01 +1.52429E+01 -2.05069E+01 +1.08642E+01 -2.24056E+01 +5.93331E+00
 -2.31380E+01 +7.07228E-01 -2.26691E+01 -4.54240E+00 -2.10262E+01 -9.54337E+00 -1.82976E+01 -1.40371E+01
 -1.46272E+01 -1.77919E+01 -1.02078E+01 -2.06149E+01 -5.27037E+00 -2.23622E+01 -7.21032E-02 -2.29459E+01
 +5.11685E+00 -2.23387E+01 +1.00275E+01 -2.05750E+01 +1.44061E+01 -1.77491E+01 +1.80268E+01 -1.40102E+01
 +2.07040E+01 -9.55450E+00 +2.23012E+01 -4.61466E+00 +2.27384E+01 +5.52004E-01 +2.19957E+01 +5.67708E+00
 +2.01147E+01 +1.04950E+01 +1.71956E+01 +1.47568E+01 +1.33925E+01 +1.82429E+01 +8.90473E+00 +2.07746E+01
 +3.96659E+00 +2.22230E+01 -1.16477E+00 +2.25158E+01 -6.22288E+00 +2.16406E+01 -1.09457E+01 +1.96458E+01
 -1.50893E+01 +1.66377E+01 -1.84402E+01 +1.27746E+01 -2.08269E+01 +8.25897E+00 -2.21279E+01 +3.32657E+00
 -2.22785E+01 -1.76590E+00 -2.12740E+01 -6.75405E+00 -1.91691E+01 -1.13796E+01 -1.60758E+01 -1.54035E+01
 -1.21569E+01 -1.86190E+01 -7.61769E+00 -2.08611E+01 -2.69497E+00 -2.20162E+01 +2.35510E+00 -2.20272E+01
 +7.27040E+00 -2.08962E+01 +1.17965E+01 -1.86849E+01 +1.56997E+01 -1.55105E+01 +1.87793E+01 -1.15400E+01
 +2.08776E+01 -6.98134E+00 +2.18884E+01 -2.07218E+00 +2.17620E+01 +2.93208E+00 +2.05079E+01 +7.77178E+00
 +1.81938E+01 +1.21965E+01 +1.49423E+01 +1.59778E+01 +1.09244E+01 +1.89213E+01 +6.35034E+00 +2.08767E+01
 +1.45854E+00 +2.17449E+01 -3.49659E+00 +2.14837E+01 -8.25803E+00 +2.01095E+01 -1.25794E+01 +1.76963E+01
 -1.62379E+01 +1.43718E+01 -1.90454E+01 +1.03106E+01 -2.08586E+01 +5.72513E+00 -2.15860E+01 +8.54407E-01
 -2.11925E+01 -4.04839E+00 -1.97015E+01 -8.72901E+00 -1.71929E+01 -1.29454E+01 -1.37993E+01 -1.64801E+01
 -9.69898E+00 -1.91517E+01 -5.10613E+00 -2.08237E+01 -2.60107E-01 -2.14121E+01 +4.58723E+00 -2.08890E+01
 +9.18461E+00 -1.92844E+01 +1.32943E+01 -1.66842E+01 +1.67046E+01 -1.32256E+01 +1.92403E+01 -9.09007E+00
 +2.07723E+01 -4.49372E+00 +2.12237E+01 +3.24043E-01 +2.05737E+01 +5.11291E+00 +1.88588E+01 +9.62472E+00
 +1.61706E+01 +1.36263E+01 +1.26510E+01 +1.69114E+01 +8.48431E+00 +1.93116E+01 +3.88830E+00 +2.07048E+01
 -8.97740E-01 +2.10211E+01 -5.62522E+00 +2.02469E+01 -1.00492E+01 +1.84251E+01 -1.39412E+01 +1.56528E+01
 -1.71007E+01 +1.20760E+01 -1.93658E+01 +7.88214E+00 -2.06214E+01 +3.29024E+00 -2.08048E+01 -1.46069E+00
 -1.99092E+01 -6.12398E+00 -1.79839E+01 -1.04581E+01 -1.51311E+01 -1.42392E+01 -1.15011E+01 -1.72727E+01
 -7.28399E+00 -1.94032E+01 -2.69991E+00 -2.05225E+01 +2.01263E+00 -2.05751E+01 +6.60901E+00 -1.95610E+01
 +1.08512E+01 -1.75355E+01 +1.45203E+01 -1.46060E+01 +1.74275E+01 -1.09268E+01 +1.94239E+01 -6.69030E+00
 +2.04085E+01 -2.11765E+00 +2.03326E+01 +2.55329E+00 +1.92029E+01 +7.08015E+00 +1.70806E+01 +1.12286E+01
 +1.40781E+01 +1.47846E+01 +1.03535E+01 +1.75653E+01 +6.10146E+00 +1.94284E+01 +1.54381E+00 +2.02797E+01
 -3.08242E+00 +2.00776E+01 -7.53725E+00 +1.88352E+01 -1.15902E+01 +1.66195E+01 -1.50321E+01 +1.35479E+01
 -1.76862E+01 +9.78170E+00 -1.94168E+01 +5.51787E+00 -2.01365E+01 +9.78710E-01 -1.98105E+01 -3.59979E+00
 -1.84584E+01 -7.98019E+00 -1.61529E+01 -1.19359E+01 -1.30158E+01 -1.52630E+01 -9.21185E+00 -1.77905E+01
 -4.93993E+00 -1.93894E+01 -4.22659E-01 -1.99792E+01 +4.10518E+00 -1.95318E+01 +8.40885E+00 -1.80731E+01
 +1.22658E+01 -1.56811E+01 +1.54773E+01 -1.24822E+01 +1.78783E+01 -8.64436E+00 +1.93466E+01 -4.36801E+00
 +1.98083E+01 +1.24042E-01 +1.92419E+01 +4.59839E+00 +1.76796E+01 +8.82313E+00 +1.52047E+01 +1.25799E+01
 +1.19478E+01 +1.56751E+01 +8.07968E+00 +1.79500E+01 +3.80247E+00 +1.92886E+01 -6.61108E-01 +1.96240E+01
 -5.07921E+00 +1.89413E+01 -9.22293E+00 +1.72784E+01 -1.28781E+01 +1.47240E+01 -1.58566E+01 +1.14128E+01
 -1.80056E+01 +7.51820E+00 -1.92158E+01 +3.24368E+00 -1.94269E+01 -1.18826E+00 -1.86304E+01 -5.54748E+00
 -1.68701E+01 -9.60819E+00 -1.42397E+01 -1.31606E+01 -1.08777E+01 -1.60219E+01 -6.96034E+00 -1.80455E+01
 -2.69196E+00 -1.91285E+01 +1.70525E+00 -1.92172E+01 +6.00303E+00 -1.83095E+01 +9.97883E+00 -1.64550E+01
 +1.34274E+01 -1.37521E+01 +1.61712E+01 -1.03431E+01 +1.80698E+01 -6.40648E+00 +1.90270E+01 -2.14765E+00
 +1.89954E+01 +2.21182E+00 +1.79793E+01 +6.44569E+00 +1.60336E+01 +1.03348E+01 +1.32617E+01 +1.36784E+01
 +9.80928E+00 +1.63046E+01 +5.85703E+00 +1.80789E+01 +1.61107E+00 +1.89116E+01 -2.70774E+00 +1.87619E+01
 -6.87535E+00 +1.76400E+01 -1.06761E+01 +1.56064E+01 -1.39139E+01 +1.27690E+01 -1.64222E+01 +9.27672E+00
 -1.80730E+01 +5.31234E+00 -1.87827E+01 +1.08253E+00 -1.85170E+01 -3.19279E+00 -1.72921E+01 -7.29186E+00
 -1.51739E+01 -1.10026E+01 -1.22743E+01 -1.41338E+01 -8.74582E+00 -1.65243E+01 -4.77279E+00 -1.80523E+01
 -5.62308E-01 -1.86407E+01 +3.66675E+00 -1.82612E+01 +7.69511E+00 -1.69361E+01 +1.13145E+01 -1.47364E+01
 +1.43382E+01 -1.17783E+01 +1.66111E+01 -8.21700E+00 +1.80172E+01 -4.23872E+00 +1.84857E+01 -5.07006E-02
 +1.79949E+01 +4.12944E+00 +1.65724E+01 +8.08502E+00 +1.42944E+01 +1.16116E+01 +1.12811E+01 +1.45273E+01
 +7.69064E+00 +1.66827E+01 +3.71049E+00 +1.79678E+01 -4.52027E-01 +1.83183E+01 -4.58066E+00 +1.77184E+01
 -8.46147E+00 +1.62014E+01 -1.18939E+01 +1.38484E+01 -1.47012E+01 +1.07834E+01 -1.67393E+01 +7.16715E+00
 -1.79046E+01 +3.18842E+00 -1.81388E+01 -9.45616E-01 -1.74321E+01 -5.02025E+00 -1.58236E+01 -8.82442E+00
 -1.33988E+01 -1.21616E+01 -1.02855E+01 -1.48599E+01 -6.64690E+00 -1.67812E+01 -2.67283E+00 -1.78278E+01
 +1.42982E+00 -1.79475E+01 +5.44805E+00 -1.71366E+01 +9.17378E+00 -1.54393E+01 +1.24146E+01 -1.29460E+01
 +1.50037E+01 -9.78788E+00 +1.68086E+01 -6.13026E+00 +1.77376E+01 -2.16404E+00 +1.77448E+01 +1.90441E+00
 +1.68321E+01 +5.86392E+00 +1.50491E+01 +9.50951E+00 +1.24905E+01 +1.26530E+01 +9.29085E+00 +1.51327E+01
 +5.61759E+00 +1.68217E+01 +1.66234E+00 +1.76344E+01 -2.36915E+00 +1.75310E+01 -6.26771E+00 +1.65191E+01
 -9.83158E+00 +1.46533E+01 -1.28768E+01 +1.20327E+01 -1.52470E+01 +8.79486E+00 -1.68207E+01 +5.10925E+00
 -1.75186E+01 +1.16803E+00 -1.73066E+01 -2.82384E+00 -1.61980E+01 -6.65932E+00 -1.42524E+01 -1.01400E+01
 -1.15730E+01 -1.30862E+01 -8.30030E+00 -1.53467E+01 -4.60557E+00 -1.68060E+01 -6.81379E-01 -1.73904E+01
 +3.26829E+00 -1.70718E+01 +7.03862E+00 -1.58691E+01 +1.04346E+01 -1.38468E+01 +1.32812E+01 -1.11117E+01
 +1.54321E+01 -7.80754E+00 +1.67777E+01 -4.10690E+00 +1.72501E+01 -2.02654E-01 +1.68272E+01 +3.70230E+00
 +1.55330E+01 +7.40552E+00 +1.34369E+01 +1.07156E+01 +1.06494E+01 +1.34618E+01 +7.31696E+00 +1.55033E+01
 +3.61355E+00 +1.67361E+01 -2.67889E-01 +1.70981E+01 -4.12569E+00 +1.65729E+01 -7.75995E+00 +1.51900E+01
 -1.09828E+01 +1.30230E+01 -1.36283E+01 +1.01864E+01 -1.55606E+01 +6.82892E+00 -1.66814E+01 +3.12583E+00
 -1.69347E+01 -7.30006E-01 -1.63095E+01 -4.53832E+00 -1.48404E+01 -8.10181E+00 -1.26057E+01 -1.12364E+01
 -9.72315E+00 -1.37806E+01 -6.34378E+00 -1.56041E+01 -2.64405E+00 -1.66141E+01 +1.18346E+00 -1.67603E+01
 +4.94002E+00 -1.60373E+01 +8.43106E+00 -1.44848E+01 +1.14763E+01 -1.21853E+01 +1.39190E+01 -9.25995E+00
 +1.56340E+01 -5.86189E+00 +1.65342E+01 -2.16850E+00 +1.65751E+01 +1.62804E+00 +1.57567E+01 +5.33065E+00
 +1.41235E+01 +8.74764E+00 +1.17623E+01 +1.17026E+01 +8.79722E+00 +1.40435E+01 +5.38359E+00 +1.56505E+01
 +1.69946E+00 +1.64422E+01 -2.06353E+00 +1.63795E+01 -5.71010E+00 +1.54680E+01 -9.05151E+00 +1.37568E+01
 -1.19153E+01 +1.13369E+01 -1.41543E+01 +8.33533E+00 -1.56539E+01 +4.90921E+00 -1.63382E+01 +1.23720E+00
 -1.61739E+01 -2.48973E+00 -1.51716E+01 -6.07823E+00 -1.33853E+01 -9.34265E+00 -1.09096E+01 -1.21146E+01
 -7.87465E+00 -1.42515E+01 -4.43906E+00 -1.56443E+01 -7.81987E-01 -1.62227E+01 +2.90645E+00 -1.59586E+01
 +6.43496E+00 -1.48679E+01 +9.62103E+00 -1.30093E+01 +1.23004E+01 -1.04809E+01 +1.43353E+01 -7.41553E+00
 +1.56221E+01 -3.97347E+00 +1.60958E+01 -3.34071E-01 +1.57339E+01 +3.31351E+00 +1.45573E+01 +6.78017E+00
 +1.26291E+01 +9.88665E+00 +1.00510E+01 +1.24728E+01 +6.95833E+00 +1.44059E+01 +3.51273E+00 +1.55874E+01
 -1.06308E-01 +1.59579E+01 -3.71075E+00 +1.55002E+01 -7.11379E+00 +1.42402E+01 -1.01395E+01 +1.22451E+01
 -1.26320E+01 +9.62032E+00 -1.44635E+01 +6.50338E+00 -1.55405E+01 +3.05714E+00 -1.58093E+01 -5.38920E-01
 -1.52579E+01 -4.09802E+00 -1.39169E+01 -7.43575E+00 -1.18578E+01 -1.03796E+01 -9.18926E+00 -1.27781E+01
