 Created: 16-Jan-2021
 $NMID
 ID='D:\BASISSIMULATI'
 FMTDAT='(8E13.5)'
 VOLUME=   1.00000E+00
 TRAMP=   1.00000E+00
 $END
 +4.97332E+01 +7.61511E+00 +4.11056E+01 +1.73497E+01 +2.09566E+01 +2.34677E+01 -5.04206E+00 +2.51367E+01
 -2.95214E+01 +2.21168E+01 -4.55859E+01 +1.47606E+01 -4.88311E+01 +4.07568E+00 -3.85940E+01 -8.21967E+00
 -1.80661E+01 -1.97775E+01 +6.73895E+00 -2.79448E+01 +2.88185E+01 -3.03462E+01 +4.22334E+01 -2.56071E+01
 +4.37533E+01 -1.39876E+01 +3.36235E+01 +2.34151E+00 +1.52749E+01 +1.95734E+01 -5.86586E+00 +3.31224E+01
 -2.40457E+01 +3.88808E+01 -3.47998E+01 +3.45189E+01 -3.60430E+01 +2.04004E+01 -2.83717E+01 -2.40430E-01
 -1.45831E+01 -2.20025E+01 +1.34809E+00 -3.87646E+01 +1.54586E+01 -4.54757E+01 +2.47819E+01 -3.97423E+01
 +2.78863E+01 -2.26952E+01 +2.49046E+01 +1.18252E+00 +1.71689E+01 +2.52624E+01 +6.66454E+00 +4.26789E+01
 -4.48425E+00 +4.83659E+01 -1.43602E+01 +4.05927E+01 -2.14141E+01 +2.15138E+01 -2.45167E+01 -3.44871E+00
 -2.30124E+01 -2.72061E+01 -1.68437E+01 -4.30952E+01 -6.72875E+00 -4.68185E+01 +5.71338E+00 -3.76437E+01
 +1.80346E+01 -1.85164E+01 +2.73306E+01 +4.91829E+00 +3.09088E+01 +2.60490E+01 +2.71040E+01 +3.92344E+01
 +1.59834E+01 +4.13514E+01 -3.43515E-01 +3.25165E+01 -1.80078E+01 +1.58200E+01 -3.22766E+01 -3.77123E+00
 -3.88607E+01 -2.09509E+01 -3.52611E+01 -3.15536E+01 -2.17127E+01 -3.35528E+01 -1.37108E+00 -2.73402E+01
 +2.03946E+01 -1.53020E+01 +3.74560E+01 -9.16202E-01 +4.47196E+01 +1.22901E+01 +3.97128E+01 +2.15983E+01
 +2.34483E+01 +2.55654E+01 +2.58921E-01 +2.40624E+01 -2.33887E+01 +1.79918E+01 -4.07647E+01 +8.87088E+00
 -4.68684E+01 -1.54547E+00 -3.99273E+01 -1.15097E+01 -2.19339E+01 -1.94047E+01 +1.94742E+00 -2.38296E+01
 +2.49223E+01 -2.37440E+01 +4.05749E+01 -1.87088E+01 +4.47269E+01 -9.16969E+00 +3.65852E+01 +3.35358E+00
 +1.88519E+01 +1.63303E+01 -3.19718E+00 +2.66352E+01 -2.33464E+01 +3.12927E+01 -3.62580E+01 +2.83746E+01
 -3.89230E+01 +1.77686E+01 -3.13367E+01 +1.51780E+00 -1.62576E+01 -1.64684E+01 +1.79933E+00 -3.13416E+01
 +1.79686E+01 -3.86638E+01 +2.83829E+01 -3.57900E+01 +3.10790E+01 -2.28343E+01 +2.62556E+01 -2.86491E+00
 +1.59047E+01 +1.88036E+01 +3.02477E+00 +3.60647E+01 -9.27957E+00 +4.38090E+01 -1.85326E+01 +3.95018E+01
 -2.32870E+01 +2.40414E+01 -2.31700E+01 +1.60047E+00 -1.86790E+01 -2.15349E+01 -1.08883E+01 -3.87927E+01
 -1.20073E+00 -4.52566E+01 +8.80182E+00 -3.91230E+01 +1.74457E+01 -2.22247E+01 +2.30829E+01 +5.38652E-01
 +2.43191E+01 +2.26782E+01 +2.03620E+01 +3.80384E+01 +1.14017E+01 +4.25715E+01 -1.14107E+00 +3.54308E+01
 -1.46698E+01 +1.90793E+01 -2.58673E+01 -1.57667E+00 -3.15081E+01 -2.07186E+01 -2.94282E+01 -3.33164E+01
 -1.93492E+01 -3.64812E+01 -3.24335E+00 -3.00945E+01 +1.49602E+01 -1.65930E+01 +3.03276E+01 -4.91385E-02
 +3.83029E+01 +1.51049E+01 +3.61177E+01 +2.52971E+01 +2.37732E+01 +2.86319E+01 +4.24241E+00 +2.51266E+01
 -1.72355E+01 +1.63962E+01 -3.46025E+01 +4.97844E+00 -4.27585E+01 -6.43005E+00 -3.91226E+01 -1.55909E+01
 -2.44828E+01 -2.10588E+01 -2.84296E+00 -2.22349E+01 +1.97081E+01 -1.92366E+01 +3.67759E+01 -1.27203E+01
 +4.35456E+01 -3.75478E+00 +3.81932E+01 +6.23920E+00 +2.23937E+01 +1.55425E+01 +7.77575E-01 +2.22839E+01
 -2.04812E+01 +2.47456E+01 -3.54985E+01 +2.18101E+01 -4.03665E+01 +1.34287E+01 -3.41925E+01 +9.24110E-01
 -1.92048E+01 -1.30574E+01 +5.72724E-02 -2.50351E+01 +1.81726E+01 -3.15654E+01 +3.04209E+01 -3.02749E+01
 +3.40380E+01 -2.07322E+01 +2.88001E+01 -4.83460E+00 +1.68317E+01 +1.34878E+01 +1.77407E+00 +2.92445E+01
 -1.23649E+01 +3.77908E+01 -2.23046E+01 +3.62563E+01 -2.62209E+01 +2.45377E+01 -2.39615E+01 +5.50536E+00
 -1.67818E+01 -1.56957E+01 -6.77870E+00 -3.30809E+01 +3.74379E+00 -4.15823E+01 +1.27783E+01 -3.85886E+01
 +1.88876E+01 -2.47808E+01 +2.12643E+01 -3.98761E+00 +1.96706E+01 +1.79146E+01 +1.43710E+01 +3.47265E+01
 +6.11795E+00 +4.17501E+01 -3.82375E+00 +3.71507E+01 -1.36999E+01 +2.24485E+01 -2.14397E+01 +2.00165E+00
 -2.50316E+01 -1.83383E+01 -2.30603E+01 -3.29671E+01 -1.52554E+01 -3.81255E+01 -2.84258E+00 -3.28819E+01
 +1.14972E+01 -1.92349E+01 +2.41466E+01 -1.36097E+00 +3.14748E+01 +1.57145E+01 +3.09247E+01 +2.75816E+01
 +2.19244E+01 +3.16049E+01 +6.29353E+00 +2.74630E+01 -1.20553E+01 +1.69792E+01 -2.81018E+01 +3.37593E+00
 -3.71400E+01 -9.75282E+00 -3.62181E+01 -1.94129E+01 -2.51362E+01 -2.38548E+01 -6.65595E+00 -2.27679E+01
 +1.41891E+01 -1.70669E+01 +3.15107E+01 -8.42763E+00 +4.02945E+01 +1.22209E+00 +3.79127E+01 +1.00990E+01
 +2.49441E+01 +1.67794E+01 +5.03600E+00 +2.02648E+01 -1.61602E+01 +1.99875E+01 -3.26561E+01 +1.58450E+01
 -3.98840E+01 +8.29230E+00 -3.60080E+01 -1.55653E+00 -2.23969E+01 -1.19223E+01 -3.13435E+00 -2.05571E+01
 +1.62555E+01 -2.51851E+01 +3.04552E+01 -2.41201E+01 +3.58614E+01 -1.68869E+01 +3.15099E+01 -4.61560E+00
 +1.91762E+01 +9.99260E+00 +2.67847E+00 +2.32095E+01 -1.33496E+01 +3.12468E+01 -2.48078E+01 +3.13880E+01
 -2.91925E+01 +2.29337E+01 -2.60923E+01 +7.62260E+00 -1.70410E+01 -1.06664E+01 -4.85570E+00 -2.69085E+01
 +7.27206E+00 -3.63628E+01 +1.66286E+01 -3.60154E+01 +2.15413E+01 -2.55773E+01 +2.15534E+01 -7.69671E+00
 +1.72569E+01 +1.27203E+01 +9.92787E+00 +2.99024E+01 +1.13459E+00 +3.89085E+01 -7.55627E+00 +3.71079E+01
 -1.47396E+01 +2.49813E+01 -1.92429E+01 +5.99003E+00 -2.01934E+01 -1.44503E+01 -1.71474E+01 -3.05756E+01
 -1.02806E+01 -3.79608E+01 -5.62162E-01 -3.47774E+01 +1.02131E+01 -2.22464E+01 +1.96426E+01 -4.17681E+00
 +2.52142E+01 +1.42382E+01 +2.49976E+01 +2.79730E+01 +1.83291E+01 +3.35861E+01 +6.24502E+00 +3.00871E+01
 -8.54657E+00 +1.90349E+01 -2.22313E+01 +3.89608E+00 -3.08915E+01 -1.10825E+01 -3.16753E+01 -2.21079E+01
 -2.37677E+01 -2.68104E+01 -8.82469E+00 -2.46965E+01 +9.32439E+00 -1.70227E+01 +2.56735E+01 -6.21485E+00
 +3.54713E+01 +4.92513E+00 +3.56602E+01 +1.39572E+01 +2.58700E+01 +1.92875E+01 +8.63050E+00 +2.03248E+01
 -1.12933E+01 +1.73575E+01 -2.82658E+01 +1.12825E+01 -3.74373E+01 +3.32655E+00 -3.61866E+01 -5.15253E+00
 -2.49008E+01 -1.27729E+01 -6.85190E+00 -1.82048E+01 +1.27896E+01 -2.02950E+01 +2.84950E+01 -1.82838E+01
 +3.59933E+01 -1.20865E+01 +3.34706E+01 -2.53273E+00 +2.20046E+01 +8.57564E+00 +5.13046E+00 +1.87024E+01
 -1.22912E+01 +2.51272E+01 -2.55301E+01 +2.57010E+01 -3.13109E+01 +1.95882E+01 -2.86236E+01 +7.73323E+00
 -1.88175E+01 -7.16159E+00 -5.01501E+00 -2.12190E+01 +8.91688E+00 -3.04192E+01 +1.94892E+01 -3.17972E+01
 +2.44677E+01 -2.44347E+01 +2.32839E+01 -9.90307E+00 +1.69298E+01 +8.03194E+00 +7.45530E+00 +2.44051E+01
 -2.71376E+00 +3.44773E+01 -1.14032E+01 +3.51646E+01 -1.70998E+01 +2.60230E+01 -1.90888E+01 +9.46049E+00
 -1.73740E+01 -9.91155E+00 -1.24952E+01 -2.66102E+01 -5.35487E+00 -3.58934E+01 +2.88937E+00 -3.51611E+01
 +1.08832E+01 -2.47111E+01 +1.71563E+01 -7.62405E+00 +2.02987E+01 +1.11821E+01 +1.92602E+01 +2.64241E+01
 +1.37138E+01 +3.39935E+01 +4.35623E+00 +3.20989E+01 -7.01227E+00 +2.16789E+01 -1.77424E+01 +5.99707E+00
 -2.49321E+01 -1.04186E+01 -2.62388E+01 -2.31348E+01 -2.06709E+01 -2.90464E+01 -9.08309E+00 -2.71290E+01
 +5.83972E+00 -1.85300E+01 +2.01795E+01 -6.03686E+00 +2.98398E+01 +6.85591E+00 +3.17643E+01 +1.69583E+01
 +2.49431E+01 +2.21725E+01 +1.08613E+01 +2.18622E+01 -6.79150E+00 +1.67679E+01 -2.31112E+01 +8.57936E+00
 -3.33921E+01 -6.38970E-01 -3.45404E+01 -8.97056E+00 -2.60452E+01 -1.49837E+01 -1.01901E+01 -1.78514E+01
 +8.57821E+00 -1.73121E+01 +2.49444E+01 -1.35699E+01 +3.42889E+01 -7.22129E+00 +3.40432E+01 +7.67640E-01
 +2.44207E+01 +9.07403E+00 +8.30918E+00 +1.61026E+01 -9.63168E+00 +2.02111E+01 -2.43715E+01 +2.00829E+01
 -3.19728E+01 +1.51673E+01 -3.06729E+01 +6.03434E+00 -2.12766E+01 -5.52506E+00 -6.77864E+00 -1.67682E+01
 +8.62391E+00 -2.46372E+01 +2.07950E+01 -2.66199E+01 +2.68023E+01 -2.15842E+01 +2.56122E+01 -1.02979E+01
 +1.81788E+01 +4.58256E+00 +6.96354E+00 +1.91193E+01 -4.90193E+00 +2.91631E+01 -1.45210E+01 +3.15874E+01
 -1.99321E+01 +2.53013E+01 -2.04384E+01 +1.17034E+01 -1.65422E+01 -5.60504E+00 -9.58973E+00 -2.17994E+01
 -1.29894E+00 -3.22271E+01 +6.66218E+00 -3.37993E+01 +1.29440E+01 -2.59455E+01 +1.66185E+01 -1.08229E+01
 +1.71773E+01 +7.29597E+00 +1.45109E+01 +2.32767E+01 +8.92817E+00 +3.26353E+01 +1.21252E+00 +3.28444E+01
 -7.34806E+00 +2.40380E+01 -1.50490E+01 +8.91018E+00 -2.00385E+01 -8.14134E+00 -2.07583E+01 -2.23455E+01
 -1.64521E+01 -2.99420E+01 -7.56929E+00 -2.92032E+01 +4.11554E+00 -2.08048E+01 +1.57852E+01 -7.47744E+00
 +2.42503E+01 +6.91006E+00 +2.68529E+01 +1.85178E+01 +2.23355E+01 +2.45875E+01 +1.13814E+01 +2.40820E+01
 -3.39133E+00 +1.77697E+01 -1.80443E+01 +7.79727E+00 -2.83988E+01 -3.05669E+00 -3.12769E+01 -1.21820E+01
 -2.55179E+01 -1.77531E+01 -1.24335E+01 -1.90193E+01 +4.47417E+00 -1.62581E+01 +2.04768E+01 -1.04894E+01
 +3.09928E+01 -3.10031E+00 +3.29527E+01 +4.48026E+00 +2.57329E+01 +1.09850E+01 +1.13628E+01 +1.53953E+01
 -6.06710E+00 +1.69750E+01 -2.16148E+01 +1.53230E+01 -3.09434E+01 +1.04785E+01 -3.15758E+01 +3.05164E+00
 -2.35709E+01 -5.70753E+00 -9.43012E+00 -1.40001E+01 +6.71382E+00 -1.97875E+01 +2.03534E+01 -2.12935E+01
 +2.79112E+01 -1.75736E+01 +2.76995E+01 -8.96381E+00 +2.02706E+01 +2.78479E+00 +8.09593E+00 +1.47981E+01
 -5.27942E+00 +2.37794E+01 -1.63093E+01 +2.69469E+01 -2.24103E+01 +2.29323E+01 -2.25461E+01 +1.23377E+01
 -1.73086E+01 -2.26686E+00 -8.54051E+00 -1.69605E+01 +1.32129E+00 -2.75563E+01 +9.94561E+00 -3.08435E+01
 +1.56414E+01 -2.56018E+01 +1.76110E+01 -1.30559E+01 +1.59210E+01 +3.40017E+00 +1.12818E+01 +1.91500E+01
 +4.76607E+00 +2.96996E+01 -2.42627E+00 +3.20116E+01 -9.11001E+00 +2.54160E+01 -1.41866E+01 +1.18137E+01
 -1.67108E+01 -4.89350E+00 -1.60110E+01 -1.99659E+01 -1.18756E+01 -2.92237E+01 -4.75087E+00 -3.02481E+01
 +4.15408E+00 -2.30276E+01 +1.29602E+01 -9.87223E+00 +1.94644E+01 +5.35134E+00 +2.16952E+01 +1.84023E+01
 +1.85379E+01 +2.58896E+01 +1.02211E+01 +2.61710E+01 -1.53342E+00 +1.96807E+01 -1.38118E+01 +8.63679E+00
 -2.32322E+01 -3.73381E+00 -2.69108E+01 -1.41750E+01 -2.33824E+01 -2.02781E+01 -1.31710E+01 -2.10121E+01
 +1.20962E+00 -1.68012E+01 +1.58732E+01 -9.19599E+00 +2.66445E+01 -3.03694E-01 +3.02973E+01 +7.81506E+00
