 Created: 16-Jan-2021
 $NMID
 ID='D:\BASISSIMULATI'
 FMTDAT='(8E13.5)'
 VOLUME=   1.00000E+00
 TRAMP=   1.00000E+00
 $END
 +5.08166E+01 +9.06578E+00 +4.09535E+01 +2.97687E+01 +2.26903E+01 +4.24227E+01 +1.84630E+00 +4.41966E+01
 -1.54739E+01 +3.60823E+01 -2.51354E+01 +2.21405E+01 -2.62019E+01 +7.61179E+00 -2.07332E+01 -3.17659E+00
 -1.24359E+01 -8.19476E+00 -4.92545E+00 -7.91429E+00 -4.15571E-01 -4.46587E+00 +6.88574E-01 -3.36179E-01
 -6.76327E-01 +2.71096E+00 -3.13442E+00 +4.05299E+00 -5.65804E+00 +3.94743E+00 -7.87215E+00 +2.91801E+00
 -9.84550E+00 +1.22546E+00 -1.16263E+01 -1.28121E+00 -1.28760E+01 -4.91252E+00 -1.28392E+01 -9.70331E+00
 -1.06599E+01 -1.50934E+01 -5.85323E+00 -1.99268E+01 +1.33007E+00 -2.27818E+01 +9.83109E+00 -2.24695E+01
 +1.80310E+01 -1.84763E+01 +2.42032E+01 -1.11736E+01 +2.69877E+01 -1.74228E+00 +2.57334E+01 +8.12739E+00
 +2.06334E+01 +1.66402E+01 +1.26579E+01 +2.22892E+01 +3.33129E+00 +2.41600E+01 -5.58682E+00 +2.21073E+01
 -1.24650E+01 +1.67802E+01 -1.61474E+01 +9.48780E+00 -1.62138E+01 +1.91262E+00 -1.30791E+01 -4.28110E+00
 -7.88629E+00 -7.85097E+00 -2.20356E+00 -8.27822E+00 +2.39116E+00 -5.87332E+00 +4.71632E+00 -1.65382E+00
 +4.26343E+00 +2.95942E+00 +1.27740E+00 +6.52552E+00 -3.35580E+00 +7.93320E+00 -8.35485E+00 +6.63704E+00
 -1.23449E+01 +2.75164E+00 -1.41527E+01 -2.98568E+00 -1.30585E+01 -9.36108E+00 -8.97527E+00 -1.49218E+01
 -2.52270E+00 -1.82873E+01 +5.05094E+00 -1.84923E+01 +1.21248E+01 -1.52809E+01 +1.71118E+01 -9.24341E+00
 +1.89121E+01 -1.71016E+00 +1.72545E+01 +5.60787E+00 +1.27816E+01 +1.11300E+01 +6.81980E+00 +1.38840E+01
 +9.11307E-01 +1.37585E+01 -3.70255E+00 +1.14269E+01 -6.42888E+00 +7.98502E+00 -7.36400E+00 +4.48041E+00
 -7.04144E+00 +1.55735E+00 -6.04692E+00 -6.28075E-01 -4.71927E+00 -2.21944E+00 -3.09483E+00 -3.34550E+00
 -1.10258E+00 -3.89350E+00 +1.13703E+00 -3.52514E+00 +3.12603E+00 -1.93816E+00 +4.07298E+00 +7.83726E-01
 +3.24611E+00 +3.96367E+00 +4.24060E-01 +6.43859E+00 -3.80994E+00 +6.98481E+00 -8.12879E+00 +4.88301E+00
 -1.09029E+01 +3.44135E-01 -1.08492E+01 -5.43669E+00 -7.59503E+00 -1.06606E+01 -1.89008E+00 -1.35915E+01
 +4.64090E+00 -1.32194E+01 +1.00983E+01 -9.63211E+00 +1.29966E+01 -3.94314E+00 +1.27500E+01 +2.16735E+00
 +9.77333E+00 +7.07919E+00 +5.20305E+00 +9.75327E+00 +4.06238E-01 +9.95524E+00 -3.48866E+00 +8.14856E+00
 -5.85881E+00 +5.17308E+00 -6.59988E+00 +1.89459E+00 -5.96090E+00 -1.02373E+00 -4.33909E+00 -3.17832E+00
 -2.14712E+00 -4.36466E+00 +2.16236E-01 -4.49988E+00 +2.34173E+00 -3.60365E+00 +3.81095E+00 -1.84210E+00
 +4.26998E+00 +4.24194E-01 +3.55549E+00 +2.66070E+00 +1.80013E+00 +4.27965E+00 -5.59190E-01 +4.82461E+00
 -2.89827E+00 +4.13405E+00 -4.60615E+00 +2.40090E+00 -5.28046E+00 +9.65014E-02 -4.83120E+00 -2.20315E+00
 -3.45742E+00 -4.00455E+00 -1.52694E+00 -5.01495E+00 +5.66631E-01 -5.15635E+00 +2.49841E+00 -4.50005E+00
 +4.02957E+00 -3.18464E+00 +4.97277E+00 -1.37496E+00 +5.16179E+00 +7.21177E-01 +4.47163E+00 +2.81064E+00
 +2.89364E+00 +4.50381E+00 +6.22824E-01 +5.37707E+00 -1.90724E+00 +5.10613E+00 -4.08997E+00 +3.61873E+00
 -5.31169E+00 +1.19011E+00 -5.16411E+00 -1.58018E+00 -3.61744E+00 -3.92380E+00 -1.07522E+00 -5.14609E+00
 +1.72513E+00 -4.86814E+00 +3.94106E+00 -3.17407E+00 +4.90507E+00 -6.01308E-01 +4.35444E+00 +2.03065E+00
 +2.52402E+00 +3.89653E+00 +6.35528E-02 +4.44819E+00 -2.19421E+00 +3.60041E+00 -3.53134E+00 +1.74890E+00
 -3.59813E+00 -3.88424E-01 -2.52527E+00 -2.04844E+00 -8.50645E-01 -2.71178E+00 +7.10954E-01 -2.29031E+00
 +1.56340E+00 -1.13767E+00 +1.46903E+00 +1.21412E-01 +6.32754E-01 +8.72222E-01 -4.05612E-01 +7.82275E-01
 -1.02519E+00 -5.25892E-02 -8.14400E-01 -1.15298E+00 +2.29445E-01 -1.87385E+00 +1.68032E+00 -1.70190E+00
 +2.85489E+00 -5.03205E-01 +3.10364E+00 +1.38724E+00 +2.09893E+00 +3.27425E+00 -1.43636E-04 +4.36608E+00
 -2.57329E+00 +4.08660E+00 -4.74423E+00 +2.31363E+00 -5.68619E+00 -5.44701E-01 -4.91702E+00 -3.65965E+00
 -2.48456E+00 -6.03618E+00 +1.01406E+00 -6.82788E+00 +4.58298E+00 -5.61817E+00 +7.10789E+00 -2.58738E+00
 +7.69512E+00 +1.48600E+00 +5.98089E+00 +5.40685E+00 +2.31548E+00 +7.90148E+00 -2.25945E+00 +8.03536E+00
 -6.27768E+00 +5.58487E+00 -8.31727E+00 +1.21612E+00 -7.53482E+00 -3.64289E+00 -4.06176E+00 -7.25135E+00
 +9.32243E-01 -8.20194E+00 +5.59764E+00 -6.02103E+00 +8.09682E+00 -1.45098E+00 +7.36874E+00 +3.75812E+00
 +3.63024E+00 +7.51535E+00 -1.64287E+00 +8.26046E+00 -6.29403E+00 +5.65941E+00 -8.39875E+00 +7.90146E-01
 -7.11020E+00 -4.29736E+00 -3.04246E+00 -7.47062E+00 +1.99994E+00 -7.45431E+00 +5.83085E+00 -4.38458E+00
 +6.85500E+00 +2.79359E-01 +4.75211E+00 +4.43681E+00 +5.65475E-01 +6.28884E+00 -3.81825E+00 +5.09892E+00
 -6.52248E+00 +1.43657E+00 -6.45430E+00 -3.16204E+00 -3.66208E+00 -6.90136E+00 +8.22275E-01 -8.43967E+00
 +5.49821E+00 -7.29834E+00 +8.97051E+00 -3.86008E+00 +1.03256E+01 +9.27331E-01 +9.22762E+00 +5.91168E+00
 +5.83338E+00 +9.97941E+00 +6.98634E-01 +1.21566E+01 -5.23077E+00 +1.16851E+01 -1.06068E+01 +8.20998E+00
 -1.38210E+01 +2.08479E+00 -1.34353E+01 -5.37804E+00 -8.83999E+00 -1.19853E+01 -8.47594E-01 -1.52454E+01
 +8.17807E+00 -1.33600E+01 +1.49223E+01 -6.22446E+00 +1.63648E+01 +4.10695E+00 +1.11903E+01 +1.38847E+01
 +6.78600E-01 +1.90322E+01 -1.14737E+01 +1.69045E+01 -2.04840E+01 +7.63280E+00 -2.24703E+01 -5.65554E+00
 -1.62107E+01 -1.79681E+01 -3.81612E+00 -2.45042E+01 +1.00685E+01 -2.27242E+01 +2.02232E+01 -1.34605E+01
 +2.30851E+01 -5.27164E-01 +1.82135E+01 +1.09983E+01 +8.31665E+00 +1.70066E+01 -2.13446E+00 +1.60478E+01
 -8.99335E+00 +9.71514E+00 -1.02073E+01 +1.62241E+00 -6.45777E+00 -4.43996E+00 -4.69030E-01 -6.21732E+00
 +4.54174E+00 -3.76455E+00 +6.41766E+00 +9.82359E-01 +4.85073E+00 +5.46293E+00 +1.12409E+00 +7.81982E+00
 -2.88542E+00 +7.60033E+00 -5.77872E+00 +5.57100E+00 -7.16860E+00 +2.92033E+00 -7.46947E+00 +4.44417E-01
 -7.22484E+00 -1.76201E+00 -6.52439E+00 -3.97993E+00 -4.95436E+00 -6.23100E+00 -2.11820E+00 -7.87690E+00
 +1.67194E+00 -7.83791E+00 +5.10673E+00 -5.37291E+00 +6.34884E+00 -9.22703E-01 +4.11742E+00 +3.62493E+00
 -1.22439E+00 +5.61010E+00 -7.32254E+00 +3.01023E+00 -1.06367E+01 -4.14472E+00 -8.16219E+00 -1.32246E+01
 +7.64390E-01 -1.98231E+01 +1.35935E+01 -1.97339E+01 +2.52634E+01 -1.11720E+01 +3.03207E+01 +3.92583E+00
 +2.55197E+01 +2.03201E+01 +1.16128E+01 +3.15729E+01 -6.64409E+00 +3.29202E+01 -2.23954E+01 +2.35394E+01
 -2.96643E+01 +7.06996E+00 -2.60025E+01 -9.91898E+00 -1.35394E+01 -2.08160E+01 +2.06329E+00 -2.18372E+01
 +1.42196E+01 -1.35287E+01 +1.83118E+01 -2.47943E-01 +1.35003E+01 +1.20276E+01 +2.68378E+00 +1.84202E+01
 -9.20946E+00 +1.70818E+01 -1.76134E+01 +9.51003E+00 -2.01773E+01 -6.95079E-01 -1.72658E+01 -9.80437E+00
 -1.10843E+01 -1.55680E+01 -4.13459E+00 -1.77070E+01 +2.03987E+00 -1.72538E+01 +7.16430E+00 -1.53629E+01
 +1.16055E+01 -1.24422E+01 +1.54045E+01 -8.14155E+00 +1.77414E+01 -2.11546E+00 +1.72680E+01 +5.06827E+00
 +1.31234E+01 +1.16167E+01 +5.93449E+00 +1.51584E+01 -1.96053E+00 +1.40633E+01 -7.39296E+00 +8.64401E+00
 -7.98036E+00 +1.41411E+00 -3.58576E+00 -3.92800E+00 +3.29487E+00 -4.36950E+00 +8.59237E+00 +6.81974E-01
 +8.73176E+00 +8.81827E+00 +2.63857E+00 +1.56565E+01 -7.44501E+00 +1.70451E+01 -1.68843E+01 +1.13278E+01
 -2.09379E+01 +4.27696E-01 -1.72548E+01 -1.09101E+01 -7.25198E+00 -1.74182E+01 +4.41391E+00 -1.60003E+01
 +1.20837E+01 -7.41368E+00 +1.19294E+01 +3.97064E+00 +3.93488E+00 +1.22565E+01 -8.00721E+00 +1.29198E+01
 -1.79432E+01 +5.05210E+00 -2.07186E+01 -8.17578E+00 -1.44141E+01 -2.10323E+01 -1.17095E+00 -2.79263E+01
 +1.39299E+01 -2.59247E+01 +2.52810E+01 -1.58818E+01 +2.92007E+01 -1.74119E+00 +2.52487E+01 +1.14836E+01
 +1.59070E+01 +1.99353E+01 +5.00357E+00 +2.22476E+01 -4.15255E+00 +1.94857E+01 -9.94422E+00 +1.39800E+01
 -1.24684E+01 +7.88926E+00 -1.26628E+01 +2.34139E+00 -1.12746E+01 -2.48039E+00 -8.39219E+00 -6.58102E+00
 -3.79755E+00 -9.41732E+00 +2.20461E+00 -9.80881E+00 +8.17956E+00 -6.64169E+00 +1.17554E+01 +7.32341E-02
 +1.06769E+01 +8.54109E+00 +4.18283E+00 +1.55054E+01 -6.12880E+00 +1.75697E+01 -1.65830E+01 +1.29047E+01
 -2.28798E+01 +2.41235E+00 -2.20633E+01 -1.03666E+01 -1.40043E+01 -2.06777E+01 -1.59119E+00 -2.46605E+01
 +1.05276E+01 -2.10943E+01 +1.80464E+01 -1.18959E+01 +1.89039E+01 -1.11859E+00 +1.40409E+01 +7.02112E+00
 +6.67948E+00 +1.00758E+01 +5.54535E-01 +8.29603E+00 -1.94688E+00 +4.15131E+00 -7.88229E-01 +7.84363E-01
 +2.02281E+00 +2.77027E-01 +3.78574E+00 +2.64594E+00 +2.70725E+00 +6.04073E+00 -1.12304E+00 +7.94615E+00
 -5.85911E+00 +6.66883E+00 -8.98241E+00 +2.28874E+00 -8.69676E+00 -3.39839E+00 -4.87147E+00 -7.84832E+00
 +9.29943E-01 -9.07098E+00 +6.27647E+00 -6.56786E+00 +9.05115E+00 -1.46093E+00 +8.35656E+00 +4.16231E+00
 +4.73339E+00 +8.26123E+00 -3.06951E-01 +9.66103E+00 -5.07953E+00 +8.31570E+00 -8.38887E+00 +5.01047E+00
 -9.76123E+00 +8.01247E-01 -9.25874E+00 -3.43126E+00 -7.13544E+00 -7.09545E+00 -3.63752E+00 -9.72400E+00
 +9.17435E-01 -1.07804E+01 +5.89461E+00 -9.68533E+00 +1.01973E+01 -6.12543E+00 +1.24483E+01 -4.64796E-01
 +1.15085E+01 +6.04696E+00 +7.09457E+00 +1.15024E+01 +1.41198E-01 +1.39892E+01 -7.35569E+00 +1.23949E+01
 -1.30142E+01 +6.96282E+00 -1.49790E+01 -7.01516E-01 -1.26500E+01 -8.21066E+00 -6.88759E+00 -1.33028E+01
 +3.83967E-01 -1.46626E+01 +6.96666E+00 -1.23001E+01 +1.11915E+01 -7.36729E+00 +1.23911E+01 -1.56532E+00
 +1.08992E+01 +3.53538E+00 +7.67885E+00 +6.95814E+00 +3.83287E+00 +8.42624E+00 +2.43392E-01 +8.17867E+00
 -2.54812E+00 +6.68676E+00 -4.27408E+00 +4.45182E+00 -4.83046E+00 +1.94936E+00 -4.24060E+00 -3.41678E-01
 -2.70672E+00 -1.93961E+00 -6.64631E-01 -2.45825E+00 +1.26173E+00 -1.76764E+00 +2.43943E+00 -1.05419E-01
 +2.46610E+00 +1.96459E+00 +1.33360E+00 +3.75873E+00 -5.90230E-01 +4.74519E+00 -2.75970E+00 +4.72835E+00
 -4.71171E+00 +3.84069E+00 -6.22743E+00 +2.35864E+00 -7.29752E+00 +4.75689E-01 -7.92674E+00 -1.80137E+00
 -7.93116E+00 -4.54759E+00 -6.90141E+00 -7.66793E+00 -4.40579E+00 -1.06789E+01 -3.43311E-01 -1.27137E+01
 +4.76873E+00 -1.28187E+01 +9.78832E+00 -1.04293E+01 +1.33003E+01 -5.76973E+00 +1.41969E+01 +6.98819E-02
