 Created: 16-Jan-2021
 $NMID
 ID='D:\BASISSIMULATI'
 FMTDAT='(8E13.5)'
 VOLUME=   1.00000E+00
 TRAMP=   1.00000E+00
 $END
 +2.94720E+01 +4.51086E+00 +2.58518E+01 +1.45787E+01 +1.87393E+01 +2.24425E+01 +9.34700E+00 +2.69262E+01
 -7.55122E-01 +2.74787E+01 -9.94402E+00 +2.42563E+01 -1.68493E+01 +1.80633E+01 -2.05973E+01 +1.01688E+01
 -2.09474E+01 +2.03907E+00 -1.82955E+01 -4.95515E+00 -1.35515E+01 -9.79773E+00 -7.91941E+00 -1.19998E+01
 -2.63037E+00 -1.16549E+01 +1.31362E+00 -9.37091E+00 +3.33302E+00 -6.09764E+00 +3.36271E+00 -2.89238E+00
 +1.82798E+00 -6.74924E-01 -4.85602E-01 -2.54076E-02 -2.63599E+00 -1.06652E+00 -3.75549E+00 -3.45256E+00
 -3.25739E+00 -6.46400E+00 -9.74275E-01 -9.18402E+00 +2.80043E+00 -1.07162E+01 +7.37447E+00 -1.03952E+01
 +1.18068E+01 -7.94508E+00 +1.51122E+01 -3.55150E+00 +1.64745E+01 +2.16561E+00 +1.54255E+01 +8.27225E+00
 +1.19490E+01 +1.37064E+01 +6.49268E+00 +1.74905E+01 -1.15733E-01 +1.89248E+01 -6.82734E+00 +1.77244E+01
 -1.25729E+01 +1.40706E+01 -1.64637E+01 +8.57099E+00 -1.79523E+01 +2.13613E+00 -1.69224E+01 -4.19722E+00
 -1.36921E+01 -9.46138E+00 -8.93404E+00 -1.29311E+01 -3.53149E+00 -1.42417E+01 +1.59839E+00 -1.34319E+01
 +5.67660E+00 -1.09056E+01 +8.19650E+00 -7.32654E+00 +8.99525E+00 -3.46828E+00 +8.25218E+00 -5.49599E-02
 +6.41907E+00 +2.37650E+00 +4.10088E+00 +3.56519E+00 +1.91467E+00 +3.55133E+00 +3.57266E-01 +2.63680E+00
 -2.91487E-01 +1.29355E+00 -1.17917E-02 +4.23533E-02 +9.72303E-01 -6.70529E-01 +2.26145E+00 -5.72591E-01
 +3.38427E+00 +3.79595E-01 +3.91146E+00 +1.99840E+00 +3.55577E+00 +3.91426E+00 +2.23725E+00 +5.66303E+00
 +1.01459E-01 +6.79134E+00 -2.51139E+00 +6.95700E+00 -5.13778E+00 +6.00365E+00 -7.28653E+00 +3.99508E+00
 -8.53813E+00 +1.20382E+00 -8.62750E+00 -1.94192E+00 -7.49428E+00 -4.94080E+00 -5.29211E+00 -7.31269E+00
 -2.35687E+00 -8.68587E+00 +8.57907E-01 -8.86080E+00 +3.86453E+00 -7.83932E+00 +6.22669E+00 -5.81595E+00
 +7.63110E+00 -3.13517E+00 +7.93282E+00 -2.24790E-01 +7.16814E+00 +2.48060E+00 +5.53496E+00 +4.61165E+00
 +3.34711E+00 +5.91908E+00 +9.72943E-01 +6.30320E+00 -1.22953E+00 +5.81528E+00 -2.96906E+00 +4.63333E+00
 -4.06043E+00 +3.01921E+00 -4.44147E+00 +1.26663E+00 -4.16764E+00 -3.50011E-01 -3.38769E+00 -1.61736E+00
 -2.30690E+00 -2.40935E+00 -1.14575E+00 -2.69560E+00 -1.01442E-01 -2.53286E+00 +6.81617E-01 -2.04314E+00
 +1.12879E+00 -1.38377E+00 +1.23840E+00 -7.15479E-01 +1.07237E+00 -1.73684E-01 +7.37322E-01 +1.52755E-01
 +3.60053E-01 +2.32800E-01 +6.17678E-02 +9.37846E-02 -6.49137E-02 -1.87974E-01 +2.71091E-02 -5.04430E-01
 +3.30837E-01 -7.37997E-01 +7.86056E-01 -7.85190E-01 +1.28956E+00 -5.78120E-01 +1.71332E+00 -1.00439E-01
 +1.92814E+00 +6.05047E-01 +1.82916E+00 +1.43888E+00 +1.35927E+00 +2.25793E+00 +5.26039E-01 +2.89770E+00
 -5.91337E-01 +3.20091E+00 -1.84749E+00 +3.04804E+00 -3.04916E+00 +2.38452E+00 -3.98450E+00 +1.23912E+00
 -4.45923E+00 -2.70825E-01 -4.33365E+00 -1.94989E+00 -3.55385E+00 -3.55059E+00 -2.17035E+00 -4.81163E+00
 -3.39545E-01 -5.50264E+00 +1.69407E+00 -5.46730E+00 +3.63338E+00 -4.65682E+00 +5.17651E+00 -3.14632E+00
 +6.06911E+00 -1.12983E+00 +6.15121E+00 +1.10684E+00 +5.38956E+00 +3.23158E+00 +3.88826E+00 +4.92226E+00
 +1.87438E+00 +5.92356E+00 -3.39578E-01 +6.09333E+00 -2.41042E+00 +5.42920E+00 -4.02581E+00 +4.06927E+00
 -4.96090E+00 +2.26626E+00 -5.11868E+00 +3.39298E-01 -4.54558E+00 -1.38741E+00 -3.41869E+00 -2.64683E+00
 -2.00696E+00 -3.27964E+00 -6.13855E-01 -3.26256E+00 +4.86760E-01 -2.70821E+00 +1.10794E+00 -1.83630E+00
 +1.18808E+00 -9.21997E-01 +8.01878E-01 -2.32169E-01 +1.41061E-01 +3.66301E-02 -5.31379E-01 -1.94973E-01
 -9.43899E-01 -8.68175E-01 -8.82597E-01 -1.79610E+00 -2.46298E-01 -2.70357E+00 +9.22023E-01 -3.28869E+00
 +2.43526E+00 -3.29330E+00 +3.99475E+00 -2.56702E+00 +5.24957E+00 -1.11074E+00 +5.87059E+00 +9.10980E-01
 +5.62395E+00 +3.19238E+00 +4.42801E+00 +5.34045E+00 +2.38117E+00 +6.95013E+00 -2.46554E-01 +7.68559E+00
 -3.05756E+00 +7.35078E+00 -5.59830E+00 +5.93430E+00 -7.44447E+00 +3.61857E+00 -8.28249E+00 +7.50541E-01
 -7.97078E+00 -2.22064E+00 -6.56775E+00 -4.82695E+00 -4.32075E+00 -6.66899E+00 -1.61794E+00 -7.48994E+00
 +1.08721E+00 -7.22100E+00 +3.36333E+00 -5.98909E+00 +4.88252E+00 -4.08564E+00 +5.47914E+00 -1.90319E+00
 +5.17420E+00 +1.46621E-01 +4.16091E+00 +1.71647E+00 +2.75509E+00 +2.59062E+00 +1.32155E+00 +2.72235E+00
 +1.92542E-01 +2.23408E+00 -4.04126E-01 +1.38093E+00 -3.92044E-01 +4.86246E-01 +1.41672E-01 -1.36541E-01
 +9.71215E-01 -2.58383E-01 +1.78809E+00 +2.10850E-01 +2.27574E+00 +1.19972E+00 +2.18631E+00 +2.48933E+00
 +1.40249E+00 +3.76123E+00 -2.91133E-02 +4.66849E+00 -1.90076E+00 +4.91480E+00 -3.88208E+00 +4.32409E+00
 -5.58649E+00 +2.88567E+00 -6.65135E+00 +7.64819E-01 -6.81494E+00 -1.72386E+00 -5.97400E+00 -4.17486E+00
 -4.20935E+00 -6.17009E+00 -1.77444E+00 -7.36068E+00 +9.51225E-01 -7.53551E+00 +3.53383E+00 -6.66223E+00
 +5.56748E+00 -4.89265E+00 +6.74999E+00 -2.53166E+00 +6.93702E+00 +2.32514E-02 +6.16380E+00 +2.35934E+00
 +4.63108E+00 +4.12647E+00 +2.65896E+00 +5.09988E+00 +6.19028E-01 +5.21542E+00 -1.14039E+00 +4.57122E+00
 -2.36054E+00 +3.39668E+00 -2.91663E+00 +1.99645E+00 -2.83206E+00 +6.82398E-01 -2.26100E+00 -2.92024E-01
 -1.44436E+00 -7.80967E-01 -6.49729E-01 -7.69452E-01 -1.08979E-01 -3.66825E-01 +3.30146E-02 +2.26868E-01
 -2.52229E-01 +7.73136E-01 -8.74805E-01 +1.05379E+00 -1.65131E+00 +9.23041E-01 -2.35025E+00 +3.41740E-01
 -2.74736E+00 -6.13302E-01 -2.67843E+00 -1.76625E+00 -2.07812E+00 -2.88114E+00 -9.96562E-01 -3.71368E+00
 +4.09271E-01 -4.06457E+00 +1.90715E+00 -3.82274E+00 +3.23679E+00 -2.98952E+00 +4.16237E+00 -1.67910E+00
 +4.51913E+00 -9.58452E-02 +4.24468E+00 +1.50626E+00 +3.38889E+00 +2.87292E+00 +2.10129E+00 +3.79720E+00
 +5.99468E-01 +4.15606E+00 -8.74153E-01 +3.92867E+00 -2.09790E+00 +3.19407E+00 -2.90943E+00 +2.10980E+00
 -3.23011E+00 +8.77071E-01 -3.07135E+00 -2.99436E-01 -2.52323E+00 -1.24879E+00 -1.72915E+00 -1.86076E+00
 -8.53081E-01 -2.09813E+00 -4.67687E-02 -1.99344E+00 +5.76457E-01 -1.63250E+00 +9.56639E-01 -1.12980E+00
 +1.08929E+00 -6.01771E-01 +1.01594E+00 -1.43953E-01 +8.06757E-01 +1.83699E-01 +5.40263E-01 +3.61377E-01
 +2.85102E-01 +4.04456E-01 +8.76123E-02 +3.51703E-01 -3.28535E-02 +2.50592E-01 -8.11447E-02 +1.43774E-01
 -7.81294E-02 +5.98734E-02 -5.02705E-02 +1.01675E-02 -2.02246E-02 -9.06984E-03 -9.62939E-04 -1.03372E-02
 +5.47231E-03 -7.41866E-03 +5.01605E-03 -9.29701E-03 +6.15447E-03 -1.73507E-02 +1.43912E-02 -2.64242E-02
 +2.88253E-02 -2.89641E-02 +4.21895E-02 -2.03350E-02 +4.43906E-02 -3.00158E-03 +2.82560E-02 +1.23738E-02
 -4.74662E-03 +9.82677E-03 -4.12731E-02 -2.55383E-02 -5.72107E-02 -9.95862E-02 -2.36995E-02 -2.02350E-01
 +8.29934E-02 -3.05205E-01 +2.70305E-01 -3.63989E-01 +5.20368E-01 -3.28447E-01 +7.86566E-01 -1.56463E-01
 +9.98000E-01 +1.70215E-01 +1.07227E+00 +6.33073E-01 +9.34713E-01 +1.17101E+00 +5.40093E-01 +1.68465E+00
 -1.08566E-01 +2.05153E+00 -9.49354E-01 +2.15025E+00 -1.86316E+00 +1.88899E+00 -2.68918E+00 +1.23220E+00
 -3.25267E+00 +2.18646E-01 -3.40008E+00 -1.03448E+00 -3.03449E+00 -2.34429E+00 -2.14328E+00 -3.49084E+00
 -8.11042E-01 -4.25711E+00 +7.86664E-01 -4.47262E+00 +2.40924E+00 -4.05160E+00 +3.79271E+00 -3.01683E+00
 +4.69936E+00 -1.50296E+00 +4.96544E+00 +2.62938E-01 +4.53643E+00 +2.00091E+00 +3.48169E+00 +3.43048E+00
 +1.98435E+00 +4.32544E+00 +3.07224E-01 +4.55932E+00 -1.25884E+00 +4.13152E+00 -2.45377E+00 +3.16763E+00
 -3.10175E+00 +1.89297E+00 -3.14756E+00 +5.84208E-01 -2.66716E+00 -4.91002E-01 -1.84948E+00 -1.13335E+00
 -9.52408E-01 -1.25691E+00 -2.42298E-01 -9.09251E-01 +7.01494E-02 -2.61291E-01 -1.17066E-01 +4.31993E-01
 -7.67730E-01 +8.92099E-01 -1.70924E+00 +8.85813E-01 -2.66676E+00 +2.86904E-01 -3.32353E+00 -8.83802E-01
 -3.39483E+00 -2.45024E+00 -2.69950E+00 -4.10841E+00 -1.21287E+00 -5.48490E+00 +9.11994E-01 -6.21534E+00
 +3.36113E+00 -6.02642E+00 +5.71295E+00 -4.80358E+00 +7.51833E+00 -2.62883E+00 +8.39152E+00 +2.20935E-01
 +8.09289E+00 +3.31678E+00 +6.58552E+00 +6.15436E+00 +4.05264E+00 +8.24949E+00 +8.70728E-01 +9.23342E+00
 -2.45747E+00 +8.92763E+00 -5.39714E+00 +7.38214E+00 -7.48398E+00 +4.86839E+00 -8.41380E+00 +1.82732E+00
 -8.10038E+00 -1.21732E+00 -6.68906E+00 -3.76269E+00 -4.52272E+00 -5.42598E+00 -2.06715E+00 -6.01809E+00
 +1.88663E-01 -5.57602E+00 +1.83614E+00 -4.34701E+00 +2.63215E+00 -2.72754E+00 +2.54721E+00 -1.17047E+00
 +1.76589E+00 -8.03319E-02 +6.39306E-01 +2.80118E-01 -4.00458E-01 -1.48643E-01 -9.45082E-01 -1.20759E+00
 -7.10939E-01 -2.55408E+00 +3.86595E-01 -3.74005E+00 +2.20271E+00 -4.31710E+00 +4.38456E+00 -3.94524E+00
 +6.44113E+00 -2.48150E+00 +7.84766E+00 -2.77530E-02 +8.16247E+00 +3.07397E+00 +7.13115E+00 +6.29949E+00
 +4.75477E+00 +9.04281E+00 +1.30652E+00 +1.07387E+01 -2.70875E+00 +1.09816E+01 -6.64481E+00 +9.61592E+00
 -9.83659E+00 +6.77765E+00 -1.17300E+01 +2.87717E+00 -1.19921E+01 -1.47355E+00 -1.05783E+01 -5.57590E+00
 -7.74250E+00 -8.77793E+00 -3.98726E+00 -1.05990E+01 +3.57598E-02 -1.08195E+01 +3.65459E+00 -9.51783E+00
 +6.30830E+00 -7.04636E+00 +7.65343E+00 -3.95197E+00 +7.62364E+00 -8.58464E-01 +6.43030E+00 +1.66437E+00
 +4.50471E+00 +3.21714E+00 +2.39482E+00 +3.64789E+00 +6.39148E-01 +3.07385E+00 -3.54517E-01 +1.84355E+00
 -3.99233E-01 +4.48177E-01 +4.31757E-01 -5.98152E-01 +1.82507E+00 -8.82636E-01 +3.30223E+00 -1.95059E-01
 +4.33323E+00 +1.41659E+00 +4.46376E+00 +3.64886E+00 +3.42792E+00 +6.00408E+00 +1.22127E+00 +7.89730E+00
 -1.88266E+00 +8.78622E+00 -5.37692E+00 +8.29601E+00 -8.61847E+00 +6.31174E+00 -1.09581E+01 +3.01772E+00
 -1.18759E+01 -1.12550E+00 -1.10934E+01 -5.46296E+00 -8.63842E+00 -9.26945E+00 -4.84860E+00 -1.18906E+01
 -3.11616E-01 -1.28716E+01 +4.24513E+00 -1.20471E+01 +8.09344E+00 -9.57314E+00 +1.06430E+01 -5.89523E+00
 +1.15513E+01 -1.65847E+00 +1.07829E+01 +2.42039E+00 +8.60555E+00 +5.69292E+00 +5.52610E+00 +7.70182E+00
 +2.17938E+00 +8.26143E+00 -8.05335E-01 +7.48018E+00 -2.93202E+00 +5.72139E+00 -3.93311E+00 +3.51230E+00
 -3.81275E+00 +1.42147E+00 -2.83004E+00 -6.82243E-02 -1.42720E+00 -6.63810E-01 -1.19226E-01 -3.21380E-01
