 Created: 16-Jan-2021
 $NMID
 ID='D:\BASISSIMULATI'
 FMTDAT='(8E13.5)'
 VOLUME=   1.00000E+00
 TRAMP=   1.00000E+00
 $END
 +4.00379E+01 +9.32609E+00 +2.46183E+01 +3.13373E+01 -4.05909E-01 +3.77632E+01 -2.21909E+01 +2.69792E+01
 -3.08056E+01 +6.35363E+00 -2.43676E+01 -1.26306E+01 -9.11142E+00 -2.11641E+01 +5.22094E+00 -1.76260E+01
 +1.14650E+01 -7.35430E+00 +8.77152E+00 +1.67496E+00 +1.99154E+00 +4.15517E+00 -2.38730E+00 +3.42076E-01
 -7.85888E-01 -4.98917E+00 +5.38793E+00 -6.39124E+00 +1.11800E+01 -1.60277E+00 +1.17336E+01 +7.07517E+00
 +5.55332E+00 +1.45088E+01 -4.65919E+00 +1.61325E+01 -1.38552E+01 +1.06893E+01 -1.77007E+01 +6.93960E-01
 -1.48197E+01 -9.34447E+00 -7.01726E+00 -1.55100E+01 +2.24686E+00 -1.62001E+01 +9.83040E+00 -1.21870E+01
 +1.40459E+01 -5.46561E+00 +1.45761E+01 +1.99116E+00 +1.17499E+01 +8.72177E+00 +6.07444E+00 +1.35174E+01
 -1.56796E+00 +1.51071E+01 -9.44432E+00 +1.24419E+01 -1.49939E+01 +5.56149E+00 -1.57692E+01 -3.68757E+00
 -1.08895E+01 -1.19186E+01 -1.98913E+00 -1.56576E+01 +7.21019E+00 -1.32460E+01 +1.27031E+01 -5.95461E+00
 +1.23793E+01 +2.55617E+00 +7.19662E+00 +8.24449E+00 +5.36518E-01 +8.96715E+00 -3.90412E+00 +5.58589E+00
 -4.34697E+00 +1.18505E+00 -1.85269E+00 -1.07842E+00 +6.48724E-01 -6.53567E-02 +5.35776E-01 +2.69639E+00
 -2.60099E+00 +4.21245E+00 -6.61601E+00 +2.23744E+00 -8.25515E+00 -3.00509E+00 -5.41927E+00 -8.76850E+00
 +1.26900E+00 -1.14492E+01 +8.64154E+00 -8.88900E+00 +1.28027E+01 -1.82263E+00 +1.14306E+01 +6.44989E+00
 +5.12256E+00 +1.19365E+01 -3.00725E+00 +1.21828E+01 -9.15083E+00 +7.50618E+00 -1.08768E+01 +5.73546E-01
 -8.21628E+00 -5.27965E+00 -3.24501E+00 -7.87224E+00 +1.39393E+00 -7.06438E+00 +3.99714E+00 -4.33636E+00
 +4.43883E+00 -1.53998E+00 +3.72017E+00 +2.58564E-01 +2.93810E+00 +1.13503E+00 +2.47420E+00 +1.79650E+00
 +1.92307E+00 +2.73287E+00 +6.82802E-01 +3.71381E+00 -1.33647E+00 +3.97341E+00 -3.45849E+00 +2.87941E+00
 -4.62762E+00 +5.37768E-01 -4.13259E+00 -2.13793E+00 -2.12622E+00 -3.94767E+00 +4.34507E-01 -4.14142E+00
 +2.37795E+00 -2.85389E+00 +3.01800E+00 -9.52315E-01 +2.48946E+00 +5.68842E-01 +1.52049E+00 +1.20904E+00
 +8.42729E-01 +1.17819E+00 +6.76028E-01 +1.09538E+00 +6.44238E-01 +1.42398E+00 +1.55051E-01 +2.06749E+00
 -1.05306E+00 +2.41699E+00 -2.60274E+00 +1.81143E+00 -3.63871E+00 +8.10105E-02 -3.36001E+00 -2.21170E+00
 -1.57245E+00 -4.01279E+00 +1.10397E+00 -4.35993E+00 +3.51411E+00 -2.94700E+00 +4.56891E+00 -3.26322E-01
 +3.81316E+00 +2.36660E+00 +1.63950E+00 +3.99464E+00 -9.49057E-01 +3.97057E+00 -2.86528E+00 +2.48625E+00
 -3.44818E+00 +3.33872E-01 -2.69999E+00 -1.53758E+00 -1.17291E+00 -2.46916E+00 +3.77743E-01 -2.32344E+00
 +1.36224E+00 -1.43207E+00 +1.56976E+00 -3.45833E-01 +1.16569E+00 +4.52904E-01 +5.27496E-01 +7.38726E-01
 +3.02113E-02 +5.77885E-01 -1.18930E-01 +2.33673E-01 +5.53873E-02 +8.70794E-03 +3.37820E-01 +9.34484E-02
 +4.41700E-01 +4.73754E-01 +1.60878E-01 +9.29337E-01 -5.03549E-01 +1.13007E+00 -1.30132E+00 +8.03002E-01
 -1.81461E+00 -9.60316E-02 -1.65117E+00 -1.29486E+00 -6.72041E-01 -2.27166E+00 +8.65462E-01 -2.47797E+00
 +2.35154E+00 -1.62967E+00 +3.07198E+00 +8.42433E-02 +2.56219E+00 +2.00994E+00 +8.88274E-01 +3.28902E+00
 -1.31199E+00 +3.26683E+00 -3.08355E+00 +1.84607E+00 -3.60100E+00 -4.11860E-01 -2.58808E+00 -2.51655E+00
 -4.85141E-01 -3.51507E+00 +1.74090E+00 -2.96570E+00 +3.06515E+00 -1.17055E+00 +2.91937E+00 +9.67398E-01
 +1.48257E+00 +2.40399E+00 -4.16830E-01 +2.49806E+00 -1.75005E+00 +1.34913E+00 -1.85588E+00 -2.65710E-01
 -8.14532E-01 -1.33832E+00 +5.96150E-01 -1.22322E+00 +1.36030E+00 -4.07436E-02 +8.53955E-01 +1.36261E+00
 -7.22057E-01 +1.90613E+00 -2.38757E+00 +9.57735E-01 -2.92469E+00 -1.19425E+00 -1.63294E+00 -3.39348E+00
 +1.14412E+00 -4.21721E+00 +4.06924E+00 -2.82037E+00 +5.47323E+00 +4.64299E-01 +4.29624E+00 +4.15813E+00
 +7.76403E-01 +6.34681E+00 -3.54410E+00 +5.71473E+00 -6.55676E+00 +2.32739E+00 -6.69609E+00 -2.30827E+00
 -3.80727E+00 -5.98308E+00 +7.31989E-01 -6.94019E+00 +4.72742E+00 -4.80522E+00 +6.33256E+00 -7.64493E-01
 +5.00803E+00 +3.11101E+00 +1.73822E+00 +5.00648E+00 -1.60038E+00 +4.31484E+00 -3.33319E+00 +1.86501E+00
 -2.89923E+00 -6.74175E-01 -1.06245E+00 -1.83228E+00 +6.66902E-01 -1.18983E+00 +1.02083E+00 +4.49476E-01
 -2.35820E-01 +1.63898E+00 -2.17957E+00 +1.24319E+00 -3.32025E+00 -8.20505E-01 -2.53582E+00 -3.49025E+00
 +2.11441E-01 -5.15559E+00 +3.78650E+00 -4.57698E+00 +6.45037E+00 -1.60028E+00 +6.74849E+00 +2.71390E+00
 +4.23703E+00 +6.57945E+00 -3.00582E-01 +8.30260E+00 -5.19745E+00 +7.01438E+00 -8.59049E+00 +3.01051E+00
 -9.13067E+00 -2.38058E+00 -6.46198E+00 -7.28331E+00 -1.35449E+00 -9.91508E+00 +4.51155E+00 -9.19552E+00
 +9.05811E+00 -5.17344E+00 +1.05191E+01 +8.68592E-01 +8.16211E+00 +6.74643E+00 +2.73607E+00 +1.01451E+01
 -3.64865E+00 +9.61215E+00 -8.31792E+00 +5.33975E+00 -9.26503E+00 -7.42572E-01 -6.23027E+00 -5.77996E+00
 -9.73532E-01 -7.43088E+00 +3.57136E+00 -5.19448E+00 +4.93199E+00 -8.01610E-01 +2.62542E+00 +2.71578E+00
 -1.40610E+00 +2.87457E+00 -3.88503E+00 -5.58958E-01 -2.30927E+00 -5.15526E+00 +3.17405E+00 -7.15061E+00
 +9.41832E+00 -3.88275E+00 +1.19103E+01 +4.13297E+00 +7.59365E+00 +1.29237E+01 -2.80600E+00 +1.70265E+01
 -1.45443E+01 +1.27399E+01 -2.11466E+01 +7.42307E-01 -1.80880E+01 -1.36653E+01 -5.72354E+00 -2.31140E+01
 +1.04122E+01 -2.22246E+01 +2.23428E+01 -1.08268E+01 +2.39883E+01 +5.65486E+00 +1.46009E+01 +1.90331E+01
 -7.73636E-01 +2.28486E+01 -1.41481E+01 +1.59048E+01 -1.91047E+01 +2.75291E+00 -1.42864E+01 -9.14522E+00
 -3.81467E+00 -1.38317E+01 +5.53519E+00 -1.01615E+01 +8.57691E+00 -2.04424E+00 +4.72637E+00 +4.40181E+00
 -2.02636E+00 +4.89042E+00 -6.03450E+00 -3.81054E-01 -3.83433E+00 -7.08760E+00 +3.57677E+00 -9.79659E+00
 +1.14269E+01 -5.62436E+00 +1.42825E+01 +3.83046E+00 +9.52507E+00 +1.34480E+01 -1.01182E+00 +1.77262E+01
 -1.21770E+01 +1.40425E+01 -1.85429E+01 +4.03310E+00 -1.73659E+01 -7.59374E+00 -9.71137E+00 -1.58378E+01
 +6.76371E-01 -1.79296E+01 +9.71817E+00 -1.41577E+01 +1.49197E+01 -6.86590E+00 +1.58133E+01 +1.30419E+00
 +1.30998E+01 +8.56535E+00 +7.57798E+00 +1.39295E+01 -1.12326E-01 +1.64620E+01 -8.83331E+00 +1.49338E+01
 -1.62560E+01 +8.52252E+00 -1.92073E+01 -1.86469E+00 -1.53174E+01 -1.28915E+01 -5.00687E+00 -1.97675E+01
 +7.78337E+00 -1.87616E+01 +1.71198E+01 -9.77404E+00 +1.83286E+01 +2.93296E+00 +1.10128E+01 +1.27661E+01
 -3.12681E-01 +1.46554E+01 -8.75026E+00 +8.33883E+00 -9.36334E+00 -1.24312E+00 -2.55174E+00 -7.02160E+00
 +5.95730E+00 -4.56682E+00 +8.81312E+00 +4.58618E+00 +2.21812E+00 +1.34941E+01 -1.08760E+01 +1.42295E+01
 -2.19619E+01 +3.48910E+00 -2.21794E+01 -1.43549E+01 -8.38546E+00 -2.90983E+01 +1.39067E+01 -3.06809E+01
 +3.29553E+01 -1.57186E+01 +3.74509E+01 +9.61979E+00 +2.34506E+01 +3.24998E+01 -2.77476E+00 +4.05991E+01
 -2.79393E+01 +2.93098E+01 -3.92132E+01 +4.53881E+00 -3.14905E+01 -2.06684E+01 -1.00625E+01 -3.36504E+01
 +1.28477E+01 -2.92190E+01 +2.54411E+01 -1.20706E+01 +2.30079E+01 +6.74057E+00 +9.91409E+00 +1.68292E+01
 -4.01248E+00 +1.45160E+01 -1.00884E+01 +4.23651E+00 -6.05099E+00 -5.21110E+00 +3.21153E+00 -6.82532E+00
 +9.59192E+00 +1.31671E-01 +7.48728E+00 +1.01031E+01 -2.51629E+00 +1.53462E+01 -1.42478E+01 +1.12306E+01
 -2.01618E+01 -7.86766E-01 -1.61899E+01 -1.42647E+01 -4.08500E+00 -2.19423E+01 +1.00067E+01 -2.00654E+01
 +1.94617E+01 -1.01488E+01 +2.08450E+01 +2.60453E+00 +1.50875E+01 +1.27511E+01 +5.88217E+00 +1.74377E+01
 -3.09761E+00 +1.69396E+01 -1.00213E+01 +1.30985E+01 -1.47094E+01 +7.34243E+00 -1.71152E+01 +2.94046E-03
 -1.61966E+01 -8.67486E+00 -1.04329E+01 -1.70124E+01 +2.99558E-01 -2.15908E+01 +1.31474E+01 -1.89321E+01
 +2.27032E+01 -8.22054E+00 +2.37313E+01 +7.02511E+00 +1.46311E+01 +1.99891E+01 -8.18983E-01 +2.41489E+01
 -1.50135E+01 +1.73042E+01 -2.07735E+01 +3.30740E+00 -1.57234E+01 -9.94661E+00 -3.86617E+00 -1.52589E+01
 +6.88494E+00 -1.06262E+01 +9.79864E+00 -4.96404E-01 +3.76251E+00 +7.20388E+00 -5.93458E+00 +6.44583E+00
 -1.11416E+01 -2.65028E+00 -6.48647E+00 -1.36068E+01 +6.60723E+00 -1.77380E+01 +2.03114E+01 -1.00590E+01
 +2.51430E+01 +6.91918E+00 +1.61329E+01 +2.41252E+01 -3.55551E+00 +3.11948E+01 -2.39872E+01 +2.28481E+01
 -3.40845E+01 +2.37452E+00 -2.81024E+01 -2.00011E+01 -8.98887E+00 -3.29016E+01 +1.33769E+01 -3.02034E+01
 +2.78961E+01 -1.42285E+01 +2.83823E+01 +6.03765E+00 +1.64942E+01 +2.03818E+01 -1.75105E-02 +2.30157E+01
 -1.23180E+01 +1.51286E+01 -1.54919E+01 +3.15894E+00 -1.05975E+01 -5.70430E+00 -2.92486E+00 -7.76955E+00
 +1.97856E+00 -4.31943E+00 +1.77265E+00 +1.89114E-01 -1.79380E+00 +1.60628E+00 -4.75895E+00 -1.18637E+00
 -3.98310E+00 -5.93617E+00 +7.76307E-01 -8.94101E+00 +6.95355E+00 -7.67051E+00 +1.10584E+01 -2.29790E+00
 +1.08788E+01 +4.67017E+00 +6.55932E+00 +1.01139E+01 +9.66191E-02 +1.20383E+01 -6.07500E+00 +1.02476E+01
 -1.02790E+01 +5.82479E+00 -1.18728E+01 +1.48165E-01 -1.07782E+01 -5.67546E+00 -7.01118E+00 -1.06617E+01
 -8.07648E-01 -1.35407E+01 +6.76403E+00 -1.28247E+01 +1.34280E+01 -7.64169E+00 +1.62662E+01 +1.16703E+00
 +1.32178E+01 +1.06564E+01 +4.64360E+00 +1.67555E+01 -6.22844E+00 +1.63327E+01 -1.45871E+01 +9.15769E+00
 -1.65272E+01 -1.58572E+00 -1.12980E+01 -1.07899E+01 -1.85299E+00 -1.41828E+01 +6.77417E+00 -1.07230E+01
 +1.03601E+01 -3.12115E+00 +7.89105E+00 +3.88344E+00 +1.97358E+00 +6.44165E+00 -2.99169E+00 +3.88024E+00
 -3.69820E+00 -1.07788E+00 -3.03920E-02 -4.26638E+00 +4.96125E+00 -2.91392E+00 +7.16059E+00 +2.47477E+00
 +4.18120E+00 +8.40175E+00 -2.95398E+00 +1.06249E+01 -1.03215E+01 +6.92001E+00 -1.34616E+01 -1.40065E+00
 -1.01027E+01 -1.01555E+01 -1.56227E+00 -1.47041E+01 +7.99106E+00 -1.26025E+01 +1.39008E+01 -4.91775E+00
 +1.35504E+01 +4.49860E+00 +7.59541E+00 +1.12237E+01 -6.87871E-01 +1.25885E+01 -7.37706E+00 +8.80523E+00
 -9.94860E+00 +2.42280E+00 -8.26099E+00 -3.34892E+00 -4.11626E+00 -6.34288E+00 +9.24852E-02 -6.23120E+00
 +2.71297E+00 -4.16971E+00 +3.41339E+00 -1.75772E+00 +2.87906E+00 -7.33139E-02 +2.04831E+00 +6.84356E-01
 +1.47814E+00 +9.19688E-01 +1.18509E+00 +1.10648E+00 +8.99150E-01 +1.42575E+00 +4.09845E-01 +1.75768E+00
