 Created: 16-Jan-2021
 $NMID
 ID='D:\BASISSIMULATI'
 FMTDAT='(8E13.5)'
 VOLUME=   1.00000E+00
 TRAMP=   1.00000E+00
 $END
 +7.00560E+01 +1.17738E+01 +6.33091E+01 +2.99515E+01 +5.05523E+01 +4.46582E+01 +3.34035E+01 +5.41348E+01
 +1.39920E+01 +5.73290E+01 -5.33887E+00 +5.40205E+01 -2.23509E+01 +4.48270E+01 -3.52046E+01 +3.10918E+01
 -4.26852E+01 +1.46740E+01 -4.43314E+01 -2.32484E+00 -4.04522E+01 -1.78540E+01 -3.20350E+01 -3.01852E+01
 -2.05635E+01 -3.81224E+01 -7.77849E+00 -4.11233E+01 +4.58059E+00 -3.93213E+01 +1.50148E+01 -3.34497E+01
 +2.24505E+01 -2.46871E+01 +2.63478E+01 -1.44530E+01 +2.67217E+01 -4.18617E+00 +2.40803E+01 +4.85812E+00
 +1.92974E+01 +1.17653E+01 +1.34415E+01 +1.60525E+01 +7.59468E+00 +1.76858E+01 +2.68631E+00 +1.70293E+01
 -6.32335E-01 +1.47385E+01 -2.05832E+00 +1.16207E+01 -1.64640E+00 +8.48732E+00 +2.38122E-01 +6.02062E+00
 +3.01036E+00 +4.67454E+00 +5.98261E+00 +4.62173E+00 +8.48653E+00 +5.75018E+00 +9.98182E+00 +7.70557E+00
 +1.01360E+01 +9.96862E+00 +8.86612E+00 +1.19527E+01 +6.33939E+00 +1.31055E+01 +2.93618E+00 +1.29990E+01
 -8.16246E-01 +1.13966E+01 -4.32762E+00 +8.28830E+00 -7.03321E+00 +3.89259E+00 -8.47486E+00 -1.37361E+00
 -8.36423E+00 -6.95082E+00 -6.62150E+00 -1.22099E+01 -3.38597E+00 -1.65323E+01 +1.00109E+00 -1.93871E+01
 +6.03816E+00 -2.03963E+01 +1.11239E+01 -1.93823E+01 +1.56290E+01 -1.63903E+01 +1.89712E+01 -1.16871E+01
 +2.06857E+01 -5.73320E+00 +2.04821E+01 +8.65548E-01 +1.82832E+01 +7.42432E+00 +1.42400E+01 +1.32550E+01
 +8.72055E+00 +1.77440E+01 +2.27365E+00 +2.04231E+01 -4.42933E+00 +2.10255E+01 -1.06695E+01 +1.95198E+01
 -1.57634E+01 +1.61164E+01 -1.91442E+01 +1.12460E+01 -2.04320E+01 +5.50967E+00 -1.94824E+01 -3.92468E-01
 -1.64075E+01 -5.74716E+00 -1.15658E+01 -9.91685E+00 -5.51929E+00 -1.24204E+01 +1.03469E+00 -1.29943E+01
 +7.35115E+00 -1.16262E+01 +1.27313E+01 -8.55472E+00 +1.66107E+01 -4.23542E+00 +1.86291E+01 +7.22524E-01
 +1.86727E+01 +5.64093E+00 +1.68812E+01 +9.86608E+00 +1.36205E+01 +1.28579E+01 +9.42413E+00 +1.42619E+01
 +4.91195E+00 +1.39532E+01 +6.99239E-01 +1.20468E+01 -2.69107E+00 +8.87267E+00 -4.89941E+00 +4.91977E+00
 -5.77362E+00 +7.58473E-01 -5.37984E+00 -3.04698E+00 -3.97948E+00 -6.02208E+00 -1.97650E+00 -7.84890E+00
 +1.55792E-01 -8.40631E+00 +1.95637E+00 -7.77795E+00 +3.05337E+00 -6.22745E+00 +3.22385E+00 -4.14586E+00
 +2.42741E+00 -1.98032E+00 +8.08548E-01 -1.56004E-01 -1.33186E+00 +9.95958E-01 -3.59075E+00 +1.29289E+00
 -5.53354E+00 +7.28898E-01 -6.76955E+00 -5.27025E-01 -7.01976E+00 -2.16245E+00 -6.16618E+00 -3.77689E+00
 -4.27487E+00 -4.95197E+00 -1.58916E+00 -5.32482E+00 +1.50565E+00 -4.65309E+00 +4.54061E+00 -2.86097E+00
 +7.03515E+00 -5.92653E-02 +8.57167E+00 +3.46391E+00 +8.86131E+00 +7.28017E+00 +7.79098E+00 +1.08803E+01
 +5.44449E+00 +1.37468E+01 +2.09481E+00 +1.54294E+01 -1.83130E+00 +1.56119E+01 -5.81126E+00 +1.41606E+01
 -9.29858E+00 +1.11481E+01 -1.17986E+01 +6.84835E+00 -1.29375E+01 +1.70424E+00 -1.25145E+01 -3.72799E+00
 -1.05306E+01 -8.84950E+00 -7.19039E+00 -1.30951E+01 -2.87595E+00 -1.60050E+01 +1.90240E+00 -1.72818E+01
 +6.57202E+00 -1.68259E+01 +1.05716E+01 -1.47456E+01 +1.34226E+01 -1.13390E+01 +1.47886E+01 -7.05247E+00
 +1.45161E+01 -2.42141E+00 +1.26505E+01 +1.99995E+00 +9.42605E+00 +5.70860E+00 +5.23214E+00 +8.31441E+00
 +5.59918E-01 +9.58510E+00 -4.06237E+00 +9.46905E+00 -8.13702E+00 +8.09362E+00 -1.12583E+01 +5.73969E+00
 -1.31595E+01 +2.79672E+00 -1.37398E+01 -2.95077E-01 -1.30682E+01 -3.10715E+00 -1.13638E+01 -5.28081E+00
 -8.95733E+00 -6.57329E+00 -6.23856E+00 -6.88549E+00 -3.59832E+00 -6.26828E+00 -1.37331E+00 -4.90682E+00
 +1.98596E-01 -3.08616E+00 +1.00629E+00 -1.14351E+00 +1.07314E+00 +5.85231E-01 +5.44109E-01 +1.81681E+00
 -3.45148E-01 +2.36203E+00 -1.31197E+00 +2.15148E+00 -2.07603E+00 +1.24202E+00 -2.40672E+00 -1.96314E-01
 -2.16122E+00 -1.91060E+00 -1.30763E+00 -3.60730E+00 +6.99852E-02 -4.99997E+00 +1.78525E+00 -5.85469E+00
 +3.57911E+00 -6.02664E+00 +5.16082E+00 -5.48213E+00 +6.25366E+00 -4.30319E+00 +6.63839E+00 -2.67442E+00
 +6.18791E+00 -8.54291E-01 +4.88802E+00 +8.64316E-01 +2.84142E+00 +2.19832E+00 +2.54691E-01 +2.91668E+00
 -2.58958E+00 +2.87455E+00 -5.37126E+00 +2.03451E+00 -7.77595E+00 +4.72078E-01 -9.53682E+00 -1.63483E+00
 -1.04694E+01 -4.03078E+00 -1.04944E+01 -6.41805E+00 -9.64621E+00 -8.49723E+00 -8.06562E+00 -1.00073E+01
 -5.97918E+00 -1.07602E+01 -3.66751E+00 -1.06647E+01 -1.42734E+00 -9.73750E+00 +4.67383E-01 -8.09993E+00
 +1.80064E+00 -5.96100E+00 +2.44097E+00 -3.58954E+00 +2.35659E+00 -1.27892E+00 +1.61721E+00 +6.90938E-01
 +3.82478E-01 +2.08937E+00 -1.12126E+00 +2.76430E+00 -2.63291E+00 +2.66122E+00 -3.89315E+00 +1.82951E+00
 -4.68102E+00 +4.15218E-01 -4.84553E+00 -1.35899E+00 -4.32844E+00 -3.22428E+00 -3.17460E+00 -4.90276E+00
 -1.52839E+00 -6.14656E+00 +3.83999E-01 -6.77369E+00 +2.28440E+00 -6.69559E+00 +3.88125E+00 -5.93234E+00
 +4.91172E+00 -4.61276E+00 +5.18175E+00 -2.95870E+00 +4.59803E+00 -1.25495E+00 +3.18683E+00 +1.91633E-01
 +1.09620E+00 +1.09817E+00 -1.41976E+00 +1.25059E+00 -4.03330E+00 +5.40287E-01 -6.38802E+00 -1.01348E+00
 -8.15047E+00 -3.25955E+00 -9.06068E+00 -5.93099E+00 -8.97388E+00 -8.67988E+00 -7.88639E+00 -1.11264E+01
 -5.94096E+00 -1.29150E+01 -3.40969E+00 -1.37701E+01 -6.56202E-01 -1.35405E+01 +1.91769E+00 -1.22273E+01
 +3.93306E+00 -9.98886E+00 +5.09307E+00 -7.12063E+00 +5.23090E+00 -4.01375E+00 +4.33797E+00 -1.09689E+00
 +2.56765E+00 +1.22908E+00 +2.12895E-01 +2.65331E+00 -2.33911E+00 +3.00396E+00 -4.66831E+00 +2.27563E+00
 -6.38947E+00 +6.30236E-01 -7.21512E+00 -1.62915E+00 -7.00309E+00 -4.10774E+00 -5.78071E+00 -6.38365E+00
 -3.74119E+00 -8.07739E+00 -1.21250E+00 -8.91433E+00 +1.39622E+00 -8.76997E+00 +3.66198E+00 -7.68996E+00
 +5.21768E+00 -5.88179E+00 +5.81252E+00 -3.67918E+00 +5.35301E+00 -1.48540E+00 +3.91759E+00 +2.94917E-01
 +1.74250E+00 +1.32384E+00 -8.18386E-01 +1.38655E+00 -3.35295E+00 +4.26571E-01 -5.45895E+00 -1.44591E+00
 -6.80935E+00 -3.97367E+00 -7.20373E+00 -6.79632E+00 -6.59747E+00 -9.51043E+00 -5.10406E+00 -1.17353E+01
 -2.97115E+00 -1.31733E+01 -5.34932E-01 -1.36540E+01 +1.83829E+00 -1.31559E+01 +3.81303E+00 -1.18024E+01
 +5.13732E+00 -9.83334E+00 +5.67834E+00 -7.55941E+00 +5.43564E+00 -5.30654E+00 +4.53069E+00 -3.36191E+00
 +3.17603E+00 -1.93029E+00 +1.63047E+00 -1.10824E+00 +1.49682E-01 -8.79664E-01 -1.05891E+00 -1.13206E+00
 -1.86839E+00 -1.68930E+00 -2.24688E+00 -2.35353E+00 -2.25239E+00 -2.94753E+00 -2.01051E+00 -3.34939E+00
 -1.68012E+00 -3.51305E+00 -1.41492E+00 -3.47145E+00 -1.32850E+00 -3.32261E+00 -1.47014E+00 -3.20237E+00
 -1.81554E+00 -3.25008E+00 -2.27404E+00 -3.57454E+00 -2.70984E+00 -4.22732E+00 -2.97269E+00 -5.18883E+00
 -2.93111E+00 -6.36950E+00 -2.50136E+00 -7.62560E+00 -1.66619E+00 -8.78590E+00 -4.80008E-01 -9.68352E+00
 +9.40392E-01 -1.01864E+01 +2.43697E+00 -1.02201E+01 +3.83884E+00 -9.77902E+00 +4.99187E+00 -8.92391E+00
 +5.78334E+00 -7.76700E+00 +6.15700E+00 -6.44868E+00 +6.11585E+00 -5.11086E+00 +5.71303E+00 -3.87299E+00
 +5.03354E+00 -2.81574E+00 +4.17164E+00 -1.97549E+00 +3.20946E+00 -1.34996E+00 +2.20201E+00 -9.13110E-01
 +1.17212E+00 -6.34783E-01 +1.16314E-01 -4.99701E-01 -9.79915E-01 -5.20496E-01 -2.12166E+00 -7.40734E-01
 -3.28436E+00 -1.22631E+00 -4.39978E+00 -2.04638E+00 -5.35285E+00 -3.24782E+00 -5.99195E+00 -4.82893E+00
 -6.15213E+00 -6.71918E+00 -5.68775E+00 -8.77074E+00 -4.50846E+00 -1.07659E+01 -2.61101E+00 -1.24408E+01
 -9.94472E-02 -1.35237E+01 +2.81198E+00 -1.37806E+01 +5.81612E+00 -1.30615E+01 +8.54944E+00 -1.13373E+01
 +1.06431E+01 -8.72078E+00 +1.17805E+01 -5.46406E+00 +1.17518E+01 -1.93365E+00 +1.04955E+01 +1.43668E+00
 +8.11822E+00 +4.20721E+00 +4.88951E+00 +5.99876E+00 +1.20931E+00 +6.55304E+00 -2.44644E+00 +5.77663E+00
 -5.59447E+00 +3.76045E+00 -7.81607E+00 +7.70746E-01 -8.82051E+00 -2.78769E+00 -8.48937E+00 -6.43069E+00
 -6.89432E+00 -9.66679E+00 -4.28525E+00 -1.20707E+01 -1.05052E+00 -1.33463E+01 +2.34407E+00 -1.33684E+01
 +5.42751E+00 -1.21978E+01 +7.79520E+00 -1.00660E+01 +9.16821E+00 -7.33390E+00 +9.43083E+00 -4.43068E+00
 +8.64076E+00 -1.78449E+00 +7.01110E+00 +2.44561E-01 +4.86799E+00 +1.41742E+00 +2.59176E+00 +1.64710E+00
 +5.52033E-01 +1.00328E+00 -9.52127E-01 -3.09148E-01 -1.73720E+00 -1.99293E+00 -1.75833E+00 -3.71451E+00
 -1.10771E+00 -5.16316E+00 +1.04154E-02 -6.10301E+00 +1.32275E+00 -6.40942E+00 +2.53964E+00 -6.08406E+00
 +3.40805E+00 -5.24731E+00 +3.75557E+00 -4.11014E+00 +3.51820E+00 -2.93145E+00 +2.74799E+00 -1.96885E+00
 +1.59994E+00 -1.43170E+00 +3.01477E-01 -1.44437E+00 -8.89673E-01 -2.02570E+00 -1.73136E+00 -3.08735E+00
 -2.03881E+00 -4.45054E+00 -1.71553E+00 -5.87770E+00 -7.68507E-01 -7.11283E+00 +6.93815E-01 -7.92379E+00
 +2.47990E+00 -8.13946E+00 +4.34587E+00 -7.67592E+00 +6.03319E+00 -6.54836E+00 +7.30706E+00 -4.86741E+00
 +7.98955E+00 -2.82152E+00 +7.98283E+00 -6.48857E-01 +7.27983E+00 +1.39634E+00 +5.96166E+00 +3.07775E+00
 +4.18323E+00 +4.20635E+00 +2.15022E+00 +4.66169E+00 +9.12009E-02 +4.40277E+00 -1.77084E+00 +3.46821E+00
 -3.24380E+00 +1.96688E+00 -4.18586E+00 +6.12283E-02 -4.51729E+00 -2.05385E+00 -4.22426E+00 -4.17345E+00
 -3.35539E+00 -6.10386E+00 -2.01222E+00 -7.68043E+00 -3.35571E-01 -8.78070E+00 +1.51043E+00 -9.33235E+00
 +3.35499E+00 -9.31590E+00 +5.03639E+00 -8.76255E+00 +6.41583E+00 -7.74795E+00 +7.38841E+00 -6.38257E+00
 +7.89070E+00 -4.79976E+00 +7.90442E+00 -3.14226E+00 +7.45592E+00 -1.54841E+00 +6.61150E+00 -1.39142E-01
 +5.46894E+00 +9.93009E-01 +4.14579E+00 +1.79161E+00 +2.76573E+00 +2.23988E+00 +1.44450E+00 +2.35934E+00
 +2.77102E-01 +2.20371E+00 -6.71845E-01 +1.84857E+00 -1.37319E+00 +1.37825E+00 -1.83286E+00 +8.71822E-01
 -2.08594E+00 +3.90470E-01 -2.18600E+00 -3.16601E-02 -2.19158E+00 -3.91363E-01 -2.15197E+00 -7.14165E-01
 -2.09504E+00 -1.04614E+00 -2.01961E+00 -1.44100E+00 -1.89392E+00 -1.94474E+00 -1.66107E+00 -2.58059E+00
 -1.25085E+00 -3.33741E+00 -5.96052E-01 -4.16392E+00 +3.49365E-01 -4.97067E+00 +1.59376E+00 -5.63990E+00
 +3.09617E+00 -6.04239E+00 +4.76233E+00 -6.05877E+00 +6.44971E+00 -5.60194E+00 +7.98179E+00 -4.63677E+00
