 Created: 16-Jan-2021
 $NMID
 ID='D:\BASISSIMULATI'
 FMTDAT='(8E13.5)'
 VOLUME=   1.00000E+00
 TRAMP=   1.00000E+00
 $END
 +6.19646E+01 +1.10185E+01 +4.53071E+01 +1.28772E+01 +7.70099E+00 +1.11176E+01 -3.02164E+01 +8.13413E+00
 -4.83956E+01 +5.16711E+00 -3.89519E+01 +2.29995E+00 -1.00348E+01 -2.05940E-01 +2.00292E+01 -1.01087E+00
 +3.41808E+01 +1.49063E+00 +2.62957E+01 +7.14971E+00 +3.37057E+00 +1.28051E+01 -2.03025E+01 +1.34996E+01
 -3.24318E+01 +5.92469E+00 -2.93046E+01 -8.28958E+00 -1.60103E+01 -2.22835E+01 -1.30415E+00 -2.76506E+01
 +8.53059E+00 -2.00661E+01 +1.25340E+01 -2.96176E+00 +1.34051E+01 +1.37617E+01 +1.36042E+01 +1.97097E+01
 +1.28444E+01 +1.09271E+01 +8.96670E+00 -6.99313E+00 +1.10629E+00 -2.20839E+01 -7.95191E+00 -2.36738E+01
 -1.26853E+01 -9.52676E+00 -8.72104E+00 +1.24294E+01 +3.22060E+00 +2.91022E+01 +1.66286E+01 +3.07013E+01
 +2.27913E+01 +1.70016E+01 +1.64825E+01 -2.77866E+00 -2.04112E-01 -1.63025E+01 -1.87114E+01 -1.62427E+01
 -2.91731E+01 -4.69528E+00 -2.64560E+01 +8.93374E+00 -1.30642E+01 +1.48024E+01 +2.90146E+00 +9.30467E+00
 +1.31105E+01 -3.03973E+00 +1.39231E+01 -1.34751E+01 +7.68595E+00 -1.55479E+01 +9.39371E-03 -9.45368E+00
 -4.52983E+00 -1.19674E+00 -4.99348E+00 +2.49141E+00 -3.39465E+00 -5.53774E-01 -1.84861E+00 -6.45042E+00
 -3.12309E-01 -8.62418E+00 +3.05658E+00 -3.30937E+00 +9.29735E+00 +7.11049E+00 +1.62719E+01 +1.55739E+01
 +1.90101E+01 +1.56054E+01 +1.30994E+01 +6.43047E+00 -1.23920E+00 -5.98199E+00 -1.77559E+01 -1.29010E+01
 -2.71784E+01 -9.06284E+00 -2.30996E+01 +3.35828E+00 -6.78897E+00 +1.59869E+01 +1.27102E+01 +1.99107E+01
 +2.37717E+01 +1.18101E+01 +1.95095E+01 -3.74737E+00 +2.36923E+00 -1.74144E+01 -1.72229E+01 -2.13268E+01
 -2.74005E+01 -1.41364E+01 -2.22945E+01 -1.43318E+00 -5.46439E+00 +8.46880E+00 +1.28282E+01 +1.01931E+01
 +2.24623E+01 +4.41945E+00 +1.96868E+01 -3.45359E+00 +8.66043E+00 -7.70956E+00 -2.33598E+00 -6.31485E+00
 -6.94600E+00 -1.66465E+00 -4.63838E+00 +2.10099E+00 +6.81423E-02 +2.75947E+00 +1.99623E+00 +1.61768E+00
 -3.44453E-01 +1.87319E+00 -3.85013E+00 +5.24858E+00 -3.90860E+00 +9.86563E+00 +1.15640E+00 +1.13375E+01
 +8.00620E+00 +6.40761E+00 +1.04567E+01 -3.74848E+00 +4.41290E+00 -1.34206E+01 -8.22718E+00 -1.59748E+01
 -1.99372E+01 -8.75897E+00 -2.23452E+01 +4.36498E+00 -1.22191E+01 +1.50322E+01 +5.67243E+00 +1.58424E+01
 +2.11087E+01 +5.55964E+00 +2.48708E+01 -9.69918E+00 +1.47728E+01 -2.03092E+01 -2.85979E+00 -1.94845E+01
 -1.72839E+01 -7.76993E+00 -2.02135E+01 +7.42296E+00 -1.08432E+01 +1.68739E+01 +4.20357E+00 +1.56458E+01
 +1.56589E+01 +6.00602E+00 +1.76157E+01 -4.68827E+00 +1.06763E+01 -9.40874E+00 +4.66538E-01 -6.19315E+00
 -6.90025E+00 +1.09819E+00 -8.85719E+00 +6.26919E+00 -7.13131E+00 +5.67376E+00 -5.15758E+00 +7.64988E-01
 -4.65858E+00 -3.50472E+00 -4.31358E+00 -3.01482E+00 -1.52116E+00 +1.95843E+00 +4.40919E+00 +6.80645E+00
 +1.05696E+01 +6.29758E+00 +1.20375E+01 -9.37269E-01 +5.79349E+00 -1.07169E+01 -6.07357E+00 -1.59472E+01
 -1.66956E+01 -1.18190E+01 -1.85894E+01 +2.60285E-01 -8.97338E+00 +1.30625E+01 +7.61497E+00 +1.82315E+01
 +2.15901E+01 +1.20667E+01 +2.42723E+01 -1.72004E+00 +1.36051E+01 -1.43207E+01 -4.30029E+00 -1.76856E+01
 -1.89516E+01 -9.86392E+00 -2.21075E+01 +3.85271E+00 -1.28274E+01 +1.46880E+01 +2.35375E+00 +1.63108E+01
 +1.40380E+01 +8.78322E+00 +1.60505E+01 -2.07576E+00 +8.87497E+00 -9.17057E+00 -1.60657E+00 -9.04677E+00
 -8.73835E+00 -3.73786E+00 -9.53392E+00 +1.52162E+00 -5.85994E+00 +2.68255E+00 -1.93971E+00 -1.04574E-01
 -5.21699E-01 -3.08433E+00 -8.65555E-01 -2.44351E+00 -2.92401E-02 +2.15506E+00 +3.82316E+00 +6.97814E+00
 +9.04114E+00 +7.15141E+00 +1.12440E+01 +8.63549E-01 +6.84921E+00 -8.53096E+00 -3.37724E+00 -1.43956E+01
 -1.37827E+01 -1.15405E+01 -1.71878E+01 -3.70470E-01 -1.00124E+01 +1.27470E+01 +4.55691E+00 +1.94405E+01
 +1.79415E+01 +1.49981E+01 +2.15079E+01 +1.76076E+00 +1.23601E+01 -1.22232E+01 -4.44184E+00 -1.84394E+01
 -1.89147E+01 -1.34548E+01 -2.25032E+01 -9.78296E-01 -1.34992E+01 +1.08807E+01 +2.08508E+00 +1.51136E+01
 +1.46684E+01 +1.02021E+01 +1.73360E+01 +4.86093E-01 +9.92125E+00 -7.42782E+00 -1.62976E+00 -9.37356E+00
 -9.80752E+00 -6.02350E+00 -1.05728E+01 -1.48822E+00 -5.38997E+00 +4.51351E-01 +8.12419E-01 -6.36430E-01
 +3.81189E+00 -1.90697E+00 +3.07468E+00 -1.88110E-01 +1.41157E+00 +4.74411E+00 +1.89863E+00 +9.39361E+00
 +4.79002E+00 +9.11232E+00 +7.06372E+00 +2.11312E+00 +5.04316E+00 -8.29684E+00 -2.02879E+00 -1.53150E+01
 -1.04916E+01 -1.32602E+01 -1.43619E+01 -1.97014E+00 -9.72560E+00 +1.23589E+01 +1.82552E+00 +2.08183E+01
 +1.35065E+01 +1.76209E+01 +1.75523E+01 +4.12551E+00 +1.05635E+01 -1.18114E+01 -3.80227E+00 -2.08215E+01
 -1.68620E+01 -1.79978E+01 -2.04515E+01 -5.83188E+00 -1.22610E+01 +7.76555E+00 +2.67369E+00 +1.48351E+01
 +1.53224E+01 +1.23518E+01 +1.85261E+01 +3.51419E+00 +1.13860E+01 -5.21059E+00 -6.69259E-01 -8.83847E+00
 -9.91560E+00 -6.90296E+00 -1.14653E+01 -2.79570E+00 -5.96243E+00 -3.28166E-01 +1.72819E+00 -4.64911E-01
 +6.47271E+00 -8.54807E-01 +6.36346E+00 +1.57447E+00 +3.30770E+00 +7.22347E+00 +6.64918E-01 +1.26074E+01
 +1.40964E-01 +1.26138E+01 +5.43107E-01 +4.71336E+00 -6.82638E-01 -8.15177E+00 -4.57826E+00 -1.85547E+01
 -9.05846E+00 -1.92170E+01 -1.01466E+01 -8.24232E+00 -5.28142E+00 +8.83036E+00 +3.94347E+00 +2.19255E+01
 +1.20525E+01 +2.26432E+01 +1.32064E+01 +9.74522E+00 +5.60161E+00 -9.78149E+00 -6.56951E+00 -2.48785E+01
 -1.53800E+01 -2.71163E+01 -1.43998E+01 -1.56295E+01 -3.33335E+00 +2.75597E+00 +1.13229E+01 +1.80115E+01
 +2.03191E+01 +2.28845E+01 +1.77773E+01 +1.65611E+01 +5.21003E+00 +4.07818E+00 -9.40367E+00 -7.50750E+00
 -1.69248E+01 -1.32751E+01 -1.31257E+01 -1.23149E+01 -1.36598E+00 -6.75690E+00 +9.91358E+00 +5.38901E-01
 +1.30613E+01 +7.54581E+00 +6.33548E+00 +1.29656E+01 -5.21787E+00 +1.52773E+01 -1.35738E+01 +1.25494E+01
 -1.33914E+01 +3.78838E+00 -5.50908E+00 -9.12052E+00 +4.06201E+00 -2.08678E+01 +8.70921E+00 -2.48689E+01
 +5.93422E+00 -1.73300E+01 -1.15151E+00 -5.69121E-01 -6.45714E+00 +1.71327E+01 -5.56471E+00 +2.57882E+01
 +1.06860E+00 +1.97797E+01 +8.62768E+00 +1.83741E+00 +1.16416E+01 -1.79875E+01 +8.03030E+00 -2.80921E+01
 +5.13685E-01 -2.23485E+01 -5.54970E+00 -3.89132E+00 -6.17066E+00 +1.68254E+01 -1.56796E+00 +2.84622E+01
 +4.19978E+00 +2.55523E+01 +6.40224E+00 +1.12929E+01 +3.14842E+00 -5.18585E+00 -3.36509E+00 -1.49430E+01
 -8.68059E+00 -1.45240E+01 -9.46608E+00 -7.09022E+00 -5.85150E+00 +8.73755E-01 -1.01946E+00 +4.48434E+00
 +1.48059E+00 +3.37607E+00 +5.02777E-01 +7.84246E-01 -2.00546E+00 -1.97607E-02 -2.84970E+00 +1.17370E+00
 -3.99537E-01 +1.43915E+00 +3.95633E+00 -2.31532E+00 +6.92029E+00 -9.84953E+00 +6.08017E+00 -1.66258E+01
 +2.09686E+00 -1.65491E+01 -1.59144E+00 -6.65692E+00 -1.46781E+00 +9.73794E+00 +3.02769E+00 +2.41097E+01
 +8.61377E+00 +2.77336E+01 +1.03672E+01 +1.74748E+01 +5.52890E+00 -1.61739E+00 -3.96787E+00 -1.88960E+01
 -1.23702E+01 -2.44251E+01 -1.40277E+01 -1.50247E+01 -7.62862E+00 +3.80323E+00 +2.44147E+00 +2.12334E+01
 +8.87388E+00 +2.75373E+01 +6.58773E+00 +1.95176E+01 -3.38277E+00 +1.78198E+00 -1.42008E+01 -1.65003E+01
 -1.77685E+01 -2.69410E+01 -1.04527E+01 -2.60238E+01 +4.05591E+00 -1.58809E+01 +1.69216E+01 -2.05610E+00
 +2.00437E+01 +9.74157E+00 +1.16343E+01 +1.58632E+01 -2.41398E+00 +1.52091E+01 -1.24164E+01 +8.66956E+00
 -1.14438E+01 -1.41501E+00 -5.35896E-02 -1.14466E+01 +1.40436E+01 -1.70356E+01 +2.11568E+01 -1.44797E+01
 +1.60903E+01 -3.03105E+00 +1.53887E+00 +1.34924E+01 -1.38126E+01 +2.74545E+01 -2.10727E+01 +3.09483E+01
 -1.68300E+01 +2.05058E+01 -4.99061E+00 -5.54049E-03 +6.23483E+00 -2.06375E+01 +9.90176E+00 -3.06175E+01
 +4.61822E+00 -2.46867E+01 -5.15251E+00 -6.52618E+00 -1.25902E+01 +1.31434E+01 -1.31163E+01 +2.28606E+01
 -6.94067E+00 +1.72714E+01 +1.85032E+00 +2.08015E-01 +8.54417E+00 -1.79273E+01 +1.08246E+01 -2.67107E+01
 +9.54005E+00 -2.19094E+01 +7.12162E+00 -7.44803E+00 +5.29907E+00 +7.83655E+00 +4.03144E+00 +1.61542E+01
 +2.30530E+00 +1.53215E+01 -2.10191E-01 +9.07263E+00 -2.34403E+00 +3.40167E+00 -2.31311E+00 +1.93878E+00
 +4.02509E-01 +3.77218E+00 +3.93023E+00 +5.05785E+00 +4.88157E+00 +2.83060E+00 +8.63326E-01 -2.16464E+00
 -7.23990E+00 -5.92002E+00 -1.51654E+01 -4.55479E+00 -1.77971E+01 +2.05302E+00 -1.27261E+01 +9.38595E+00
 -2.27338E+00 +1.11241E+01 +7.68296E+00 +3.82095E+00 +1.14831E+01 -9.99899E+00 +7.51165E+00 -2.27756E+01
 -6.56565E-01 -2.65241E+01 -6.69872E+00 -1.81002E+01 -5.92850E+00 -1.51888E+00 +1.45787E+00 +1.43309E+01
 +1.05823E+01 +2.11190E+01 +1.53832E+01 +1.60912E+01 +1.28891E+01 +3.45305E+00 +5.18927E+00 -8.60321E+00
 -2.28577E+00 -1.30762E+01 -4.85978E+00 -8.11262E+00 -2.02778E+00 +2.59644E+00 +2.34199E+00 +1.27768E+01
 +3.15659E+00 +1.75481E+01 -1.78406E+00 +1.57563E+01 -9.84028E+00 +9.53451E+00 -1.53095E+01 +2.04586E+00
 -1.36951E+01 -4.56992E+00 -5.31031E+00 -9.62983E+00 +4.55194E+00 -1.29134E+01 +9.18682E+00 -1.36520E+01
 +5.31815E+00 -1.07610E+01 -4.29055E+00 -4.25235E+00 -1.24599E+01 +3.55476E+00 -1.24633E+01 +8.52221E+00
 -2.79337E+00 +7.09283E+00 +1.15292E+01 -9.00203E-01 +2.20920E+01 -1.12292E+01 +2.25708E+01 -1.72743E+01
 +1.28338E+01 -1.40985E+01 -1.08153E+00 -1.95704E+00 -1.10119E+01 +1.33030E+01 -1.19115E+01 +2.35280E+01
 -4.77665E+00 +2.32497E+01 +4.53180E+00 +1.31146E+01 +9.49038E+00 -5.75292E-01 +7.10860E+00 -9.93605E+00
 -6.51558E-01 -1.04637E+01 -8.85625E+00 -3.58455E+00 -1.32128E+01 +4.80001E+00 -1.26226E+01 +8.58820E+00
 -9.06611E+00 +5.51129E+00 -5.34940E+00 -1.80995E+00 -2.76919E+00 -8.28267E+00 -5.62279E-01 -1.02396E+01
 +2.63133E+00 -7.88206E+00 +6.78058E+00 -4.57419E+00 +9.85643E+00 -3.73296E+00 +9.31042E+00 -5.85917E+00
 +4.50696E+00 -8.07477E+00 -1.99057E+00 -6.54455E+00 -5.64065E+00 +1.16158E-01 -3.07028E+00 +9.17286E+00
 +5.09162E+00 +1.53002E+01 +1.39629E+01 +1.43376E+01 +1.72694E+01 +6.53436E+00 +1.15551E+01 -3.20521E+00
 -1.16778E+00 -8.44452E+00 -1.43154E+01 -5.60440E+00 -2.07525E+01 +3.47397E+00 -1.73065E+01 +1.26531E+01
 -6.74071E+00 +1.55786E+01 +4.14026E+00 +9.89670E+00 +8.93534E+00 -1.28831E+00 +5.62417E+00 -1.16429E+01
