 Created: 16-Jan-2021
 $NMID
 ID='D:\BASISSIMULATI'
 FMTDAT='(8E13.5)'
 VOLUME=   1.00000E+00
 TRAMP=   1.00000E+00
 $END
 +4.30795E+01 +8.44414E+00 +2.82242E+01 +3.23675E+01 +1.89112E+00 +4.04488E+01 -2.21860E+01 +2.94294E+01
 -3.19448E+01 +6.27259E+00 -2.34929E+01 -1.58940E+01 -2.95642E+00 -2.51193E+01 +1.72266E+01 -1.71072E+01
 +2.53526E+01 +2.72309E+00 +1.68399E+01 +2.25790E+01 -3.53544E+00 +3.09972E+01 -2.46115E+01 +2.30829E+01
 -3.51525E+01 +2.88806E+00 -2.98863E+01 -1.91774E+01 -1.19945E+01 -3.22204E+01 +9.08574E+00 -3.06412E+01
 +2.30521E+01 -1.66908E+01 +2.41852E+01 +1.34057E+00 +1.39177E+01 +1.39937E+01 -6.16822E-01 +1.56994E+01
 -1.09202E+01 +7.29595E+00 -1.17543E+01 -5.10313E+00 -3.55086E+00 -1.39177E+01 +8.44544E+00 -1.42666E+01
 +1.74751E+01 -6.22800E+00 +1.89578E+01 +5.77927E+00 +1.25724E+01 +1.58005E+01 +1.84326E+00 +1.95566E+01
 -8.18478E+00 +1.63119E+01 -1.36630E+01 +8.63069E+00 -1.35575E+01 +5.10437E-01 -9.52856E+00 -4.83053E+00
 -4.48826E+00 -6.28395E+00 -8.86198E-01 -4.79960E+00 +3.05097E-01 -2.31651E+00 -4.46857E-01 -5.22386E-01
 -1.98634E+00 -1.66831E-01 -3.27360E+00 -1.12484E+00 -3.74766E+00 -2.88404E+00 -3.20790E+00 -4.95184E+00
 -1.54820E+00 -6.90340E+00 +1.28767E+00 -8.18623E+00 +5.04625E+00 -8.03669E+00 +8.86753E+00 -5.76590E+00
 +1.13413E+01 -1.32208E+00 +1.10859E+01 +4.28354E+00 +7.60153E+00 +9.12334E+00 +1.84978E+00 +1.11760E+01
 -3.93229E+00 +9.44745E+00 -7.24321E+00 +4.71536E+00 -6.66865E+00 -6.53033E-01 -2.78842E+00 -3.84637E+00
 +1.97280E+00 -3.15021E+00 +4.58101E+00 +9.95211E-01 +3.08655E+00 +6.09328E+00 -2.18003E+00 +8.88182E+00
 -8.64015E+00 +7.14903E+00 -1.27818E+01 +1.05845E+00 -1.20692E+01 -6.79995E+00 -6.38765E+00 -1.27140E+01
 +1.80414E+00 -1.38191E+01 +8.73193E+00 -9.64809E+00 +1.12960E+01 -2.39454E+00 +8.70075E+00 +4.26543E+00
 +2.82771E+00 +7.14368E+00 -2.84125E+00 +5.21735E+00 -5.14152E+00 +1.00501E-01 -2.92057E+00 -4.92218E+00
 +2.40740E+00 -6.73684E+00 +7.71438E+00 -4.08923E+00 +9.90827E+00 +1.79062E+00 +7.59784E+00 +7.92563E+00
 +1.77774E+00 +1.12355E+01 -4.78909E+00 +1.01603E+01 -9.09321E+00 +5.39525E+00 -9.44014E+00 -6.05154E-01
 -6.21785E+00 -5.01137E+00 -1.51810E+00 -6.09456E+00 +2.10078E+00 -4.00444E+00 +2.98363E+00 -4.94230E-01
 +1.14319E+00 +2.16972E+00 -1.93026E+00 +2.45948E+00 -4.22019E+00 +3.17919E-01 -4.31321E+00 -2.96463E+00
 -2.08691E+00 -5.57315E+00 +1.36045E+00 -6.17505E+00 +4.41262E+00 -4.55506E+00 +5.81963E+00 -1.58696E+00
 +5.27069E+00 +1.35589E+00 +3.39570E+00 +3.15980E+00 +1.28030E+00 +3.47048E+00 -1.67870E-01 +2.70820E+00
 -6.34765E-01 +1.67383E+00 -4.10897E-01 +1.03537E+00 -6.98829E-02 +1.00282E+00 -6.38831E-02 +1.33710E+00
 -4.88368E-01 +1.61781E+00 -1.12085E+00 +1.55377E+00 -1.65031E+00 +1.13391E+00 -1.90762E+00 +5.54246E-01
 -1.93873E+00 +1.58941E-02 -1.89504E+00 -4.36008E-01 -1.85025E+00 -9.12956E-01 -1.69927E+00 -1.53366E+00
 -1.22597E+00 -2.25021E+00 -2.96507E-01 -2.79614E+00 +9.64813E-01 -2.81664E+00 +2.15913E+00 -2.10827E+00
 +2.79560E+00 -8.07745E-01 +2.57578E+00 +6.12033E-01 +1.60273E+00 +1.56358E+00 +3.70082E-01 +1.66759E+00
 -4.84999E-01 +9.84949E-01 -5.34352E-01 +8.21638E-03 +1.86967E-01 -5.99446E-01 +1.18071E+00 -3.78832E-01
 +1.75220E+00 +6.50099E-01 +1.40092E+00 +1.97492E+00 +1.16670E-01 +2.85567E+00 -1.58804E+00 +2.72645E+00
 -2.93278E+00 +1.51280E+00 -3.27511E+00 -3.10340E-01 -2.44823E+00 -1.95351E+00 -8.49637E-01 -2.71420E+00
 +7.64301E-01 -2.33080E+00 +1.66561E+00 -1.10430E+00 +1.51877E+00 +2.70569E-01 +5.34736E-01 +1.06985E+00
 -6.57371E-01 +9.08114E-01 -1.34603E+00 -7.74413E-02 -1.10376E+00 -1.31285E+00 +5.20435E-04 -2.09041E+00
 +1.44329E+00 -1.93034E+00 +2.51318E+00 -8.20663E-01 +2.66471E+00 +7.78373E-01 +1.78487E+00 +2.16034E+00
 +2.46334E-01 +2.71431E+00 -1.27314E+00 +2.21608E+00 -2.11487E+00 +9.31455E-01 -1.95143E+00 -5.14744E-01
 -9.39148E-01 -1.43990E+00 +3.60898E-01 -1.43193E+00 +1.25676E+00 -5.48686E-01 +1.26572E+00 +7.08367E-01
 +3.57967E-01 +1.63778E+00 -1.01687E+00 +1.68654E+00 -2.14079E+00 +7.36315E-01 -2.38152E+00 -8.16570E-01
 -1.52004E+00 -2.23686E+00 +1.14432E-01 -2.80709E+00 +1.78132E+00 -2.19499E+00 +2.68385E+00 -6.44838E-01
 +2.37392E+00 +1.11645E+00 +1.00035E+00 +2.22809E+00 -7.38401E-01 +2.13419E+00 -1.93177E+00 +8.88594E-01
 -1.92592E+00 -8.43126E-01 -6.84358E-01 -2.10556E+00 +1.15847E+00 -2.14902E+00 +2.59959E+00 -8.45362E-01
 +2.78669E+00 +1.20441E+00 +1.48878E+00 +2.94880E+00 -7.39142E-01 +3.42520E+00 -2.80606E+00 +2.28471E+00
 -3.63982E+00 +1.68571E-02 -2.76442E+00 -2.26593E+00 -5.87143E-01 -3.39307E+00 +1.77700E+00 -2.76243E+00
 +3.07347E+00 -6.91099E-01 +2.58007E+00 +1.71519E+00 +5.21560E-01 +3.12727E+00 -2.01149E+00 +2.70502E+00
 -3.61823E+00 +5.75421E-01 -3.33530E+00 -2.19470E+00 -1.17733E+00 -4.13713E+00 +1.83165E+00 -4.15858E+00
 +4.17103E+00 -2.14175E+00 +4.62009E+00 +9.60313E-01 +2.91549E+00 +3.60196E+00 -8.81414E-02 +4.45104E+00
 -2.85132E+00 +3.09678E+00 -3.95396E+00 +2.77974E-01 -2.84563E+00 -2.49667E+00 -1.41162E-01 -3.73896E+00
 +2.69739E+00 -2.76468E+00 +4.12501E+00 -5.56161E-02 +3.32038E+00 +2.98901E+00 +6.12510E-01 +4.77733E+00
 -2.69028E+00 +4.34323E+00 -4.97104E+00 +1.83428E+00 -5.12050E+00 -1.57398E+00 -3.08054E+00 -4.27904E+00
 +1.50256E-01 -5.04931E+00 +3.03254E+00 -3.61440E+00 +4.24816E+00 -7.65011E-01 +3.32578E+00 +2.06434E+00
 +8.35344E-01 +3.50377E+00 -1.91893E+00 +2.89629E+00 -3.53687E+00 +5.85262E-01 -3.18010E+00 -2.27236E+00
 -9.49737E-01 -4.25793E+00 +2.17079E+00 -4.34425E+00 +4.76420E+00 -2.35937E+00 +5.61185E+00 +9.32608E-01
 +4.23637E+00 +4.15876E+00 +1.12664E+00 +5.93016E+00 -2.45119E+00 +5.45213E+00 -4.98596E+00 +2.89505E+00
 -5.38395E+00 -6.42075E-01 -3.48225E+00 -3.58271E+00 -1.74973E-01 -4.56968E+00 +2.93815E+00 -3.11382E+00
 +4.26469E+00 +1.10799E-01 +2.99409E+00 +3.50198E+00 -4.33707E-01 +5.23992E+00 -4.43124E+00 +4.17710E+00
 -6.95189E+00 +4.83220E-01 -6.48165E+00 -4.30906E+00 -2.86131E+00 -7.94769E+00 +2.50296E+00 -8.53700E+00
 +7.21293E+00 -5.53300E+00 +9.01456E+00 -1.32338E-01 +6.95604E+00 +5.20499E+00 +1.96299E+00 +7.92487E+00
 -3.51909E+00 +6.68357E+00 -6.69903E+00 +2.11160E+00 -5.87138E+00 -3.40453E+00 -1.36750E+00 -6.87457E+00
 +4.50655E+00 -6.24244E+00 +8.57400E+00 -1.52145E+00 +8.41047E+00 +5.09529E+00 +3.65893E+00 +1.02628E+01
 -3.67086E+00 +1.11680E+01 -1.01239E+01 +7.01601E+00 -1.25138E+01 -4.66501E-01 -9.56680E+00 -7.81507E+00
 -2.63696E+00 -1.15371E+01 +4.91051E+00 -9.89095E+00 +9.36886E+00 -3.81515E+00 +8.57845E+00 +3.49877E+00
 +3.06370E+00 +8.20279E+00 -4.18673E+00 +7.76322E+00 -9.21436E+00 +2.29785E+00 -9.11794E+00 -5.42338E+00
 -3.58166E+00 -1.13428E+01 +4.89064E+00 -1.21715E+01 +1.21810E+01 -7.09791E+00 +1.46131E+01 +1.73319E+00
 +1.08243E+01 +1.02371E+01 +2.49603E+00 +1.44093E+01 -6.44654E+00 +1.23358E+01 -1.17807E+01 +5.17237E+00
 -1.11043E+01 -3.41906E+00 -5.05146E+00 -9.10875E+00 +3.02351E+00 -9.09124E+00 +8.74751E+00 -3.51895E+00
 +8.96319E+00 +4.56067E+00 +3.36154E+00 +1.07469E+01 -5.32634E+00 +1.15332E+01 -1.26888E+01 +6.11864E+00
 -1.48632E+01 -3.14385E+00 -1.05035E+01 -1.19020E+01 -1.48202E+00 -1.59801E+01 +8.03645E+00 -1.34724E+01
 +1.36783E+01 -5.68761E+00 +1.30405E+01 +3.53122E+00 +6.85799E+00 +9.75989E+00 -1.42519E+00 +1.02153E+01
 -7.44599E+00 +5.11659E+00 -8.14687E+00 -2.49475E+00 -3.29851E+00 -8.35920E+00 +4.43807E+00 -9.18907E+00
 +1.09115E+01 -4.32308E+00 +1.26014E+01 +3.97745E+00 +8.37590E+00 +1.17050E+01 +1.36987E-02 +1.51234E+01
 -8.72836E+00 +1.25945E+01 -1.39897E+01 +5.31423E+00 -1.36610E+01 -3.35930E+00 -8.31279E+00 -9.59698E+00
 -7.90833E-01 -1.09364E+01 +5.25760E+00 -7.37071E+00 +7.15941E+00 -1.20756E+00 +4.42908E+00 +4.16456E+00
 -1.12194E+00 +5.95218E+00 -6.36462E+00 +3.26070E+00 -8.39850E+00 -2.55971E+00 -5.91661E+00 -8.62960E+00
 +2.25095E-01 -1.19294E+01 +7.44863E+00 -1.06966E+01 +1.26571E+01 -5.20540E+00 +1.36314E+01 +2.39100E+00
 +9.99722E+00 +9.04614E+00 +3.35502E+00 +1.21766E+01 -3.46354E+00 +1.07860E+01 -7.66986E+00 +5.87006E+00
 -7.75966E+00 -6.72036E-02 -4.17197E+00 -4.17174E+00 +9.33004E-01 -4.55841E+00 +4.69053E+00 -1.19635E+00
 +4.89435E+00 +4.05603E+00 +1.08234E+00 +8.30861E+00 -5.17718E+00 +9.01745E+00 -1.09670E+01 +5.24670E+00
 -1.33832E+01 -1.79804E+00 -1.09468E+01 -9.25531E+00 -4.37654E+00 -1.39182E+01 +3.68091E+00 -1.37591E+01
 +9.86840E+00 -8.92581E+00 +1.17119E+01 -1.69951E+00 +8.80960E+00 +4.59229E+00 +3.01767E+00 +7.18965E+00
 -2.47831E+00 +5.24589E+00 -4.75515E+00 +2.29157E-01 -2.61718E+00 -4.82942E+00 +2.79993E+00 -6.87138E+00
 +8.59190E+00 -4.36408E+00 +1.15350E+01 +1.90464E+00 +9.69842E+00 +9.18511E+00 +3.42094E+00 +1.40955E+01
 -4.82625E+00 +1.42611E+01 -1.16116E+01 +9.45861E+00 -1.41686E+01 +1.71565E+00 -1.16836E+01 -5.66624E+00
 -5.63545E+00 -9.67728E+00 +9.56849E-01 -8.99704E+00 +4.99794E+00 -4.56473E+00 +4.78776E+00 +9.30891E-01
 +8.06558E-01 +4.38272E+00 -4.54634E+00 +3.78042E+00 -8.12846E+00 -8.04573E-01 -7.59006E+00 -7.22611E+00
 -2.54890E+00 -1.22642E+01 +5.15421E+00 -1.31604E+01 +1.22578E+01 -8.97207E+00 +1.55875E+01 -1.10008E+00
 +1.35733E+01 +7.28948E+00 +7.05028E+00 +1.27120E+01 -1.07419E+00 +1.30167E+01 -7.17255E+00 +8.44863E+00
 -8.65068E+00 +1.57089E+00 -5.24928E+00 -3.96860E+00 +7.83761E-01 -5.26082E+00 +5.79374E+00 -1.65159E+00
 +6.59081E+00 +4.84570E+00 +2.16040E+00 +1.05116E+01 -5.69184E+00 +1.18235E+01 -1.31552E+01 +7.34498E+00
 -1.63300E+01 -1.40130E+00 -1.32774E+01 -1.05904E+01 -5.11397E+00 -1.59990E+01 +4.47389E+00 -1.51885E+01
 +1.10924E+01 -8.80534E+00 +1.19209E+01 -2.71142E-01 +7.18987E+00 +6.01286E+00 +3.90099E-02 +7.00650E+00
 -5.19655E+00 +2.65347E+00 -5.35791E+00 -4.10988E+00 -1.99356E-01 -8.98188E+00 +7.46889E+00 -8.67746E+00
 +1.33192E+01 -2.75670E+00 +1.38816E+01 +6.10982E+00 +8.44495E+00 +1.35837E+01 -5.63104E-01 +1.60055E+01
 -8.91078E+00 +1.23448E+01 -1.28534E+01 +4.68391E+00 -1.11001E+01 -2.99989E+00 -5.38091E+00 -7.04170E+00
 +6.54895E-01 -6.03690E+00 +3.54214E+00 -1.46275E+00 +1.89800E+00 +3.31832E+00 -2.93046E+00 +5.04909E+00
 -7.77218E+00 +2.40587E+00 -9.50828E+00 -3.34835E+00 -6.81802E+00 -9.18933E+00 -8.25085E-01 -1.20903E+01
