 Created: 16-Jan-2021
 $NMID
 ID='D:\BASISSIMULATI'
 FMTDAT='(8E13.5)'
 VOLUME=   1.00000E+00
 TRAMP=   1.00000E+00
 $END
 +2.06016E+02 +3.14332E+01 +1.81100E+02 +9.99658E+01 +1.32492E+02 +1.53417E+02 +6.83223E+01 +1.83798E+02
 -8.01614E-01 +1.87197E+02 -6.37302E+01 +1.64409E+02 -1.10779E+02 +1.20690E+02 -1.35435E+02 +6.46929E+01
 -1.35438E+02 +6.79541E+00 -1.13048E+02 -4.28614E+01 -7.44592E+01 -7.62374E+01 -2.84835E+01 -8.88159E+01
 +1.52270E+01 -8.03161E+01 +4.80709E+01 -5.45735E+01 +6.41334E+01 -1.86266E+01 +6.12542E+01 +1.87983E+01
 +4.13293E+01 +4.90967E+01 +9.80045E+00 +6.55302E+01 -2.55554E+01 +6.45610E+01 -5.62847E+01 +4.65196E+01
 -7.50303E+01 +1.54791E+01 -7.70621E+01 -2.16297E+01 -6.12615E+01 -5.64796E+01 -3.03651E+01 -8.10874E+01
 +9.57873E+00 -8.94835E+01 +5.04288E+01 -7.89752E+01 +8.36025E+01 -5.07498E+01 +1.01828E+02 -9.69617E+00
 +1.00647E+02 +3.65236E+01 +7.93680E+01 +7.89682E+01 +4.12728E+01 +1.09184E+02 -6.96152E+00 +1.20893E+02
 -5.65236E+01 +1.11270E+02 -9.81631E+01 +8.15525E+01 -1.23989E+02 +3.68528E+01 -1.29020E+02 -1.47833E+01
 -1.12181E+02 -6.39044E+01 -7.65430E+01 -1.01466E+02 -2.87666E+01 -1.20574E+02 +2.21618E+01 -1.17831E+02
 +6.66467E+01 -9.39994E+01 +9.63265E+01 -5.38764E+01 +1.05687E+02 -5.38168E+00 +9.31284E+01 +4.19583E+01
 +6.12847E+01 +7.88397E+01 +1.65237E+01 +9.79726E+01 -3.22692E+01 +9.54879E+01 -7.53942E+01 +7.16880E+01
 -1.04198E+02 +3.09971E+01 -1.12735E+02 -1.88794E+01 -9.89066E+01 -6.84238E+01 -6.48680E+01 -1.08121E+02
 -1.66152E+01 -1.30269E+02 +3.71555E+01 -1.30439E+02 +8.67015E+01 -1.08304E+02 +1.23077E+02 -6.76818E+01
 +1.39816E+02 -1.57937E+01 +1.34125E+02 +3.81289E+01 +1.07372E+02 +8.46006E+01 +6.47718E+01 +1.15672E+02
 +1.43443E+01 +1.26404E+02 -3.46532E+01 +1.15749E+02 -7.35074E+01 +8.66731E+01 -9.57000E+01 +4.55024E+01
 -9.81091E+01 +6.33434E-01 -8.15333E+01 -3.91396E+01 -5.04431E+01 -6.63476E+01 -1.20178E+01 -7.62835E+01
 +2.53365E+01 -6.78745E+01 +5.36910E+01 -4.38235E+01 +6.71823E+01 -9.99958E+00 +6.31721E+01 +2.57976E+01
 +4.27518E+01 +5.54483E+01 +1.04939E+01 +7.21783E+01 -2.64940E+01 +7.19468E+01 -6.00265E+01 +5.42824E+01
 -8.25144E+01 +2.24003E+01 -8.85251E+01 -1.74214E+01 -7.59175E+01 -5.70846E+01 -4.63254E+01 -8.82867E+01
 -4.89057E+00 -1.04191E+02 +4.07041E+01 -1.00822E+02 +8.17148E+01 -7.79043E+01 +1.10041E+02 -3.89845E+01
 +1.19823E+02 +9.19750E+00 +1.08609E+02 +5.79681E+01 +7.78857E+01 +9.83659E+01 +3.28294E+01 +1.22856E+02
 -1.86393E+01 +1.26783E+02 -6.73427E+01 +1.09272E+02 -1.04578E+02 +7.34149E+01 -1.23761E+02 +2.56918E+01
 -1.21667E+02 -2.52531E+01 -9.90279E+01 -7.02486E+01 -6.03732E+01 -1.01329E+02 -1.31438E+01 -1.13230E+02
 +3.37436E+01 -1.04362E+02 +7.16061E+01 -7.70677E+01 +9.36477E+01 -3.71325E+01 +9.62354E+01 +7.37014E+00
 +7.95553E+01 +4.76607E+01 +4.75259E+01 +7.59585E+01 +6.98886E+00 +8.69786E+01 -3.36601E+01 +7.89299E+01
 -6.61314E+01 +5.38260E+01 -8.38677E+01 +1.70509E+01 -8.33193E+01 -2.37303E+01 -6.46224E+01 -6.01010E+01
 -3.15512E+01 -8.45595E+01 +9.24425E+00 -9.19990E+01 +4.95615E+01 -8.07101E+01 +8.12689E+01 -5.27129E+01
 +9.79110E+01 -1.33556E+01 +9.59808E+01 +2.97391E+01 +7.56117E+01 +6.81722E+01 +4.05546E+01 +9.44167E+01
 -2.55360E+00 +1.03293E+02 -4.54848E+01 +9.29850E+01 -8.00250E+01 +6.53934E+01 -9.95749E+01 +2.57690E+01
 -1.00433E+02 -1.83119E+01 -8.25142E+01 -5.84226E+01 -4.93571E+01 -8.69242E+01 -7.43264E+00 -9.84476E+01
 +3.51222E+01 -9.09302E+01 +7.00899E+01 -6.60059E+01 +9.07695E+01 -2.86755E+01 +9.32743E+01 +1.36792E+01
 +7.72773E+01 +5.27409E+01 +4.60605E+01 +8.08806E+01 +5.86108E+00 +9.26420E+01 -3.53566E+01 +8.57979E+01
 -6.94627E+01 +6.17731E+01 -8.97503E+01 +2.53535E+01 -9.22416E+01 -1.62600E+01 -7.64581E+01 -5.48665E+01
 -4.55047E+01 -8.28711E+01 -5.45375E+00 -9.47692E+01 +3.58489E+01 -8.82180E+01 +7.03212E+01 -6.44886E+01
 +9.12258E+01 -2.82105E+01 +9.44837E+01 +1.35386E+01 +7.94675E+01 +5.26202E+01 +4.91179E+01 +8.14258E+01
 +9.36362E+00 +9.43623E+01 -3.20407E+01 +8.89400E+01 -6.70312E+01 +6.62541E+01 -8.88090E+01 +3.07643E+01
 -9.31650E+01 -1.05809E+01 -7.92963E+01 -4.97048E+01 -4.99573E+01 -7.89798E+01 -1.09158E+01 -9.27157E+01
 +3.01774E+01 -8.82665E+01 +6.52850E+01 -6.65418E+01 +8.75519E+01 -3.18240E+01 +9.26417E+01 +9.07278E+00
 +7.95795E+01 +4.81354E+01 +5.09379E+01 +7.77171E+01 +1.23315E+01 +9.20287E+01 -2.86811E+01 +8.82665E+01
 -6.40731E+01 +6.71557E+01 -8.69134E+01 +3.28071E+01 -9.27167E+01 -8.08595E+00 -8.03147E+01 -4.75526E+01
 -5.20813E+01 -7.78952E+01 -1.34683E+01 -9.31860E+01 +2.80557E+01 -9.04162E+01 +6.44570E+01 -7.00770E+01
 +8.86951E+01 -3.60595E+01 +9.60847E+01 +5.10499E+00 +8.51977E+01 +4.55145E+01 +5.81312E+01 +7.74286E+01
 +2.00910E+01 +9.47646E+01 -2.16258E+01 +9.42667E+01 -5.90496E+01 +7.61234E+01 -8.50817E+01 +4.39143E+01
 -9.48617E+01 +3.90009E+00 -8.66938E+01 -3.62048E+01 -6.23548E+01 -6.87341E+01 -2.67252E+01 -8.75548E+01
 +1.31795E+01 -8.92458E+01 +4.95888E+01 -7.37414E+01 +7.54940E+01 -4.43182E+01 +8.60094E+01 -6.93057E+00
 +7.93094E+01 +3.09730E+01 +5.69630E+01 +6.19185E+01 +2.36027E+01 +7.98720E+01 -1.40063E+01 +8.14150E+01
 -4.83093E+01 +6.64018E+01 -7.24552E+01 +3.79714E+01 -8.16455E+01 +1.91326E+00 -7.40752E+01 -3.44848E+01
 -5.12821E+01 -6.38818E+01 -1.78376E+01 -8.03353E+01 +1.95589E+01 -8.04761E+01 +5.34045E+01 -6.41759E+01
 +7.68741E+01 -3.45761E+01 +8.51700E+01 +2.52513E+00 +7.64731E+01 +3.98097E+01 +5.23108E+01 +6.98751E+01
 +1.72692E+01 +8.66896E+01 -2.18945E+01 +8.67806E+01 -5.75663E+01 +6.99250E+01 -8.27592E+01 +3.92062E+01
 -9.24779E+01 +4.25189E-01 -8.46974E+01 -3.90175E+01 -6.07654E+01 -7.15540E+01 -2.51499E+01 -9.09143E+01
 +1.54187E+01 -9.33419E+01 +5.32445E+01 -7.83220E+01 +8.11500E+01 -4.86818E+01 +9.38576E+01 -1.00452E+01
 +8.90036E+01 +3.02538E+01 +6.75860E+01 +6.45846E+01 +3.37626E+01 +8.64886E+01 -5.96050E+00 +9.19165E+01
 -4.39911E+01 +7.99956E+01 -7.31180E+01 +5.31807E+01 -8.78970E+01 +1.67617E+01 -8.56891E+01 -2.21755E+01
 -6.71497E+01 -5.61290E+01 -3.60773E+01 -7.86343E+01 +1.34573E+00 -8.55069E+01 +3.77712E+01 -7.56362E+01
 +6.61209E+01 -5.11766E+01 +8.09617E+01 -1.71021E+01 +7.95509E+01 +1.97840E+01 +6.23520E+01 +5.21911E+01
 +3.29206E+01 +7.37693E+01 -2.81206E+00 +8.03463E+01 -3.77167E+01 +7.07314E+01 -6.48716E+01 +4.69314E+01
 -7.89208E+01 +1.37403E+01 -7.71195E+01 -2.22163E+01 -5.98631E+01 -5.37916E+01 -3.05982E+01 -7.47257E+01
 +4.86467E+00 -8.08751E+01 +3.95011E+01 -7.10228E+01 +6.64578E+01 -4.71125E+01 +8.04011E+01 -1.38610E+01
 +7.85654E+01 +2.21728E+01 +6.12959E+01 +5.38797E+01 +3.19793E+01 +7.49980E+01 -3.62050E+00 +8.13450E+01
 -3.84945E+01 +7.16399E+01 -6.57632E+01 +4.77573E+01 -8.00269E+01 +1.43631E+01 -7.84260E+01 -2.19966E+01
 -6.12050E+01 -5.41745E+01 -3.16702E+01 -7.58199E+01 +4.45128E+00 -8.26210E+01 +4.01250E+01 -7.31504E+01
 +6.83786E+01 -4.91488E+01 +8.36588E+01 -1.51909E+01 +8.29143E+01 +2.21993E+01 +6.61905E+01 +5.58140E+01
 +3.66238E+01 +7.91579E+01 -1.64999E-01 +8.77073E+01 -3.71582E+01 +7.97847E+01 -6.72986E+01 +5.68812E+01
 -8.48523E+01 +2.33647E+01 -8.65128E+01 -1.43694E+01 -7.20323E+01 -4.91362E+01 -4.42592E+01 -7.43507E+01
 -8.57642E+00 -8.52947E+01 +2.81488E+01 -8.00185E+01 +5.88984E+01 -5.97028E+01 +7.78602E+01 -2.84124E+01
 +8.15439E+01 +7.70764E+00 +6.94416E+01 +4.16358E+01 +4.41058E+01 +6.68407E+01 +1.06321E+01 +7.85460E+01
 -2.43491E+01 +7.46465E+01 -5.39751E+01 +5.60993E+01 -7.24905E+01 +2.67162E+01 -7.63644E+01 -7.59921E+00
 -6.49675E+01 -4.00198E+01 -4.06786E+01 -6.41371E+01 -8.40293E+00 -7.52159E+01 +2.54026E+01 -7.11161E+01
 +5.40038E+01 -5.27025E+01 +7.17134E+01 -2.36653E+01 +7.50063E+01 +1.02134E+01 +6.32081E+01 +4.22009E+01
 +3.86229E+01 +6.59383E+01 +6.07742E+00 +7.66896E+01 -2.80285E+01 +7.22707E+01 -5.69781E+01 +5.34764E+01
 -7.50544E+01 +2.39253E+01 -7.86598E+01 -1.06498E+01 -6.70205E+01 -4.35223E+01 -4.23379E+01 -6.82871E+01
 -9.35873E+00 -8.01109E+01 +2.55511E+01 -7.66748E+01 +5.56479E+01 -5.86259E+01 +7.51242E+01 -2.94490E+01
 +8.02383E+01 +5.21389E+00 +7.00400E+01 +3.86642E+01 +4.65517E+01 +6.44512E+01 +1.43696E+01 +7.76266E+01
 -2.02348E+01 +7.57039E+01 -5.05387E+01 +5.91369E+01 -7.06768E+01 +3.12251E+01 -7.67807E+01 -2.53572E+00
 -6.77271E+01 -3.55282E+01 -4.53502E+01 -6.13048E+01 -1.40770E+01 -7.48430E+01 +1.99410E+01 -7.35202E+01
 +5.00296E+01 -5.76198E+01 +7.02939E+01 -3.02690E+01 +7.67643E+01 +3.17558E+00 +6.81663E+01 +3.61761E+01
 +4.61630E+01 +6.22883E+01 +1.50259E+01 +7.64160E+01 -1.92017E+01 +7.57996E+01 -4.98836E+01 +6.05480E+01
 -7.10819E+01 +3.36108E+01 -7.87093E+01 +1.98064E-01 -7.13181E+01 -3.32375E+01 -5.03732E+01 -6.02578E+01
 -1.99586E+01 -7.56888E+01 +1.40253E+01 -7.66213E+01 +4.50142E+01 -6.29671E+01 +6.70582E+01 -3.74641E+01
 +7.59750E+01 -5.13240E+00 +7.01554E+01 +2.77126E+01 +5.08641E+01 +5.46948E+01 +2.19802E+01 +7.06197E+01
 -1.07719E+01 +7.24808E+01 -4.09474E+01 +6.00361E+01 -6.26425E+01 +3.58423E+01 -7.16461E+01 +4.74350E+00
 -6.62560E+01 -2.70856E+01 -4.76026E+01 -5.33532E+01 -1.94177E+01 -6.88822E+01 +1.27044E+01 -7.06213E+01
 +4.24075E+01 -5.82368E+01 +6.38216E+01 -3.41716E+01 +7.27111E+01 -3.16138E+00 +6.73027E+01 +2.86971E+01
 +4.86288E+01 +5.51418E+01 +2.03223E+01 +7.09714E+01 -1.20964E+01 +7.30621E+01 -4.23007E+01 +6.09764E+01
 -6.43947E+01 +3.70471E+01 -7.40642E+01 +5.91940E+00 -6.94181E+01 -2.63575E+01 -5.13547E+01 -5.35114E+01
 -2.33844E+01 -7.02701E+01 +9.05722E+00 -7.33882E+01 +3.96704E+01 -6.22759E+01 +6.25189E+01 -3.91112E+01
 +7.31854E+01 -8.41079E+00 +6.96278E+01 +2.38521E+01 +5.25731E+01 +5.14135E+01 +2.53694E+01 +6.89373E+01
 -6.67030E+00 +7.30523E+01 -3.73069E+01 +6.30033E+01 -6.05913E+01 +4.07917E+01 -7.20211E+01 +1.07799E+01
 -6.94138E+01 -2.11638E+01 -5.33256E+01 -4.88111E+01 -2.69365E+01 -6.67870E+01 +4.57558E+00 -7.16142E+01
 +3.50472E+01 -6.23846E+01 +5.85317E+01 -4.09307E+01 +7.04564E+01 -1.14613E+01 +6.85084E+01 +2.02626E+01
 +5.30793E+01 +4.80532E+01 +2.71819E+01 +6.65001E+01 -4.14267E+00 +7.20208E+01 -3.48109E+01 +6.35511E+01
 -5.88821E+01 +4.27455E+01 -7.17127E+01 +1.36459E+01 -7.08535E+01 -1.81116E+01 -5.65180E+01 -4.63973E+01
