 Created: 16-Jan-2021
 $NMID
 ID='D:\BASISSIMULATI'
 FMTDAT='(8E13.5)'
 VOLUME=   1.00000E+00
 TRAMP=   1.00000E+00
 $END
 +1.11305E+02 +1.84272E+01 +8.69403E+01 +3.17805E+01 +3.40753E+01 +4.65115E+01 -1.57415E+01 +6.18354E+01
 -3.73649E+01 +6.62062E+01 -2.92935E+01 +4.99066E+01 -9.86472E+00 +1.81543E+01 +1.51287E+00 -1.00470E+01
 -5.21731E-01 -1.73735E+01 -8.16527E+00 -3.09169E+00 -1.26491E+01 +1.70518E+01 -1.32088E+01 +2.53573E+01
 -1.45339E+01 +1.66401E+01 -1.82480E+01 -5.12806E-01 -1.97743E+01 -1.46522E+01 -1.42107E+01 -2.18701E+01
 -3.41619E+00 -2.56758E+01 +5.10724E+00 -2.90574E+01 +7.00446E+00 -2.96051E+01 +7.20583E+00 -2.35295E+01
 +1.52215E+01 -1.27722E+01 +3.36582E+01 -5.12028E+00 +5.26912E+01 -5.56397E+00 +5.78872E+01 -8.52911E+00
 +4.44024E+01 -1.39663E+00 +2.27129E+01 +2.21733E+01 +8.95150E+00 +5.25628E+01 +9.00286E+00 +6.97958E+01
 +1.27395E+01 +6.09530E+01 +4.90390E+00 +3.28974E+01 -1.80817E+01 +7.08500E+00 -4.27072E+01 +5.13523E-01
 -5.04313E+01 +1.08706E+01 -3.54703E+01 +2.01620E+01 -1.06036E+01 +1.29973E+01 +4.70390E+00 -8.52790E+00
 +1.91925E+00 -2.75394E+01 -1.03828E+01 -2.91568E+01 -1.68513E+01 -1.43509E+01 -1.07225E+01 +2.11065E+00
 +1.27920E+00 +6.19333E+00 +8.12798E+00 -3.49092E+00 +6.80098E+00 -1.71100E+01 +4.60283E+00 -2.46187E+01
 +1.00724E+01 -2.37751E+01 +2.32352E+01 -1.79620E+01 +3.57196E+01 -8.88958E+00 +3.96927E+01 +5.68104E+00
 +3.50116E+01 +2.63682E+01 +2.68916E+01 +4.64584E+01 +1.79053E+01 +5.48167E+01 +4.77352E+00 +4.61475E+01
 -1.55544E+01 +2.76695E+01 -3.77803E+01 +1.36401E+01 -4.90776E+01 +1.19453E+01 -4.04315E+01 +1.64065E+01
 -1.74355E+01 +1.35294E+01 +1.97742E+00 -2.54096E+00 +2.77085E+00 -2.23857E+01 -1.31135E+01 -2.96871E+01
 -2.81853E+01 -1.77934E+01 -2.58524E+01 +2.39975E+00 -6.20360E+00 +1.18735E+01 +1.43336E+01 +1.37445E+00
 +1.90887E+01 -1.98411E+01 +7.08251E+00 -3.29706E+01 -6.66883E+00 -2.72698E+01 -6.17370E+00 -9.00882E+00
 +1.04213E+01 +6.24707E+00 +3.00561E+01 +9.24881E+00 +3.78141E+01 +4.69724E+00 +2.99925E+01 +4.28212E+00
 +1.48832E+01 +1.36767E+01 +2.53407E+00 +2.72471E+01 -4.51016E+00 +3.49015E+01 -1.03778E+01 +3.24893E+01
 -1.79413E+01 +2.44443E+01 -2.42088E+01 +1.70076E+01 -2.44122E+01 +1.09499E+01 -1.91771E+01 +2.43690E+00
 -1.52204E+01 -9.59709E+00 -1.77595E+01 -1.93157E+01 -2.32556E+01 -1.92115E+01 -2.18428E+01 -9.45209E+00
 -8.22669E+00 -1.27803E-01 +1.05212E+01 -2.15634E+00 +1.98966E+01 -1.54432E+01 +1.20517E+01 -2.73036E+01
 -5.13956E+00 -2.42970E+01 -1.42762E+01 -6.25934E+00 -4.81847E+00 +1.21242E+01 +1.63668E+01 +1.48769E+01
 +3.11603E+01 +5.10786E-01 +2.73280E+01 -1.58178E+01 +9.81792E+00 -1.63901E+01 -4.78246E+00 +2.31996E+00
 -4.75708E+00 +2.64554E+01 +5.82981E+00 +3.78720E+01 +1.22292E+01 +3.03559E+01 +4.19977E+00 +1.34992E+01
 -1.42266E+01 +1.76516E+00 -2.94887E+01 +7.76166E-01 -3.17773E+01 +4.26181E+00 -2.30314E+01 +3.02266E+00
 -1.26240E+01 -4.90641E+00 -6.96382E+00 -1.34702E+01 -4.60645E+00 -1.65255E+01 -1.00128E+00 -1.45319E+01
 +4.15601E+00 -1.25805E+01 +6.25757E+00 -1.30348E+01 +2.42619E+00 -1.23136E+01 -3.11312E+00 -6.07264E+00
 -2.39850E+00 +3.49123E+00 +7.05982E+00 +7.81054E+00 +1.78160E+01 +9.35297E-01 +1.90564E+01 -1.21348E+01
 +8.24860E+00 -1.80417E+01 -4.75147E+00 -7.69792E+00 -6.74625E+00 +1.34451E+01 +4.98955E+00 +2.88624E+01
 +1.85515E+01 +2.59965E+01 +1.82310E+01 +8.40430E+00 +2.30887E-01 -7.36821E+00 -2.25283E+01 -7.55501E+00
 -3.18795E+01 +5.82580E+00 -2.12655E+01 +1.74908E+01 -1.57480E+00 +1.41813E+01 +9.52923E+00 -2.60904E+00
 +4.03423E+00 -1.87711E+01 -1.01352E+01 -2.16920E+01 -1.81518E+01 -1.18282E+01 -1.26560E+01 -7.15879E-01
 +7.50736E-01 +1.34578E+00 +1.09306E+01 -5.22435E+00 +1.24322E+01 -1.16207E+01 +8.86250E+00 -1.08587E+01
 +6.46372E+00 -4.35052E+00 +6.52821E+00 +1.41976E+00 +5.34474E+00 +3.00895E+00 +7.26654E-01 +3.11111E+00
 -3.67620E+00 +5.55729E+00 -2.16879E+00 +9.04893E+00 +5.30712E+00 +7.96278E+00 +1.11887E+01 -9.49485E-02
 +7.60614E+00 -9.06677E+00 -4.35570E+00 -8.98031E+00 -1.41626E+01 +3.24918E+00 -1.20098E+01 +1.83843E+01
 +3.72206E-01 +2.20524E+01 +1.01703E+01 +8.64646E+00 +5.92996E+00 -1.20165E+01 -1.01818E+01 -2.29175E+01
 -2.32304E+01 -1.56601E+01 -1.95412E+01 +1.57136E+00 -3.42282E-01 +1.19797E+01 +1.86834E+01 +6.29806E+00
 +2.18215E+01 -8.78336E+00 +7.74562E+00 -1.79286E+01 -9.89938E+00 -1.24463E+01 -1.57446E+01 +1.78925E+00
 -6.43890E+00 +1.11076E+01 +8.01402E+00 +7.86119E+00 +1.51912E+01 -2.82162E+00 +1.15405E+01 -9.37286E+00
 +3.26688E+00 -5.68297E+00 -2.16021E+00 +3.79712E+00 -3.52576E+00 +9.94956E+00 -4.68495E+00 +8.43031E+00
 -7.57802E+00 +2.53479E+00 -8.70479E+00 -2.30602E+00 -3.55414E+00 -4.83058E+00 +6.46678E+00 -7.53382E+00
 +1.35048E+01 -1.08451E+01 +1.08287E+01 -1.01652E+01 +4.61218E-01 -7.55360E-01 -8.09558E+00 +1.44586E+01
 -7.52633E+00 +2.40429E+01 -5.83899E-01 +1.74548E+01 +2.80286E+00 -3.67033E+00 -3.24500E+00 -2.44675E+01
 -1.29780E+01 -2.88482E+01 -1.39833E+01 -1.39490E+01 -4.59212E-01 +7.05080E+00 +1.89011E+01 +1.69526E+01
 +2.74658E+01 +1.00235E+01 +1.61531E+01 -3.89889E+00 -7.23008E+00 -1.01806E+01 -2.43286E+01 -3.87337E+00
 -2.24619E+01 +6.42212E+00 -5.29863E+00 +8.39911E+00 +1.17463E+01 -1.12760E+00 +1.61085E+01 -1.34393E+01
 +8.29239E+00 -1.72424E+01 -1.17193E+00 -9.82182E+00 -3.28105E+00 +1.29798E+00 +1.67658E+00 +6.89481E+00
 +6.91397E+00 +5.02429E+00 +7.62869E+00 +1.23197E+00 +5.24588E+00 +9.92814E-01 +3.65517E+00 +3.59478E+00
 +3.25453E+00 +4.16122E+00 +6.11656E-01 +6.72279E-01 -5.88427E+00 -2.89927E+00 -1.18318E+01 -1.41130E+00
 -1.03185E+01 +4.30988E+00 -1.58705E-01 +6.96129E+00 +1.06633E+01 +5.56506E-01 +1.16731E+01 -1.17156E+01
 +8.91816E-01 -1.89543E+01 -1.15757E+01 -1.30867E+01 -1.24180E+01 +2.08625E+00 +1.46063E+00 +1.33790E+01
 +1.85730E+01 +1.06793E+01 +2.28451E+01 -2.94899E+00 +8.90342E+00 -1.41024E+01 -1.21925E+01 -1.23935E+01
 -2.25766E+01 -9.19557E-01 -1.34202E+01 +6.94888E+00 +7.96660E+00 +1.43334E+00 +2.57853E+01 -1.30882E+01
 +2.97944E+01 -2.15787E+01 +2.21317E+01 -1.26087E+01 +1.17793E+01 +1.05046E+01 +4.25271E+00 +3.22028E+01
 -2.21754E+00 +3.78850E+01 -1.11042E+01 +2.51042E+01 -2.03522E+01 +3.31390E+00 -2.25851E+01 -1.54606E+01
 -1.29062E+01 -2.48806E+01 +4.48299E+00 -2.48178E+01 +1.86235E+01 -1.69606E+01 +2.11563E+01 -2.76292E+00
 +1.31342E+01 +1.39325E+01 +2.56463E+00 +2.48026E+01 -4.02065E+00 +2.11876E+01 -6.58674E+00 +2.48297E+00
 -8.32108E+00 -2.01223E+01 -8.99510E+00 -3.06850E+01 -3.81180E+00 -2.16536E+01 +1.00316E+01 -9.31381E-01
 +2.66251E+01 +1.47242E+01 +3.35969E+01 +1.44953E+01 +2.31861E+01 +2.63823E+00 +1.48869E+00 -6.66344E+00
 -1.46584E+01 -3.38936E+00 -1.19559E+01 +9.23311E+00 +6.87700E+00 +1.91636E+01 +2.47248E+01 +1.82198E+01
 +2.49651E+01 +9.75214E+00 +5.99691E+00 +3.90359E+00 -1.78876E+01 +6.17377E+00 -2.94820E+01 +1.16469E+01
 -2.29026E+01 +1.07530E+01 -6.38468E+00 +6.38930E-02 +7.19853E+00 -1.34703E+01 +1.15709E+01 -1.91845E+01
 +9.64713E+00 -1.30715E+01 +7.23553E+00 -1.13520E+00 +6.32887E+00 +7.18751E+00 +5.02172E+00 +8.04102E+00
 +2.36808E+00 +5.22509E+00 +9.41528E-01 +4.11498E+00 +3.52247E+00 +5.07510E+00 +8.32661E+00 +3.89928E+00
 +9.66182E+00 -1.73049E+00 +4.55856E+00 -7.85951E+00 -2.00642E+00 -7.62203E+00 -5.23219E-01 +1.12124E+00
 +1.28641E+01 +1.27157E+01 +2.97078E+01 +1.92784E+01 +3.44066E+01 +1.90880E+01 +1.78968E+01 +1.81864E+01
 -1.27880E+01 +2.26611E+01 -3.88346E+01 +2.97624E+01 -4.45728E+01 +2.84079E+01 -2.94900E+01 +1.02765E+01
 -6.72498E+00 -1.90960E+01 +9.46057E+00 -4.13656E+01 +1.46655E+01 -3.95072E+01 +1.40609E+01 -1.28031E+01
 +1.32764E+01 +2.12671E+01 +1.14785E+01 +4.03960E+01 +4.02924E+00 +3.43164E+01 -9.16636E+00 +1.08065E+01
 -2.00031E+01 -1.28513E+01 -1.83790E+01 -2.36789E+01 -2.37007E+00 -1.99344E+01 +1.83538E+01 -7.64240E+00
 +2.99715E+01 +6.71009E+00 +2.58742E+01 +1.93354E+01 +1.11879E+01 +2.72852E+01 -3.13504E+00 +2.70742E+01
 -9.94958E+00 +1.76116E+01 -9.88878E+00 +4.19640E+00 -7.37115E+00 -2.93503E+00 -4.84473E+00 +3.28056E+00
 -2.09859E+00 +1.90769E+01 -2.08313E-01 +3.12554E+01 -3.46733E+00 +2.79989E+01 -1.50479E+01 +9.54450E+00
 -3.05418E+01 -1.16950E+01 -3.79334E+01 -2.20606E+01 -2.68778E+01 -1.82205E+01 +3.38195E-01 -8.37096E+00
 +2.75585E+01 -2.57307E+00 +3.64685E+01 -2.60025E+00 +2.17257E+01 -1.68316E+00 -4.34614E+00 +6.20014E+00
 -2.21856E+01 +1.79621E+01 -2.11583E+01 +2.33306E+01 -6.88466E+00 +1.53476E+01 +6.08146E+00 -1.54642E+00
 +8.18365E+00 -1.45174E+01 +2.02578E+00 -1.37067E+01 -2.80665E+00 -7.09897E-01 -5.10172E-01 +1.39400E+01
 +5.73839E+00 +2.11200E+01 +8.24460E+00 +2.05958E+01 +2.85686E+00 +1.86963E+01 -8.01284E+00 +1.98025E+01
 -1.93026E+01 +2.12818E+01 -2.82996E+01 +1.69730E+01 -3.47545E+01 +4.74391E+00 -3.70788E+01 -1.04497E+01
 -3.09385E+01 -2.11001E+01 -1.37205E+01 -2.38584E+01 +9.50477E+00 -2.10170E+01 +2.63780E+01 -1.58528E+01
 +2.60453E+01 -8.19199E+00 +8.97839E+00 +3.90213E+00 -1.21483E+01 +1.82108E+01 -2.25236E+01 +2.61644E+01
 -1.73264E+01 +1.91083E+01 -4.57430E+00 -1.94373E+00 +3.69586E+00 -2.35865E+01 +2.87106E+00 -2.92331E+01
 -1.43576E+00 -1.32028E+01 -1.26430E+00 +1.34047E+01 +4.11067E+00 +3.13457E+01 +7.23419E+00 +2.91132E+01
 +9.89850E-01 +1.18094E+01 -1.27946E+01 -4.64605E+00 -2.41392E+01 -7.91451E+00 -2.45825E+01 +1.19821E+00
 -1.57457E+01 +1.17730E+01 -7.84691E+00 +1.37844E+01 -9.59209E+00 +5.90632E+00 -1.96409E+01 -6.09824E+00
 -2.80186E+01 -1.64536E+01 -2.56312E+01 -2.35088E+01 -1.22392E+01 -2.75920E+01 +4.36897E+00 -2.71270E+01
 +1.58899E+01 -1.91228E+01 +1.94425E+01 -4.00758E+00 +1.67905E+01 +1.14594E+01 +9.79331E+00 +1.81341E+01
 -1.31710E+00 +1.24626E+01 -1.48253E+01 +2.66045E-01 -2.45677E+01 -8.31854E+00 -2.28345E+01 -8.17107E+00
 -7.95519E+00 -3.32231E+00 +1.13824E+01 -1.54680E+00 +2.13056E+01 -5.16512E+00 +1.42050E+01 -8.07118E+00
 -4.16989E+00 -2.55163E+00 -1.94802E+01 +1.11348E+01 -2.16029E+01 +2.29005E+01 -1.34088E+01 +2.14819E+01
 -7.03473E+00 +5.35568E+00 -1.13696E+01 -1.51198E+01 -2.30868E+01 -2.67824E+01 -2.99041E+01 -2.51650E+01
 -2.25737E+01 -1.72768E+01 -3.72474E+00 -1.34360E+01 +1.46999E+01 -1.68170E+01 +2.21842E+01 -2.11526E+01
