 Created: 16-Jan-2021
 $NMID
 ID='D:\BASISSIMULATI'
 FMTDAT='(8E13.5)'
 VOLUME=   1.00000E+00
 TRAMP=   1.00000E+00
 $END
 +8.54776E+01 +1.55095E+01 +6.31669E+01 +2.23697E+01 +1.68869E+01 +2.80952E+01 -2.61004E+01 +3.43281E+01
 -4.42549E+01 +3.51979E+01 -3.58305E+01 +2.45138E+01 -1.58591E+01 +4.37059E+00 -7.35738E-01 -1.47332E+01
 +4.62052E+00 -2.29449E+01 +6.41249E+00 -1.98964E+01 +1.15160E+01 -1.38861E+01 +1.91497E+01 -1.21138E+01
 +2.29044E+01 -1.23940E+01 +1.94495E+01 -5.58590E+00 +1.32274E+01 +1.32399E+01 +1.14542E+01 +3.65841E+01
 +1.49768E+01 +4.87307E+01 +1.56811E+01 +3.94859E+01 +4.47467E+00 +1.43790E+01 -1.77237E+01 -9.07978E+00
 -3.77168E+01 -1.62164E+01 -4.01106E+01 -7.34839E+00 -2.09274E+01 +4.03497E+00 +8.16696E+00 +4.94571E+00
 +2.92578E+01 -4.92964E+00 +3.24732E+01 -1.39758E+01 +2.20779E+01 -1.08214E+01 +9.69380E+00 +4.47679E+00
 +2.51754E+00 +2.09552E+01 -1.52841E+00 +2.75848E+01 -7.89846E+00 +2.30317E+01 -1.64836E+01 +1.48919E+01
 -2.01863E+01 +1.03094E+01 -1.29501E+01 +8.59593E+00 +1.62844E+00 +3.66258E+00 +1.13388E+01 -6.93988E+00
 +6.41168E+00 -1.69264E+01 -1.00364E+01 -1.65252E+01 -2.32561E+01 -3.13466E+00 -1.97736E+01 +1.40040E+01
 -1.30641E-01 +2.09970E+01 +2.08309E+01 +1.20979E+01 +2.67592E+01 -4.40916E+00 +1.38258E+01 -1.34509E+01
 -6.85411E+00 -6.91137E+00 -1.99877E+01 +9.21718E+00 -1.92790E+01 +2.09369E+01 -1.08069E+01 +1.93222E+01
 -4.75900E+00 +7.80052E+00 -5.00450E+00 -2.85650E+00 -7.03129E+00 -5.87597E+00 -5.15195E+00 -4.27815E+00
 -6.90286E-02 -5.63128E+00 +1.89442E+00 -1.20848E+01 -3.06044E+00 -1.68810E+01 -1.01760E+01 -1.14798E+01
 -9.80803E+00 +4.12861E+00 +2.12177E+00 +1.92238E+01 +1.78104E+01 +2.15058E+01 +2.30030E+01 +8.98467E+00
 +1.00330E+01 -7.38389E+00 -1.39480E+01 -1.34753E+01 -3.20350E+01 -5.02914E+00 -3.17662E+01 +8.61039E+00
 -1.53773E+01 +1.35723E+01 +3.21917E+00 +4.43608E+00 +1.13465E+01 -1.13125E+01 +7.85705E+00 -2.10477E+01
 +1.59160E+00 -1.87214E+01 +8.25982E-01 -9.02390E+00 +5.04521E+00 -8.14364E-01 +7.06483E+00 +2.35638E+00
 +2.27459E+00 +4.47201E+00 -5.53850E+00 +1.02473E+01 -8.25538E+00 +1.74993E+01 -2.90768E+00 +1.78414E+01
 +4.02173E+00 +5.72243E+00 +2.81071E+00 -1.36857E+01 -8.71724E+00 -2.68999E+01 -2.12086E+01 -2.37034E+01
 -2.15918E+01 -6.96213E+00 -5.70816E+00 +9.27875E+00 +1.65873E+01 +1.21951E+01 +2.92750E+01 +1.50465E+00
 +2.38653E+01 -1.09765E+01 +6.16928E+00 -1.28617E+01 -9.83030E+00 -2.54115E+00 -1.45763E+01 +1.03006E+01
 -9.87047E+00 +1.47131E+01 -4.37945E+00 +8.61745E+00 -3.54455E+00 -7.31063E-01 -4.71648E+00 -5.40354E+00
 -1.99938E+00 -4.86688E+00 +5.35020E+00 -5.04176E+00 +1.07992E+01 -9.96872E+00 +7.46871E+00 -1.57383E+01
 -3.28990E+00 -1.38854E+01 -1.14640E+01 -1.09708E+00 -7.64806E+00 +1.52013E+01 +6.88344E+00 +2.21450E+01
 +1.98583E+01 +1.32495E+01 +1.87098E+01 -4.79153E+00 +2.46166E+00 -1.74729E+01 -1.66975E+01 -1.53181E+01
 -2.39257E+01 -2.05271E+00 -1.45236E+01 +9.55462E+00 +2.81000E+00 +9.86408E+00 +1.46888E+01 +6.78370E-01
 +1.47854E+01 -7.90441E+00 +7.52867E+00 -8.15303E+00 +1.39192E+00 -1.82538E+00 -2.08114E-01 +3.02846E+00
 -8.51846E-01 +1.45256E+00 -4.73118E+00 -3.14532E+00 -9.90908E+00 -3.36925E+00 -9.39235E+00 +3.12340E+00
 +6.56302E-01 +1.00070E+01 +1.45962E+01 +8.49658E+00 +2.06533E+01 -2.80068E+00 +1.17818E+01 -1.49106E+01
 -6.50413E+00 -1.62414E+01 -1.97467E+01 -3.87990E+00 -1.70463E+01 +1.28052E+01 -9.01081E-01 +2.02119E+01
 +1.49924E+01 +1.27076E+01 +1.79605E+01 -2.65186E+00 +7.12358E+00 -1.31724E+01 -7.03312E+00 -1.21780E+01
 -1.30498E+01 -3.98134E+00 -8.35538E+00 +2.00535E+00 +4.51784E-01 +1.28015E+00 +5.82269E+00 -1.99601E+00
 +6.63992E+00 -8.40266E-01 +7.27024E+00 +5.94422E+00 +1.03031E+01 +1.19134E+01 +1.18805E+01 +9.96796E+00
 +5.50786E+00 +6.35017E-01 -9.39830E+00 -7.53459E+00 -2.38471E+01 -6.43231E+00 -2.56956E+01 +2.83568E+00
 -1.08881E+01 +1.02523E+01 +1.14527E+01 +6.61663E+00 +2.57569E+01 -6.75918E+00 +2.28870E+01 -1.82891E+01
 +7.37253E+00 -1.65730E+01 -7.49947E+00 -1.18967E+00 -1.16962E+01 +1.65702E+01 -6.12683E+00 +2.37124E+01
 +5.54557E-01 +1.66802E+01 +1.66369E+00 +3.28804E+00 -1.55039E+00 -5.61452E+00 -3.20044E+00 -5.98070E+00
 -7.48672E-01 -2.46599E+00 +1.63179E+00 -1.61103E+00 -1.76694E+00 -4.32787E+00 -1.02396E+01 -5.69569E+00
 -1.52565E+01 -1.69465E+00 -8.29850E+00 +5.11481E+00 +9.40691E+00 +7.71492E+00 +2.55311E+01 +2.58438E+00
 +2.62717E+01 -5.28786E+00 +8.65169E+00 -6.50139E+00 -1.60161E+01 +2.95550E+00 -3.10354E+01 +1.62092E+01
 -2.76595E+01 +2.07015E+01 -1.10342E+01 +9.88019E+00 +5.77238E+00 -9.78309E+00 +1.31105E+01 -2.36331E+01
 +1.08513E+01 -2.14185E+01 +4.95071E+00 -5.98844E+00 -1.53706E-01 +9.83676E+00 -4.78893E+00 +1.48704E+01
 -1.04012E+01 +8.52473E+00 -1.46138E+01 -7.71072E-01 -1.19303E+01 -4.98811E+00 -2.18229E-01 -3.76523E+00
 +1.42651E+01 -2.63707E+00 +2.01035E+01 -5.15084E+00 +1.06278E+01 -8.02580E+00 -8.79909E+00 -4.84590E+00
 -2.40040E+01 +5.69878E+00 -2.37892E+01 +1.62322E+01 -9.66106E+00 +1.64039E+01 +5.73034E+00 +2.81862E+00
 +1.01470E+01 -1.66585E+01 +2.50972E+00 -2.88590E+01 -7.11792E+00 -2.61705E+01 -7.85137E+00 -1.22194E+01
 +1.61088E+00 +2.47561E+00 +1.23644E+01 +9.98418E+00 +1.44620E+01 +1.02714E+01 +6.43433E+00 +8.09512E+00
 -4.05806E+00 +6.16449E+00 -8.44165E+00 +2.58347E+00 -5.58152E+00 -4.88963E+00 -1.94385E+00 -1.33883E+01
 -3.95380E+00 -1.56821E+01 -1.08069E+01 -7.67928E+00 -1.51156E+01 +5.01364E+00 -1.04308E+01 +9.67126E+00
 +2.29415E+00 -2.31158E+00 +1.57396E+01 -2.54844E+01 +2.31624E+01 -4.20304E+01 +2.36956E+01 -3.53400E+01
 +2.07676E+01 -4.42272E+00 +1.62475E+01 +3.35292E+01 +7.67497E+00 +5.51309E+01 -7.66901E+00 +4.75347E+01
 -2.62385E+01 +1.64484E+01 -3.73636E+01 -1.98696E+01 -3.09288E+01 -4.40582E+01 -7.22167E+00 -4.91797E+01
 +2.09487E+01 -3.85748E+01 +3.72513E+01 -1.96331E+01 +3.46491E+01 +1.10186E+00 +2.04667E+01 +1.82972E+01
 +8.94366E+00 +2.67908E+01 +8.14866E+00 +2.33577E+01 +1.33940E+01 +1.05877E+01 +1.30196E+01 -2.37982E+00
 +6.50928E-01 -5.64025E+00 -1.78893E+01 +2.85434E+00 -2.93875E+01 +1.41032E+01 -2.48743E+01 +1.48224E+01
 -7.08467E+00 -6.70255E-01 +1.26805E+01 -2.41036E+01 +2.44441E+01 -3.89208E+01 +2.65762E+01 -3.35865E+01
 +2.41984E+01 -1.08638E+01 +2.20988E+01 +1.50794E+01 +2.00318E+01 +3.06860E+01 +1.46285E+01 +3.29250E+01
 +4.68076E+00 +2.85214E+01 -6.60739E+00 +2.45651E+01 -1.47055E+01 +2.06912E+01 -1.81207E+01 +1.07607E+01
 -1.86270E+01 -8.11634E+00 -1.71067E+01 -2.90521E+01 -1.04871E+01 -3.87966E+01 +5.29663E+00 -2.86041E+01
 +2.82592E+01 -2.49439E+00 +4.70961E+01 +2.49078E+01 +4.73812E+01 +3.91092E+01 +2.37489E+01 +3.56252E+01
 -1.27321E+01 +2.10846E+01 -4.02004E+01 +6.15146E+00 -4.16925E+01 -2.32012E+00 -1.82764E+01 -3.52013E+00
 +1.16834E+01 +3.27821E-01 +2.68188E+01 +7.02066E+00 +1.87392E+01 +1.40638E+01 -3.22025E+00 +1.70856E+01
 -2.12684E+01 +1.13600E+01 -2.34399E+01 -3.10566E+00 -1.09375E+01 -1.81575E+01 +5.83191E+00 -2.13499E+01
 +1.67799E+01 -6.00442E+00 +1.82272E+01 +2.09766E+01 +1.19696E+01 +4.19148E+01 +1.11375E+00 +4.13177E+01
 -1.17468E+01 +1.87173E+01 -2.30637E+01 -1.00103E+01 -2.75221E+01 -2.47489E+01 -2.11456E+01 -1.67713E+01
 -6.15499E+00 +5.21089E+00 +8.20087E+00 +2.32205E+01 +1.16436E+01 +2.47232E+01 +1.40197E+00 +1.12069E+01
 -1.46831E+01 -5.57313E+00 -2.41846E+01 -1.46420E+01 -2.03516E+01 -1.36400E+01 -7.32520E+00 -7.57418E+00
 +4.41548E+00 -1.84019E+00 +7.78367E+00 +2.57378E+00 +4.50569E+00 +7.60586E+00 +1.26551E+00 +1.35191E+01
 +1.08684E+00 +1.71881E+01 -6.47832E-01 +1.52364E+01 -1.09145E+01 +8.06488E+00 -2.96348E+01 -2.47002E-01
 -4.61418E+01 -6.30287E+00 -4.63409E+01 -1.09462E+01 -2.49470E+01 -1.74887E+01 +8.32029E+00 -2.61112E+01
 +3.47252E+01 -3.08949E+01 +3.99792E+01 -2.39858E+01 +2.39417E+01 -3.93024E+00 -9.77996E-01 +2.01123E+01
 -2.01947E+01 +3.36812E+01 -2.67074E+01 +2.82750E+01 -2.29838E+01 +8.61047E+00 -1.57304E+01 -1.11287E+01
 -9.98977E+00 -1.91123E+01 -7.48172E+00 -1.52318E+01 -8.30454E+00 -9.68792E+00 -1.18757E+01 -1.24748E+01
 -1.55022E+01 -2.37415E+01 -1.35507E+01 -3.37971E+01 -7.68386E-01 -3.22130E+01 +2.14860E+01 -1.71633E+01
 +4.22992E+01 +3.38821E+00 +4.65965E+01 +1.88261E+01 +2.64886E+01 +2.39152E+01 -1.05883E+01 +2.05162E+01
 -4.49228E+01 +1.28595E+01 -5.76288E+01 +2.54969E+00 -4.36453E+01 -1.12656E+01 -1.41486E+01 -2.75381E+01
 +1.31032E+01 -4.06371E+01 +2.68064E+01 -4.33513E+01 +2.77596E+01 -3.31129E+01 +2.38766E+01 -1.50086E+01
 +2.09547E+01 +1.92565E+00 +1.83008E+01 +1.17667E+01 +1.22345E+01 +1.52386E+01 +2.31457E+00 +1.64822E+01
 -6.93891E+00 +1.69213E+01 -1.04890E+01 +1.31533E+01 -8.15822E+00 +1.43641E+00 -4.76936E+00 -1.59914E+01
 -4.69680E+00 -3.00879E+01 -6.68801E+00 -3.17375E+01 -4.75655E+00 -2.01283E+01 +5.38392E+00 -4.40745E+00
 +2.08500E+01 +3.76949E+00 +3.28994E+01 +3.51778E-01 +3.40886E+01 -7.71251E+00 +2.44405E+01 -9.11031E+00
 +1.07862E+01 +1.23990E+00 +2.96206E-01 +1.73555E+01 -5.13817E+00 +2.73398E+01 -8.31966E+00 +2.34799E+01
 -1.13566E+01 +8.12118E+00 -1.19271E+01 -9.27928E+00 -5.67720E+00 -2.01469E+01 +7.68284E+00 -2.21283E+01
 +2.15197E+01 -1.78675E+01 +2.66899E+01 -1.02826E+01 +1.96962E+01 -2.19848E-01 +6.61270E+00 +1.14305E+01
 -1.65477E+00 +2.08294E+01 +1.12313E+00 +2.23255E+01 +1.10058E+01 +1.36887E+01 +1.76206E+01 +7.15649E-02
 +1.36573E+01 -8.49219E+00 +1.27659E+00 -5.06091E+00 -1.02837E+01 +7.78056E+00 -1.31802E+01 +1.94346E+01
 -7.32472E+00 +2.00027E+01 +9.22913E-01 +8.55922E+00 +5.55804E+00 -6.41612E+00 +6.06711E+00 -1.45720E+01
 +6.19133E+00 -1.20305E+01 +8.53238E+00 -3.11484E+00 +1.12806E+01 +5.21120E+00 +1.05440E+01 +9.95140E+00
 +5.37576E+00 +1.32071E+01 -4.25866E-01 +1.75451E+01 -2.10499E+00 +2.14098E+01 +6.09460E-01 +2.00370E+01
 +2.53334E+00 +1.10794E+01 -1.81362E+00 -1.29202E+00 -1.18688E+01 -8.83699E+00 -2.02211E+01 -6.51732E+00
 -1.88294E+01 +2.46581E+00 -6.63632E+00 +9.18143E+00 +8.80876E+00 +7.04888E+00 +1.75268E+01 -2.06745E+00
 +1.53893E+01 -9.53703E+00 +6.81850E+00 -7.78521E+00 -2.84910E-01 +3.12347E+00 -2.09733E+00 +1.60306E+01
 -1.55226E+00 +2.32169E+01 -4.00483E+00 +2.23192E+01 -1.08175E+01 +1.63822E+01 -1.75964E+01 +9.16165E+00
