 Created: 16-Jan-2021
 $NMID
 ID='D:\BASISSIMULATI'
 FMTDAT='(8E13.5)'
 VOLUME=   1.00000E+00
 TRAMP=   1.00000E+00
 $END
 +3.85809E+01 +5.87951E+00 +1.90407E+01 +3.14587E+01 -1.21219E+01 +2.86385E+01 -2.50893E+01 +1.51180E+00
 -8.18981E+00 -2.23803E+01 +2.09740E+01 -1.90720E+01 +3.29599E+01 +8.56236E+00 +1.52426E+01 +3.38705E+01
 -1.57701E+01 +3.25566E+01 -3.09563E+01 +6.24844E+00 -1.68692E+01 -1.93707E+01 +1.14167E+01 -1.97662E+01
 +2.53016E+01 +4.65344E+00 +1.06121E+01 +2.92452E+01 -1.87893E+01 +2.93650E+01 -3.47813E+01 +4.31479E+00
 -2.24392E+01 -2.22468E+01 +5.65478E+00 -2.55399E+01 +2.19751E+01 -3.69222E+00 +1.09510E+01 +2.07711E+01
 -1.60918E+01 +2.31307E+01 -3.22887E+01 +5.09208E-01 -2.15216E+01 -2.56097E+01 +6.07641E+00 -3.05323E+01
 +2.42922E+01 -1.03303E+01 +1.64536E+01 +1.46575E+01 -8.56992E+00 +1.99034E+01 -2.53679E+01 +5.33272E-01
 -1.68933E+01 -2.42422E+01 +9.11472E+00 -3.01177E+01 +2.79866E+01 -1.13369E+01 +2.22702E+01 +1.40034E+01
 -1.49256E+00 +2.18470E+01 -1.95034E+01 +5.55987E+00 -1.40532E+01 -1.79503E+01 +9.41879E+00 -2.50227E+01
 +2.79784E+01 -8.29541E+00 +2.37035E+01 +1.64193E+01 +9.55806E-01 +2.58223E+01 -1.82241E+01 +1.17941E+01
 -1.57538E+01 -1.10360E+01 +5.07646E+00 -1.98761E+01 +2.31983E+01 -5.99175E+00 +2.05008E+01 +1.70951E+01
 -6.82753E-01 +2.71022E+01 -2.02036E+01 +1.47067E+01 -1.99117E+01 -7.68881E+00 -1.14845E+00 -1.83766E+01
 +1.69607E+01 -7.51212E+00 +1.63755E+01 +1.36210E+01 -2.42871E+00 +2.39686E+01 -2.12981E+01 +1.32747E+01
 -2.23112E+01 -8.22093E+00 -5.08383E+00 -2.01034E+01 +1.32483E+01 -1.17097E+01 +1.49717E+01 +7.80806E+00
 -1.08944E+00 +1.87881E+01 -1.88259E+01 +1.03016E+01 -2.08083E+01 -9.48705E+00 -5.15266E+00 -2.16419E+01
 +1.30241E+01 -1.49798E+01 +1.65935E+01 +3.33783E+00 +2.97399E+00 +1.51762E+01 -1.37637E+01 +9.19862E+00
 -1.69091E+01 -8.37700E+00 -3.30683E+00 -2.02358E+01 +1.39494E+01 -1.49565E+01 +1.85625E+01 +2.13389E+00
 +6.81185E+00 +1.45443E+01 -9.22358E+00 +1.08074E+01 -1.37550E+01 -4.63190E+00 -2.59767E+00 -1.61698E+01
 +1.31405E+01 -1.24059E+01 +1.82077E+01 +2.99839E+00 +8.01161E+00 +1.52897E+01 -7.29037E+00 +1.31472E+01
 -1.30193E+01 -5.50086E-01 -4.22500E+00 -1.19578E+01 +9.88481E+00 -9.93962E+00 +1.52747E+01 +3.31725E+00
 +6.73834E+00 +1.48530E+01 -7.39735E+00 +1.37519E+01 -1.37343E+01 +1.54912E+00 -6.83325E+00 -9.69073E+00
 +5.87092E+00 -9.33163E+00 +1.16921E+01 +1.69248E+00 +5.06372E+00 +1.22231E+01 -7.39926E+00 +1.19781E+01
 -1.37190E+01 +1.37482E+00 -8.24012E+00 -9.29799E+00 +3.22246E+00 -1.01312E+01 +9.43727E+00 -1.05111E+00
 +4.73234E+00 +8.54847E+00 -5.83400E+00 +9.21683E+00 -1.18009E+01 +4.86150E-01 -7.55313E+00 -9.09587E+00
 +2.54553E+00 -1.05520E+01 +8.79935E+00 -3.05667E+00 +5.68681E+00 +5.69104E+00 -3.10169E+00 +7.24674E+00
 -8.67559E+00 +5.01980E-01 -5.69652E+00 -7.66282E+00 +2.73755E+00 -9.37314E+00 +8.51808E+00 -3.30501E+00
 +6.51948E+00 +4.44336E+00 -7.24464E-01 +6.58867E+00 -5.91117E+00 +1.63757E+00 -4.20090E+00 -5.08313E+00
 +2.36798E+00 -6.93464E+00 +7.28684E+00 -2.34096E+00 +6.04889E+00 +4.08298E+00 +2.53161E-01 +6.34454E+00
 -4.37519E+00 +2.82330E+00 -3.70413E+00 -2.56224E+00 +1.06003E+00 -4.50849E+00 +4.97932E+00 -1.42909E+00
 +4.35976E+00 +3.39873E+00 +9.26877E-02 +5.36788E+00 -3.63607E+00 +2.97885E+00 -3.59344E+00 -1.09164E+00
 -3.95528E-01 -2.94673E+00 +2.52430E+00 -1.22810E+00 +2.45159E+00 +1.94911E+00 -1.96916E-01 +3.41833E+00
 -2.70422E+00 +2.03150E+00 -2.90029E+00 -5.94389E-01 -1.05581E+00 -2.01287E+00 +8.06071E-01 -1.32422E+00
 +1.09345E+00 +3.18235E-01 -1.08833E-02 +1.20564E+00 -1.15266E+00 +7.53755E-01 -1.35460E+00 -2.81758E-01
 -7.81477E-01 -9.15485E-01 -1.63931E-01 -9.19498E-01 +1.47569E-01 -7.00047E-01 +3.45763E-01 -5.22527E-01
 +5.60759E-01 -2.10758E-01 +4.81981E-01 +3.45779E-01 -1.81864E-01 +6.98825E-01 -1.01084E+00 +2.17157E-01
 -1.02529E+00 -9.79616E-01 +2.15191E-01 -1.75496E+00 +1.77891E+00 -9.92840E-01 +2.00242E+00 +1.00285E+00
 +2.41201E-01 +2.41437E+00 -2.10297E+00 +1.59185E+00 -2.66837E+00 -1.04461E+00 -5.44549E-01 -3.02728E+00
 +2.45349E+00 -2.14481E+00 +3.27180E+00 +1.12050E+00 +6.93243E-01 +3.67533E+00 -3.09178E+00 +2.71661E+00
 -4.32501E+00 -1.26604E+00 -1.42224E+00 -4.57752E+00 +3.11111E+00 -3.78781E+00 +4.82326E+00 +6.74100E-01
 +1.72035E+00 +4.55619E+00 -3.42772E+00 +3.79083E+00 -5.48357E+00 -1.29759E+00 -2.00198E+00 -5.92285E+00
 +4.03052E+00 -5.34743E+00 +6.79331E+00 +2.76645E-01 +3.33621E+00 +5.67758E+00 -3.20655E+00 +5.43969E+00
 -6.36192E+00 -5.08165E-01 -2.65203E+00 -6.44917E+00 +4.68020E+00 -6.27970E+00 +8.51146E+00 +3.42766E-01
 +4.78435E+00 +7.29143E+00 -3.22017E+00 +7.75463E+00 -7.76330E+00 +1.05088E+00 -4.18450E+00 -6.34774E+00
 +4.24843E+00 -6.93796E+00 +9.20576E+00 +3.29588E-01 +5.39690E+00 +8.66387E+00 -3.97316E+00 +9.84815E+00
 -1.00021E+01 +2.39615E+00 -6.72831E+00 -6.65147E+00 +2.78170E+00 -8.38520E+00 +9.10862E+00 -8.48838E-01
 +5.62303E+00 +8.71059E+00 -4.77536E+00 +1.06948E+01 -1.21575E+01 +2.63534E+00 -9.17932E+00 -8.06076E+00
 +1.50884E+00 -1.11064E+01 +9.53280E+00 -3.46336E+00 +6.84197E+00 +7.37818E+00 -4.19747E+00 +1.04849E+01
 -1.27934E+01 +2.24111E+00 -1.01694E+01 -9.80078E+00 +1.64736E+00 -1.40451E+01 +1.14866E+01 -6.22816E+00
 +9.82843E+00 +6.12671E+00 -1.70716E+00 +1.08187E+01 -1.16415E+01 +2.93572E+00 -9.73825E+00 -1.00566E+01
 +2.80431E+00 -1.53565E+01 +1.42077E+01 -7.35982E+00 +1.34776E+01 +6.58953E+00 +1.29983E+00 +1.31197E+01
 -1.03418E+01 +5.90296E+00 -9.74335E+00 -7.90930E+00 +2.92542E+00 -1.44310E+01 +1.54895E+01 -6.61980E+00
 +1.55121E+01 +8.58201E+00 +2.57931E+00 +1.67663E+01 -1.10124E+01 +1.01110E+01 -1.21144E+01 -4.75665E+00
 +3.10444E-01 -1.29983E+01 +1.39080E+01 -6.05154E+00 +1.48536E+01 +9.77219E+00 +1.47837E+00 +1.91970E+01
 -1.38219E+01 +1.28663E+01 -1.65200E+01 -3.31225E+00 -4.22993E+00 -1.36974E+01 +1.07235E+01 -8.15202E+00
 +1.31951E+01 +7.86136E+00 +1.13324E-01 +1.83835E+01 -1.62600E+01 +1.25066E+01 -2.01276E+01 -4.77574E+00
 -7.64851E+00 -1.71986E+01 +9.08300E+00 -1.30404E+01 +1.36892E+01 +3.27447E+00 +1.56863E+00 +1.52864E+01
 -1.53858E+01 +1.05316E+01 -2.02387E+01 -7.10776E+00 -7.60973E+00 -2.09554E+01 +1.08471E+01 -1.77422E+01
 +1.76458E+01 -6.97304E-01 +6.56991E+00 +1.34024E+01 -1.10715E+01 +1.05513E+01 -1.73419E+01 -6.66618E+00
 -5.24477E+00 -2.13892E+01 +1.42311E+01 -1.88680E+01 +2.26588E+01 -9.95135E-01 +1.21702E+01 +1.53339E+01
 -6.69838E+00 +1.46261E+01 -1.51509E+01 -1.98357E+00 -4.51265E+00 -1.76661E+01 +1.51193E+01 -1.62665E+01
 +2.45719E+01 +1.79876E+00 +1.43211E+01 +1.97426E+01 -6.04880E+00 +2.06890E+01 -1.70459E+01 +4.21891E+00
 -8.29343E+00 -1.30683E+01 +1.12043E+01 -1.36946E+01 +2.17220E+01 +3.53309E+00 +1.20860E+01 +2.21783E+01
 -9.25796E+00 +2.41236E+01 -2.23244E+01 +7.32375E+00 -1.50648E+01 -1.20451E+01 +4.76878E+00 -1.52898E+01
 +1.70807E+01 +4.92634E-01 +9.05898E+00 +1.94452E+01 -1.21794E+01 +2.23597E+01 -2.63875E+01 +5.50095E+00
 -1.99198E+01 -1.55885E+01 +8.53335E-01 -2.11547E+01 +1.56492E+01 -6.53777E+00 +1.00549E+01 +1.31794E+01
 -1.03088E+01 +1.78409E+01 -2.51649E+01 +1.96043E+00 -1.93611E+01 -1.97807E+01 +2.23759E+00 -2.67638E+01
 +1.93706E+01 -1.25736E+01 +1.61120E+01 +8.64951E+00 -3.53175E+00 +1.59514E+01 -1.94599E+01 +2.05432E+00
 -1.51006E+01 -1.94379E+01 +6.31554E+00 -2.72508E+01 +2.47888E+01 -1.32351E+01 +2.30196E+01 +9.57939E+00
 +3.33055E+00 +1.96219E+01 -1.45387E+01 +7.83414E+00 -1.26918E+01 -1.34329E+01 +7.38991E+00 -2.24422E+01
 +2.62098E+01 -9.33037E+00 +2.52581E+01 +1.41653E+01 +5.12631E+00 +2.60804E+01 -1.49976E+01 +1.56445E+01
 -1.60242E+01 -6.17383E+00 +2.38279E+00 -1.73519E+01 +2.14417E+01 -6.33959E+00 +2.15895E+01 +1.65969E+01
 +1.63673E+00 +2.93411E+01 -1.99940E+01 +1.95117E+01 -2.32023E+01 -3.41328E+00 -5.82567E+00 -1.73131E+01
 +1.42409E+01 -9.01492E+00 +1.65271E+01 +1.28260E+01 -1.98446E+00 +2.61651E+01 -2.38591E+01 +1.71123E+01
 -2.81999E+01 -6.45829E+00 -1.10480E+01 -2.25479E+01 +1.07407E+01 -1.64819E+01 +1.59489E+01 +4.77834E+00
 -2.81039E-01 +1.94509E+01 -2.16984E+01 +1.22319E+01 -2.68198E+01 -1.07251E+01 -9.92613E+00 -2.77861E+01
 +1.33287E+01 -2.29388E+01 +2.11798E+01 -1.40949E+00 +6.97629E+00 +1.54588E+01 -1.43606E+01 +1.10595E+01
 -2.09461E+01 -1.02636E+01 -5.33177E+00 -2.74710E+01 +1.82049E+01 -2.33849E+01 +2.75872E+01 -1.46364E+00
 +1.44682E+01 +1.75794E+01 -7.66445E+00 +1.59909E+01 -1.66999E+01 -3.72746E+00 -3.50669E+00 -2.13192E+01
 +1.91709E+01 -1.85968E+01 +2.91820E+01 +2.78780E+00 +1.65986E+01 +2.29633E+01 -6.62031E+00 +2.32320E+01
 -1.83327E+01 +4.27573E+00 -7.81728E+00 -1.45832E+01 +1.38213E+01 -1.42977E+01 +2.45660E+01 +5.31269E+00
 +1.30142E+01 +2.54260E+01 -1.05077E+01 +2.66188E+01 -2.40522E+01 +7.80024E+00 -1.54556E+01 -1.27854E+01
 +5.86932E+00 -1.54052E+01 +1.82153E+01 +1.93408E+00 +8.81009E+00 +2.16274E+01 -1.37498E+01 +2.37263E+01
 -2.79461E+01 +5.41167E+00 -2.03479E+01 -1.63066E+01 +1.34674E+00 -2.12236E+01 +1.59128E+01 -5.60998E+00
 +9.33885E+00 +1.42625E+01 -1.15655E+01 +1.80979E+01 -2.59182E+01 +1.39258E+00 -1.91914E+01 -2.02362E+01
 +2.65459E+00 -2.63465E+01 +1.90671E+01 -1.15874E+01 +1.49720E+01 +9.18969E+00 -4.60761E+00 +1.55184E+01
 -1.95898E+01 +1.28129E+00 -1.45044E+01 -1.94240E+01 +6.45017E+00 -2.61403E+01 +2.35946E+01 -1.20146E+01
 +2.10020E+01 +9.60818E+00 +1.95243E+00 +1.82918E+01 -1.44096E+01 +6.42448E+00 -1.18291E+01 -1.34890E+01
 +7.25593E+00 -2.11654E+01 +2.42212E+01 -8.35996E+00 +2.24976E+01 +1.31780E+01 +3.67766E+00 +2.32638E+01
 -1.41681E+01 +1.29536E+01 -1.41867E+01 -6.87001E+00 +2.89454E+00 -1.62639E+01 +1.96424E+01 -5.70986E+00
 +1.90340E+01 +1.47083E+01 +1.02709E+00 +2.52718E+01 -1.75263E+01 +1.58798E+01 -1.93916E+01 -4.21920E+00
 -3.68387E+00 -1.55919E+01 +1.34487E+01 -7.59607E+00 +1.47026E+01 +1.13735E+01 -1.53747E+00 +2.22442E+01
 -1.97705E+01 +1.39224E+01 -2.26025E+01 -5.98932E+00 -7.65711E+00 -1.87499E+01 +1.02777E+01 -1.27807E+01
 +1.37974E+01 +5.18674E+00 -1.90761E-01 +1.68693E+01 -1.76299E+01 +1.03363E+01 -2.11676E+01 -8.45807E+00
 -7.05594E+00 -2.16446E+01 +1.13517E+01 -1.69134E+01 +1.67485E+01 +6.11759E-01 +4.70258E+00 +1.35639E+01
