 Created: 16-Jan-2021
 $NMID
 ID='D:\BASISSIMULATI'
 FMTDAT='(8E13.5)'
 VOLUME=   1.00000E+00
 TRAMP=   1.00000E+00
 $END
 +5.63871E+01 +9.62390E+00 +5.01918E+01 +2.65178E+01 +3.89072E+01 +4.03069E+01 +2.39375E+01 +4.94964E+01
 +7.09785E+00 +5.31898E+01 -9.63018E+00 +5.11860E+01 -2.43564E+01 +4.39799E+01 -3.55182E+01 +3.26717E+01
 -4.20628E+01 +1.87994E+01 -4.35534E+01 +4.12207E+00 -4.01894E+01 -9.61323E+00 -3.27416E+01 -2.08897E+01
 -2.24184E+01 -2.85949E+01 -1.06849E+01 -3.21298E+01 +9.37842E-01 -3.14453E+01 +1.10638E+01 -2.70047E+01
 +1.86004E+01 -1.96858E+01 +2.28566E+01 -1.06393E+01 +2.35905E+01 -1.12726E+00 +2.09987E+01 +7.63631E+00
 +1.56536E+01 +1.46233E+01 +8.40410E+00 +1.90928E+01 +2.54347E-01 +2.06488E+01 -7.76074E+00 +1.92525E+01
 -1.46895E+01 +1.51958E+01 -1.97561E+01 +9.04151E+00 -2.24245E+01 +1.54494E+00 -2.24333E+01 -6.43545E+00
 -1.98010E+01 -1.40267E+01 -1.48075E+01 -2.04230E+01 -7.95517E+00 -2.49541E+01 +8.39203E-02 -2.71390E+01
 +8.53111E+00 -2.67220E+01 +1.65696E+01 -2.36912E+01 +2.34150E+01 -1.82788E+01 +2.83841E+01 -1.09428E+01
 +3.09576E+01 -2.33083E+00 +3.08322E+01 +6.77390E+00 +2.79561E+01 +1.55214E+01 +2.25442E+01 +2.30745E+01
 +1.50670E+01 +2.86924E+01 +6.21389E+00 +3.18105E+01 -3.17106E+00 +3.21068E+01 -1.21735E+01 +2.95452E+01
 -1.99070E+01 +2.43900E+01 -2.56130E+01 +1.71842E+01 -2.87509E+01 +8.69527E+00 -2.90648E+01 -1.70055E-01
 -2.66178E+01 -8.47090E+00 -2.17873E+01 -1.53449E+01 -1.52195E+01 -2.01134E+01 -7.74912E+00 -2.23652E+01
 -2.92994E-01 -2.20058E+01 +6.26764E+00 -1.92657E+01 +1.12003E+01 -1.46652E+01 +1.40138E+01 -8.94001E+00
 +1.45182E+01 -2.93915E+00 +1.28414E+01 +2.49253E+00 +9.40338E+00 +6.62866E+00 +4.84919E+00 +8.95750E+00
 -4.71355E-02 +9.24592E+00 -4.49476E+00 +7.56307E+00 -7.79742E+00 +4.26087E+00 -9.44834E+00 -8.45330E-02
 -9.19549E+00 -4.76110E+00 -7.06896E+00 -9.02526E+00 -3.36777E+00 -1.22071E+01 +1.39035E+00 -1.38012E+01
 +6.54753E+00 -1.35309E+01 +1.14003E+01 -1.13785E+01 +1.52962E+01 -7.57833E+00 +1.77182E+01 -2.57594E+00
 +1.83475E+01 +3.03887E+00 +1.70951E+01 +8.61446E+00 +1.41020E+01 +1.35229E+01 +9.70956E+00 +1.72367E+01
 +4.40586E+00 +1.93876E+01 -1.24218E+00 +1.98002E+01 -6.66103E+00 +1.84992E+01 -1.13373E+01 +1.56918E+01
 -1.48708E+01 +1.17286E+01 -1.70097E+01 +7.05290E+00 -1.76634E+01 +2.14306E+00 -1.68969E+01 -2.54172E+00
 -1.49081E+01 -6.60773E+00 -1.19925E+01 -9.76023E+00 -8.50348E+00 -1.18222E+01 -4.81019E+00 -1.27388E+01
 -1.26035E+00 -1.25686E+01 +1.85061E+00 -1.14656E+01 +4.30162E+00 -9.65446E+00 +5.95864E+00 -7.40189E+00
 +6.77857E+00 -4.98847E+00 +6.80517E+00 -2.68148E+00 +6.15820E+00 -7.11298E-01 +5.01731E+00 +7.47748E-01
 +3.60163E+00 +1.59110E+00 +2.14674E+00 +1.79158E+00 +8.80268E-01 +1.40022E+00 -2.09857E-03 +5.40093E-01
 -3.58117E-01 -6.06994E-01 -1.16015E-01 -1.82023E+00 +7.15158E-01 -2.86462E+00 +2.04356E+00 -3.51880E+00
 +3.70197E+00 -3.60290E+00 +5.46459E+00 -3.00334E+00 +7.07206E+00 -1.69111E+00 +8.26216E+00 +2.69080E-01
 +8.80290E+00 +2.72085E+00 +8.52377E+00 +5.42976E+00 +7.34115E+00 +8.10751E+00 +5.27415E+00 +1.04443E+01
 +2.44848E+00 +1.21455E+01 -9.12860E-01 +1.29682E+01 -4.51124E+00 +1.27525E+01 -8.00415E+00 +1.14448E+01
 -1.10432E+01 +9.10746E+00 -1.33141E+01 +5.91626E+00 -1.45730E+01 +2.14325E+00 -1.46757E+01 -1.87138E+00
 -1.35954E+01 -5.75607E+00 -1.14270E+01 -9.14840E+00 -8.37766E+00 -1.17349E+01 -4.74466E+00 -1.32855E+01
 -8.83088E-01 -1.36784E+01 +2.83297E+00 -1.29132E+01 +6.05125E+00 -1.11102E+01 +8.47964E+00 -8.49627E+00
 +9.91786E+00 -5.37944E+00 +1.02789E+01 -2.11380E+00 +9.59812E+00 +9.40495E-01 +8.02821E+00 +3.45818E+00
 +5.82136E+00 +5.18637E+00 +3.29937E+00 +5.97420E+00 +8.15284E-01 +5.79116E+00 -1.28952E+00 +4.73163E+00
 -2.72808E+00 +3.00456E+00 -3.30526E+00 +9.08843E-01 -2.94518E+00 -1.20341E+00 -1.70465E+00 -2.97184E+00
 +2.29812E-01 -4.07588E+00 +2.56204E+00 -4.27995E+00 +4.92187E+00 -3.46984E+00 +6.91265E+00 -1.67471E+00
 +8.16509E+00 +9.29016E-01 +8.39049E+00 +4.03369E+00 +7.42602E+00 +7.23551E+00 +5.26531E+00 +1.00851E+01
 +2.06896E+00 +1.21470E+01 -1.84758E+00 +1.30617E+01 -6.04850E+00 +1.25988E+01 -1.00308E+01 +1.06966E+01
 -1.32896E+01 +7.47895E+00 -1.53864E+01 +3.24754E+00 -1.60116E+01 -1.55160E+00 -1.50304E+01 -6.38259E+00
 -1.25069E+01 -1.06886E+01 -8.70013E+00 -1.39658E+01 -4.03323E+00 -1.58312E+01 +9.60470E-01 -1.60751E+01
 +5.70778E+00 -1.46897E+01 +9.67156E+00 -1.18700E+01 +1.24216E+01 -7.98624E+00 +1.36899E+01 -3.53225E+00
 +1.34031E+01 +9.42747E-01 +1.16862E+01 +4.90861E+00 +8.83941E+00 +7.92412E+00 +5.29074E+00 +9.69213E+00
 +1.53292E+00 +1.00922E+01 -1.94589E+00 +9.18721E+00 -4.72693E+00 +7.20377E+00 -6.51193E+00 +4.49113E+00
 -7.15385E+00 +1.46581E+00 -6.66413E+00 -1.44878E+00 -5.19731E+00 -3.87838E+00 -3.01745E+00 -5.54154E+00
 -4.53218E-01 -6.27583E+00 +2.15023E+00 -6.04466E+00 +4.47494E+00 -4.92617E+00 +6.26338E+00 -3.08888E+00
 +7.33791E+00 -7.59838E-01 +7.60619E+00 +1.80794E+00 +7.05498E+00 +4.36344E+00 +5.73657E+00 +6.67750E+00
 +3.75288E+00 +8.55352E+00 +1.24171E+00 +9.83078E+00 -1.63223E+00 +1.03834E+01 -4.68077E+00 +1.01195E+01
 -7.69230E+00 +8.98354E+00 -1.04317E+01 +6.96454E+00 -1.26449E+01 +4.10942E+00 -1.40711E+01 +5.38613E-01
 -1.44661E+01 -3.54074E+00 -1.36343E+01 -7.82997E+00 -1.14670E+01 -1.19479E+01 -7.97960E+00 -1.54569E+01
 -3.34036E+00 -1.79067E+01 +2.11798E+00 -1.88918E+01 +7.91012E+00 -1.81162E+01 +1.34365E+01 -1.54534E+01
 +1.80468E+01 -1.09928E+01 +2.11220E+01 -5.06033E+00 +2.21647E+01 +1.79453E+00 +2.08828E+01 +8.84632E+00
 +1.72540E+01 +1.52743E+01 +1.15564E+01 +2.02666E+01 +4.35822E+00 +2.31334E+01 -3.53685E+00 +2.34137E+01
 -1.11832E+01 +2.09558E+01 -1.76151E+01 +1.59604E+01 -2.19799E+01 +8.97326E+00 -2.36625E+01 +8.28542E-01
 -2.23823E+01 -7.45398E+00 -1.82460E+01 -1.48029E+01 -1.17468E+01 -2.02426E+01 -3.70728E+00 -2.30316E+01
 +4.82658E+00 -2.27720E+01 +1.27262E+01 -1.94713E+01 +1.89357E+01 -1.35480E+01 +2.26192E+01 -5.77819E+00
 +2.32779E+01 +2.80975E+00 +2.08192E+01 +1.10762E+01 +1.55692E+01 +1.79276E+01 +8.22471E+00 +2.24656E+01
 -2.45866E-01 +2.41080E+01 -8.73824E+00 +2.26624E+01 -1.61643E+01 +1.83447E+01 -2.15978E+01 +1.17395E+01
 -2.43933E+01 +3.71092E+00 -2.42612E+01 -4.72167E+00 -2.12916E+01 -1.25241E+01 -1.59246E+01 -1.87830E+01
 -8.87498E+00 -2.28169E+01 -1.02423E+00 -2.42500E+01 +6.70155E+00 -2.30392E+01 +1.34508E+01 -1.94550E+01
 +1.85453E+01 -1.40226E+01 +2.15471E+01 -7.43569E+00 +2.22869E+01 -4.56788E-01 +2.08558E+01 +6.17904E+00
 +1.75636E+01 +1.18453E+01 +1.28774E+01 +1.60800E+01 +7.34882E+00 +1.86130E+01 +1.54473E+00 +1.93656E+01
 -4.01146E+00 +1.84276E+01 -8.88083E+00 +1.60206E+01 -1.27314E+01 +1.24552E+01 -1.53435E+01 +8.09125E+00
 -1.66041E+01 +3.30487E+00 -1.64939E+01 -1.53434E+00 -1.50750E+01 -6.07752E+00 -1.24811E+01 -1.00053E+01
 -8.91249E+00 -1.30354E+01 -4.63295E+00 -1.49328E+01 +3.33762E-02 -1.55252E+01 +4.71098E+00 -1.47226E+01
 +8.99104E+00 -1.25393E+01 +1.24608E+01 -9.11195E+00 +1.47436E+01 -4.70820E+00 +1.55454E+01 +2.79374E-01
 +1.47012E+01 +5.35867E+00 +1.22136E+01 +9.98241E+00 +8.27383E+00 +1.36084E+01 +3.26001E+00 +1.57688E+01
 -2.29201E+00 +1.61379E+01 -7.74376E+00 +1.45883E+01 -1.24298E+01 +1.12243E+01 -1.57443E+01 +6.38494E+00
 -1.72262E+01 +6.14571E-01 -1.66293E+01 -5.39917E+00 -1.39667E+01 -1.09110E+01 -9.51907E+00 -1.52164E+01
 -3.80683E+00 -1.77486E+01 +2.47431E+00 -1.81596E+01 +8.54382E+00 -1.63718E+01 +1.36410E+01 -1.25927E+01
 +1.71283E+01 -7.28918E+00 +1.85781E+01 -1.12511E+00 +1.78293E+01 +5.12946E+00 +1.50070E+01 +1.07033E+01
 +1.05007E+01 +1.49279E+01 +4.90576E+00 +1.73253E+01 -1.06233E+00 +1.76669E+01 -6.66833E+00 +1.59952E+01
 -1.12565E+01 +1.26067E+01 -1.43347E+01 +8.00019E+00 -1.56308E+01 +2.79861E+00 -1.51155E+01 -2.34160E+00
 -1.29893E+01 -6.82050E+00 -9.63812E+00 -1.01703E+01 -5.56614E+00 -1.21062E+01 -1.31760E+00 -1.25478E+01
 +2.59973E+00 -1.16086E+01 +5.77819E+00 -9.55959E+00 +7.95260E+00 -6.77427E+00 +9.01700E+00 -3.66519E+00
 +9.01621E+00 -6.23294E-01 +8.11654E+00 +2.03114E+00 +6.56295E+00 +4.07965E+00 +4.63152E+00 +5.41629E+00
 +2.58571E+00 +6.03927E+00 +6.43313E-01 +6.02782E+00 -1.04223E+00 +5.51117E+00 -2.38508E+00 +4.63634E+00
 -3.35743E+00 +3.54148E+00 -3.97151E+00 +2.33872E+00 -4.25903E+00 +1.10850E+00 -4.25330E+00 -9.59098E-02
 -3.97839E+00 -1.23675E+00 -3.44712E+00 -2.27783E+00 -2.66749E+00 -3.17297E+00 -1.65491E+00 -3.86074E+00
 -4.46102E-01 -4.26758E+00 +8.90036E-01 -4.31914E+00 +2.24835E+00 -3.95740E+00 +3.49270E+00 -3.15963E+00
 +4.47079E+00 -1.95436E+00 +5.03641E+00 -4.29952E-01 +5.07525E+00 +1.26740E+00 +4.52922E+00 +2.94721E+00
 +3.41398E+00 +4.39857E+00 +1.82558E+00 +5.42067E+00 -6.60195E-02 +5.85490E+00 -2.03663E+00 +5.61278E+00
 -3.83795E+00 +4.69425E+00 -5.23352E+00 +3.19277E+00 -6.03450E+00 +1.28554E+00 -6.12930E+00 -7.90058E-01
 -5.50178E+00 -2.77015E+00 -4.23474E+00 -4.40283E+00 -2.49809E+00 -5.48510E+00 -5.23397E-01 -5.89222E+00
 +1.43085E+00 -5.59464E+00 +3.11754E+00 -4.65999E+00 +4.33658E+00 -3.24000E+00 +4.96204E+00 -1.54490E+00
 +4.95686E+00 +1.90190E-01 +4.37302E+00 +1.74105E+00 +3.33798E+00 +2.92655E+00 +2.03022E+00 +3.63204E+00
 +6.48500E-01 +3.82072E+00 -6.19592E-01 +3.53193E+00 -1.62471E+00 +2.86746E+00 -2.27412E+00 +1.96916E+00
 -2.53913E+00 +9.92384E-01 -2.45114E+00 +8.00329E-02 -2.08824E+00 -6.58265E-01 -1.55550E+00 -1.15879E+00
 -9.63197E-01 -1.40673E+00 -4.07178E-01 -1.43015E+00 +4.53458E-02 -1.28693E+00 +3.62396E-01 -1.04812E+00
 +5.45891E-01 -7.81315E-01 +6.23571E-01 -5.37318E-01 +6.36629E-01 -3.42632E-01 +6.26187E-01 -1.98579E-01
 +6.21723E-01 -8.66329E-02 +6.33890E-01 +2.18638E-02 +6.53071E-01 +1.54217E-01 +6.53625E-01 +3.25999E-01
 +6.02560E-01 +5.34231E-01 +4.70364E-01 +7.55709E-01 +2.41358E-01 +9.50821E-01 -7.89404E-02 +1.07200E+00
 -4.61261E-01 +1.07487E+00 -8.55556E-01 +9.29627E-01 -1.19906E+00 +6.30003E-01 -1.42781E+00 +1.97852E-01
 -1.48939E+00 -3.17897E-01 -1.35418E+00 -8.47888E-01 -1.02283E+00 -1.31342E+00 -5.28346E-01 -1.63994E+00
 +6.78164E-02 -1.77035E+00 +6.84941E-01 -1.67560E+00 +1.23597E+00 -1.36053E+00 +1.64176E+00 -8.63850E-01
