 Created: 16-Jan-2021
 $NMID
 ID='D:\BASISSIMULATI'
 FMTDAT='(8E13.5)'
 VOLUME=   1.00000E+00
 TRAMP=   1.00000E+00
 $END
 +7.11125E+01 +1.24100E+01 +4.59812E+01 +3.53671E+01 -3.28727E+00 +4.17979E+01 -4.47273E+01 +2.95617E+01
 -5.21709E+01 +4.37127E+00 -2.29197E+01 -2.18815E+01 +2.14679E+01 -3.54842E+01 +5.12053E+01 -2.77125E+01
 +4.88799E+01 -1.05433E+00 +1.98326E+01 +3.00410E+01 -1.40268E+01 +4.65632E+01 -3.09024E+01 +3.72518E+01
 -2.34436E+01 +7.48137E+00 -1.18308E+00 -2.28223E+01 +1.86913E+01 -3.23591E+01 +2.38683E+01 -1.39657E+01
 +1.36570E+01 +1.92816E+01 -3.21617E+00 +4.28899E+01 -1.60311E+01 +3.89201E+01 -1.85252E+01 +9.74188E+00
 -1.08642E+01 -2.32098E+01 +2.10148E+00 -3.52205E+01 +1.36222E+01 -1.68724E+01 +1.74180E+01 +1.87235E+01
 +9.99571E+00 +4.55815E+01 -6.86705E+00 +4.40302E+01 -2.51199E+01 +1.49503E+01 -3.33771E+01 -2.13552E+01
 -2.38924E+01 -4.02471E+01 +5.20689E-01 -3.01380E+01 +2.56533E+01 +4.21471E-01 +3.38832E+01 +3.01344E+01
 +1.67645E+01 +4.02518E+01 -1.69966E+01 +2.63603E+01 -4.54760E+01 -7.83418E-01 -4.81671E+01 -2.41462E+01
 -2.12843E+01 -3.14932E+01 +1.80513E+01 -2.12918E+01 +4.29411E+01 -1.27131E+00 +3.57632E+01 +1.73507E+01
 +1.19708E+00 +2.55396E+01 -3.67333E+01 +1.96567E+01 -5.17253E+01 +2.34369E+00 -3.38680E+01 -1.82833E+01
 +3.75301E+00 -3.14197E+01 +3.50292E+01 -2.86476E+01 +3.95722E+01 -9.59326E+00 +1.63715E+01 +1.57753E+01
 -1.69809E+01 +3.15349E+01 -3.77895E+01 +2.57943E+01 -3.38618E+01 -1.78038E-02 -1.02492E+01 -3.00751E+01
 +1.62961E+01 -4.37669E+01 +2.96027E+01 -3.02635E+01 +2.38883E+01 +2.58503E+00 +5.29764E+00 +3.25234E+01
 -1.39359E+01 +3.82894E+01 -2.33396E+01 +1.52307E+01 -1.90810E+01 -2.06827E+01 -4.39791E+00 -4.39775E+01
 +1.29215E+01 -3.80397E+01 +2.40513E+01 -7.15314E+00 +2.27489E+01 +2.67263E+01 +8.60211E+00 +3.99647E+01
 -1.15059E+01 +2.40673E+01 -2.57307E+01 -8.90357E+00 -2.37635E+01 -3.57022E+01 -4.31663E+00 -3.85510E+01
 +2.19494E+01 -1.68305E+01 +3.77499E+01 +1.39084E+01 +3.06266E+01 +3.36713E+01 +2.83532E+00 +3.13264E+01
 -2.83175E+01 +1.04701E+01 -4.13859E+01 -1.47873E+01 -2.59944E+01 -2.96772E+01 +8.77565E+00 -2.71522E+01
 +3.97222E+01 -1.02903E+01 +4.54865E+01 +1.10164E+01 +2.18013E+01 +2.58018E+01 -1.52413E+01 +2.70040E+01
 -4.04949E+01 +1.42037E+01 -3.74486E+01 -6.17447E+00 -9.45800E+00 -2.33598E+01 +2.33677E+01 -2.72782E+01
 +3.88413E+01 -1.44760E+01 +2.79587E+01 +8.53358E+00 +7.59164E-03 +2.77716E+01 -2.52305E+01 +3.00761E+01
 -3.16304E+01 +1.24284E+01 -1.69254E+01 -1.45249E+01 +7.41487E+00 -3.25035E+01 +2.51600E+01 -2.80697E+01
 +2.60063E+01 -2.90120E+00 +1.09588E+01 +2.61908E+01 -9.87754E+00 +3.84817E+01 -2.42437E+01 +2.42193E+01
 -2.45358E+01 -7.73969E+00 -1.10715E+01 -3.55873E+01 +8.80250E+00 -3.98183E+01 +2.45169E+01 -1.71198E+01
 +2.72932E+01 +1.72150E+01 +1.46502E+01 +4.00581E+01 -7.52324E+00 +3.65103E+01 -2.70593E+01 +9.75650E+00
 -3.18254E+01 -2.19117E+01 -1.73933E+01 -3.81244E+01 +8.87541E+00 -2.99053E+01 +3.10911E+01 -4.46604E+00
 +3.45753E+01 +2.09962E+01 +1.60791E+01 +3.11735E+01 -1.29482E+01 +2.18148E+01 -3.32827E+01 +8.07317E-01
 -3.09709E+01 -1.81873E+01 -7.40553E+00 -2.44333E+01 +2.11510E+01 -1.57201E+01 +3.47702E+01 +1.58885E+00
 +2.39858E+01 +1.69623E+01 -3.38408E+00 +2.15942E+01 -2.77829E+01 +1.29062E+01 -3.18671E+01 -4.13198E+00
 -1.27747E+01 -1.94189E+01 +1.60437E+01 -2.30833E+01 +3.45002E+01 -1.14558E+01 +2.98916E+01 +9.74098E+00
 +5.34968E+00 +2.76730E+01 -2.28028E+01 +2.98587E+01 -3.63453E+01 +1.27229E+01 -2.70057E+01 -1.46363E+01
 -1.11447E+00 -3.50201E+01 +2.52277E+01 -3.40427E+01 +3.64961E+01 -1.03728E+01 +2.67588E+01 +2.21445E+01
 +2.29224E+00 +4.27965E+01 -2.28383E+01 +3.76642E+01 -3.49354E+01 +9.31838E+00 -2.78981E+01 -2.44285E+01
 -6.04327E+00 -4.21663E+01 +1.84713E+01 -3.30310E+01 +3.21483E+01 -3.65746E+00 +2.74035E+01 +2.66699E+01
 +6.90629E+00 +3.90453E+01 -1.75557E+01 +2.70796E+01 -3.15904E+01 +1.42263E-01 -2.67775E+01 -2.38191E+01
 -6.17285E+00 -3.03698E+01 +1.71393E+01 -1.73303E+01 +2.81508E+01 +5.09306E+00 +1.97799E+01 +2.19431E+01
 -2.16024E+00 +2.32540E+01 -2.26250E+01 +9.64677E+00 -2.75166E+01 -9.10968E+00 -1.34869E+01 -2.08606E+01
 +9.58270E+00 -1.85772E+01 +2.53763E+01 -4.22992E+00 +2.25718E+01 +1.28238E+01 +2.86003E+00 +2.16438E+01
 -2.01416E+01 +1.62958E+01 -3.03341E+01 -4.63344E-01 -2.03004E+01 -1.85464E+01 +3.57946E+00 -2.63930E+01
 +2.54911E+01 -1.81461E+01 +3.08630E+01 +2.15486E+00 +1.60171E+01 +2.23252E+01 -9.57286E+00 +2.92439E+01
 -2.96155E+01 +1.73680E+01 -3.14902E+01 -6.98528E+00 -1.40599E+01 -2.88837E+01 +1.19206E+01 -3.40347E+01
 +3.06700E+01 -1.82618E+01 +3.10155E+01 +9.19811E+00 +1.29462E+01 +3.11704E+01 -1.26111E+01 +3.35143E+01
 -3.04090E+01 +1.44281E+01 -2.98925E+01 -1.41710E+01 -1.13847E+01 -3.42326E+01 +1.41029E+01 -3.31718E+01
 +3.13516E+01 -1.18696E+01 +2.99954E+01 +1.60824E+01 +1.08322E+01 +3.32302E+01 -1.44991E+01 +2.93129E+01
 -3.04962E+01 +7.44128E+00 -2.73300E+01 -1.82994E+01 -7.04609E+00 -3.19582E+01 +1.76014E+01 -2.55976E+01
 +3.11351E+01 -3.83982E+00 +2.51751E+01 +1.94430E+01 +3.77505E+00 +2.99375E+01 -1.92361E+01 +2.16434E+01
 -2.92131E+01 +2.92703E-01 -2.01139E+01 -2.04709E+01 +1.75399E+00 -2.76694E+01 +2.20238E+01 -1.70294E+01
 +2.76762E+01 +4.44168E+00 +1.53705E+01 +2.29274E+01 -6.63427E+00 +2.65657E+01 -2.40256E+01 +1.30244E+01
 -2.56997E+01 -8.94793E+00 -1.07627E+01 -2.50878E+01 +1.10749E+01 -2.48255E+01 +2.57834E+01 -8.20526E+00
 +2.39066E+01 +1.40445E+01 +6.49738E+00 +2.74306E+01 -1.55398E+01 +2.31308E+01 -2.82510E+01 +3.76225E+00
 -2.33798E+01 -1.83083E+01 -3.65563E+00 -2.89835E+01 +1.87223E+01 -2.15078E+01 +2.96046E+01 -7.06604E-01
 +2.18411E+01 +2.02385E+01 +1.97136E-02 +2.82374E+01 -2.21792E+01 +1.84686E+01 -3.05660E+01 -2.81867E+00
 -1.95916E+01 -2.24164E+01 +3.89656E+00 -2.83994E+01 +2.49186E+01 -1.73423E+01 +3.00297E+01 +3.78384E+00
 +1.60963E+01 +2.19925E+01 -7.65777E+00 +2.61855E+01 -2.57412E+01 +1.38497E+01 -2.65778E+01 -7.40240E+00
 -9.99157E+00 -2.43913E+01 +1.29269E+01 -2.64001E+01 +2.73188E+01 -1.19051E+01 +2.42782E+01 +1.01914E+01
 +6.36081E+00 +2.58651E+01 -1.45079E+01 +2.48021E+01 -2.49996E+01 +7.26601E+00 -1.88253E+01 -1.56219E+01
 -3.21694E-01 -2.87870E+01 +1.87140E+01 -2.30967E+01 +2.65445E+01 -1.72609E+00 +1.85596E+01 +2.15274E+01
 -2.25628E-01 +3.12121E+01 -1.83956E+01 +2.06187E+01 -2.49451E+01 -3.48903E+00 -1.57266E+01 -2.52102E+01
 +4.04542E+00 -3.01022E+01 +2.26394E+01 -1.48482E+01 +2.85460E+01 +1.05861E+01 +1.74390E+01 +2.96992E+01
 -4.72812E+00 +3.03947E+01 -2.47082E+01 +1.26982E+01 -2.97778E+01 -1.17158E+01 -1.59117E+01 -2.74557E+01
 +8.96659E+00 -2.52282E+01 +2.93136E+01 -7.17360E+00 +3.16997E+01 +1.52189E+01 +1.38262E+01 +2.86255E+01
 -1.33865E+01 +2.57808E+01 -3.25428E+01 +9.13178E+00 -3.11967E+01 -1.12869E+01 -1.02772E+01 -2.39032E+01
 +1.64039E+01 -2.19627E+01 +3.14036E+01 -6.93605E+00 +2.53395E+01 +1.24935E+01 +2.94953E+00 +2.51972E+01
 -2.05580E+01 +2.37475E+01 -3.00829E+01 +8.79118E+00 -2.06200E+01 -1.09294E+01 +1.25421E-01 -2.34071E+01
 +1.77948E+01 -2.06861E+01 +2.13583E+01 -4.27335E+00 +9.97700E+00 +1.52150E+01 -7.50960E+00 +2.46311E+01
 -1.93169E+01 +1.71955E+01 -1.85263E+01 -2.37799E+00 -6.83734E+00 -2.05859E+01 +7.49409E+00 -2.43583E+01
 +1.53682E+01 -1.05353E+01 +1.22564E+01 +1.13669E+01 +3.47875E-01 +2.55355E+01 -1.31479E+01 +2.11398E+01
 -2.01185E+01 +4.01654E-01 -1.59152E+01 -2.25866E+01 -2.02716E+00 -3.16686E+01 +1.42049E+01 -2.00749E+01
 +2.30939E+01 +4.72367E+00 +1.80846E+01 +2.61906E+01 +3.99581E-01 +3.01104E+01 -2.03674E+01 +1.40709E+01
 -3.11299E+01 -1.13883E+01 -2.35225E+01 -3.02462E+01 -3.01049E-01 -3.14804E+01 +2.50208E+01 -1.54544E+01
 +3.61538E+01 +7.39600E+00 +2.49386E+01 +2.37525E+01 -2.36300E+00 +2.52732E+01 -2.84012E+01 +1.24726E+01
 -3.60785E+01 -6.73468E+00 -2.02599E+01 -2.19531E+01 +8.50970E+00 -2.56005E+01 +3.11662E+01 -1.62397E+01
 +3.32187E+01 +1.00640E+00 +1.44867E+01 +1.68936E+01 -1.13430E+01 +2.25604E+01 -2.67192E+01 +1.44044E+01
 -2.23543E+01 -3.21000E+00 -2.88037E+00 -1.96398E+01 +1.74479E+01 -2.40445E+01 +2.52022E+01 -1.26422E+01
 +1.66084E+01 +7.83870E+00 -1.07681E+00 +2.37408E+01 -1.56291E+01 +2.35523E+01 -1.82809E+01 +6.44162E+00
 -8.64931E+00 -1.62377E+01 +6.32072E+00 -2.83425E+01 +1.75274E+01 -2.04577E+01 +1.90297E+01 +2.82534E+00
 +1.05777E+01 +2.56005E+01 -3.08646E+00 +3.17892E+01 -1.48863E+01 +1.67500E+01 -1.86043E+01 -9.23215E+00
 -1.17268E+01 -2.82410E+01 +2.86861E+00 -2.74624E+01 +1.74960E+01 -8.03056E+00 +2.32120E+01 +1.62839E+01
 +1.52308E+01 +2.91870E+01 -3.01844E+00 +2.31118E+01 -2.06841E+01 +3.61376E+00 -2.58613E+01 -1.55651E+01
 -1.39427E+01 -2.24088E+01 +8.08927E+00 -1.41750E+01 +2.54156E+01 +2.15833E+00 +2.54445E+01 +1.57127E+01
 +7.23578E+00 +1.89020E+01 -1.69825E+01 +1.12153E+01 -3.00290E+01 -1.86222E+00 -2.21573E+01 -1.28429E+01
 +1.51507E+00 -1.61637E+01 +2.43306E+01 -1.03284E+01 +2.99977E+01 +1.79922E+00 +1.43686E+01 +1.40938E+01
 -1.16127E+01 +1.95686E+01 -2.98863E+01 +1.38876E+01 -2.81507E+01 -1.36374E+00 -8.18799E+00 -1.81096E+01
 +1.60819E+01 -2.56080E+01 +2.87976E+01 -1.73610E+01 +2.28354E+01 +3.34655E+00 +3.57693E+00 +2.40021E+01
 -1.59857E+01 +3.04438E+01 -2.43536E+01 +1.68988E+01 -1.82126E+01 -8.87040E+00 -2.90915E+00 -2.98971E+01
 +1.22147E+01 -3.15462E+01 +1.95536E+01 -1.21634E+01 +1.65330E+01 +1.52208E+01 +5.65677E+00 +3.18482E+01
 -7.40110E+00 +2.65491E+01 -1.62282E+01 +3.64565E+00 -1.61415E+01 -2.03914E+01 -6.51265E+00 -2.89616E+01
 +8.02212E+00 -1.70461E+01 +1.90378E+01 +5.88503E+00 +1.89068E+01 +2.34309E+01 +6.27323E+00 +2.41870E+01
 -1.16590E+01 +9.18116E+00 -2.28142E+01 -1.00531E+01 -1.84238E+01 -2.04284E+01 -9.05419E-02 -1.61941E+01
 +2.00772E+01 -1.66191E+00 +2.74037E+01 +1.30935E+01 +1.54461E+01 +1.94188E+01 -8.47228E+00 +1.48968E+01
 -2.77643E+01 +3.37420E+00 -2.83873E+01 -8.43172E+00 -9.34458E+00 -1.47099E+01 +1.61657E+01 -1.27368E+01
 +3.01096E+01 -3.42881E+00 +2.26488E+01 +9.00991E+00 -8.38665E-01 +1.82910E+01 -2.38788E+01 +1.86122E+01
 -3.08886E+01 +8.21897E+00 -1.80311E+01 -8.18234E+00 +4.82415E+00 -2.08257E+01 +2.18504E+01 -2.05959E+01
