 Created: 16-Jan-2021
 $NMID
 ID='D:\BASISSIMULATI'
 FMTDAT='(8E13.5)'
 VOLUME=   1.00000E+00
 TRAMP=   1.00000E+00
 $END
 +1.10094E+02 +1.94066E+01 +7.29044E+01 +7.77557E+01 +6.94156E+00 +9.38743E+01 -4.98610E+01 +6.04271E+01
 -6.59505E+01 -1.14273E+00 -3.44372E+01 -5.39343E+01 +2.36914E+01 -6.76879E+01 +7.29322E+01 -3.62528E+01
 +8.47213E+01 +1.98407E+01 +5.39071E+01 +6.67078E+01 +6.08297E-01 +7.77682E+01 -4.30416E+01 +4.90881E+01
 -5.26612E+01 +4.57141E-01 -2.57429E+01 -3.77874E+01 +1.80967E+01 -4.35952E+01 +5.02282E+01 -1.60697E+01
 +5.09201E+01 +2.51304E+01 +2.09678E+01 +5.28599E+01 -1.97381E+01 +4.95225E+01 -4.52620E+01 +1.75289E+01
 -3.98546E+01 -2.29197E+01 -7.34271E+00 -4.68720E+01 +3.17925E+01 -4.01347E+01 +5.34356E+01 -7.71727E+00
 +4.47012E+01 +2.96923E+01 +1.15612E+01 +4.87023E+01 -2.51681E+01 +3.75039E+01 -4.27157E+01 +2.80300E+00
 -3.01151E+01 -3.45657E+01 +5.45049E+00 -5.23950E+01 +4.33023E+01 -4.03676E+01 +6.18336E+01 -5.90047E+00
 +5.12878E+01 +3.06878E+01 +1.91618E+01 +4.85038E+01 -1.47407E+01 +3.83727E+01 -3.03534E+01 +7.82999E+00
 -1.91446E+01 -2.38990E+01 +1.12913E+01 -3.76339E+01 +4.23144E+01 -2.55287E+01 +5.56539E+01 +4.74327E+00
 +4.41771E+01 +3.51347E+01 +1.56545E+01 +4.83193E+01 -1.24698E+01 +3.79344E+01 -2.38658E+01 +1.19024E+01
 -1.30286E+01 -1.29090E+01 +1.18675E+01 -2.11885E+01 +3.44518E+01 -8.35823E+00 +4.03956E+01 +1.70598E+01
 +2.60608E+01 +3.91029E+01 +3.57422E-01 +4.43675E+01 -2.11181E+01 +3.01312E+01 -2.58637E+01 +5.68842E+00
 -1.20706E+01 -1.37365E+01 +1.05769E+01 -1.65655E+01 +2.72305E+01 -1.94160E+00 +2.72593E+01 +2.00185E+01
 +1.07997E+01 +3.48098E+01 -1.15492E+01 +3.27344E+01 -2.55780E+01 +1.49250E+01 -2.24816E+01 -7.52108E+00
 -4.36080E+00 -2.06659E+01 +1.72046E+01 -1.65708E+01 +2.85499E+01 +1.71906E+00 +2.25934E+01 +2.21519E+01
 +3.31526E+00 +3.13267E+01 -1.67534E+01 +2.29891E+01 -2.44337E+01 +2.02016E+00 -1.42204E+01 -1.85790E+01
 +8.19848E+00 -2.58097E+01 +2.94243E+01 -1.48133E+01 +3.66470E+01 +8.05825E+00 +2.55801E+01 +2.91445E+01
 +3.09638E+00 +3.58990E+01 -1.70410E+01 +2.45862E+01 -2.26615E+01 +2.49108E+00 -1.05989E+01 -1.66712E+01
 +1.15326E+01 -2.12289E+01 +3.02112E+01 -8.62177E+00 +3.44034E+01 +1.32779E+01 +2.22222E+01 +3.12947E+01
 +1.75602E+00 +3.52083E+01 -1.43092E+01 +2.39304E+01 -1.67624E+01 +5.79246E+00 -5.49808E+00 -7.09333E+00
 +1.07977E+01 -6.69350E+00 +2.05786E+01 +5.91663E+00 +1.70826E+01 +2.15288E+01 +2.72705E+00 +2.90739E+01
 -1.25818E+01 +2.30730E+01 -1.81170E+01 +7.38865E+00 -9.63147E+00 -7.21512E+00 +7.51474E+00 -1.01929E+01
 +2.15585E+01 +1.57430E+00 +2.19490E+01 +2.12306E+01 +6.52934E+00 +3.58990E+01 -1.64265E+01 +3.48188E+01
 -3.28740E+01 +1.65660E+01 -3.16589E+01 -9.33924E+00 -1.18291E+01 -2.77276E+01 +1.60974E+01 -2.69372E+01
 +3.59696E+01 -6.24836E+00 +3.55966E+01 +2.31028E+01 +1.43108E+01 +4.41957E+01 -1.62020E+01 +4.43717E+01
 -3.84987E+01 +2.29015E+01 -3.95761E+01 -8.31979E+00 -1.85903E+01 -3.15915E+01 +1.25608E+01 -3.37413E+01
 +3.61910E+01 -1.38236E+01 +3.91849E+01 +1.64155E+01 +2.05840E+01 +3.95617E+01 -8.09457E+00 +4.28129E+01
 -2.99141E+01 +2.53565E+01 -3.26328E+01 -1.50915E+00 -1.57790E+01 -2.14507E+01 +9.48848E+00 -2.29860E+01
 +2.74870E+01 -6.17416E+00 +2.76305E+01 +1.78519E+01 +1.06685E+01 +3.40516E+01 -1.21708E+01 +3.28149E+01
 -2.64435E+01 +1.57075E+01 -2.35507E+01 -5.82860E+00 -5.96493E+00 -1.78748E+01 +1.45506E+01 -1.28350E+01
 +2.45129E+01 +5.86434E+00 +1.72800E+01 +2.60577E+01 -2.76980E+00 +3.46107E+01 -2.30325E+01 +2.57642E+01
 -3.06638E+01 +4.80656E+00 -2.07236E+01 -1.52303E+01 +6.45458E-01 -2.17755E+01 +2.00217E+01 -1.06742E+01
 +2.51262E+01 +1.11189E+01 +1.25874E+01 +2.98341E+01 -9.84636E+00 +3.35178E+01 -2.80871E+01 +1.96009E+01
 -3.05397E+01 -3.37256E+00 -1.54669E+01 -2.10110E+01 +7.77387E+00 -2.21058E+01 +2.44859E+01 -5.78534E+00
 +2.38631E+01 +1.77467E+01 +5.93122E+00 +3.34651E+01 -1.82163E+01 +3.09576E+01 -3.31764E+01 +1.11605E+01
 -2.88859E+01 -1.39050E+01 -7.16438E+00 -2.83937E+01 +1.90308E+01 -2.25103E+01 +3.33575E+01 +1.11868E+00
 +2.61888E+01 +2.86425E+01 +8.38142E-01 +4.32012E+01 -2.80473E+01 +3.52433E+01 -4.31179E+01 +8.62390E+00
 -3.48283E+01 -2.13572E+01 -7.42328E+00 -3.69387E+01 +2.33243E+01 -2.85475E+01 +3.93689E+01 -6.70951E-01
 +3.11181E+01 +3.06512E+01 +3.17399E+00 +4.72650E+01 -2.83763E+01 +3.96210E+01 -4.54898E+01 +1.23467E+01
 -3.87824E+01 -1.86329E+01 -1.28774E+01 -3.56299E+01 +1.66329E+01 -2.96014E+01 +3.26533E+01 -5.20427E+00
 +2.66887E+01 +2.24106E+01 +3.52548E+00 +3.69423E+01 -2.21676E+01 +3.06518E+01 -3.50322E+01 +8.59045E+00
 -2.82738E+01 -1.50349E+01 -7.36466E+00 -2.58963E+01 +1.38756E+01 -1.82985E+01 +2.21741E+01 +1.70097E+00
 +1.30423E+01 +2.05486E+01 -6.72155E+00 +2.59821E+01 -2.36737E+01 +1.47654E+01 -2.64528E+01 -5.43932E+00
 -1.30478E+01 -2.11316E+01 +7.94550E+00 -2.16931E+01 +2.28221E+01 -6.24392E+00 +2.15297E+01 +1.56796E+01
 +4.17948E+00 +3.00586E+01 -1.87993E+01 +2.72365E+01 -3.30093E+01 +8.15228E+00 -2.90400E+01 -1.59600E+01
 -8.48867E+00 -3.03023E+01 +1.67248E+01 -2.55901E+01 +3.14217E+01 -3.91390E+00 +2.63627E+01 +2.22610E+01
 +3.98718E+00 +3.74391E+01 -2.28425E+01 +3.23950E+01 -3.84131E+01 +9.81250E+00 -3.35347E+01 -1.71834E+01
 -1.10822E+01 -3.27771E+01 +1.56578E+01 -2.78767E+01 +3.08792E+01 -5.54383E+00 +2.56728E+01 +2.08366E+01
 +3.31849E+00 +3.55646E+01 -2.27317E+01 +3.00082E+01 -3.69646E+01 +7.72141E+00 -3.11245E+01 -1.77812E+01
 -9.11585E+00 -3.12387E+01 +1.54641E+01 -2.48710E+01 +2.76521E+01 -3.02347E+00 +2.02325E+01 +2.05818E+01
 -1.91673E+00 +3.13001E+01 -2.48953E+01 +2.25485E+01 -3.43792E+01 -1.85634E-01 -2.44638E+01 -2.27755E+01
 -1.30030E+00 -3.12154E+01 +2.07261E+01 -2.03085E+01 +2.79293E+01 +3.09505E+00 +1.58433E+01 +2.43359E+01
 -7.96328E+00 +3.00549E+01 -2.85547E+01 +1.65315E+01 -3.29085E+01 -7.94425E+00 -1.80524E+01 -2.81730E+01
 +7.01938E+00 -3.14834E+01 +2.68780E+01 -1.56452E+01 +2.92286E+01 +9.68185E+00 +1.25733E+01 +2.88935E+01
 -1.28124E+01 +3.01095E+01 -3.12168E+01 +1.25567E+01 -3.12191E+01 -1.29290E+01 -1.27621E+01 -3.06019E+01
 +1.28192E+01 -2.95453E+01 +2.98227E+01 -1.04035E+01 +2.78809E+01 +1.50600E+01 +8.31915E+00 +3.12712E+01
 -1.67461E+01 +2.84600E+01 -3.19590E+01 +8.61512E+00 -2.81990E+01 -1.58677E+01 -8.10721E+00 -2.99366E+01
 +1.57054E+01 -2.51726E+01 +2.85668E+01 -4.86159E+00 +2.28037E+01 +1.82229E+01 +2.34223E+00 +2.98512E+01
 -1.99241E+01 +2.31339E+01 -3.02583E+01 +2.63681E+00 -2.25875E+01 -1.86539E+01 -2.12623E+00 -2.75275E+01
 +1.80530E+01 -1.87528E+01 +2.52741E+01 +1.79030E+00 +1.51566E+01 +2.09255E+01 -5.73605E+00 +2.64913E+01
 -2.40894E+01 +1.49457E+01 -2.82124E+01 -6.45228E+00 -1.53693E+01 -2.42065E+01 +6.48109E+00 -2.70347E+01
 +2.36112E+01 -1.29594E+01 +2.50720E+01 +9.36289E+00 +9.58127E+00 +2.59201E+01 -1.35201E+01 +2.60085E+01
 -2.98857E+01 +8.96080E+00 -2.89640E+01 -1.52288E+01 -1.06099E+01 -3.18454E+01 +1.45808E+01 -3.04061E+01
 +3.15142E+01 -1.11937E+01 +2.97139E+01 +1.46594E+01 +9.80628E+00 +3.16932E+01 -1.66100E+01 +2.93996E+01
 -3.37412E+01 +8.67810E+00 -3.10313E+01 -1.84814E+01 -9.59503E+00 -3.60040E+01 +1.82682E+01 -3.32951E+01
 +3.62796E+01 -1.16434E+01 +3.38496E+01 +1.64277E+01 +1.24243E+01 +3.45376E+01 -1.53271E+01 +3.21788E+01
 -3.30381E+01 +1.09687E+01 -3.03850E+01 -1.63427E+01 -9.19242E+00 -3.35210E+01 +1.77630E+01 -3.05405E+01
 +3.44993E+01 -9.48000E+00 +3.14125E+01 +1.69083E+01 +1.08915E+01 +3.30232E+01 -1.43855E+01 +2.98194E+01
 -2.93312E+01 +1.00657E+01 -2.56076E+01 -1.36718E+01 -6.44745E+00 -2.69466E+01 +1.57167E+01 -2.22729E+01
 +2.71872E+01 -3.43529E+00 +2.14598E+01 +1.72778E+01 +2.94858E+00 +2.70080E+01 -1.62107E+01 +2.03432E+01
 -2.40783E+01 +2.39474E+00 -1.64324E+01 -1.48603E+01 +8.54531E-01 -2.04656E+01 +1.59553E+01 -1.14711E+01
 +1.89312E+01 +5.42794E+00 +8.15297E+00 +1.85250E+01 -8.81677E+00 +1.88916E+01 -2.03523E+01 +6.21996E+00
 -1.84909E+01 -1.10490E+01 -4.20042E+00 -2.13356E+01 +1.32260E+01 -1.75761E+01 +2.22302E+01 -1.93145E+00
 +1.65628E+01 +1.55063E+01 -5.35574E-01 +2.31798E+01 -1.82531E+01 +1.55466E+01 -2.50161E+01 -3.22515E+00
 -1.58592E+01 -2.17199E+01 +4.31577E+00 -2.83504E+01 +2.36517E+01 -1.85952E+01 +3.05893E+01 +2.12731E+00
 +2.09423E+01 +2.17171E+01 +4.34631E-01 +2.87252E+01 -1.87999E+01 +1.92277E+01 -2.55285E+01 -9.31314E-01
 -1.60472E+01 -1.97838E+01 +3.83737E+00 -2.64290E+01 +2.25110E+01 -1.73658E+01 +2.95321E+01 +1.76687E+00
 +2.16200E+01 +1.98830E+01 +4.15960E+00 +2.71439E+01 -1.24350E+01 +2.05536E+01 -1.90725E+01 +5.22194E+00
 -1.31467E+01 -9.19356E+00 +4.60602E-01 -1.44644E+01 +1.28611E+01 -8.49172E+00 +1.67556E+01 +3.97726E+00
 +1.06574E+01 +1.47777E+01 -7.05454E-01 +1.75607E+01 -9.80823E+00 +1.15417E+01 -1.12428E+01 +1.55953E+00
 -5.00807E+00 -5.38608E+00 +3.79818E+00 -4.78750E+00 +8.54899E+00 +2.50599E+00 +5.55447E+00 +1.09814E+01
 -3.45469E+00 +1.42043E+01 -1.24156E+01 +9.17737E+00 -1.49086E+01 -1.50433E+00 -8.48748E+00 -1.11387E+01
 +3.43858E+00 -1.31776E+01 +1.34818E+01 -5.60022E+00 +1.48633E+01 +7.42576E+00 +5.88987E+00 +1.78031E+01
 -8.56229E+00 +1.84488E+01 -1.96772E+01 +7.91647E+00 -2.00157E+01 -8.26273E+00 -8.31099E+00 -2.05702E+01
 +9.31428E+00 -2.11949E+01 +2.26901E+01 -9.01076E+00 +2.36671E+01 +9.32555E+00 +1.12685E+01 +2.30637E+01
 -7.34271E+00 +2.37888E+01 -2.08999E+01 +1.07228E+01 -2.08036E+01 -8.46070E+00 -6.53776E+00 -2.20244E+01
 +1.36995E+01 -2.12567E+01 +2.77442E+01 -5.96077E+00 +2.68473E+01 +1.51392E+01 +1.11857E+01 +2.95127E+01
 -9.99451E+00 +2.84636E+01 -2.38669E+01 +1.26119E+01 -2.18899E+01 -8.26876E+00 -5.20501E+00 -2.11162E+01
 +1.58709E+01 -1.76325E+01 +2.80847E+01 +4.56585E-01 +2.34466E+01 +2.22867E+01 +4.30102E+00 +3.44619E+01
 -1.79657E+01 +2.93578E+01 -2.98846E+01 +9.95457E+00 -2.42655E+01 -1.18822E+01 -4.74792E+00 -2.26932E+01
 +1.63592E+01 -1.57993E+01 +2.56764E+01 +4.47067E+00 +1.70939E+01 +2.53869E+01 -4.35497E+00 +3.36956E+01
 -2.55476E+01 +2.38840E+01 -3.33938E+01 +1.67321E+00 -2.29864E+01 -1.94714E+01 -6.97648E-01 -2.66709E+01
 +1.97280E+01 -1.56334E+01 +2.56744E+01 +6.65384E+00 +1.34731E+01 +2.62235E+01 -9.30846E+00 +3.07566E+01
