 Created: 16-Jan-2021
 $NMID
 ID='D:\BASISSIMULATI'
 FMTDAT='(8E13.5)'
 VOLUME=   1.00000E+00
 TRAMP=   1.00000E+00
 $END
 +8.25913E+01 +1.32329E+01 +6.59974E+01 -2.71959E+01 +1.52272E+01 -4.35160E+01 -3.85369E+01 -2.19824E+01
 -6.29999E+01 +2.43919E+01 -4.57296E+01 +6.44572E+01 -1.75949E+00 +6.99633E+01 +3.71005E+01 +3.48376E+01
 +4.39160E+01 -2.02942E+01 +1.46437E+01 -6.14245E+01 -2.95263E+01 -6.34398E+01 -5.69214E+01 -2.64996E+01
 -4.71591E+01 +2.43481E+01 -5.20980E+00 +5.59432E+01 +4.17149E+01 +4.88909E+01 +6.23198E+01 +9.95482E+00
 +4.22049E+01 -3.31463E+01 -6.40657E+00 -5.08158E+01 -5.26621E+01 -3.15819E+01 -6.73913E+01 +1.03906E+01
 -4.21491E+01 +4.51801E+01 +5.63165E+00 +4.75665E+01 +4.46283E+01 +1.42222E+01 +5.05605E+01 -3.38957E+01
 +2.20276E+01 -6.54717E+01 -1.91998E+01 -5.96585E+01 -4.33658E+01 -1.98532E+01 -3.29975E+01 +2.86903E+01
 +5.38815E+00 +5.56642E+01 +4.58673E+01 +4.55986E+01 +6.07123E+01 +7.61684E+00 +3.90777E+01 -3.12454E+01
 -5.74682E+00 -4.44306E+01 -4.52410E+01 -2.35261E+01 -5.46033E+01 +1.65339E+01 -2.90182E+01 +4.79644E+01
 +1.35222E+01 +4.90423E+01 +4.45046E+01 +1.86626E+01 +4.38901E+01 -2.31158E+01 +1.31080E+01 -4.86860E+01
 -2.64467E+01 -4.13765E+01 -4.81190E+01 -6.41356E+00 -3.78632E+01 +3.28175E+01 -3.33293E+00 +5.04911E+01
 +3.16763E+01 +3.54060E+01 +4.34419E+01 -1.93964E+00 +2.41804E+01 -3.67550E+01 -1.29909E+01 -4.66405E+01
 -4.30969E+01 -2.62994E+01 -4.60785E+01 +9.42502E+00 -2.00096E+01 +3.59349E+01 +1.79445E+01 +3.54885E+01
 +4.32142E+01 +8.86653E+00 +4.01539E+01 -2.55432E+01 +1.21013E+01 -4.43574E+01 -2.13422E+01 -3.48724E+01
 -3.77071E+01 -3.32743E+00 -2.66007E+01 +2.95674E+01 +3.73572E+00 +4.25971E+01 +3.23914E+01 +2.80376E+01
 +4.00120E+01 -3.58245E+00 +2.16485E+01 -3.08846E+01 -1.02586E+01 -3.60147E+01 -3.45046E+01 -1.63096E+01
 -3.53603E+01 +1.43873E+01 -1.28596E+01 +3.53595E+01 +1.75822E+01 +3.29358E+01 +3.57031E+01 +9.36377E+00
 +2.98643E+01 -1.91041E+01 +4.47801E+00 -3.33632E+01 -2.33527E+01 -2.42202E+01 -3.54692E+01 +1.73255E+00
 -2.46528E+01 +2.68458E+01 +9.58055E-01 +3.43490E+01 +2.37349E+01 +1.94114E+01 +2.85389E+01 -7.95857E+00
 +1.27101E+01 -2.98763E+01 -1.24971E+01 -3.25413E+01 -2.97524E+01 -1.51630E+01 -2.73239E+01 +9.95113E+00
 -6.75298E+00 +2.59440E+01 +1.84455E+01 +2.26916E+01 +3.19656E+01 +3.27951E+00 +2.54994E+01 -1.84714E+01
 +3.96507E+00 -2.75315E+01 -1.81194E+01 -1.77278E+01 -2.64700E+01 +4.34216E+00 -1.64077E+01 +2.39778E+01
 +4.40643E+00 +2.83057E+01 +2.14757E+01 +1.47580E+01 +2.33224E+01 -7.47366E+00 +9.03598E+00 -2.37837E+01
 -1.14210E+01 -2.38927E+01 -2.41457E+01 -8.45759E+00 -2.06668E+01 +1.17235E+01 -3.46804E+00 +2.31671E+01
 +1.58989E+01 +1.86967E+01 +2.46698E+01 +1.97665E+00 +1.73302E+01 -1.52792E+01 -9.34555E-01 -2.13597E+01
 -1.79500E+01 -1.23741E+01 -2.27742E+01 +5.34925E+00 -1.28654E+01 +1.97305E+01 +4.51873E+00 +2.11205E+01
 +1.74503E+01 +8.66642E+00 +1.74043E+01 -9.32085E+00 +4.83503E+00 -2.10872E+01 -1.13775E+01 -1.92908E+01
 -2.00770E+01 -5.72449E+00 -1.53384E+01 +1.01458E+01 -3.06703E-01 +1.76917E+01 +1.50952E+01 +1.22236E+01
 +2.09076E+01 -2.05284E+00 +1.37302E+01 -1.50859E+01 -1.20921E+00 -1.78492E+01 -1.37739E+01 -8.36703E+00
 -1.58015E+01 +7.10148E+00 -6.48494E+00 +1.83903E+01 +7.29885E+00 +1.82566E+01 +1.58100E+01 +7.10718E+00
 +1.30748E+01 -7.47155E+00 +8.50329E-01 -1.59379E+01 -1.26693E+01 -1.31741E+01 -1.84343E+01 -1.73968E+00
 -1.25946E+01 +1.00951E+01 +1.01943E+00 +1.40895E+01 +1.35696E+01 +7.61156E+00 +1.71453E+01 -4.68609E+00
 +9.93894E+00 -1.41416E+01 -2.76543E+00 -1.40187E+01 -1.23425E+01 -4.06698E+00 -1.26918E+01 +9.33100E+00
 -4.24039E+00 +1.74591E+01 +6.55802E+00 +1.50686E+01 +1.17890E+01 +3.78677E+00 +7.54571E+00 -9.09224E+00
 -3.41103E+00 -1.55356E+01 -1.35593E+01 -1.20571E+01 -1.57436E+01 -1.83160E+00 -8.03025E+00 +7.69162E+00
 +4.97246E+00 +9.96554E+00 +1.51762E+01 +3.76439E+00 +1.63577E+01 -6.11838E+00 +8.19126E+00 -1.22932E+01
 -3.68961E+00 -9.92982E+00 -1.15631E+01 -1.20727E-01 -1.07599E+01 +1.08129E+01 -2.61719E+00 +1.55742E+01
 +6.67390E+00 +1.08071E+01 +1.04512E+01 -6.35449E-01 +6.16597E+00 -1.15721E+01 -2.94092E+00 -1.52252E+01
 -1.01605E+01 -9.61942E+00 -1.00043E+01 +1.26753E+00 -2.04412E+00 +1.03028E+01 +8.70539E+00 +1.19951E+01
 +1.51088E+01 +6.04688E+00 +1.26836E+01 -2.68320E+00 +2.60924E+00 -7.69252E+00 -9.03035E+00 -5.37189E+00
 -1.52373E+01 +2.53136E+00 -1.26343E+01 +1.01709E+01 -3.53141E+00 +1.16828E+01 +5.79191E+00 +5.28829E+00
 +9.36358E+00 -5.37746E+00 +5.44371E+00 -1.36112E+01 -2.51437E+00 -1.40779E+01 -8.43650E+00 -6.35820E+00
 -7.91384E+00 +4.75928E+00 -1.25880E+00 +1.24088E+01 +6.73511E+00 +1.20926E+01 +1.01348E+01 +4.48492E+00
 +6.01379E+00 -5.21670E+00 -3.42332E+00 -1.08781E+01 -1.21844E+01 -9.49266E+00 -1.44032E+01 -3.00277E+00
 -8.20502E+00 +3.28061E+00 +3.04452E+00 +4.50537E+00 +1.29146E+01 -2.94605E-01 +1.60326E+01 -7.50755E+00
 +1.14172E+01 -1.14388E+01 +2.85641E+00 -8.27908E+00 -3.83031E+00 +1.15608E+00 -4.73601E+00 +1.17754E+01
 -3.54234E-01 +1.74294E+01 +5.01160E+00 +1.48570E+01 +6.43436E+00 +5.75328E+00 +1.92101E+00 -4.37919E+00
 -6.09686E+00 -9.79224E+00 -1.23480E+01 -8.08950E+00 -1.22989E+01 -1.51300E+00 -5.30087E+00 +4.84373E+00
 +4.81726E+00 +6.60533E+00 +1.21152E+01 +3.02877E+00 +1.22996E+01 -2.67122E+00 +5.40147E+00 -5.73368E+00
 -4.35571E+00 -3.30040E+00 -1.13519E+01 +3.46974E+00 -1.21402E+01 +1.00607E+01 -7.44419E+00 +1.15866E+01
 -1.33987E+00 +6.09619E+00 +1.72645E+00 -4.01819E+00 +1.43154E-02 -1.34432E+01 -4.41004E+00 -1.72518E+01
 -7.24084E+00 -1.39205E+01 -5.04891E+00 -6.10978E+00 +2.19743E+00 +1.23523E+00 +1.09218E+01 +4.14169E+00
 +1.61837E+01 +2.05422E+00 +1.48757E+01 -2.09814E+00 +7.75016E+00 -4.15842E+00 -1.05128E+00 -1.72757E+00
 -6.63025E+00 +4.15330E+00 -6.37844E+00 +9.73095E+00 -1.45887E+00 +1.11423E+01 +4.18444E+00 +7.10531E+00
 +6.55306E+00 -1.20296E-01 +4.20806E+00 -6.13985E+00 -9.40761E-01 -7.25061E+00 -5.12046E+00 -2.81151E+00
 -5.38235E+00 +4.39082E+00 -1.65020E+00 +9.98179E+00 +3.23563E+00 +1.07972E+01 +5.47045E+00 +6.79788E+00
 +2.89063E+00 +8.90514E-01 -3.52273E+00 -3.14847E+00 -1.02331E+01 -3.20908E+00 -1.34156E+01 -1.55067E-01
 -1.13856E+01 +2.91887E+00 -5.59670E+00 +2.91471E+00 +4.05996E-01 -1.09192E+00 +3.33481E+00 -7.18550E+00
 +2.23537E+00 -1.18710E+01 -1.05657E+00 -1.23837E+01 -3.31507E+00 -8.49320E+00 -2.18662E+00 -2.61690E+00
 +2.21596E+00 +1.79433E+00 +7.42706E+00 +2.49378E+00 +1.03227E+01 -1.86296E-01 +9.22215E+00 -3.69681E+00
 +4.98664E+00 -5.07261E+00 +4.09574E-01 -2.93327E+00 -1.65199E+00 +1.64689E+00 -1.34101E-01 +5.93818E+00
 +3.61459E+00 +7.43746E+00 +6.81848E+00 +5.54489E+00 +7.15843E+00 +1.92314E+00 +4.27383E+00 -6.63080E-01
 -9.85461E-02 -2.13180E-01 -3.38945E+00 +3.19612E+00 -3.96782E+00 +7.50254E+00 -2.21015E+00 +1.00475E+01
 -1.69620E-01 +9.29885E+00 -1.06515E-01 +5.75888E+00 -2.89913E+00 +1.49463E+00 -7.40700E+00 -1.32933E+00
 -1.11925E+01 -1.88516E+00 -1.20893E+01 -1.11596E+00 -9.55804E+00 -9.17478E-01 -4.94918E+00 -2.67646E+00
 -5.49893E-01 -6.19595E+00 +1.89519E+00 -9.74733E+00 +2.18342E+00 -1.12025E+01 +1.54117E+00 -9.46406E+00
 +1.55081E+00 -5.22491E+00 +2.91863E+00 -5.59041E-01 +4.95889E+00 +2.35854E+00 +6.13779E+00 +2.53705E+00
 +5.26657E+00 +6.26536E-01 +2.48217E+00 -1.69578E+00 -6.88770E-01 -2.92311E+00 -2.24394E+00 -2.64976E+00
 -9.82488E-01 -1.62057E+00 +2.71296E+00 -9.34742E-01 +7.10005E+00 -1.03909E+00 +1.01307E+01 -1.27552E+00
 +1.06145E+01 -3.29494E-01 +8.73385E+00 +2.73493E+00 +5.63587E+00 +7.59992E+00 +2.47391E+00 +1.26263E+01
 -3.71923E-01 +1.56837E+01 -3.33911E+00 +1.53467E+01 -7.00378E+00 +1.16756E+01 -1.12360E+01 +6.08927E+00
 -1.48774E+01 +4.59150E-01 -1.62513E+01 -3.93252E+00 -1.42050E+01 -6.87491E+00 -8.97072E+00 -8.89192E+00
 -2.22867E+00 -1.04284E+01 +3.71531E+00 -1.12355E+01 +7.12090E+00 -1.04604E+01 +7.61031E+00 -7.39923E+00
 +6.08932E+00 -2.34337E+00 +3.91827E+00 +3.16008E+00 +1.96506E+00 +6.92788E+00 +2.17402E-01 +7.30682E+00
 -1.80951E+00 +4.13939E+00 -4.24125E+00 -1.11957E+00 -6.28941E+00 -6.22784E+00 -6.48296E+00 -9.38529E+00
 -3.60957E+00 -1.00678E+01 +2.26752E+00 -8.95672E+00 +9.47184E+00 -7.09744E+00 +1.53865E+01 -4.95839E+00
 +1.77818E+01 -2.11301E+00 +1.59721E+01 +2.21038E+00 +1.10630E+01 +8.13045E+00 +5.14648E+00 +1.44583E+01
 +5.50829E-03 +1.89746E+01 -3.79400E+00 +1.95757E+01 -6.83763E+00 +1.55765E+01 -9.93989E+00 +8.28511E+00
 -1.30998E+01 +4.05564E-01 -1.51620E+01 -5.40166E+00 -1.45011E+01 -7.89532E+00 -1.02857E+01 -7.69150E+00
 -3.41102E+00 -6.51871E+00 +3.64068E+00 -5.84586E+00 +8.03964E+00 -5.85794E+00 +8.19992E+00 -5.49396E+00
 +4.68836E+00 -3.49700E+00 -1.66598E-01 +3.10917E-01 -3.72873E+00 +4.50307E+00 -4.61989E+00 +6.73536E+00
 -3.37143E+00 +5.24785E+00 -1.76022E+00 +1.67510E-01 -1.33196E+00 -6.32379E+00 -2.17417E+00 -1.11524E+01
 -2.82359E+00 -1.21379E+01 -1.39130E+00 -9.24267E+00 +2.88444E+00 -4.46218E+00 +8.78128E+00 -4.33814E-01
 +1.36030E+01 +1.29472E+00 +1.47870E+01 +1.16842E+00 +1.15578E+01 +1.10042E+00 +5.49580E+00 +2.90665E+00
 -3.98991E-01 +6.81198E+00 -3.56238E+00 +1.10988E+01 -3.41561E+00 +1.31816E+01 -1.57931E+00 +1.13914E+01
 -6.17825E-01 +6.23568E+00 -2.17766E+00 +2.29900E-01 -5.79865E+00 -3.63806E+00 -9.21808E+00 -3.80384E+00
 -9.96246E+00 -1.10576E+00 -7.12938E+00 +1.82806E+00 -2.11808E+00 +2.38552E+00 +2.22080E+00 -2.45957E-01
 +3.46007E+00 -4.52910E+00 +1.22274E+00 -7.63848E+00 -2.56018E+00 -7.41540E+00 -4.95741E+00 -3.88230E+00
 -4.03537E+00 +7.24514E-01 -1.87979E-01 +3.43763E+00 +4.11793E+00 +2.55395E+00 +6.02327E+00 -1.21724E+00
 +4.24795E+00 -5.24154E+00 +7.99420E-03 -6.75559E+00 -3.75901E+00 -4.74794E+00 -4.34988E+00 -6.36498E-01
 -1.11507E+00 +2.72715E+00 +4.09119E+00 +3.05065E+00 +8.13750E+00 +2.25357E-01 +8.68867E+00 -3.54237E+00
 +5.72212E+00 -5.20392E+00 +1.46369E+00 -2.95865E+00 -1.20124E+00 +2.45754E+00 -7.44693E-01 +8.17161E+00
 +1.94820E+00 +1.10082E+01 +4.21527E+00 +9.53394E+00 +3.51466E+00 +4.94230E+00 -7.18543E-01 +1.92842E-01
 -6.54253E+00 -1.99823E+00 -1.06947E+01 -9.47105E-01 -1.07138E+01 +1.63976E+00 -6.57228E+00 +2.96608E+00
