 Created: 16-Jan-2021
 $NMID
 ID='D:\BASISSIMULATI'
 FMTDAT='(8E13.5)'
 VOLUME=   1.00000E+00
 TRAMP=   1.00000E+00
 $END
 +1.41388E+02 +2.16440E+01 +1.21097E+02 +7.43522E+01 +8.10563E+01 +1.13743E+02 +2.87969E+01 +1.32805E+02
 -2.59125E+01 +1.28420E+02 -7.29506E+01 +1.01932E+02 -1.03786E+02 +5.88563E+01 -1.13101E+02 +7.77698E+00
 -9.97780E+01 -4.13314E+01 -6.70736E+01 -7.90456E+01 -2.19344E+01 -9.83095E+01 +2.63929E+01 -9.57757E+01
 +6.81891E+01 -7.24124E+01 +9.51649E+01 -3.32647E+01 +1.02068E+02 +1.35793E+01 +8.76832E+01 +5.86097E+01
 +5.50269E+01 +9.27803E+01 +1.07161E+01 +1.09289E+02 -3.63718E+01 +1.04901E+02 -7.68740E+01 +8.05646E+01
 -1.02801E+02 +4.11900E+01 -1.09114E+02 -5.34688E+00 -9.47085E+01 -4.97858E+01 -6.26198E+01 -8.33292E+01
 -1.94000E+01 -9.93908E+01 +2.61940E+01 -9.49006E+01 +6.49486E+01 -7.09096E+01 +8.90294E+01 -3.23758E+01
 +9.35408E+01 +1.28231E+01 +7.75029E+01 +5.54557E+01 +4.40528E+01 +8.67711E+01 -1.69060E-01 +1.00239E+02
 -4.63256E+01 +9.28524E+01 -8.51261E+01 +6.57362E+01 -1.08661E+02 +2.39417E+01 -1.11969E+02 -2.45336E+01
 -9.40241E+01 -7.03067E+01 -5.79577E+01 -1.04446E+02 -1.04573E+01 -1.20222E+02 +3.95264E+01 -1.14431E+02
 +8.25190E+01 -8.80278E+01 +1.10366E+02 -4.59502E+01 +1.17818E+02 +3.83809E+00 +1.03552E+02 +5.18913E+01
 +7.04240E+01 +8.91147E+01 +2.49102E+01 +1.08527E+02 -2.41577E+01 +1.06610E+02 -6.73117E+01 +8.39775E+01
 -9.62860E+01 +4.52416E+01 -1.05616E+02 -1.89848E+00 -9.36880E+01 -4.81684E+01 -6.30303E+01 -8.45295E+01
 -1.98018E+01 -1.03937E+02 +2.74302E+01 -1.02703E+02 +6.93741E+01 -8.11947E+01 +9.78326E+01 -4.37414E+01
 +1.07299E+02 +2.23355E+00 +9.60207E+01 +4.76832E+01 +6.63201E+01 +8.37171E+01 +2.41202E+01 +1.03343E+02
 -2.22361E+01 +1.02827E+02 -6.36360E+01 +8.24165E+01 -9.19898E+01 +4.62649E+01 -1.01817E+02 +1.60460E+00
 -9.13139E+01 -4.26909E+01 -6.26942E+01 -7.78588E+01 -2.17405E+01 -9.69725E+01 +2.33461E+01 -9.63000E+01
 +6.35680E+01 -7.60317E+01 +9.09055E+01 -4.02335E+01 +9.98954E+01 +3.96024E+00 +8.87035E+01 +4.77567E+01
 +5.94825E+01 +8.24373E+01 +1.79451E+01 +1.01073E+02 -2.77609E+01 +9.98877E+01 -6.86536E+01 +7.89946E+01
 -9.66806E+01 +4.23773E+01 -1.06296E+02 -2.89480E+00 -9.55469E+01 -4.80522E+01 -6.64501E+01 -8.43417E+01
 -2.45958E+01 -1.04737E+02 +2.19503E+01 -1.05308E+02 +6.42254E+01 -8.59809E+01 +9.41198E+01 -5.05454E+01
 +1.05956E+02 -5.90191E+00 +9.75862E+01 +3.92934E+01 +7.07996E+01 +7.63237E+01 +3.09541E+01 +9.81124E+01
 -1.40850E+01 +1.00597E+02 -5.54947E+01 +8.35091E+01 -8.52242E+01 +5.04051E+01 -9.75677E+01 +7.95257E+00
 -9.02701E+01 -3.53940E+01 -6.49518E+01 -7.10610E+01 -2.67718E+01 -9.20405E+01 +1.66040E+01 -9.42607E+01
 +5.65219E+01 -7.73749E+01 +8.50497E+01 -4.48146E+01 +9.65373E+01 -3.09976E+00 +8.87246E+01 +3.94572E+01
 +6.31780E+01 +7.43967E+01 +2.49727E+01 +9.47822E+01 -1.83155E+01 +9.65676E+01 -5.81096E+01 +7.93918E+01
 -8.65258E+01 +4.66471E+01 -9.79297E+01 +4.80769E+00 -9.00479E+01 -3.78479E+01 -6.44178E+01 -7.28697E+01
 -2.60874E+01 -9.33016E+01 +1.73760E+01 -9.50536E+01 +5.73715E+01 -7.77105E+01 +8.59545E+01 -4.46197E+01
 +9.73981E+01 -2.23943E+00 +8.93209E+01 +4.11215E+01 +6.31591E+01 +7.69284E+01 +2.38925E+01 +9.80896E+01
 -2.09223E+01 +1.00343E+02 -6.26223E+01 +8.30922E+01 -9.31235E+01 +4.95228E+01 -1.06492E+02 +5.98712E+00
 -1.00096E+02 -3.92312E+01 -7.51109E+01 -7.75246E+01 -3.62866E+01 -1.01629E+02 +8.98229E+00 -1.07027E+02
 +5.20958E+01 -9.28100E+01 +8.49168E+01 -6.18390E+01 +1.01342E+02 -2.01717E+01 +9.84713E+01 +2.41294E+01
 +7.71465E+01 +6.25721E+01 +4.17604E+01 +8.78835E+01 -6.24149E-01 +9.54123E+01 -4.16709E+01 +8.40102E+01
 -7.34046E+01 +5.62247E+01 -8.97638E+01 +1.77685E+01 -8.77685E+01 -2.36268E+01 -6.80759E+01 -5.97434E+01
 -3.48193E+01 -8.34951E+01 +5.23591E+00 -9.03118E+01 +4.40465E+01 -7.90197E+01 +7.38908E+01 -5.20470E+01
 +8.88935E+01 -1.49178E+01 +8.61793E+01 +2.48625E+01 +6.64262E+01 +5.93082E+01 +3.37141E+01 +8.15433E+01
 -5.30011E+00 +8.71654E+01 -4.27163E+01 +7.51159E+01 -7.09680E+01 +4.78846E+01 -8.43316E+01 +1.10104E+01
 -8.00675E+01 -2.80231E+01 -5.89708E+01 -6.12769E+01 -2.52204E+01 -8.19384E+01 +1.44425E+01 -8.56808E+01
 +5.20445E+01 -7.15336E+01 +7.99570E+01 -4.20911E+01 +9.24098E+01 -3.01715E+00 +8.66424E+01 +3.80567E+01
 +6.34667E+01 +7.30248E+01 +2.71287E+01 +9.48986E+01 -1.55030E+01 +9.91845E+01 -5.62665E+01 +8.47772E+01
 -8.72915E+01 +5.41933E+01 -1.02533E+02 +1.30990E+01 -9.89489E+01 -3.07776E+01 -7.71031E+01 -6.91362E+01
 -4.10599E+01 -9.47070E+01 +2.39457E+00 -1.02654E+02 +4.50595E+01 -9.15072E+01 +7.88990E+01 -6.34390E+01
 +9.75865E+01 -2.38403E+01 +9.77141E+01 +1.97280E+01 +7.94334E+01 +5.89975E+01 +4.64059E+01 +8.65853E+01
 +5.07477E+00 +9.74072E+01 -3.65968E+01 +8.96381E+01 -7.06731E+01 +6.50349E+01 -9.07766E+01 +2.85634E+01
 -9.33043E+01 -1.25945E+01 -7.80957E+01 -5.04560E+01 -4.84247E+01 -7.77951E+01 -1.03220E+01 -8.95404E+01
 +2.86333E+01 -8.37383E+01 +6.08150E+01 -6.18978E+01 +8.00462E+01 -2.86543E+01 +8.27981E+01 +9.17876E+00
 +6.88569E+01 +4.39781E+01 +4.13319E+01 +6.88274E+01 +6.00703E+00 +7.88831E+01 -2.98328E+01 +7.23206E+01
 -5.88656E+01 +5.06756E+01 -7.51958E+01 +1.85169E+01 -7.55280E+01 -1.74829E+01 -5.98185E+01 -4.98915E+01
 -3.12785E+01 -7.20098E+01 +4.27142E+00 -7.92159E+01 +3.95667E+01 -6.98950E+01 +6.73520E+01 -4.57710E+01
 +8.18347E+01 -1.15733E+01 +7.98508E+01 +2.58941E+01 +6.15118E+01 +5.90988E+01 +3.02047E+01 +8.12753E+01
 -8.05747E+00 +8.77747E+01 -4.58061E+01 +7.70012E+01 -7.55808E+01 +5.07516E+01 -9.13977E+01 +1.38880E+01
 -8.99351E+01 -2.65932E+01 -7.12024E+01 -6.29140E+01 -3.85602E+01 -8.80271E+01 +1.91315E+00 -9.69901E+01
 +4.25868E+01 -8.79348E+01 +7.57473E+01 -6.24412E+01 +9.50867E+01 -2.52427E+01 +9.69211E+01 +1.66800E+01
 +8.09004E+01 +5.54394E+01 +5.00740E+01 +8.37577E+01 +1.02991E+01 +9.63618E+01 -3.08908E+01 +9.09887E+01
 -6.57379E+01 +6.88066E+01 -8.77491E+01 +3.41720E+01 -9.29330E+01 -6.22721E+00 -8.05474E+01 -4.46739E+01
 -5.32132E+01 -7.39138E+01 -1.63778E+01 -8.85480E+01 +2.27655E+01 -8.60537E+01 +5.66861E+01 -6.72404E+01
 +7.89793E+01 -3.60531E+01 +8.55952E+01 +1.23109E+00 +7.55986E+01 +3.72546E+01 +5.13119E+01 +6.50295E+01
 +1.78201E+01 +7.93011E+01 -1.80624E+01 +7.75598E+01 -4.91548E+01 +6.05032E+01 -6.93340E+01 +3.18627E+01
 -7.47377E+01 -2.36747E+00 -6.45121E+01 -3.51429E+01 -4.09573E+01 -5.97822E+01 -9.04753E+00 -7.12988E+01
 +2.45792E+01 -6.73911E+01 +5.29578E+01 -4.88927E+01 +7.01936E+01 -1.95988E+01 +7.26448E+01 +1.44984E+01
 +5.96546E+01 +4.64095E+01 +3.36887E+01 +6.95481E+01 -1.48295E-01 +7.90506E+01 -3.51220E+01 +7.27560E+01
 -6.42035E+01 +5.16519E+01 -8.14677E+01 +1.96955E+01 -8.32766E+01 -1.69522E+01 -6.90156E+01 -5.11323E+01
 -4.12362E+01 -7.60956E+01 -5.17507E+00 -8.68341E+01 +3.22569E+01 -8.10774E+01 +6.38172E+01 -5.97544E+01
 +8.33456E+01 -2.68307E+01 +8.69696E+01 +1.14476E+01 +7.38688E+01 +4.77583E+01 +4.64455E+01 +7.51191E+01
 +9.86917E+00 +8.82409E+01 -2.89168E+01 +8.45529E+01 -6.25331E+01 +6.47021E+01 -8.45862E+01 +3.24286E+01
 -9.08982E+01 -6.15802E+00 -8.03058E+01 -4.37584E+01 -5.48734E+01 -7.32907E+01 -1.94827E+01 -8.92512E+01
 +1.91216E+01 -8.87629E+01 +5.36412E+01 -7.21124E+01 +7.76333E+01 -4.26702E+01 +8.67449E+01 -6.21541E+00
 +7.95344E+01 +3.02024E+01 +5.77204E+01 +5.96392E+01 +2.58164E+01 +7.66010E+01 -9.77710E+00 +7.80955E+01
 -4.20396E+01 +6.41874E+01 -6.47088E+01 +3.79516E+01 -7.34984E+01 +4.83822E+00 -6.69192E+01 -2.84228E+01
 -4.65434E+01 -5.51596E+01 -1.66657E+01 -7.00746E+01 +1.65699E+01 -7.02807E+01 +4.64029E+01 -5.58545E+01
 +6.68024E+01 -2.98013E+01 +7.36628E+01 +2.56007E+00 +6.56118E+01 +3.46671E+01 +4.42739E+01 +6.00256E+01
 +1.39386E+01 +7.35047E+01 -1.92993E+01 +7.23574E+01 -4.87559E+01 +5.67669E+01 -6.84901E+01 +2.98110E+01
 -7.44878E+01 -3.14777E+00 -6.54645E+01 -3.55247E+01 -4.31275E+01 -6.08184E+01 -1.18464E+01 -7.39020E+01
 +2.22024E+01 -7.20436E+01 +5.22513E+01 -5.54573E+01 +7.22745E+01 -2.72728E+01 +7.81794E+01 +7.06747E+00
 +6.86201E+01 +4.08692E+01 +4.52734E+01 +6.74941E+01 +1.25230E+01 +8.16602E+01 -2.33872E+01 +8.04789E+01
 -5.55645E+01 +6.40267E+01 -7.78077E+01 +3.53376E+01 -8.58131E+01 -1.80681E-01 -7.80116E+01 -3.57926E+01
 -5.58741E+01 -6.47399E+01 -2.36246E+01 -8.15494E+01 +1.25803E+01 -8.30900E+01 +4.58463E+01 -6.91723E+01
 +6.98765E+01 -4.25762E+01 +8.01862E+01 -8.50129E+00 +7.49616E+01 +2.64504E+01 +5.53966E+01 +5.55593E+01
 +2.54427E+01 +7.32911E+01 -8.97469E+00 +7.63619E+01 -4.11210E+01 +6.43600E+01 -6.47672E+01 +3.98050E+01
 -7.53989E+01 +7.63498E+00 -7.10836E+01 -2.57743E+01 -5.28274E+01 -5.38661E+01 -2.43567E+01 -7.11857E+01
 +8.63291E+00 -7.44411E+01 +3.96081E+01 -6.31325E+01 +6.24868E+01 -3.96306E+01 +7.28321E+01 -8.69126E+00
 +6.87150E+01 +2.34964E+01 +5.10809E+01 +5.05389E+01 +2.35470E+01 +6.71021E+01 -8.32530E+00 +6.99596E+01
 -3.81380E+01 +5.86223E+01 -5.99262E+01 +3.54257E+01 -6.93378E+01 +5.05888E+00 -6.44915E+01 -2.63693E+01
 -4.63458E+01 -5.25423E+01 -1.85064E+01 -6.81872E+01 +1.34887E+01 -7.01180E+01 +4.32644E+01 -5.78660E+01
 +6.48686E+01 -3.37742E+01 +7.39475E+01 -2.53737E+00 +6.86066E+01 +2.97214E+01 +4.97877E+01 +5.66548E+01
 +2.10875E+01 +7.29402E+01 -1.19450E+01 +7.53269E+01 -4.28950E+01 +6.32771E+01 -6.57381E+01 +3.90745E+01
 -7.60197E+01 +7.37982E+00 -7.17278E+01 -2.56786E+01 -5.36861E+01 -5.37023E+01 -2.53932E+01 -7.12710E+01
 +7.66108E+00 -7.49996E+01 +3.90681E+01 -6.41963E+01 +6.27503E+01 -4.09932E+01 +7.41440E+01 -9.92604E+00
 +7.10856E+01 +2.29543E+01 +5.42260E+01 +5.12646E+01 +2.68957E+01 +6.95329E+01 -5.55329E+00 +7.42619E+01
 -3.67970E+01 +6.46027E+01 -6.07764E+01 +4.25100E+01 -7.28778E+01 +1.23491E+01 -7.08260E+01 -1.99665E+01
 -5.51183E+01 -4.81363E+01 -2.89137E+01 -6.67055E+01 +2.59732E+00 -7.21270E+01 +3.32176E+01 -6.34458E+01
 +5.69619E+01 -4.24735E+01 +6.92279E+01 -1.34197E+01 +6.76922E+01 +1.79442E+01 +5.27553E+01 +4.54250E+01
 +2.74515E+01 +6.36252E+01 -3.15863E+00 +6.90002E+01 -3.29910E+01 +6.05474E+01 -5.61380E+01 +3.99949E+01
 -6.80307E+01 +1.14516E+01 -6.63334E+01 -1.94080E+01 -5.13979E+01 -4.64658E+01 -2.61873E+01 -6.43645E+01
