 Created: 16-Jan-2021
 $NMID
 ID='D:\BASISSIMULATI'
 FMTDAT='(8E13.5)'
 VOLUME=   1.00000E+00
 TRAMP=   1.00000E+00
 $END
 +3.24746E+01 +4.97086E+00 +2.90067E+01 +1.50330E+01 +2.22276E+01 +2.30897E+01 +1.32094E+01 +2.80535E+01
 +3.35501E+00 +2.93763E+01 -5.85977E+00 +2.71310E+01 -1.31498E+01 +2.19747E+01 -1.76412E+01 +1.50064E+01
 -1.90089E+01 +7.54744E+00 -1.75056E+01 +8.88353E-01 -1.38822E+01 -3.94881E+00 -9.21668E+00 -6.38760E+00
 -4.68694E+00 -6.38219E+00 -1.33388E+00 -4.39662E+00 +1.40409E-01 -1.28551E+00 -4.99342E-01 +1.89778E+00
 -2.98996E+00 +4.12625E+00 -6.63815E+00 +4.61277E+00 -1.04730E+01 +2.97076E+00 -1.34509E+01 -7.08134E-01
 -1.46715E+01 -5.87293E+00 -1.35629E+01 -1.16229E+01 -1.00003E+01 -1.68848E+01 -4.33577E+00 -2.06230E+01
 +2.66369E+00 -2.20397E+01 +9.95784E+00 -2.07285E+01 +1.64250E+01 -1.67526E+01 +2.10672E+01 -1.06329E+01
 +2.31891E+01 -3.25173E+00 +2.25179E+01 +4.30898E+00 +1.92426E+01 +1.09626E+01 +1.39686E+01 +1.58085E+01
 +7.59627E+00 +1.82830E+01 +1.15136E+00 +1.82439E+01 -4.40225E+00 +1.59749E+01 -8.32992E+00 +1.21111E+01
 -1.02442E+01 +7.50436E+00 -1.01528E+01 +3.05395E+00 -8.43067E+00 -4.62840E-01 -5.72402E+00 -2.52861E+00
 -2.80831E+00 -2.96757E+00 -4.28113E-01 -1.95773E+00 +8.49033E-01 +2.58005E-02 +7.37726E-01 +2.32266E+00
 -7.19995E-01 +4.23054E+00 -3.17544E+00 +5.15099E+00 -6.05366E+00 +4.70959E+00 -8.67579E+00 +2.82812E+00
 -1.03982E+01 -2.63508E-01 -1.07411E+01 -4.07577E+00 -9.48218E+00 -7.95722E+00 -6.69870E+00 -1.12211E+01
 -2.75140E+00 -1.32757E+01 +1.78467E+00 -1.37337E+01 +6.22752E+00 -1.24807E+01 +9.91254E+00 -9.69144E+00
 +1.23097E+01 -5.79204E+00 +1.31126E+01 -1.37852E+00 +1.22830E+01 +2.89274E+00 +1.00466E+01 +6.42061E+00
 +6.84049E+00 +8.75958E+00 +3.22622E+00 +9.68720E+00 -2.14539E-01 +9.22809E+00 -2.98196E+00 +7.63230E+00
 -4.73878E+00 +5.31479E+00 -5.35653E+00 +2.76923E+00 -4.92079E+00 +4.73605E-01 -3.69727E+00 -1.19459E+00
 -2.06735E+00 -2.01853E+00 -4.47219E-01 -1.96827E+00 +7.93452E-01 -1.19033E+00 +1.39818E+00 +3.47566E-02
 +1.26424E+00 +1.35694E+00 +4.51545E-01 +2.42960E+00 -8.39802E-01 +2.97678E+00 -2.31671E+00 +2.84262E+00
 -3.65473E+00 +2.01509E+00 -4.56166E+00 +6.21348E-01 -4.83128E+00 -1.10239E+00 -4.37799E+00 -2.85919E+00
 -3.24761E+00 -4.34785E+00 -1.60383E+00 -5.31673E+00 +3.05208E-01 -5.60547E+00 +2.19294E+00 -5.16826E+00
 +3.78399E+00 -4.07591E+00 +4.85837E+00 -2.49820E+00 +5.28345E+00 -6.71142E-01 +5.02916E+00 +1.14400E+00
 +4.16568E+00 +2.70238E+00 +2.84563E+00 +3.81113E+00 +1.27523E+00 +4.35370E+00 -3.19881E-01 +4.30044E+00
 -1.72826E+00 +3.70537E+00 -2.78085E+00 +2.69125E+00 -3.37022E+00 +1.42657E+00 -3.45938E+00 +9.87809E-02
 -3.08021E+00 -1.11218E+00 -2.32327E+00 -2.05654E+00 -1.32120E+00 -2.63135E+00 -2.28637E-01 -2.78976E+00
 +7.98767E-01 -2.54294E+00 +1.62395E+00 -1.95506E+00 +2.14473E+00 -1.13251E+00 +2.30547E+00 -2.08742E-01
 +2.10307E+00 +6.73808E-01 +1.58673E+00 +1.38273E+00 +8.51185E-01 +1.81382E+00 +2.38681E-02 +1.90616E+00
 -7.52997E-01 +1.65217E+00 -1.34350E+00 +1.10060E+00 -1.63974E+00 +3.51449E-01 -1.58084E+00 -4.57541E-01
 -1.16613E+00 -1.17152E+00 -4.59369E-01 -1.64394E+00 +4.17448E-01 -1.76281E+00 +1.30117E+00 -1.47353E+00
 +2.01346E+00 -7.93618E-01 +2.39196E+00 +1.84062E-01 +2.32165E+00 +1.30151E+00 +1.76041E+00 +2.35874E+00
 +7.53594E-01 +3.14689E+00 -5.66377E-01 +3.48600E+00 -1.99656E+00 +3.26085E+00 -3.29469E+00 +2.44784E+00
 -4.22031E+00 +1.12710E+00 -4.57889E+00 -5.23819E-01 -4.26079E+00 -2.25483E+00 -3.26735E+00 -3.78351E+00
 -1.71803E+00 -4.84417E+00 +1.63844E-01 -5.23695E+00 +2.08554E+00 -4.86771E+00 +3.73428E+00 -3.77056E+00
 +4.83290E+00 -2.10770E+00 +5.19173E+00 -1.45392E-01 +4.74638E+00 +1.79062E+00 +3.57379E+00 +3.37265E+00
 +1.88233E+00 +4.33134E+00 -2.32246E-02 +4.50707E+00 -1.79610E+00 +3.88241E+00 -3.11175E+00 +2.58861E+00
 -3.72972E+00 +8.83963E-01 -3.54124E+00 -8.92874E-01 -2.59291E+00 -2.38627E+00 -1.08090E+00 -3.29209E+00
 +6.83875E-01 -3.41809E+00 +2.33397E+00 -2.72415E+00 +3.51618E+00 -1.33402E+00 +3.96159E+00 +4.84673E-01
 +3.54105E+00 +2.36917E+00 +2.29491E+00 +3.93032E+00 +4.30388E-01 +4.82853E+00 -1.71381E+00 +4.84223E+00
 -3.72964E+00 +3.91524E+00 -5.21722E+00 +2.17324E+00 -5.86304E+00 -9.47371E-02 -5.50345E+00 -2.48720E+00
 -4.16096E+00 -4.56424E+00 -2.04533E+00 -5.93103E+00 +4.81425E-01 -6.31471E+00 +2.97034E+00 -5.61969E+00
 +4.96890E+00 -3.94997E+00 +6.10705E+00 -1.59367E+00 +6.16896E+00 +1.02813E+00 +5.13658E+00 +3.43897E+00
 +3.19606E+00 +5.19650E+00 +7.05070E-01 +5.97683E+00 -1.87314E+00 +5.63728E+00 -4.05678E+00 +4.24527E+00
 -5.43701E+00 +2.06718E+00 -5.75649E+00 -4.81081E-01 -4.95937E+00 -2.91270E+00 -3.20307E+00 -4.76285E+00
 -8.28892E-01 -5.67804E+00 +1.70289E+00 -5.48464E+00 +3.90149E+00 -4.22302E+00 +5.34045E+00 -2.14046E+00
 +5.74053E+00 +3.56012E-01 +5.02457E+00 +2.77817E+00 +3.33333E+00 +4.65131E+00 +9.98975E-01 +5.60693E+00
 -1.51880E+00 +5.45523E+00 -3.72198E+00 +4.22323E+00 -5.17142E+00 +2.15093E+00 -5.57326E+00 -3.54263E-01
 -4.83759E+00 -2.79589E+00 -3.09774E+00 -4.68485E+00 -6.86285E-01 -5.63504E+00 +1.92794E+00 -5.43965E+00
 +4.22974E+00 -4.11320E+00 +5.75713E+00 -1.89096E+00 +6.19130E+00 +8.14412E-01 +5.41947E+00 +3.49077E+00
 +3.55845E+00 +5.62406E+00 +9.34056E-01 +6.79677E+00 -1.97965E+00 +6.76829E+00 -4.64976E+00 +5.52154E+00
 -6.58537E+00 +3.26703E+00 -7.43048E+00 +4.03326E-01 -7.03107E+00 -2.55827E+00 -5.46355E+00 -5.09046E+00
 -3.01910E+00 -6.74939E+00 -1.47164E-01 -7.25767E+00 +2.63094E+00 -6.55512E+00 +4.82152E+00 -4.80759E+00
 +6.05189E+00 -2.37243E+00 +6.13963E+00 +2.72421E-01 +5.12464E+00 +2.62196E+00 +3.25786E+00 +4.24184E+00
 +9.49376E-01 +4.85146E+00 -1.31387E+00 +4.37639E+00 -3.06462E+00 +2.96027E+00 -3.94706E+00 +9.33945E-01
 -3.78626E+00 -1.25160E+00 -2.62164E+00 -3.11543E+00 -6.98433E-01 -4.24228E+00 +1.58117E+00 -4.36484E+00
 +3.73734E+00 -3.41696E+00 +5.30697E+00 -1.54743E+00 +5.93457E+00 +9.08036E-01 +5.44223E+00 +3.49108E+00
 +3.86513E+00 +5.70856E+00 +1.44604E+00 +7.12701E+00 -1.41005E+00 +7.45540E+00 -4.21201E+00 +6.60039E+00
 -6.47472E+00 +4.68378E+00 -7.80944E+00 +2.01896E+00 -7.99511E+00 -9.48509E-01 -7.01732E+00 -3.72472E+00
 -5.06782E+00 -5.85911E+00 -2.50521E+00 -7.02667E+00 +2.15059E-01 -7.08498E+00 +2.62760E+00 -6.09570E+00
 +4.34398E+00 -4.30705E+00 +5.12306E+00 -2.10128E+00 +4.91153E+00 +8.21540E-02 +3.84757E+00 +1.83239E+00
 +2.22758E+00 +2.84535E+00 +4.43200E-01 +2.97944E+00 -1.09870E+00 +2.27830E+00 -2.05717E+00 +9.57047E-01
 -2.22379E+00 -6.44808E-01 -1.56200E+00 -2.13391E+00 -2.12043E-01 -3.14300E+00 +1.53885E+00 -3.40458E+00
 +3.31479E+00 -2.80408E+00 +4.72618E+00 -1.40244E+00 +5.44667E+00 +5.75576E-01 +5.27710E+00 +2.78489E+00
 +4.18439E+00 +4.82634E+00 +2.30821E+00 +6.32272E+00 -6.52868E-02 +6.98982E+00 -2.55719E+00 +6.68913E+00
 -4.76627E+00 +5.45228E+00 -6.34243E+00 +3.47337E+00 -7.04932E+00 +1.07110E+00 -6.80435E+00 -1.37145E+00
 -5.68935E+00 -3.47734E+00 -3.93034E+00 -4.94331E+00 -1.85138E+00 -5.59145E+00 +1.88320E-01 -5.39591E+00
 +1.86142E+00 -4.48034E+00 +2.93097E+00 -3.08744E+00 +3.28954E+00 -1.52744E+00 +2.97223E+00 -1.15954E-01
 +2.14207E+00 +8.86615E-01 +1.05145E+00 +1.32247E+00 -1.20505E-02 +1.16217E+00 -7.84489E-01 +5.04394E-01
 -1.07766E+00 -4.49222E-01 -8.14477E-01 -1.43853E+00 -4.14780E-02 -2.19935E+00 +1.08333E+00 -2.51721E+00
 +2.32411E+00 -2.26978E+00 +3.41523E+00 -1.45045E+00 +4.11397E+00 -1.68777E-01 +4.24775E+00 +1.37147E+00
 +3.74680E+00 +2.91180E+00 +2.65680E+00 +4.18805E+00 +1.12932E+00 +4.97945E+00 -6.07154E-01 +5.14830E+00
 -2.28962E+00 +4.66329E+00 -3.66809E+00 +3.60251E+00 -4.54905E+00 +2.13652E+00 -4.82710E+00 +4.95218E-01
 -4.49935E+00 -1.07453E+00 -3.66067E+00 -2.35242E+00 -2.48166E+00 -3.18116E+00 -1.17423E+00 -3.48964E+00
 +4.82846E-02 -3.29921E+00 +1.00868E+00 -2.71281E+00 +1.59445E+00 -1.89004E+00 +1.77249E+00 -1.01355E+00
 +1.58819E+00 -2.53586E-01 +1.15001E+00 +2.62558E-01 +6.03371E-01 +4.70899E-01 +9.94318E-02 +3.77652E-01
 -2.34925E-01 +5.23054E-02 -3.20440E-01 -3.90912E-01 -1.38097E-01 -8.18922E-01 +2.70655E-01 -1.10764E+00
 +8.15320E-01 -1.16642E+00 +1.37651E+00 -9.54586E-01 +1.83049E+00 -4.87645E-01 +2.07323E+00 +1.67570E-01
 +2.03948E+00 +9.07020E-01 +1.71377E+00 +1.60974E+00 +1.13170E+00 +2.16011E+00 +3.72052E-01 +2.46795E+00
 -4.58176E-01 +2.48301E+00 -1.24280E+00 +2.20165E+00 -1.87569E+00 +1.66517E+00 -2.27705E+00 +9.50849E-01
 -2.40406E+00 +1.57678E-01 -2.25477E+00 -6.10108E-01 -1.86515E+00 -1.25889E+00 -1.30056E+00 -1.71831E+00
 -6.43690E-01 -1.94907E+00 +1.87891E-02 -1.94521E+00 +6.08492E-01 -1.73121E+00 +1.06487E+00 -1.35520E+00
 +1.35098E+00 -8.79643E-01 +1.45521E+00 -3.71493E-01 +1.38942E+00 +1.06888E-01 +1.18432E+00 +5.04840E-01
 +8.83261E-01 +7.88013E-01 +5.35367E-01 +9.40362E-01 +1.89020E-01 +9.63786E-01 -1.13759E-01 +8.75840E-01
 -3.41634E-01 +7.06061E-01 -4.76802E-01 +4.91368E-01 -5.16268E-01 +2.70967E-01 -4.71502E-01 +8.11545E-02
 -3.66464E-01 -4.95655E-02 -2.34038E-01 -1.04578E-01 -1.11088E-01 -8.19207E-02 -3.25563E-02 +4.82169E-03
 -2.52713E-02 +1.27918E-01 -1.02402E-01 +2.49352E-01 -2.59567E-01 +3.26914E-01 -4.73560E-01 +3.21823E-01
 -7.04341E-01 +2.06769E-01 -9.00441E-01 -2.70707E-02 -1.00729E+00 -3.65511E-01 -9.77291E-01 -7.70557E-01
 -7.79990E-01 -1.18401E+00 -4.10354E-01 -1.53540E+00 +1.06635E-01 -1.75323E+00 +7.16435E-01 -1.77785E+00
 +1.34094E+00 -1.57366E+00 +1.88946E+00 -1.13819E+00 +2.27321E+00 -5.06115E-01 +2.42072E+00 +2.53132E-01
 +2.29155E+00 +1.04421E+00 +1.88547E+00 +1.76011E+00 +1.24507E+00 +2.29944E+00 +4.50865E-01 +2.58384E+00
 -3.90651E-01 +2.57216E+00 -1.16419E+00 +2.26866E+00 -1.76511E+00 +1.72333E+00 -2.11756E+00 +1.02395E+00
 -2.18786E+00 +2.80996E-01 -1.99043E+00 -3.91875E-01 -1.58484E+00 -8.98360E-01 -1.06436E+00 -1.17701E+00
 -5.37935E-01 -1.21231E+00 -1.08957E-01 -1.03706E+00 +1.45096E-01 -7.25270E-01 +1.88155E-01 -3.76889E-01
 +3.30011E-02 -9.71215E-02 -2.61021E-01 +2.56928E-02 -5.99790E-01 -6.07685E-02 -8.73583E-01 -3.60511E-01
 -9.80014E-01 -8.26427E-01 -8.46242E-01 -1.36784E+00 -4.45995E-01 -1.86715E+00 +1.92142E-01 -2.20265E+00
