 Created: 16-Jan-2021
 $NMID
 ID='D:\BASISSIMULATI'
 FMTDAT='(8E13.5)'
 VOLUME=   1.00000E+00
 TRAMP=   1.00000E+00
 $END
 +7.47355E+01 +1.14411E+01 +6.40680E+01 +3.99655E+01 +4.30326E+01 +6.19341E+01 +1.50682E+01 +7.37991E+01
 -1.52707E+01 +7.36609E+01 -4.30559E+01 +6.15719E+01 -6.37858E+01 +3.95236E+01 -7.41147E+01 +1.11182E+01
 -7.23931E+01 -1.90198E+01 -5.89304E+01 -4.59963E+01 -3.59404E+01 -6.54424E+01 -7.17699E+00 -7.42221E+01
 +2.26787E+01 -7.09376E+01 +4.87799E+01 -5.61522E+01 +6.69013E+01 -3.22935E+01 +7.41230E+01 -3.25531E+00
 +6.93004E+01 +2.62382E+01 +5.32464E+01 +5.14007E+01 +2.85938E+01 +6.81605E+01 -6.36153E-01 +7.38197E+01
 -2.96895E+01 +6.74878E+01 -5.38530E+01 +5.02223E+01 -6.92185E+01 +2.48519E+01 -7.33151E+01 -4.48693E+00
 -6.55065E+01 -3.30241E+01 -4.70894E+01 -5.61317E+01 -2.10786E+01 -7.00742E+01 +8.28677E+00 -7.26126E+01
 +3.62340E+01 -6.33637E+01 +5.82323E+01 -4.38576E+01 +7.07275E+01 -1.72848E+01 +7.17163E+01 +1.20257E+01
 +6.10670E+01 +3.93114E+01 +4.05367E+01 +6.01507E+01 +1.34811E+01 +7.11785E+01 -1.56939E+01 +7.06304E+01
 -4.22493E+01 +5.86242E+01 -6.18834E+01 +3.71368E+01 -7.14280E+01 +9.67806E+00 -6.93599E+01 -1.92820E+01
 -5.60437E+01 -4.50409E+01 -3.36681E+01 -6.34276E+01 -5.88632E+00 -7.14773E+01 +2.27808E+01 -6.79101E+01
 +4.76799E+01 -5.33338E+01 +6.47807E+01 -3.01410E+01 +7.13283E+01 -2.11621E+00 +6.62869E+01 +2.61816E+01
 +5.05034E+01 +5.01605E+01 +2.65657E+01 +6.59410E+01 -1.62204E+00 +7.09834E+01 -2.94759E+01 +6.44964E+01
 -5.24775E+01 +4.75616E+01 -6.69072E+01 +2.29527E+01 -7.04454E+01 -5.31841E+00 -6.25454E+01 -3.26556E+01
 -4.45175E+01 -5.46261E+01 -1.93122E+01 -6.76786E+01 +8.96308E+00 -6.97179E+01 +3.57132E+01 -6.04407E+01
 +5.66020E+01 -4.13807E+01 +6.82549E+01 -1.56548E+01 +6.88047E+01 +1.25465E+01 +5.81899E+01 +3.86414E+01
 +3.81608E+01 +5.84014E+01 +1.19906E+01 +6.86366E+01 -1.60593E+01 +6.77102E+01 -4.14333E+01 +5.58005E+01
 -6.00213E+01 +3.48674E+01 -6.88245E+01 +8.32983E+00 -6.64392E+01 -1.94926E+01 -5.32806E+01 -4.40826E+01
 -3.15105E+01 -6.14588E+01 -4.68265E+00 -6.88200E+01 +2.28376E+01 -6.49971E+01 +4.65834E+01 -5.06384E+01
 +6.27118E+01 -2.80999E+01 +6.86251E+01 -1.05899E+00 +6.33895E+01 +2.60859E+01 +4.78825E+01 +4.89303E+01
 +2.46457E+01 +6.37788E+01 -2.53135E+00 +6.82422E+01 -2.92295E+01 +6.16225E+01 -5.11183E+01 +4.50216E+01
 -6.46585E+01 +2.11578E+01 -6.76743E+01 -6.07877E+00 -5.97027E+01 -3.22608E+01 -4.20647E+01 -5.31429E+01
 -1.76463E+01 -6.53505E+01 +9.57388E+00 -6.69247E+01 +3.51724E+01 -5.76369E+01 +5.50002E+01 -3.90210E+01
 +6.58547E+01 -1.41210E+01 +6.59975E+01 +1.30075E+01 +5.54321E+01 +3.79576E+01 +3.58998E+01 +5.66867E+01
 +1.05920E+01 +6.61716E+01 -1.63708E+01 +6.48968E+01 -4.06099E+01 +5.30961E+01 -5.81994E+01 +3.27104E+01
 -6.63022E+01 +7.06887E+00 -6.36275E+01 -1.96552E+01 -5.06364E+01 -4.31232E+01 -2.94624E+01 -5.95359E+01
 -3.56145E+00 -6.62480E+01 +2.28523E+01 -6.21949E+01 +4.54921E+01 -4.80612E+01 +6.06943E+01 -2.61653E+01
 +6.60110E+01 -7.92670E-02 +6.06044E+01 +2.59542E+01 +4.53787E+01 +4.77114E+01 +2.28288E+01 +6.16731E+01
 -3.36831E+00 +6.55936E+01 -2.89532E+01 +5.88621E+01 -4.97764E+01 +4.25975E+01 -6.24714E+01 +1.94625E+01
 -6.49989E+01 -6.77208E+00 -5.69744E+01 -3.18421E+01 -3.97262E+01 -5.16830E+01 -1.60760E+01 -6.30888E+01
 +1.01231E+01 -6.42302E+01 +3.46140E+01 -5.49478E+01 +5.34275E+01 -3.67737E+01 +6.35255E+01 -1.26789E+01
 +6.32915E+01 +1.34125E+01 +5.27894E+01 +3.72623E+01 +3.37489E+01 +5.50066E+01 +9.28066E+00 +6.37819E+01
 -1.66319E+01 +6.21869E+01 -3.97810E+01 +5.05065E+01 -5.64178E+01 +3.06610E+01 -6.38593E+01 +5.89073E+00
 -6.09214E+01 -1.97731E+01 -4.81067E+01 -4.21644E+01 -2.75191E+01 -5.76586E+01 -2.51840E+00 -6.37592E+01
 +2.28281E+01 -5.94998E+01 +4.44073E+01 -4.55977E+01 +5.87275E+01 -2.43325E+01 +6.34836E+01 +8.27157E-01
 +5.79278E+01 +2.57894E+01 +4.29876E+01 +4.65049E+01 +2.11104E+01 +5.96231E+01 -4.13696E+00 +6.30350E+01
 -2.86497E+01 +5.62112E+01 -4.84527E+01 +4.02846E+01 -6.03448E+01 +1.78621E+01 -6.24165E+01 -7.40222E+00
 -5.43562E+01 -3.14021E+01 -3.74972E+01 -5.02470E+01 -1.45968E+01 -6.08923E+01 +1.06143E+01 -6.16314E+01
 +3.40401E+01 -5.23693E+01 +5.18842E+01 -3.46339E+01 +6.12657E+01 -1.13239E+01 +6.06836E+01 +1.37649E+01
 +5.02574E+01 +3.65574E+01 +3.17034E+01 +5.33615E+01 +8.05229E+00 +6.14658E+01 -1.68459E+01 +5.95773E+01
 -3.89484E+01 +4.80275E+01 -5.46763E+01 +2.87144E+01 -6.14938E+01 +4.79115E+00 -5.83172E+01 -1.98494E+01
 -4.56869E+01 -4.12077E+01 -2.56759E+01 -5.58267E+01 -1.54937E+00 -6.13514E+01 +2.27680E+01 -5.69083E+01
 +4.33304E+01 -4.32434E+01 +5.68110E+01 -2.25967E+01 +6.10406E+01 +1.66427E+00 +5.53560E+01 +2.55944E+01
 +4.07046E+01 +4.53118E+01 +1.94858E+01 +5.76282E+01 -4.84116E+00 +6.05639E+01 -2.83216E+01 +5.36660E+01
 -4.71481E+01 +3.80785E+01 -5.82778E+01 +1.63520E+01 -5.99244E+01 -7.97288E+00 -5.18444E+01 -3.09432E+01
 -3.53733E+01 -4.88355E+01 -1.32044E+01 -5.87596E+01 +1.10512E+01 -5.91254E+01 +3.34529E+01 -4.98975E+01
 +5.03708E+01 -3.25972E+01 +5.90739E+01 -1.00517E+01 +5.81708E+01 +1.40681E+01 +4.78320E+01 +3.58449E+01
 +2.97588E+01 +5.17514E+01 +6.90267E+00 +5.92216E+01 -1.70160E+01 +5.70647E+01 -3.81138E+01 +4.56548E+01
 -5.29750E+01 +2.68663E+01 -5.92039E+01 +3.76606E+00 -5.58118E+01 -1.98872E+01 -4.33730E+01 -4.02545E+01
 -2.39284E+01 -5.40397E+01 -6.50401E-01 -5.90226E+01 +2.26747E+01 -5.44169E+01 +4.22624E+01 -4.09940E+01
 +5.49442E+01 -2.09537E+01 +5.86797E+01 +2.43589E+00 +5.28854E+01 +2.53716E+01 +3.85253E+01 +4.41333E+01
 +1.79507E+01 +5.56875E+01 -5.48457E+00 +5.81778E+01 -2.79712E+01 +5.12228E+01 -4.58632E+01 +3.59747E+01
 -5.62693E+01 +1.49281E+01 -5.75199E+01 -8.48757E+00 -4.94351E+01 -3.04674E+01 -3.33500E+01 -4.74490E+01
 -1.18945E+01 -5.66896E+01 +1.14370E+01 -5.67094E+01 +3.28544E+01 -4.75284E+01 +4.88875E+01 -3.06593E+01
 +5.69487E+01 -8.85820E+00 +5.57501E+01 +1.43254E+01 +4.55093E+01 +3.51265E+01 +2.79106E+01 +5.01764E+01
 +5.82779E+00 +5.70477E+01 -1.71451E+01 +5.46460E+01 -3.72787E+01 +4.33844E+01 -5.13135E+01 +2.51122E+01
 -5.69877E+01 +2.81157E+00 -5.34018E+01 -1.98893E+01 -4.11607E+01 -3.93062E+01 -2.22723E+01 -5.22972E+01
 +1.82261E-01 -5.67707E+01 +2.25509E+01 -5.20222E+01 +4.12046E+01 -3.88454E+01 +5.31263E+01 -1.93992E+01
 +5.63987E+01 +3.14564E+00 +5.05124E+01 +2.51235E+01 +3.64456E+01 +4.29700E+01 +1.65010E+01 +5.38001E+01
 -6.07067E+00 +5.58743E+01 -2.76008E+01 +4.88780E+01 -4.45988E+01 +3.39690E+01 -5.43183E+01 +1.35863E+01
 -5.52005E+01 -8.94965E+00 -4.71246E+01 -2.99770E+01 -3.14232E+01 -4.60879E+01 -1.06630E+01 -5.46809E+01
 +1.17751E+01 -5.43807E+01 +3.22464E+01 -4.52583E+01 +4.74345E+01 -2.88159E+01 +5.48886E+01 -7.73952E+00
 +5.34186E+01 +1.45396E+01 +4.32854E+01 +3.44038E+01 +2.61549E+01 +4.86364E+01 +4.82384E+00 +5.49423E+01
 -1.72363E+01 +5.23182E+01 -3.64445E+01 +4.12125E+01 -4.96916E+01 +2.34481E+01 -5.48433E+01 +1.92397E+00
 -5.10841E+01 -1.98583E+01 -3.90462E+01 -3.83639E+01 -2.07035E+01 -5.05988E+01 +9.52210E-01 -5.45936E+01
 +2.23990E+01 -4.97209E+01 +4.01579E+01 -3.67935E+01 +5.13569E+01 -1.79290E+01 +5.41953E+01 +3.79699E+00
 +4.82338E+01 +2.48524E+01 +3.44615E+01 +4.18229E+01 +1.51327E+01 +5.19652E+01 -6.60281E+00 +5.36510E+01
 -2.72125E+01 +4.66280E+01 -4.33554E+01 +3.20575E+01 -5.24236E+01 +1.23225E+01 -5.29636E+01 -9.36228E+00
 -4.49092E+01 -2.94736E+01 -2.95888E+01 -4.47526E+01 -9.50626E+00 -5.27323E+01 +1.20682E+01 -5.21365E+01
 +3.16306E+01 -4.30834E+01 +4.60119E+01 -2.70629E+01 +5.28920E+01 -6.69189E+00 +5.11734E+01 +1.47137E+01
 +4.11566E+01 +3.36784E+01 +2.44874E+01 +4.71314E+01 +3.88716E+00 +5.29038E+01 -1.72920E+01 +5.00783E+01
 -3.56126E+01 +3.91351E+01 -4.81092E+01 +2.18699E+01 -5.27689E+01 +1.09972E+00 -4.88556E+01 -1.97967E+01
 -3.70255E+01 -3.74288E+01 -1.92180E+01 -4.89440E+01 +1.66287E+00 -5.24894E+01 +2.22215E+01 -4.75099E+01
 +3.91233E+01 -3.48346E+01 +4.96350E+01 -1.65394E+01 +5.20674E+01 +4.39324E+00 +4.60461E+01 +2.45606E+01
 +3.25692E+01 +4.06925E+01 +1.38419E+01 +5.01818E+01 -7.08413E+00 +5.15056E+01 -2.68083E+01 +4.44695E+01
 -4.21334E+01 +3.02363E+01 -5.05842E+01 +1.11330E+01 -5.08068E+01 -9.72850E+00 -4.27857E+01 -2.89593E+01
 -2.78430E+01 -4.34433E+01 -8.42046E+00 -5.08426E+01 +1.23195E+01 -4.99743E+01 +3.10086E+01 -4.10002E+01
 +4.46199E+01 -2.53966E+01 +5.09576E+01 -5.71172E+00 +4.90119E+01 +1.48505E+01 +3.91192E+01 +3.29516E+01
 +2.29044E+01 +4.56612E+01 +3.01426E+00 +5.09305E+01 -1.73150E+01 +4.79235E+01 -3.47840E+01 +3.71487E+01
 -4.65657E+01 +2.03738E+01 -5.07627E+01 +3.35435E-01 -4.67133E+01 -1.97070E+01 -3.50951E+01 -3.65018E+01
 -1.78120E+01 -4.73323E+01 +2.31752E+00 -5.04561E+01 +2.20205E+01 -4.53859E+01 +3.81014E+01 -3.29649E+01
 +4.79602E+01 -1.52266E+01 +5.00129E+01 +4.93752E+00 +4.39462E+01 +2.42500E+01 +3.07647E+01 +3.95795E+01
 +1.26249E+01 +4.84491E+01 -7.51765E+00 +4.94357E+01 -2.63900E+01 +4.23993E+01 -4.09333E+01 +2.85015E+01
 -4.87990E+01 +1.00143E+01 -4.87275E+01 -1.00512E+01 -4.07505E+01 -2.84356E+01 -2.61820E+01 -4.21603E+01
 -7.40212E+00 -4.90103E+01 +1.25315E+01 -4.78915E+01 +3.03820E+01 -3.90054E+01 +4.32583E+01 -2.38132E+01
 +4.90839E+01 -4.79556E+00 +4.69313E+01 +1.49524E+01 +3.71698E+01 +3.22248E+01 +2.14022E+01 +4.42256E+01
 +2.20179E+00 +4.90209E+01 -1.73077E+01 +4.58509E+01 -3.39601E+01 +3.52497E+01 -4.50608E+01 +1.89561E+01
 -4.88229E+01 -3.72123E-01 -4.46543E+01 -1.95915E+01 -3.32512E+01 -3.55839E+01 -1.64820E+01 -4.57630E+01
 +2.91926E+00 -4.84917E+01 +2.17982E+01 -4.33461E+01 +3.70931E+01 -3.11807E+01 +4.63315E+01 -1.39870E+01
 +4.80297E+01 +5.43284E+00 +4.19310E+01 +2.39225E+01 +2.90447E+01 +3.84845E+01 +1.14783E+01 +4.67660E+01
 -7.90625E+00 +4.74393E+01 -2.59594E+01 +4.04141E+01 -3.97555E+01 +2.68496E+01 -4.70668E+01 +8.96291E+00
 -4.67235E+01 -1.03330E+01 -3.88004E+01 -2.79040E+01 -2.46021E+01 -4.09037E+01 -6.44786E+00 -4.72343E+01
 +1.27069E+01 -4.58856E+01 +2.97520E+01 -3.70955E+01 +4.19272E+01 -2.23090E+01 +4.72694E+01 -3.94013E+00
 +4.49290E+01 +1.50219E+01 +3.53050E+01 +3.14992E+01 +1.99772E+01 +4.28245E+01 +1.44658E+00 +4.71734E+01
