 Created: 16-Jan-2021
 $NMID
 ID='D:\BASISSIMULATI'
 FMTDAT='(8E13.5)'
 VOLUME=   1.00000E+00
 TRAMP=   1.00000E+00
 $END
 +4.65149E+01 +7.12155E+00 +3.98330E+01 +2.49643E+01 +2.66105E+01 +3.86436E+01 +9.07174E+00 +4.58999E+01
 -9.84434E+00 +4.55631E+01 -2.69867E+01 +3.77450E+01 -3.95274E+01 +2.38110E+01 -4.54377E+01 +6.13742E+00
 -4.38226E+01 -1.23009E+01 -3.50578E+01 -2.84411E+01 -2.07088E+01 -3.96510E+01 -3.24738E+00 -4.41666E+01
 +1.43811E+01 -4.13742E+01 +2.92634E+01 -3.18922E+01 +3.90089E+01 -1.74410E+01 +4.21407E+01 -5.27896E-01
 +3.83215E+01 +1.59942E+01 +2.83812E+01 +2.94163E+01 +1.41439E+01 +3.76249E+01 -1.90811E+00 +3.94405E+01
 -1.70729E+01 +3.47861E+01 -2.88911E+01 +2.46636E+01 -3.55508E+01 +1.09468E+01 -3.61685E+01 -3.96574E+00
 -3.09013E+01 -1.75752E+01 -2.08780E+01 -2.77070E+01 -7.96688E+00 -3.28632E+01 +5.57185E+00 -3.24439E+01
 +1.74858E+01 -2.68061E+01 +2.59096E+01 -1.71566E+01 +2.96595E+01 -5.30426E+00 +2.83972E+01 +6.67745E+00
 +2.26392E+01 +1.68160E+01 +1.36198E+01 +2.35676E+01 +3.03834E+00 +2.60530E+01 -7.25886E+00 +2.41643E+01
 -1.56019E+01 +1.85331E+01 -2.07698E+01 +1.03718E+01 -2.21672E+01 +1.22543E+00 -1.98802E+01 -7.31754E+00
 -1.46085E+01 -1.39016E+01 -7.49644E+00 -1.76192E+01 +1.02421E-01 -1.81305E+01 +6.87871E+00 -1.56734E+01
 +1.17920E+01 -1.09702E+01 +1.42289E+01 -5.05558E+00 +1.40698E+01 +9.37409E-01 +1.16612E+01 +5.98885E+00
 +7.70378E+00 +9.36402E+00 +3.08735E+00 +1.07161E+01 -1.29468E+00 +1.01063E+01 -4.71233E+00 +7.94516E+00
 -6.71777E+00 +4.87272E+00 -7.19691E+00 +1.60642E+00 -6.34951E+00 -1.21007E+00 -4.60813E+00 -3.12730E+00
 -2.51790E+00 -3.95778E+00 -6.05075E-01 -3.78167E+00 +7.36930E-01 -2.89439E+00 +1.32123E+00 -1.71187E+00
 +1.18789E+00 -6.57270E-01 +5.70183E-01 -5.53518E-02 -1.82257E-01 -5.76526E-02 -7.03868E-01 -6.13775E-01
 -7.12968E-01 -1.49334E+00 -8.79801E-02 -2.35177E+00 +1.09710E+00 -2.82364E+00 +2.58567E+00 -2.62136E+00
 +3.99678E+00 -1.61637E+00 +4.91530E+00 +1.16151E-01 +4.99395E+00 +2.29975E+00 +4.04388E+00 +4.50680E+00
 +2.09344E+00 +6.24621E+00 -5.99123E-01 +7.07032E+00 -3.58326E+00 +6.67835E+00 -6.29783E+00 +4.99376E+00
 -8.18098E+00 +2.19821E+00 -8.78642E+00 -1.28683E+00 -7.88197E+00 -4.86879E+00 -5.50975E+00 -7.89104E+00
 -1.99445E+00 -9.75783E+00 +2.10385E+00 -1.00529E+01 +6.08467E+00 -8.62809E+00 +9.23288E+00 -5.64373E+00
 +1.09517E+01 -1.55164E+00 +1.08778E+01 +2.97743E+00 +8.95556E+00 +7.16959E+00 +5.45705E+00 +1.02856E+01
 +9.40956E-01 +1.17557E+01 -3.84105E+00 +1.12859E+01 -8.07496E+00 +8.91561E+00 -1.10282E+01 +5.01668E+00
 -1.21802E+01 +2.31475E-01 -1.13165E+01 -4.63735E+00 -8.56833E+00 -8.76653E+00 -4.39135E+00 -1.14560E+01
 +5.13209E-01 -1.22508E+01 +5.32046E+00 -1.10203E+01 +9.22501E+00 -7.97896E+00 +1.15798E+01 -3.64789E+00
 +1.20061E+01 +1.23782E+00 +1.04556E+01 +5.85738E+00 +7.21409E+00 +9.44593E+00 +2.84798E+00 +1.14243E+01
 -1.89754E+00 +1.14946E+01 -6.22863E+00 +9.68505E+00 -9.43853E+00 +6.33820E+00 -1.10253E+01 +2.04549E+00
 -1.07713E+01 -2.45933E+00 -8.77194E+00 -6.42795E+00 -5.41056E+00 -9.22403E+00 -1.28445E+00 -1.04267E+01
 +2.90241E+00 -9.89398E+00 +6.46123E+00 -7.77677E+00 +8.83315E+00 -4.48267E+00 +9.67760E+00 -5.97849E-01
 +8.92032E+00 +3.21801E+00 +6.75440E+00 +6.34477E+00 +3.59647E+00 +8.30334E+00 +7.26366E-03 +8.82880E+00
 -3.40819E+00 +7.90429E+00 -6.10296E+00 +5.75176E+00 -7.67574E+00 +2.78329E+00 -7.92962E+00 -4.76800E-01
 -6.89376E+00 -3.48426E+00 -4.80628E+00 -5.76564E+00 -2.06355E+00 -6.99210E+00 +8.53804E-01 -7.02519E+00
 +3.46451E+00 -5.92842E+00 +5.36531E+00 -3.94499E+00 +6.29205E+00 -1.44731E+00 +6.15414E+00 +1.13153E+00
 +5.03856E+00 +3.37182E+00 +3.18456E+00 +4.93446E+00 +9.35342E-01 +5.61059E+00 -1.32400E+00 +5.34698E+00
 -3.23111E+00 +4.24450E+00 -4.50303E+00 +2.53189E+00 -4.97631E+00 +5.20831E-01 -4.62521E+00 -1.44924E+00
 -3.55682E+00 -3.06694E+00 -1.98537E+00 -4.09649E+00 -1.91353E-01 -4.41009E+00 +1.52692E+00 -4.00107E+00
 +2.90137E+00 -2.97720E+00 +3.73424E+00 -1.53657E+00 +3.92458E+00 +6.89537E-02 +3.47806E+00 +1.57621E+00
 +2.49980E+00 +2.75228E+00 +1.17225E+00 +3.42878E+00 -2.77248E-01 +3.52423E+00 -1.61395E+00 +3.05194E+00
 -2.63216E+00 +2.11299E+00 -3.18541E+00 +8.76392E-01 -3.20606E+00 -4.50008E-01 -2.71221E+00 -1.65313E+00
 -1.80133E+00 -2.54748E+00 -6.32253E-01 -3.00253E+00 +6.01378E-01 -2.96072E+00 +1.70200E+00 -2.44389E+00
 +2.49862E+00 -1.54756E+00 +2.87247E+00 -4.24160E-01 +2.77408E+00 +7.41910E-01 +2.22943E+00 +1.76359E+00
 +1.33448E+00 +2.48031E+00 +2.39001E-01 +2.78270E+00 -8.77778E-01 +2.62895E+00 -1.83575E+00 +2.05057E+00
 -2.48251E+00 +1.14663E+00 -2.71734E+00 +6.73064E-02 -2.50689E+00 -1.01049E+00 -1.89013E+00 -1.91176E+00
 -9.71546E-01 -2.49166E+00 +9.61228E-02 -2.65882E+00 +1.13704E+00 -2.38999E+00 +1.98115E+00 -1.73345E+00
 +2.49212E+00 -8.00751E-01 +2.58965E+00 +2.52057E-01 +2.26242E+00 +1.25054E+00 +1.56956E+00 +2.03102E+00
 +6.30162E-01 +2.46782E+00 -3.97124E-01 +2.49394E+00 -1.34119E+00 +2.11178E+00 -2.04746E+00 +1.39189E+00
 -2.40381E+00 +4.60132E-01 -2.35893E+00 -5.24503E-01 -1.93004E+00 -1.39751E+00 -1.19861E+00 -2.01707E+00
 -2.95034E-01 -2.28780E+00 +6.24957E-01 -2.17608E+00 +1.40777E+00 -1.71411E+00 +1.92846E+00 -9.92462E-01
 +2.11143E+00 -1.42464E-01 +1.94187E+00 +6.88114E-01 +1.46597E+00 +1.36151E+00 +7.80215E-01 +1.77371E+00
 +1.21293E-02 +1.87126E+00 -7.03902E-01 +1.65822E+00 -1.25094E+00 +1.19236E+00 -1.54944E+00 +5.71752E-01
 -1.56937E+00 -8.54935E-02 -1.33235E+00 -6.64019E-01 -9.04095E-01 -1.07226E+00 -3.78844E-01 -1.25769E+00
 +1.40621E-01 -1.21356E+00 +5.63324E-01 -9.76371E-01 +8.26696E-01 -6.14925E-01 +9.06302E-01 -2.13721E-01
 +8.17080E-01 +1.45632E-01 +6.06305E-01 +4.01029E-01 +3.40225E-01 +5.21093E-01 +8.75504E-02 +5.08919E-01
 -9.64257E-02 +3.97886E-01 -1.81590E-01 +2.40844E-01 -1.68186E-01 +9.54208E-02 -8.44517E-02 +8.93424E-03
 +2.24914E-02 +6.46226E-03 +1.00200E-01 +8.47998E-02 +1.05627E-01 +2.13672E-01 +1.74348E-02 +3.43877E-01
 -1.57072E-01 +4.20433E-01 -3.82178E-01 +3.97597E-01 -6.01246E-01 +2.52177E-01 -7.49903E-01 -8.14524E-03
 -7.71961E-01 -3.43662E-01 -6.34421E-01 -6.89258E-01 -3.37973E-01 -9.67605E-01 +7.96798E-02 -1.10621E+00
 +5.48821E-01 -1.05458E+00 +9.80359E-01 -7.97678E-01 +1.28367E+00 -3.62300E-01 +1.38599E+00 +1.85217E-01
 +1.24910E+00 +7.50067E-01 +8.79675E-01 +1.22675E+00 +3.30628E-01 +1.52007E+00 -3.07077E-01 +1.56503E+00
 -9.20914E-01 +1.34128E+00 -1.39834E+00 +8.79041E-01 -1.64908E+00 +2.54783E-01 -1.62349E+00 -4.22561E-01
 -1.32317E+00 -1.03232E+00 -8.01293E-01 -1.46558E+00 -1.52618E-01 -1.64658E+00 +5.05114E-01 -1.54758E+00
 +1.05445E+00 -1.19404E+00 +1.40145E+00 -6.58900E-01 +1.49389E+00 -4.71973E-02 +1.33077E+00 +5.25856E-01
 +9.60846E-01 +9.58587E-01 +4.70828E-01 +1.18334E+00 -3.44581E-02 +1.17925E+00 -4.55362E-01 +9.74585E-01
 -7.19080E-01 +6.38137E-01 -7.94814E-01 +2.61608E-01 -6.98936E-01 -6.29676E-02 -4.88938E-01 -2.65596E-01
 -2.47447E-01 -3.15209E-01 -5.99707E-02 -2.26959E-01 +8.42603E-03 -5.79160E-02 -6.81687E-02 +1.08174E-01
 -2.67212E-01 +1.83774E-01 -5.20633E-01 +1.02839E-01 -7.30049E-01 -1.57652E-01 -7.91393E-01 -5.65548E-01
 -6.23642E-01 -1.03455E+00 -1.94959E-01 -1.43938E+00 +4.60407E-01 -1.64280E+00 +1.23949E+00 -1.52923E+00
 +1.98449E+00 -1.03762E+00 +2.51170E+00 -1.85896E-01 +2.65066E+00 +9.19843E-01 +2.28563E+00 +2.09506E+00
 +1.39050E+00 +3.10562E+00 +4.84857E-02 +3.71153E+00 -1.54929E+00 +3.71774E+00 -3.12860E+00 +3.02186E+00
 -4.37754E+00 +1.64839E+00 -5.00529E+00 -2.39309E-01 -4.80361E+00 -2.35418E+00 -3.69850E+00 -4.32739E+00
 -1.78079E+00 -5.77136E+00 +6.92832E-01 -6.35322E+00 +3.33125E+00 -5.86519E+00 +5.66971E+00 -4.27756E+00
 +7.25070E+00 -1.76236E+00 +7.71105E+00 +1.31950E+00 +6.85882E+00 +4.46814E+00 +4.72447E+00 +7.12538E+00
 +1.57451E+00 +8.77310E+00 -2.11796E+00 +9.03201E+00 -5.74345E+00 +7.74235E+00 -8.65677E+00 +5.00997E+00
 -1.02916E+01 +1.20675E+00 -1.02688E+01 -3.07768E+00 -8.47723E+00 -7.12733E+00 -5.11173E+00 -1.02202E+01
 -6.57457E-01 -1.17570E+01 +4.17899E+00 -1.13759E+01 +8.58239E+00 -9.03042E+00 +1.17675E+01 -5.01570E+00
 +1.31194E+01 +6.55737E-02 +1.23114E+01 +5.39360E+00 +9.37605E+00 +1.00651E+01 +4.71701E+00 +1.32481E+01
 -9.45202E-01 +1.43311E+01 -6.68556E+00 +1.30393E+01 -1.15276E+01 +9.49686E+00 -1.46115E+01 +4.22050E+00
 -1.53482E+01 -1.95541E+00 -1.35312E+01 -8.01265E+00 -9.38514E+00 -1.29195E+01 -3.54068E+00 -1.58088E+01
 +3.06227E+00 -1.61331E+01 +9.32813E+00 -1.37675E+01 +1.41903E+01 -9.04331E+00 +1.67957E+01 -2.70136E+00
 +1.66557E+01 +4.22530E+00 +1.37388E+01 +1.05828E+01 +8.48396E+00 +1.52918E+01 +1.73465E+00 +1.75339E+01
 -5.39925E+00 +1.68959E+01 -1.17271E+01 +1.34461E+01 -1.61799E+01 +7.72941E+00 -1.79937E+01 +6.79571E-01
 -1.68435E+01 -6.53616E+00 -1.29012E+01 -1.27138E+01 -6.81079E+00 -1.68171E+01 +4.19664E-01 -1.81549E+01
 +7.58754E+00 -1.64996E+01 +1.34996E+01 -1.21262E+01 +1.71743E+01 -5.76662E+00 +1.80081E+01 +1.51573E+00
 +1.58763E+01 +8.50672E+00 +1.11523E+01 +1.40479E+01 +4.64102E+00 +1.72321E+01 -2.56043E+00 +1.75549E+01
 -9.25108E+00 +1.49963E+01 -1.43301E+01 +1.00185E+01 -1.69817E+01 +3.48169E+00 -1.68085E+01 -3.50695E+00
 -1.38919E+01 -9.78402E+00 -8.76997E+00 -1.43274E+01 -2.33762E+00 -1.64258E+01 +4.31206E+00 -1.57924E+01
 +1.00767E+01 -1.26031E+01 +1.40310E+01 -7.45553E+00 +1.55778E+01 -1.25684E+00 +1.45398E+01 +4.93813E+00
 +1.11763E+01 +1.01095E+01 +6.12573E+00 +1.34432E+01 +2.84222E-01 +1.44615E+01 -5.35478E+00 +1.30916E+01
 -9.87238E+00 +9.66187E+00 -1.25766E+01 +4.83046E+00 -1.31100E+01 -5.40480E-01 -1.14949E+01 -5.54012E+00
 -8.11174E+00 -9.36579E+00 -3.61677E+00 -1.14540E+01 +1.18426E+00 -1.15639E+01 +5.48159E+00 -9.80055E+00
 +8.60002E+00 -6.57747E+00 +1.01065E+01 -2.52694E+00 +9.86939E+00 +1.62212E+00 +8.06118E+00 +5.17621E+00
 +5.10790E+00 +7.59467E+00 +1.59687E+00 +8.57265E+00 -1.83785E+00 +8.07658E+00 -4.63045E+00 +6.32880E+00
 -6.37757E+00 +3.74734E+00 -6.89622E+00 +8.54863E-01 -6.23693E+00 -1.82437E+00 -4.65288E+00 -3.85960E+00
 -2.53399E+00 -4.98332E+00 -3.20803E-01 -5.12449E+00 +1.58361E+00 -4.40139E+00 +2.88679E+00 -3.07853E+00
