 Created: 16-Jan-2021
 $NMID
 ID='D:\BASISSIMULATI'
 FMTDAT='(8E13.5)'
 VOLUME=   1.00000E+00
 TRAMP=   1.00000E+00
 $END
 +4.95801E+01 +7.43699E+00 +2.81627E+01 +3.68312E+01 -6.12779E+00 +3.60562E+01 -2.19771E+01 +9.23952E+00
 -7.00664E+00 -1.49943E+01 +2.06420E+01 -1.17259E+01 +3.05152E+01 +1.59994E+01 +9.86168E+00 +4.03991E+01
 -2.38445E+01 +3.62811E+01 -3.99112E+01 +5.69267E+00 -2.41943E+01 -2.40520E+01 +7.38899E+00 -2.68284E+01
 +2.45664E+01 -2.74927E+00 +1.21054E+01 +2.24748E+01 -1.57643E+01 +2.29590E+01 -2.97299E+01 -2.10250E+00
 -1.42926E+01 -2.78842E+01 +1.70546E+01 -2.83583E+01 +3.49880E+01 -1.72201E+00 +2.28053E+01 +2.78884E+01
 -7.59390E+00 +3.38314E+01 -2.75643E+01 +1.25548E+01 -1.95936E+01 -1.34810E+01 +6.01771E+00 -1.81022E+01
 +2.17104E+01 +3.00469E+00 +9.87402E+00 +2.83107E+01 -1.99148E+01 +3.16690E+01 -4.02572E+01 +7.85343E+00
 -3.25224E+01 -2.24296E+01 -4.68244E+00 -3.26864E+01 +1.67845E+01 -1.61154E+01 +1.27393E+01 +8.32522E+00
 -1.03049E+01 +1.48676E+01 -2.70449E+01 -3.82030E+00 -1.84183E+01 -2.96723E+01 +9.73362E+00 -3.70603E+01
 +3.24046E+01 -1.78041E+01 +2.96943E+01 +1.09936E+01 +5.85379E+00 +2.36591E+01 -1.52615E+01 +1.06885E+01
 -1.35801E+01 -1.25431E+01 +7.88669E+00 -2.12821E+01 +2.64632E+01 -5.70889E+00 +2.22748E+01 +1.96435E+01
 -2.31069E+00 +3.02736E+01 -2.50767E+01 +1.56094E+01 -2.55554E+01 -1.08767E+01 -4.63841E+00 -2.49259E+01
 +1.67384E+01 -1.49346E+01 +1.82147E+01 +7.25527E+00 -3.49866E-01 +1.84312E+01 -1.91980E+01 +6.85617E+00
 -1.83022E+01 -1.64264E+01 +3.04594E+00 -2.85887E+01 +2.56626E+01 -1.72982E+01 +2.91634E+01 +7.47238E+00
 +1.15173E+01 +2.33548E+01 -9.44844E+00 +1.72525E+01 -1.37055E+01 -2.38496E+00 +1.59112E+00 -1.43531E+01
 +1.97662E+01 -5.63098E+00 +2.12614E+01 +1.60306E+01 +2.77948E+00 +2.98978E+01 -1.96390E+01 +2.25032E+01
 -2.62864E+01 +5.40075E-01 -1.27074E+01 -1.59153E+01 +6.46072E+00 -1.29162E+01 +1.21110E+01 +4.20534E+00
 -7.67884E-01 +1.66016E+01 -1.86013E+01 +1.05939E+01 -2.28405E+01 -9.06515E+00 -8.12445E+00 -2.40587E+01
 +1.26612E+01 -2.04122E+01 +2.10380E+01 -1.86705E+00 +1.07045E+01 +1.40838E+01 -6.82615E+00 +1.32798E+01
 -1.38596E+01 -1.68408E+00 -3.77980E+00 -1.45401E+01 +1.28553E+01 -1.15440E+01 +1.89833E+01 +5.17752E+00
 +7.75813E+00 +1.99456E+01 -1.09670E+01 +1.88962E+01 -2.03968E+01 +3.25525E+00 -1.29847E+01 -1.22161E+01
 +2.69876E+00 -1.37196E+01 +1.07699E+01 -1.55439E+00 +3.58792E+00 +1.07131E+01 -1.11123E+01 +9.83954E+00
 -1.81418E+01 -4.20841E+00 -9.77139E+00 -1.84734E+01 +6.93245E+00 -1.97553E+01 +1.71987E+01 -7.25746E+00
 +1.28291E+01 +7.02774E+00 -2.74361E-01 +1.01911E+01 -8.34678E+00 +7.43248E-01 -3.31577E+00 -1.04487E+01
 +9.59802E+00 -1.11444E+01 +1.73477E+01 +3.29710E-01 +1.19022E+01 +1.37025E+01 -2.12958E+00 +1.69201E+01
 -1.22444E+01 +7.69983E+00 -1.01812E+01 -4.65905E+00 +4.51517E-01 -8.59366E+00 +8.19514E+00 -1.37957E+00
 +5.10541E+00 +8.69148E+00 -5.72531E+00 +1.07951E+01 -1.35535E+01 +2.15825E+00 -1.06004E+01 -9.49536E+00
 +5.69243E-01 -1.36644E+01 +9.84535E+00 -7.15071E+00 +9.45002E+00 +3.24138E+00 +1.14833E+00 +7.64851E+00
 -5.97551E+00 +2.66744E+00 -4.61239E+00 -5.76389E+00 +3.82609E+00 -8.56206E+00 +1.09503E+01 -2.41091E+00
 +9.74018E+00 +7.26348E+00 +1.19878E+00 +1.18121E+01 -6.95585E+00 +7.68732E+00 -7.90528E+00 -5.06269E-01
 -2.06484E+00 -4.85517E+00 +3.81609E+00 -1.82499E+00 +3.51156E+00 +4.68578E+00 -2.74704E+00 +7.55680E+00
 -8.85476E+00 +3.47298E+00 -8.98004E+00 -4.09486E+00 -3.08081E+00 -8.53881E+00 +3.40813E+00 -6.50095E+00
 +5.02974E+00 -7.60823E-01 +1.37710E+00 +2.86340E+00 -2.98480E+00 +1.22785E+00 -3.27763E+00 -3.41308E+00
 +9.25041E-01 -6.01053E+00 +5.62899E+00 -3.75363E+00 +6.53500E+00 +1.43226E+00 +3.08904E+00 +5.06175E+00
 -1.34474E+00 +4.46587E+00 -2.98117E+00 +1.04336E+00 -1.12724E+00 -1.51170E+00 +1.58485E+00 -9.11573E-01
 +2.09081E+00 +1.78401E+00 -1.73748E-01 +3.59786E+00 -3.05874E+00 +2.67224E+00 -4.04597E+00 -1.48100E-01
 -2.60017E+00 -2.46763E+00 -3.24103E-01 -2.74024E+00 +8.72184E-01 -1.47273E+00 +5.26266E-01 -3.17466E-01
 -3.28530E-01 -3.11612E-01 -5.08100E-01 -1.10485E+00 +1.88313E-01 -1.68607E+00 +1.10421E+00 -1.52824E+00
 +1.64363E+00 -8.94635E-01 +1.79136E+00 -2.33042E-01 +1.77359E+00 +3.84520E-01 +1.52938E+00 +1.08247E+00
 +8.10140E-01 +1.65476E+00 -2.21078E-01 +1.57539E+00 -8.08283E-01 +7.00790E-01 -3.27824E-01 -2.20428E-01
 +7.98242E-01 -9.52639E-02 +1.21103E+00 +1.26568E+00 -4.66447E-02 +2.60108E+00 -2.26628E+00 +2.24904E+00
 -3.42805E+00 -4.35309E-02 -2.14709E+00 -2.48868E+00 +6.69917E-01 -2.78035E+00 +2.37416E+00 -4.86359E-01
 +1.11783E+00 +2.17856E+00 -2.05705E+00 +2.30854E+00 -3.90981E+00 -7.07674E-01 -2.12402E+00 -4.22365E+00
 +2.13768E+00 -4.68537E+00 +5.01547E+00 -1.22124E+00 +3.63693E+00 +3.15400E+00 -8.28480E-01 +4.23984E+00
 -3.98735E+00 +8.48021E-01 -2.44287E+00 -3.70681E+00 +2.62614E+00 -4.61522E+00 +6.27161E+00 -3.80594E-01
 +4.51240E+00 +5.35942E+00 -1.53145E+00 +7.10654E+00 -6.37699E+00 +2.92276E+00 -5.39875E+00 -3.36648E+00
 +4.59646E-01 -5.65576E+00 +5.30108E+00 -1.57964E+00 +3.94224E+00 +4.86914E+00 -2.78712E+00 +6.99071E+00
 -8.49653E+00 +1.99119E+00 -7.32644E+00 -5.94514E+00 +1.37668E-01 -9.42887E+00 +7.09355E+00 -5.06728E+00
 +6.99335E+00 +2.96185E+00 +8.04052E-02 +6.74058E+00 -6.56493E+00 +2.36960E+00 -5.83035E+00 -5.93767E+00
 +2.27186E+00 -9.70424E+00 +1.02523E+01 -4.49442E+00 +1.02593E+01 +5.43774E+00 +1.87871E+00 +1.09677E+01
 -7.14407E+00 +6.93686E+00 -8.27083E+00 -2.60295E+00 -6.04461E-01 -8.10859E+00 +7.97636E+00 -3.86634E+00
 +8.38683E+00 +6.16493E+00 -6.10469E-01 +1.19409E+01 -1.08344E+01 +7.12266E+00 -1.24328E+01 -4.45152E+00
 -3.57416E+00 -1.21698E+01 +7.48069E+00 -8.88319E+00 +1.02346E+01 +1.96195E+00 +2.25828E+00 +9.47125E+00
 -8.20657E+00 +5.92370E+00 -1.01621E+01 -5.44826E+00 -7.47166E-01 -1.33278E+01 +1.16130E+01 -9.30468E+00
 +1.51553E+01 +3.67127E+00 +6.27326E+00 +1.38263E+01 -6.72224E+00 +1.18881E+01 -1.15071E+01 +2.34395E-01
 -3.79738E+00 -9.24105E+00 +8.26499E+00 -6.71638E+00 +1.19239E+01 +5.74527E+00 +2.39093E+00 +1.59145E+01
 -1.21352E+01 +1.32338E+01 -1.81644E+01 -6.82479E-01 -1.00331E+01 -1.32951E+01 +4.38240E+00 -1.31814E+01
 +1.11597E+01 -1.23003E+00 +3.92293E+00 +1.00712E+01 -9.75154E+00 +8.80084E+00 -1.55869E+01 -4.55062E+00
 -6.63962E+00 -1.72586E+01 +9.60034E+00 -1.66435E+01 +1.81967E+01 -2.58709E+00 +1.12420E+01 +1.20528E+01
 -4.29282E+00 +1.37775E+01 -1.31898E+01 +1.62650E+00 -6.82523E+00 -1.17608E+01 +8.25253E+00 -1.24556E+01
 +1.65680E+01 +9.75472E-01 +8.89179E+00 +1.57743E+01 -8.45631E+00 +1.72709E+01 -1.94443E+01 +3.29103E+00
 -1.38264E+01 -1.34533E+01 +2.77951E+00 -1.75462E+01 +1.42297E+01 -5.87610E+00 +9.58924E+00 +9.24063E+00
 -6.05690E+00 +1.20632E+01 -1.64241E+01 -1.03314E+00 -9.96709E+00 -1.77235E+01 +8.58166E+00 -2.15581E+01
 +2.24945E+01 -8.05314E+00 +1.91797E+01 +1.07085E+01 +2.48468E+00 +1.76476E+01 -1.09564E+01 +7.28760E+00
 -7.94565E+00 -8.85104E+00 +8.26781E+00 -1.34919E+01 +2.10109E+01 -6.35325E-01 +1.64734E+01 +1.82898E+01
 -2.58183E+00 +2.53439E+01 -1.91917E+01 +1.35601E+01 -1.85240E+01 -6.09017E+00 -2.31342E+00 -1.52081E+01
 +1.27738E+01 -5.84244E+00 +1.14080E+01 +1.17231E+01 -5.31730E+00 +1.90085E+01 -2.07996E+01 +7.52725E+00
 -1.91133E+01 -1.26503E+01 -7.38864E-01 -2.24753E+01 +1.76099E+01 -1.24403E+01 +1.90618E+01 +8.02654E+00
 +2.97497E+00 +1.95913E+01 -1.44162E+01 +1.17912E+01 -1.58566E+01 -6.75238E+00 -2.44743E-02 -1.67626E+01
 +1.70345E+01 -7.26408E+00 +1.75337E+01 +1.34394E+01 -5.41105E-01 +2.56096E+01 -2.11893E+01 +1.72265E+01
 -2.57598E+01 -4.21630E+00 -1.10266E+01 -1.88831E+01 +7.69361E+00 -1.38569E+01 +1.15323E+01 +4.28051E+00
 -3.39665E+00 +1.59092E+01 -2.20550E+01 +7.66610E+00 -2.50998E+01 -1.42494E+01 -7.87391E+00 -2.98490E+01
 +1.48073E+01 -2.47018E+01 +2.28642E+01 -4.01322E+00 +1.03870E+01 +1.23703E+01 -8.67843E+00 +9.25656E+00
 -1.42201E+01 -9.09300E+00 +2.74958E-01 -2.31613E+01 +2.12032E+01 -1.73563E+01 +2.80322E+01 +4.53094E+00
 +1.33974E+01 +2.27560E+01 -9.52411E+00 +2.07013E+01 -1.96530E+01 +1.03529E+00 -8.41033E+00 -1.68578E+01
 +1.20169E+01 -1.57484E+01 +2.06672E+01 +2.64942E+00 +8.39716E+00 +1.93923E+01 -1.30429E+01 +1.69142E+01
 -2.23812E+01 -3.61640E+00 -9.61284E+00 -2.31851E+01 +1.40877E+01 -2.32886E+01 +2.70703E+01 -3.89834E+00
 +1.81550E+01 +1.65183E+01 -2.60026E+00 +1.89905E+01 -1.38473E+01 +2.52340E+00 -3.93162E+00 -1.49923E+01
 +1.75784E+01 -1.43681E+01 +2.91239E+01 +5.94536E+00 +1.81931E+01 +2.80942E+01 -6.36059E+00 +3.20200E+01
 -2.27838E+01 +1.48844E+01 -1.74609E+01 -6.23288E+00 +1.97904E+00 -1.10227E+01 +1.42844E+01 +4.24612E+00
 +5.50406E+00 +2.31400E+01 -1.72204E+01 +2.52161E+01 -3.24914E+01 +6.16074E+00 -2.54850E+01 -1.77696E+01
 -2.45764E+00 -2.53831E+01 +1.52448E+01 -1.10446E+01 +1.18590E+01 +9.95716E+00 -7.59348E+00 +1.64041E+01
 -2.23975E+01 +1.87588E+00 -1.65504E+01 -1.90216E+01 +5.44932E+00 -2.50073E+01 +2.28594E+01 -9.04472E+00
 +1.88627E+01 +1.46012E+01 -3.02470E+00 +2.40797E+01 -2.23173E+01 +1.10824E+01 -2.14183E+01 -1.12106E+01
 -2.60847E+00 -2.10978E+01 +1.43886E+01 -9.56591E+00 +1.18566E+01 +1.09577E+01 -8.45386E+00 +1.88379E+01
 -2.69068E+01 +4.49094E+00 -2.50595E+01 -2.00871E+01 -3.62639E+00 -3.28263E+01 +1.81880E+01 -2.29017E+01
 +2.13163E+01 -1.08524E+00 +5.23988E+00 +1.09258E+01 -1.17489E+01 +1.75204E+00 -1.06373E+01 -1.85908E+01
 +9.55744E+00 -2.85631E+01 +3.06806E+01 -1.62529E+01 +3.30398E+01 +8.84973E+00 +1.45303E+01 +2.49286E+01
 -7.35205E+00 +1.88989E+01 -1.25294E+01 -1.08200E+00 +2.23188E+00 -1.37983E+01 +2.04085E+01 -5.80431E+00
 +2.20933E+01 +1.54448E+01 +3.61921E+00 +2.89374E+01 -1.87178E+01 +2.07035E+01 -2.44356E+01 -2.45437E+00
 -8.72552E+00 -1.94652E+01 +1.29541E+01 -1.53473E+01 +1.99658E+01 +4.43610E+00 +6.50072E+00 +1.95591E+01
 -1.29862E+01 +1.48198E+01 -1.81314E+01 -5.00571E+00 -2.72399E+00 -1.98931E+01 +1.91068E+01 -1.41967E+01
 +2.65670E+01 +8.00768E+00 +1.23525E+01 +2.67975E+01 -1.03542E+01 +2.56559E+01 -2.07883E+01 +7.31140E+00
 -1.07518E+01 -9.21437E+00 +7.63063E+00 -7.35905E+00 +1.40191E+01 +1.07761E+01 -8.01910E-02 +2.65397E+01
