 Created: 16-Jan-2021
 $NMID
 ID='D:\BASISSIMULATI'
 FMTDAT='(8E13.5)'
 VOLUME=   1.00000E+00
 TRAMP=   1.00000E+00
 $END
 +6.78802E+01 +1.13488E+01 +5.41965E+01 -2.20016E+01 +1.32065E+01 -3.46152E+01 -2.89535E+01 -1.56354E+01
 -4.64846E+01 +2.28244E+01 -3.13900E+01 +5.44599E+01 +1.97788E+00 +5.73879E+01 +2.80001E+01 +2.91952E+01
 +2.80808E+01 -1.19867E+01 +3.04495E+00 -4.05211E+01 -2.86210E+01 -4.06777E+01 -4.45657E+01 -1.62120E+01
 -3.40623E+01 +1.38388E+01 -4.46174E+00 +2.91539E+01 +2.50095E+01 +2.15766E+01 +3.67531E+01 -9.50577E-01
 +2.58482E+01 -2.15313E+01 +1.64573E+00 -2.64629E+01 -1.99231E+01 -1.37318E+01 -2.70499E+01 +7.18136E+00
 -1.84768E+01 +2.27587E+01 -2.34001E+00 +2.42479E+01 +1.04293E+01 +1.20892E+01 +1.30155E+01 -5.87681E+00
 +5.75703E+00 -2.00297E+01 -5.50571E+00 -2.43105E+01 -1.36254E+01 -1.84560E+01 -1.39778E+01 -6.88146E+00
 -6.21326E+00 +4.22084E+00 +6.14555E+00 +9.80631E+00 +1.74889E+01 +7.93235E+00 +2.25209E+01 +4.18678E-01
 +1.86409E+01 -7.93572E+00 +7.47274E+00 -1.15783E+01 -5.45459E+00 -7.23335E+00 -1.32969E+01 +3.78216E+00
 -1.17816E+01 +1.56678E+01 -2.11833E+00 +2.12203E+01 +9.26616E+00 +1.63793E+01 +1.45250E+01 +3.29583E+00
 +9.54480E+00 -1.04708E+01 -3.02507E+00 -1.65393E+01 -1.52011E+01 -1.12173E+01 -1.88723E+01 +1.86041E+00
 -1.13354E+01 +1.39739E+01 +2.70582E+00 +1.70801E+01 +1.41745E+01 +9.18848E+00 +1.56661E+01 -4.35711E+00
 +6.36006E+00 -1.45680E+01 -7.54370E+00 -1.48904E+01 -1.70724E+01 -5.49817E+00 -1.64163E+01 +7.04092E+00
 -6.53344E+00 +1.43158E+01 +5.83793E+00 +1.16229E+01 +1.28422E+01 +8.18493E-01 +1.05778E+01 -1.12046E+01
 +1.29770E+00 -1.71327E+01 -8.42972E+00 -1.37822E+01 -1.21116E+01 -3.75661E+00 -7.34700E+00 +6.55689E+00
 +2.94033E+00 +1.11111E+01 +1.25503E+01 +7.79506E+00 +1.58617E+01 -5.66981E-01 +1.11205E+01 -8.18958E+00
 +1.31344E+00 -9.93383E+00 -7.74105E+00 -4.39563E+00 -1.08932E+01 +5.27553E+00 -6.71734E+00 +1.32635E+01
 +1.65141E+00 +1.45906E+01 +8.43586E+00 +8.20262E+00 +8.82615E+00 -2.24934E+00 +2.12297E+00 -1.05340E+01
 -7.61335E+00 -1.17068E+01 -1.40020E+01 -5.33948E+00 -1.24801E+01 +4.05791E+00 -3.48258E+00 +9.89625E+00
 +7.57175E+00 +7.92371E+00 +1.37016E+01 -7.43837E-01 +1.10371E+01 -1.01759E+01 +1.55673E+00 -1.35847E+01
 -8.13493E+00 -8.07594E+00 -1.13057E+01 +3.14170E+00 -5.80862E+00 +1.27715E+01 +4.33549E+00 +1.43992E+01
 +1.17056E+01 +6.97376E+00 +1.07216E+01 -4.40160E+00 +1.65833E+00 -1.19989E+01 -9.45436E+00 -1.08577E+01
 -1.50153E+01 -2.22110E+00 -1.11618E+01 +7.42134E+00 -4.42458E-01 +1.09804E+01 +1.00121E+01 +5.77922E+00
 +1.34723E+01 -4.61260E+00 +8.19859E+00 -1.29508E+01 -1.54951E+00 -1.33936E+01 -8.66646E+00 -5.48339E+00
 -8.18587E+00 +5.67913E+00 -5.99193E-01 +1.30390E+01 +8.67920E+00 +1.23497E+01 +1.31462E+01 +4.82616E+00
 +9.59387E+00 -3.96567E+00 +9.93469E-02 -8.01874E+00 -9.53931E+00 -4.84645E+00 -1.36760E+01 +3.08279E+00
 -1.03601E+01 +1.01868E+01 -2.33292E+00 +1.14905E+01 +4.96322E+00 +5.76458E+00 +6.92476E+00 -3.82082E+00
 +2.61196E+00 -1.17706E+01 -4.80635E+00 -1.36613E+01 -1.01348E+01 -8.76870E+00 -9.42104E+00 -4.00574E-01
 -2.43657E+00 +6.19426E+00 +7.10152E+00 +7.06363E+00 +1.37169E+01 +1.99855E+00 +1.34964E+01 -5.30557E+00
 +6.55630E+00 -9.54035E+00 -2.91551E+00 -7.19859E+00 -9.18744E+00 +1.00414E+00 -8.60483E+00 +1.03305E+01
 -2.00788E+00 +1.48894E+01 +5.72206E+00 +1.14528E+01 +8.85067E+00 +1.73036E+00 +4.70555E+00 -8.52754E+00
 -4.32662E+00 -1.31708E+01 -1.22040E+01 -9.69095E+00 -1.32325E+01 -9.12539E-01 -6.00549E+00 +6.90854E+00
 +5.45785E+00 +8.36245E+00 +1.42528E+01 +2.61878E+00 +1.51349E+01 -5.99156E+00 +7.96735E+00 -1.09838E+01
 -2.29584E+00 -8.23863E+00 -9.04809E+00 +1.10717E+00 -8.47522E+00 +1.13880E+01 -1.94850E+00 +1.62032E+01
 +5.18834E+00 +1.26262E+01 +7.45675E+00 +2.98098E+00 +2.97914E+00 -6.88605E+00 -5.39241E+00 -1.14938E+01
 -1.21437E+01 -9.08609E+00 -1.27830E+01 -2.34054E+00 -6.63738E+00 +3.77341E+00 +2.93019E+00 +5.33323E+00
 +1.07612E+01 +1.78573E+00 +1.29820E+01 -4.04316E+00 +9.02782E+00 -7.96581E+00 +1.61095E+00 -7.04691E+00
 -5.06411E+00 -1.27413E+00 -7.66640E+00 +6.50038E+00 -5.42123E+00 +1.21393E+01 -3.57535E-01 +1.24236E+01
 +3.91127E+00 +6.79534E+00 +4.26241E+00 -2.20791E+00 -2.58143E-02 -1.01248E+01 -6.58964E+00 -1.29051E+01
 -1.11032E+01 -9.25634E+00 -9.82922E+00 -1.60577E+00 -2.20762E+00 +5.15227E+00 +8.24978E+00 +6.64962E+00
 +1.56791E+01 +2.01300E+00 +1.54417E+01 -5.26167E+00 +7.32861E+00 -9.43023E+00 -3.92079E+00 -6.46490E+00
 -1.14650E+01 +2.80545E+00 -1.08764E+01 +1.27676E+01 -3.23344E+00 +1.65805E+01 +5.53387E+00 +1.09309E+01
 +8.78628E+00 -1.37893E+00 +3.96437E+00 -1.30282E+01 -5.44371E+00 -1.70194E+01 -1.22895E+01 -1.14098E+01
 -1.08807E+01 -5.47987E-01 -1.15235E+00 +8.09257E+00 +1.11441E+01 +9.19644E+00 +1.83766E+01 +3.19358E+00
 +1.62363E+01 -4.37288E+00 +6.48809E+00 -7.09592E+00 -4.57141E+00 -2.36537E+00 -1.06264E+01 +6.91988E+00
 -9.46143E+00 +1.46322E+01 -3.85629E+00 +1.57879E+01 +1.02486E+00 +9.76430E+00 +1.50388E+00 +2.48137E-01
 -2.35140E+00 -7.64002E+00 -7.40081E+00 -1.06666E+01 -1.00570E+01 -8.93749E+00 -8.65961E+00 -4.91821E+00
 -4.03388E+00 -1.30345E+00 +1.64010E+00 +4.83881E-01 +6.31152E+00 +3.84065E-01 +8.74100E+00 -1.02715E+00
 +8.35404E+00 -3.02625E+00 +5.07799E+00 -4.63178E+00 -2.92623E-01 -4.51283E+00 -5.65362E+00 -1.65759E+00
 -8.07557E+00 +3.38986E+00 -5.55134E+00 +7.94832E+00 +1.06772E+00 +8.40692E+00 +7.78243E+00 +2.90858E+00
 +9.72809E+00 -6.44781E+00 +4.82871E+00 -1.40604E+01 -3.96239E+00 -1.43161E+01 -1.00598E+01 -5.91597E+00
 -7.85733E+00 +6.37271E+00 +2.65566E+00 +1.44386E+01 +1.50185E+01 +1.25479E+01 +2.04043E+01 +1.93372E+00
 +1.40812E+01 -9.50070E+00 -5.86416E-01 -1.26506E+01 -1.39644E+01 -4.06987E+00 -1.68901E+01 +1.09833E+01
 -7.50738E+00 +2.19464E+01 +7.03130E+00 +2.05934E+01 +1.55672E+01 +7.30138E+00 +1.11354E+01 -8.89587E+00
 -3.73524E+00 -1.67463E+01 -1.87063E+01 -1.10366E+01 -2.31745E+01 +3.51282E+00 -1.40857E+01 +1.57032E+01
 +1.83834E+00 +1.61306E+01 +1.31261E+01 +4.09419E+00 +1.20360E+01 -1.20025E+01 +1.27605E-01 -2.09728E+01
 -1.31634E+01 -1.70644E+01 -1.77104E+01 -3.93388E+00 -1.01331E+01 +8.42398E+00 +4.02890E+00 +1.12459E+01
 +1.47834E+01 +3.27333E+00 +1.51668E+01 -8.83022E+00 +6.05940E+00 -1.58844E+01 -5.03511E+00 -1.30572E+01
 -9.92397E+00 -3.02688E+00 -5.64917E+00 +6.60738E+00 +3.94085E+00 +9.28152E+00 +1.17141E+01 +4.10525E+00
 +1.27646E+01 -4.09995E+00 +7.63669E+00 -8.90745E+00 +1.15501E+00 -7.05023E+00 -1.72285E+00 -2.68899E-01
 +4.41732E-01 +6.71385E+00 +5.05967E+00 +1.00241E+01 +8.05436E+00 +9.14716E+00 +7.05761E+00 +6.47748E+00
 +2.74902E+00 +4.80669E+00 -2.31295E+00 +5.09351E+00 -5.94077E+00 +6.20885E+00 -7.64073E+00 +6.43260E+00
 -8.17680E+00 +5.06623E+00 -8.22441E+00 +2.74084E+00 -7.61592E+00 +4.34104E-01 -5.84805E+00 -1.57636E+00
 -3.13524E+00 -3.69864E+00 -7.24329E-01 -6.04339E+00 +3.83889E-02 -7.64847E+00 -9.44631E-01 -6.95433E+00
 -2.16489E+00 -3.31843E+00 -1.72900E+00 +1.82395E+00 +7.70245E-01 +5.46382E+00 +3.46149E+00 +5.10337E+00
 +3.45086E+00 +8.19556E-01 -6.75939E-01 -4.52468E+00 -7.16633E+00 -7.34826E+00 -1.18452E+01 -6.18699E+00
 -1.09940E+01 -2.97689E+00 -4.22463E+00 -1.58182E+00 +4.97695E+00 -4.58239E+00 +1.16283E+01 -1.08597E+01
 +1.28215E+01 -1.60125E+01 +9.74198E+00 -1.54562E+01 +6.54729E+00 -7.89714E+00 +6.96160E+00 +3.49733E+00
 +1.12392E+01 +1.31749E+01 +1.58577E+01 +1.69719E+01 +1.61672E+01 +1.47653E+01 +9.94208E+00 +1.01054E+01
 -8.53758E-01 +7.26785E+00 -1.13404E+01 +8.06641E+00 -1.69653E+01 +1.07832E+01 -1.62827E+01 +1.18151E+01
 -1.13842E+01 +8.57208E+00 -5.98687E+00 +1.39484E+00 -2.84442E+00 -6.76166E+00 -2.35062E+00 -1.23539E+01
 -3.01072E+00 -1.33385E+01 -2.99140E+00 -9.96355E+00 -1.40614E+00 -4.12114E+00 +1.40918E+00 +1.86929E+00
 +4.38113E+00 +6.13335E+00 +6.24997E+00 +7.55456E+00 +5.85834E+00 +5.90266E+00 +2.43701E+00 +2.04169E+00
 -3.79932E+00 -2.08207E+00 -1.10263E+01 -4.20361E+00 -1.59844E+01 -3.21544E+00 -1.54940E+01 -3.79157E-01
 -8.70155E+00 +1.00679E+00 +1.60758E+00 -2.17962E+00 +1.00989E+01 -1.00952E+01 +1.22071E+01 -1.88175E+01
 +7.54202E+00 -2.23144E+01 +6.68085E-01 -1.66153E+01 -1.83914E+00 -3.26031E+00 +3.68101E+00 +1.08607E+01
 +1.46759E+01 +1.77448E+01 +2.35234E+01 +1.38809E+01 +2.27670E+01 +3.09050E+00 +1.08352E+01 -5.83766E+00
 -6.10871E+00 -5.37829E+00 -1.79457E+01 +5.05478E+00 -1.75948E+01 +1.83041E+01 -6.19753E+00 +2.44187E+01
 +7.45599E+00 +1.79335E+01 +1.30733E+01 +2.13843E+00 +6.22912E+00 -1.29459E+01 -8.41997E+00 -1.75730E+01
 -2.04807E+01 -9.21178E+00 -2.13241E+01 +5.64365E+00 -1.02768E+01 +1.61278E+01 +4.97980E+00 +1.47215E+01
 +1.40057E+01 +2.43934E+00 +1.10341E+01 -1.21689E+01 -1.14533E+00 -1.92946E+01 -1.34970E+01 -1.47478E+01
 -1.73264E+01 -2.53240E+00 -1.02614E+01 +8.45825E+00 +2.54673E+00 +1.09180E+01 +1.25063E+01 +3.99677E+00
 +1.36833E+01 -6.71303E+00 +6.50158E+00 -1.36208E+01 -3.26308E+00 -1.24834E+01 -8.97051E+00 -4.85805E+00
 -7.57574E+00 +3.67230E+00 -1.02888E+00 +7.72249E+00 +5.86086E+00 +5.54865E+00 +9.05009E+00 -4.79036E-01
 +7.65506E+00 -6.14319E+00 +3.76599E+00 -8.31728E+00 +4.03163E-01 -6.48881E+00 -5.46751E-01 -2.25541E+00
 +9.51454E-01 +2.24931E+00 +3.71639E+00 +5.58830E+00 +6.36514E+00 +7.25032E+00 +7.83653E+00 +7.26168E+00
 +7.37414E+00 +5.93126E+00 +4.52899E+00 +3.97981E+00 -4.49084E-01 +2.61032E+00 -6.16826E+00 +2.98820E+00
 -1.03305E+01 +5.25207E+00 -1.09336E+01 +7.90467E+00 -7.76530E+00 +8.41841E+00 -2.94771E+00 +4.97029E+00
 +2.10865E-01 -1.87874E+00 -5.03514E-01 -9.00336E+00 -4.43140E+00 -1.25011E+01 -8.25057E+00 -1.03677E+01
 -8.26177E+00 -4.10507E+00 -3.19709E+00 +2.08420E+00 +4.55983E+00 +4.12285E+00 +1.03943E+01 +9.33244E-01
 +1.06270E+01 -4.76442E+00 +5.16615E+00 -8.39239E+00 -2.32032E+00 -6.83743E+00 -6.89816E+00 -7.45651E-01
 -5.76097E+00 +5.89196E+00 -9.87754E-02 +8.56873E+00 +5.86792E+00 +5.45699E+00 +7.94178E+00 -1.32098E+00
 +4.87128E+00 -7.21054E+00 -9.09644E-01 -8.38737E+00 -5.15106E+00 -4.30039E+00 -4.83503E+00 +2.13620E+00
 -2.21160E-01 +6.70712E+00 +5.46860E+00 +6.79264E+00 +8.36760E+00 +2.97973E+00 +6.57921E+00 -1.60461E+00
