 Created: 16-Jan-2021
 $NMID
 ID='D:\BASISSIMULATI'
 FMTDAT='(8E13.5)'
 VOLUME=   1.00000E+00
 TRAMP=   1.00000E+00
 $END
 +6.80409E+01 +1.04247E+01 +5.75134E+01 -9.13726E+00 +2.49875E+01 -1.90726E+01 -1.47586E+01 -1.17274E+01
 -4.39999E+01 +1.00520E+01 -5.09092E+01 +3.43955E+01 -3.51225E+01 +4.70021E+01 -7.21068E+00 +3.91737E+01
 +1.74360E+01 +1.28427E+01 +2.68458E+01 -2.01650E+01 +1.83689E+01 -4.42058E+01 -7.61750E-01 -4.79124E+01
 -1.82003E+01 -2.99586E+01 -2.36947E+01 +4.95197E-01 -1.46653E+01 +2.87371E+01 +2.80602E+00 +4.20257E+01
 +1.78647E+01 +3.56706E+01 +2.12462E+01 +1.46244E+01 +1.04738E+01 -9.90750E+00 -8.91447E+00 -2.66728E+01
 -2.65822E+01 -2.99166E+01 -3.30732E+01 -2.14352E+01 -2.47446E+01 -8.44051E+00 -5.35932E+00 +1.14619E+00
 +1.62708E+01 +3.11877E+00 +3.10263E+01 -1.26610E+00 +3.38984E+01 -6.87146E+00 +2.58086E+01 -8.30611E+00
 +1.21968E+01 -3.28229E+00 -4.38655E-01 +6.21326E+00 -7.89665E+00 +1.53935E+01 -9.72828E+00 +1.96630E+01
 -8.32498E+00 +1.72208E+01 -6.61050E+00 +9.78897E+00 -5.99084E+00 +1.23872E+00 -5.81467E+00 -4.82882E+00
 -4.46284E+00 -6.97277E+00 -1.09017E+00 -6.18987E+00 +3.32061E+00 -4.62208E+00 +6.37844E+00 -3.74419E+00
 +5.89805E+00 -3.33665E+00 +1.57548E+00 -1.92613E+00 -4.48773E+00 +1.68188E+00 -8.87863E+00 +6.93861E+00
 -8.96735E+00 +1.13046E+01 -4.67054E+00 +1.15635E+01 +1.31171E+00 +5.96053E+00 +5.05483E+00 -4.21738E+00
 +3.88541E+00 -1.47721E+01 -1.75112E+00 -2.05828E+01 -8.26734E+00 -1.84239E+01 -1.09107E+01 -8.97323E+00
 -6.65954E+00 +3.26578E+00 +3.67749E+00 +1.22350E+01 +1.54934E+01 +1.35979E+01 +2.26778E+01 +7.17959E+00
 +2.09668E+01 -2.86270E+00 +1.04620E+01 -1.03139E+01 -4.16685E+00 -1.03933E+01 -1.60035E+01 -2.51051E+00
 -1.95089E+01 +9.29014E+00 -1.34627E+01 +1.84892E+01 -1.58982E+00 +1.96801E+01 +9.48647E+00 +1.15974E+01
 +1.38383E+01 -2.09853E+00 +9.39910E+00 -1.47231E+01 -1.02305E+00 -2.01055E+01 -1.14007E+01 -1.58271E+01
 -1.58550E+01 -4.41250E+00 -1.18606E+01 +8.12333E+00 -1.54801E+00 +1.55195E+01 +9.54955E+00 +1.45104E+01
 +1.55484E+01 +6.33556E+00 +1.33575E+01 -4.20218E+00 +4.22502E+00 -1.14991E+01 -7.07083E+00 -1.21541E+01
 -1.48410E+01 -6.59317E+00 -1.54364E+01 +1.46469E+00 -8.96016E+00 +7.26800E+00 +1.06787E+00 +7.68433E+00
 +9.76277E+00 +2.78891E+00 +1.34302E+01 -4.38702E+00 +1.12526E+01 -9.67747E+00 +5.31832E+00 -1.00797E+01
 -8.40730E-01 -5.26905E+00 -4.26478E+00 +2.40446E+00 -4.00549E+00 +9.30129E+00 -1.29812E+00 +1.24058E+01
 +1.46279E+00 +1.07264E+01 +2.23658E+00 +5.52546E+00 +4.53737E-01 -5.88007E-01 -2.82184E+00 -5.08457E+00
 -5.65373E+00 -6.66115E+00 -6.38766E+00 -5.57757E+00 -4.52658E+00 -3.16178E+00 -8.95003E-01 -9.00465E-01
 +2.89736E+00 +3.29389E-01 +5.31372E+00 +5.17632E-01 +5.58462E+00 +2.48967E-01 +3.92379E+00 +1.75568E-01
 +1.25551E+00 +5.87847E-01 -1.30981E+00 +1.30146E+00 -2.94868E+00 +1.85038E+00 -3.35068E+00 +1.80699E+00
 -2.68052E+00 +1.02476E+00 -1.38626E+00 -3.03172E-01 +1.38343E-02 -1.74813E+00 +1.09183E+00 -2.81902E+00
 +1.60937E+00 -3.12154E+00 +1.56701E+00 -2.47262E+00 +1.19276E+00 -9.73046E-01 +8.42010E-01 +9.71291E-01
 +8.11105E-01 +2.72036E+00 +1.13814E+00 +3.59943E+00 +1.51803E+00 +3.19587E+00 +1.43213E+00 +1.62469E+00
 +4.72263E-01 -4.13920E-01 -1.30981E+00 -1.89506E+00 -3.26731E+00 -1.98313E+00 -4.39403E+00 -5.47797E-01
 -3.87017E+00 +1.63823E+00 -1.63029E+00 +3.21092E+00 +1.41613E+00 +2.94403E+00 +3.73156E+00 +5.21746E-01
 +3.95904E+00 -3.11309E+00 +1.77005E+00 -6.11665E+00 -1.77046E+00 -6.69661E+00 -4.62770E+00 -4.16763E+00
 -4.87289E+00 +5.10177E-01 -1.85404E+00 +5.09342E+00 +3.22969E+00 +7.20406E+00 +7.77047E+00 +5.66699E+00
 +9.07405E+00 +1.26712E+00 +5.88826E+00 -3.56965E+00 -7.26432E-01 -6.07246E+00 -7.74676E+00 -4.71372E+00
 -1.16623E+01 -1.79720E-01 -1.03299E+01 +4.88922E+00 -4.19187E+00 +7.32230E+00 +3.85236E+00 +5.25284E+00
 +9.91172E+00 -6.76355E-01 +1.11394E+01 -7.47501E+00 +7.22977E+00 -1.13258E+01 +5.39441E-01 -9.67349E+00
 -5.24681E+00 -2.73261E+00 -7.16716E+00 +6.45765E+00 -4.60120E+00 +1.35147E+01 +4.54644E-01 +1.49604E+01
 +4.60465E+00 +1.00263E+01 +5.06276E+00 +1.03834E+00 +1.29954E+00 -7.81668E+00 -4.61785E+00 -1.26555E+01
 -9.18717E+00 -1.18097E+01 -9.46862E+00 -6.47370E+00 -4.77952E+00 +1.87697E-01 +2.87078E+00 +4.89066E+00
 +9.83648E+00 +5.95769E+00 +1.27680E+01 +3.97175E+00 +1.03334E+01 +1.08450E+00 +3.79835E+00 -5.01984E-01
 -3.78609E+00 +8.73028E-02 -9.24673E+00 +1.98172E+00 -1.08259E+01 +3.29244E+00 -8.76881E+00 +2.45999E+00
 -4.75849E+00 -6.62459E-01 -6.90296E-01 -4.67045E+00 +2.38334E+00 -7.47284E+00 +4.50840E+00 -7.57959E+00
 +6.24435E+00 -4.97956E+00 +7.77640E+00 -1.06105E+00 +8.45066E+00 +2.33778E+00 +7.13511E+00 +4.09340E+00
 +3.19329E+00 +4.38890E+00 -2.63395E+00 +4.34132E+00 -8.16317E+00 +4.93911E+00 -1.07476E+01 +6.06364E+00
 -8.81646E+00 +6.35329E+00 -3.02800E+00 +4.12100E+00 +3.78762E+00 -1.20865E+00 +8.03373E+00 -8.12799E+00
 +7.38685E+00 -1.33503E+01 +2.27046E+00 -1.34491E+01 -4.20941E+00 -7.00078E+00 -7.97565E+00 +4.06709E+00
 -6.43494E+00 +1.49116E+01 -2.28231E-01 +2.00139E+01 +6.86843E+00 +1.61405E+01 +1.00048E+01 +4.37993E+00
 +6.20101E+00 -1.00230E+01 -3.53672E+00 -2.01525E+01 -1.42961E+01 -2.10132E+01 -1.97031E+01 -1.22877E+01
 -1.55077E+01 +1.33460E+00 -2.31163E+00 +1.25692E+01 +1.42210E+01 +1.54627E+01 +2.60015E+01 +8.69658E+00
 +2.67226E+01 -3.60638E+00 +1.53844E+01 -1.41074E+01 -2.85971E+00 -1.63464E+01 -1.91373E+01 -8.45120E+00
 -2.53819E+01 +5.64668E+00 -1.85628E+01 +1.82473E+01 -2.32424E+00 +2.21145E+01 +1.48932E+01 +1.45833E+01
 +2.42772E+01 -7.64818E-01 +2.12458E+01 -1.58592E+01 +7.75520E+00 -2.24344E+01 -8.90632E+00 -1.65414E+01
 -2.01399E+01 -8.00417E-01 -2.06492E+01 +1.68625E+01 -1.11325E+01 +2.73380E+01 +2.36067E+00 +2.50984E+01
 +1.19669E+01 +1.10507E+01 +1.24169E+01 -8.01803E+00 +3.86551E+00 -2.30428E+01 -8.37194E+00 -2.73423E+01
 -1.69376E+01 -1.98505E+01 -1.65954E+01 -5.28281E+00 -7.10796E+00 +8.68292E+00 +6.71877E+00 +1.55424E+01
 +1.77538E+01 +1.31386E+01 +2.04328E+01 +4.26433E+00 +1.36580E+01 -5.40815E+00 +1.18289E+00 -1.07059E+01
 -1.05864E+01 -9.67048E+00 -1.60321E+01 -4.17162E+00 -1.30812E+01 +1.71059E+00 -3.87207E+00 +4.38598E+00
 +6.81705E+00 +2.86315E+00 +1.42843E+01 -9.20424E-01 +1.61601E+01 -3.58806E+00 +1.30433E+01 -2.58716E+00
 +7.42582E+00 +2.20867E+00 +1.82513E+00 +8.49186E+00 -2.60699E+00 +1.30049E+01 -6.19857E+00 +1.35049E+01
 -9.72778E+00 +9.96548E+00 -1.31568E+01 +4.33124E+00 -1.51553E+01 -9.00837E-01 -1.38448E+01 -4.26036E+00
 -8.29404E+00 -5.97940E+00 +3.00698E-01 -7.35807E+00 +8.69908E+00 -9.33319E+00 +1.31259E+01 -1.13377E+01
 +1.14066E+01 -1.13730E+01 +4.41853E+00 -7.39610E+00 -4.14294E+00 +8.28127E-01 -9.70514E+00 +1.07117E+01
 -9.41240E+00 +1.75765E+01 -3.83133E+00 +1.69963E+01 +3.33461E+00 +7.52519E+00 +7.46661E+00 -7.83824E+00
 +5.93407E+00 -2.25348E+01 -7.83751E-02 -2.94720E+01 -6.03631E+00 -2.46941E+01 -6.70513E+00 -9.67927E+00
 +4.71993E-01 +9.12287E+00 +1.32823E+01 +2.34261E+01 +2.53375E+01 +2.73178E+01 +2.92599E+01 +2.02726E+01
 +2.08312E+01 +7.28818E+00 +1.78667E+00 -3.97471E+00 -2.04426E+01 -7.49229E+00 -3.61190E+01 -2.22258E+00
 -3.80459E+01 +7.39705E+00 -2.53189E+01 +1.41090E+01 -3.93109E+00 +1.21725E+01 +1.61668E+01 +9.19881E-01
 +2.60401E+01 -1.45299E+01 +2.21649E+01 -2.58889E+01 +7.93916E+00 -2.62629E+01 -8.42935E+00 -1.41492E+01
 -1.84446E+01 +5.38200E+00 -1.77676E+01 +2.30467E+01 -8.20586E+00 +3.00415E+01 +3.72979E+00 +2.25810E+01
 +1.07757E+01 +3.86757E+00 +9.09781E+00 -1.75322E+01 +3.75802E-01 -3.20028E+01 -9.31093E+00 -3.35840E+01
 -1.30869E+01 -2.26251E+01 -7.30034E+00 -5.12562E+00 +6.29219E+00 +1.07009E+01 +2.13584E+01 +1.86710E+01
 +3.03287E+01 +1.74156E+01 +2.83749E+01 +1.03729E+01 +1.58778E+01 +3.25148E+00 -1.87072E+00 +5.72901E-01
 -1.74480E+01 +3.27028E+00 -2.49762E+01 +8.57586E+00 -2.27366E+01 +1.20543E+01 -1.34734E+01 +1.04453E+01
 -2.46624E+00 +3.62442E+00 +5.37797E+00 -5.38170E+00 +7.77785E+00 -1.22052E+01 +5.58719E+00 -1.36182E+01
 +1.56614E+00 -9.23477E+00 -1.61552E+00 -1.53723E+00 -2.87156E+00 +5.64676E+00 -2.89186E+00 +9.22165E+00
 -3.13229E+00 +8.24343E+00 -4.43872E+00 +3.97557E+00 -6.28679E+00 -1.25101E+00 -7.12549E+00 -5.52028E+00
 -5.53558E+00 -8.20372E+00 -1.36556E+00 -9.77568E+00 +3.96488E+00 -1.08712E+01 +8.23569E+00 -1.13803E+01
 +9.78417E+00 -1.03030E+01 +8.55166E+00 -6.51786E+00 +6.10163E+00 +6.78287E-02 +4.55377E+00 +7.85086E+00
 +5.10031E+00 +1.39580E+01 +7.08370E+00 +1.56737E+01 +8.29889E+00 +1.20774E+01 +6.41744E+00 +4.85453E+00
 +6.84270E-01 -2.34391E+00 -7.20954E+00 -5.77137E+00 -1.37392E+01 -3.68409E+00 -1.54198E+01 +2.55904E+00
 -1.09076E+01 +9.11703E+00 -2.06652E+00 +1.17576E+01 +6.74082E+00 +8.28791E+00 +1.08695E+01 -6.57194E-02
 +7.94449E+00 -9.17674E+00 -6.96128E-01 -1.42234E+01 -1.05493E+01 -1.23884E+01 -1.62767E+01 -4.53325E+00
 -1.45843E+01 +5.13471E+00 -6.06960E+00 +1.12792E+01 +5.01756E+00 +1.03413E+01 +1.30138E+01 +2.53095E+00
 +1.38852E+01 -8.21777E+00 +7.41642E+00 -1.63286E+01 -2.65602E+00 -1.75729E+01 -1.06466E+01 -1.13316E+01
 -1.19722E+01 -8.91617E-01 -5.59722E+00 +8.37267E+00 +5.43697E+00 +1.19229E+01 +1.56543E+01 +8.47928E+00
 +2.00352E+01 +6.31793E-01 +1.65851E+01 -6.66103E+00 +7.22669E+00 -8.82966E+00 -3.39090E+00 -4.18823E+00
 -1.04400E+01 +5.17375E+00 -1.13960E+01 +1.45397E+01 -7.13548E+00 +1.90815E+01 -1.14590E+00 +1.63615E+01
 +2.60680E+00 +7.50580E+00 +1.91250E+00 -3.50201E+00 -2.57185E+00 -1.19329E+01 -7.87288E+00 -1.46492E+01
 -1.05114E+01 -1.14471E+01 -8.50571E+00 -4.80399E+00 -2.45865E+00 +1.68231E+00 +4.81401E+00 +5.21292E+00
 +9.82969E+00 +5.02358E+00 +1.02614E+01 +2.37288E+00 +6.05421E+00 -5.42964E-01 -6.91176E-01 -2.00827E+00
 -6.89789E+00 -1.70074E+00 -1.00409E+01 -6.43175E-01 -9.20809E+00 -3.38575E-01 -5.22618E+00 -1.69035E+00
 +5.99839E-02 -4.37565E+00 +4.82850E+00 -7.01261E+00 +8.03475E+00 -7.96753E+00 +9.54228E+00 -6.28753E+00
 +9.71752E+00 -2.21570E+00 +8.88176E+00 +2.96467E+00 +7.03158E+00 +7.60249E+00 +3.99128E+00 +1.04389E+01
 -1.68193E-01 +1.10335E+01 -4.80014E+00 +9.69240E+00 -8.73468E+00 +7.05351E+00 -1.07399E+01 +3.67045E+00
