 Created: 16-Jan-2021
 $NMID
 ID='D:\BASISSIMULATI'
 FMTDAT='(8E13.5)'
 VOLUME=   1.00000E+00
 TRAMP=   1.00000E+00
 $END
 +7.90047E+01 +1.19933E+01 +3.22738E+01 +6.92154E+01 -3.73998E+01 +5.60735E+01 -5.58677E+01 -7.63451E+00
 -8.89581E+00 -4.80256E+01 +4.42689E+01 -2.14884E+01 +4.03959E+01 +3.75488E+01 -1.58971E+01 +5.85532E+01
 -5.95758E+01 +1.66083E+01 -4.14497E+01 -4.01764E+01 +1.54911E+01 -4.76854E+01 +4.38977E+01 -2.06505E-01
 +1.07283E+01 +4.35901E+01 -4.44006E+01 +2.91489E+01 -5.49398E+01 -3.04849E+01 -4.10596E+00 -6.90768E+01
 +5.54621E+01 -4.25113E+01 +6.10656E+01 +2.13354E+01 +1.00990E+01 +5.45063E+01 -3.84978E+01 +2.53591E+01
 -3.17807E+01 -2.75814E+01 +1.84014E+01 -4.14302E+01 +5.13870E+01 -5.97834E-01 +2.82110E+01 +4.73765E+01
 -2.48297E+01 +4.80601E+01 -4.82325E+01 +2.43718E+00 -1.83408E+01 -3.58517E+01 +2.64263E+01 -2.35255E+01
 +3.12194E+01 +2.25626E+01 -1.14363E+01 +4.56774E+01 -5.31032E+01 +1.51051E+01 -4.51250E+01 -3.83800E+01
 +5.90575E+00 -5.75357E+01 +4.59635E+01 -2.32796E+01 +3.47117E+01 +2.47828E+01 -1.01911E+01 +3.41346E+01
 -3.50368E+01 -1.81574E+00 -1.16102E+01 -3.83927E+01 +3.22059E+01 -3.20582E+01 +4.61673E+01 +1.04813E+01
 +1.53761E+01 +4.17862E+01 -2.41917E+01 +2.89768E+01 -2.84966E+01 -9.49030E+00 +4.00315E+00 -2.67673E+01
 +3.18760E+01 -2.31518E+00 +1.94690E+01 +3.49214E+01 -2.19821E+01 +4.05014E+01 -4.75435E+01 +5.56235E+00
 -2.98302E+01 -3.34555E+01 +1.06503E+01 -3.64454E+01 +2.97314E+01 -4.26973E+00 +9.47492E+00 +2.38999E+01
 -2.31667E+01 +1.59276E+01 -2.86647E+01 -1.77298E+01 +1.09669E-01 -3.77536E+01 +3.12981E+01 -2.14840E+01
 +3.16146E+01 +1.23402E+01 +3.81832E+00 +2.65979E+01 -1.81948E+01 +8.51745E+00 -9.33939E+00 -1.70333E+01
 +1.83535E+01 -1.75576E+01 +3.07284E+01 +9.46959E+00 +1.12091E+01 +3.43418E+01 -2.06359E+01 +2.95225E+01
 -3.19052E+01 +5.50607E-01 -1.33535E+01 -2.12259E+01 +1.15123E+01 -1.44322E+01 +1.42126E+01 +9.31095E+00
 -6.81066E+00 +2.02558E+01 -2.60121E+01 +4.79825E+00 -2.08294E+01 -2.01467E+01 +3.22256E+00 -2.76719E+01
 +2.02584E+01 -1.14264E+01 +1.40702E+01 +8.59326E+00 -4.43956E+00 +1.01099E+01 -1.13111E+01 -6.21954E+00
 +2.48494E+00 -1.88675E+01 +2.13906E+01 -1.09846E+01 +2.38444E+01 +1.05608E+01 +6.75851E+00 +2.37126E+01
 -1.18452E+01 +1.63187E+01 -1.37789E+01 -1.13692E+00 -5.24445E-01 -8.59690E+00 +9.97910E+00 +8.38448E-01
 +4.48783E+00 +1.43545E+01 -1.11580E+01 +1.51689E+01 -1.98679E+01 +1.50239E+00 -1.30095E+01 -1.25056E+01
 +7.80611E-01 -1.35666E+01 +6.60011E+00 -3.69739E+00 +2.80434E-01 +3.50228E+00 -8.00484E+00 -8.81185E-01
 -6.43647E+00 -1.13978E+01 +4.92144E+00 -1.53847E+01 +1.48745E+01 -7.61727E+00 +1.41136E+01 +4.40276E+00
 +5.07571E+00 +9.54658E+00 -1.87948E+00 +5.23445E+00 -4.39387E-01 -9.16615E-01 +5.45376E+00 -6.41424E-01
 +7.25562E+00 +5.89266E+00 +1.76268E+00 +1.12985E+01 -6.01266E+00 +9.87102E+00 -9.24330E+00 +3.48960E+00
 -6.73694E+00 -1.48686E+00 -3.18576E+00 -1.66063E+00 -3.03657E+00 +3.79427E-01 -5.67244E+00 +4.54192E-02
 -6.95277E+00 -3.75389E+00 -4.35217E+00 -7.86609E+00 +5.28607E-01 -8.86557E+00 +4.28137E+00 -6.56013E+00
 +5.33928E+00 -3.40136E+00 +4.79277E+00 -1.42201E+00 +4.32561E+00 -6.03896E-01 +4.39182E+00 +8.40573E-02
 +4.50053E+00 +1.12076E+00 +4.35021E+00 +2.35928E+00 +3.91666E+00 +3.81313E+00 +2.76804E+00 +5.57860E+00
 +2.71912E-01 +6.96262E+00 -3.15066E+00 +6.57799E+00 -5.65388E+00 +3.96199E+00 -5.67822E+00 +7.21645E-01
 -3.97173E+00 -8.17508E-01 -3.07224E+00 -3.35417E-01 -4.28718E+00 -1.75819E-01 -5.72860E+00 -2.56887E+00
 -4.27027E+00 -6.46443E+00 +4.35696E-01 -8.13200E+00 +4.80874E+00 -5.42394E+00 +5.04663E+00 -7.87777E-01
 +1.71674E+00 +1.02862E+00 -4.32813E-01 -1.54769E+00 +2.16734E+00 -4.66581E+00 +7.37453E+00 -3.18605E+00
 +9.25888E+00 +3.16499E+00 +4.78786E+00 +8.88000E+00 -2.34312E+00 +8.55372E+00 -5.51339E+00 +3.06644E+00
 -2.59272E+00 -1.23430E+00 +1.59407E+00 +2.46899E-01 +8.79771E-01 +4.97361E+00 -4.88143E+00 +6.17567E+00
 -9.37688E+00 +8.96082E-01 -7.11309E+00 -6.19623E+00 -4.15420E-02 -7.94164E+00 +4.38396E+00 -3.02023E+00
 +1.75225E+00 +2.29325E+00 -4.02898E+00 +1.28208E+00 -5.07832E+00 -5.27601E+00 +1.27663E+00 -9.70579E+00
 +9.09214E+00 -6.13755E+00 +1.03150E+01 +2.61106E+00 +3.87684E+00 +8.00163E+00 -3.08408E+00 +5.31943E+00
 -3.34102E+00 -1.13127E+00 +2.27940E+00 -3.15260E+00 +6.09393E+00 +1.84172E+00 +2.64515E+00 +7.93489E+00
 -4.90838E+00 +7.71794E+00 -8.49252E+00 +9.84165E-01 -4.53550E+00 -5.02332E+00 +1.90186E+00 -4.05578E+00
 +3.07686E+00 +1.88542E+00 -2.37192E+00 +4.93248E+00 -7.80582E+00 +5.71624E-01 -6.26783E+00 -7.02588E+00
 +1.46235E+00 -9.71055E+00 +7.71264E+00 -4.60396E+00 +6.57837E+00 +2.75437E+00 +3.78761E-01 +4.82054E+00
 -3.35146E+00 +4.73114E-01 -5.85480E-01 -4.16621E+00 +4.89274E+00 -3.12670E+00 +6.29546E+00 +2.59711E+00
 +1.81214E+00 +6.56773E+00 -3.55091E+00 +4.60645E+00 -4.09383E+00 -5.01548E-01 -5.06546E-02 -2.59782E+00
 +2.98725E+00 +5.07107E-01 +8.62928E-01 +4.63381E+00 -4.29633E+00 +4.35098E+00 -6.71059E+00 -6.47694E-01
 -3.68185E+00 -5.32909E+00 +1.51164E+00 -5.20386E+00 +3.64135E+00 -1.23084E+00 +1.41933E+00 +1.76419E+00
 -1.57849E+00 +8.37248E-01 -1.54828E+00 -2.07192E+00 +1.20622E+00 -3.03586E+00 +3.20598E+00 -9.57748E-01
 +2.32442E+00 +1.52740E+00 +1.48110E-01 +1.70510E+00 -4.44154E-01 +1.04628E-01 +9.52604E-01 -5.48037E-01
 +1.97041E+00 +9.38190E-01 +7.59564E-01 +2.72505E+00 -1.56346E+00 +2.47002E+00 -2.43978E+00 +4.12724E-01
 -1.22708E+00 -1.02367E+00 +7.77685E-02 -4.88635E-01 -3.40276E-01 +5.72630E-01 -1.58664E+00 +4.96673E-02
 -1.31353E+00 -1.72482E+00 +8.27669E-01 -2.21322E+00 +2.28026E+00 -1.94107E-01 +8.15918E-01 +2.10172E+00
 -2.12364E+00 +1.48592E+00 -2.67865E+00 -1.85715E+00 +5.72479E-01 -3.92664E+00 +4.20654E+00 -1.59085E+00
 +3.62859E+00 +3.08927E+00 -1.12222E+00 +4.68962E+00 -4.72984E+00 +8.96817E-01 -2.65633E+00 -4.12834E+00
 +3.02083E+00 -4.21597E+00 +5.45893E+00 +1.26008E+00 +1.13638E+00 +5.96018E+00 -5.33232E+00 +3.77150E+00
 -6.06363E+00 -3.48718E+00 +6.10333E-01 -7.44163E+00 +7.38793E+00 -2.84415E+00 +6.07131E+00 +5.62514E+00
 -2.46332E+00 +8.12768E+00 -8.50220E+00 +1.21671E+00 -4.57076E+00 -7.39954E+00 +5.26319E+00 -7.30821E+00
 +9.37484E+00 +2.14236E+00 +2.10261E+00 +1.02225E+01 -8.86571E+00 +6.89856E+00 -1.06903E+01 -4.95700E+00
 -4.47657E-01 -1.19897E+01 +1.05989E+01 -5.59582E+00 +9.44938E+00 +7.43805E+00 -3.23639E+00 +1.19782E+01
 -1.30321E+01 +2.02152E+00 -8.03095E+00 -1.16036E+01 +6.89272E+00 -1.30870E+01 +1.49389E+01 -6.51171E-02
 +6.63550E+00 +1.29209E+01 -8.62975E+00 +1.08401E+01 -1.29054E+01 -4.03188E+00 -6.58702E-01 -1.40328E+01
 +1.39901E+01 -6.46726E+00 +1.31077E+01 +1.09009E+01 -3.79336E+00 +1.79260E+01 -1.80934E+01 +5.37062E+00
 -1.30222E+01 -1.34567E+01 +6.41954E+00 -1.71305E+01 +1.81872E+01 -8.77322E-01 +8.20240E+00 +1.70195E+01
 -1.28346E+01 +1.55649E+01 -2.09170E+01 -4.57499E+00 -6.18128E+00 -2.10664E+01 +1.51994E+01 -1.51786E+01
 +1.91287E+01 +6.36824E+00 +1.47020E+00 +1.86631E+01 -1.66769E+01 +7.37016E+00 -1.32127E+01 -1.41105E+01
 +8.78454E+00 -1.96569E+01 +2.37275E+01 -1.01794E+00 +1.29409E+01 +2.15429E+01 -1.28473E+01 +2.18772E+01
 -2.47199E+01 -1.49318E+00 -8.64461E+00 -2.25059E+01 +1.75268E+01 -1.68131E+01 +2.36031E+01 +9.85592E+00
 +1.60809E+00 +2.73240E+01 -2.43731E+01 +1.50981E+01 -2.51719E+01 -1.38219E+01 +4.18173E-02 -2.73156E+01
 +2.24990E+01 -1.08545E+01 +1.68161E+01 +1.56112E+01 -9.49239E+00 +2.05823E+01 -2.44313E+01 -2.22530E+00
 -8.79954E+00 -2.59672E+01 +2.06862E+01 -2.15289E+01 +2.99053E+01 +8.05095E+00 +6.93349E+00 +2.98845E+01
 -2.30586E+01 +1.86644E+01 -2.57946E+01 -1.34905E+01 +2.59185E+00 -2.98223E+01 +3.01459E+01 -1.06971E+01
 +2.49464E+01 +2.33257E+01 -8.28870E+00 +3.42191E+01 -3.30650E+01 +9.67378E+00 -2.24900E+01 -2.26979E+01
 +1.00475E+01 -2.68609E+01 +2.63820E+01 +3.04324E-01 +7.75330E+00 +2.55094E+01 -2.32767E+01 +1.78074E+01
 -2.88995E+01 -1.50034E+01 -3.88906E-01 -3.47981E+01 +3.07833E+01 -1.72968E+01 +2.87032E+01 +1.89158E+01
 -5.06967E+00 +3.27523E+01 -3.21417E+01 +7.78575E+00 -2.07269E+01 -2.79877E+01 +1.75095E+01 -3.32939E+01
 +3.98951E+01 -6.57038E-01 +2.09622E+01 +3.45413E+01 -1.84961E+01 +3.39130E+01 -3.50240E+01 -4.46245E-01
 -1.19831E+01 -2.86729E+01 +2.18041E+01 -1.90692E+01 +2.57390E+01 +1.55201E+01 -5.31640E+00 +3.28815E+01
 -3.48970E+01 +1.07723E+01 -2.72877E+01 -2.66557E+01 +1.04403E+01 -3.63281E+01 +3.56794E+01 -6.32472E+00
 +1.91523E+01 +2.93861E+01 -2.06882E+01 +2.92875E+01 -3.78597E+01 -7.79944E+00 -1.11985E+01 -4.04655E+01
 +3.09761E+01 -3.13431E+01 +4.25059E+01 +1.03702E+01 +1.15311E+01 +3.92078E+01 -2.63932E+01 +2.49573E+01
 -2.91679E+01 -1.34590E+01 +3.89771E+00 -3.04252E+01 +3.20361E+01 -6.41345E+00 +2.07151E+01 +2.97105E+01
 -1.80829E+01 +3.45063E+01 -3.96134E+01 +7.65650E-01 -1.83889E+01 -3.35707E+01 +2.16819E+01 -2.90234E+01
 +3.42319E+01 +9.41769E+00 +3.86429E+00 +3.71996E+01 -3.54093E+01 +2.09540E+01 -3.83691E+01 -2.29120E+01
 -6.13500E-02 -4.62348E+01 +3.83109E+01 -2.34447E+01 +3.59141E+01 +1.97107E+01 -1.87186E+00 +3.57529E+01
 -3.04874E+01 +9.35163E+00 -1.76336E+01 -2.61121E+01 +2.00858E+01 -2.78359E+01 +3.71537E+01 +6.84481E+00
 +1.22909E+01 +3.77010E+01 -2.67365E+01 +2.85582E+01 -3.52586E+01 -1.04620E+01 -3.62258E+00 -3.43120E+01
 +3.11492E+01 -1.50212E+01 +2.76638E+01 +2.55847E+01 -1.20515E+01 +4.03250E+01 -4.42192E+01 +1.04883E+01
 -3.27430E+01 -3.25398E+01 +9.99943E+00 -4.25983E+01 +3.74352E+01 -1.06619E+01 +2.15567E+01 +2.57535E+01
 -1.61480E+01 +2.59214E+01 -3.04427E+01 -7.98427E+00 -4.58056E+00 -3.45475E+01 +3.10416E+01 -2.15892E+01
 +3.47161E+01 +1.67226E+01 +1.91595E+00 +3.66584E+01 -2.95429E+01 +1.58004E+01 -2.33835E+01 -2.08920E+01
 +1.29939E+01 -2.98418E+01 +3.67168E+01 +7.65261E-01 +1.85689E+01 +3.69648E+01 -2.33307E+01 +3.74677E+01
 -4.38101E+01 +5.47967E-01 -2.15731E+01 -3.41057E+01 +1.73108E+01 -3.03421E+01 +2.96583E+01 +4.19293E+00
 +4.06687E+00 +2.80092E+01 -2.73052E+01 +1.37173E+01 -2.66872E+01 -2.12501E+01 +5.86696E+00 -3.57634E+01
 +3.32756E+01 -1.28188E+01 +2.47674E+01 +2.11920E+01 -8.63479E+00 +2.74640E+01 -2.71918E+01 -2.25038E-01
